[Header]
Application Name,LabSolutions
Version,5.97 SP1
Data File Name,C:\Users\cremerlab\Desktop\griffin\2021-04-05_NC_DM_calibration\2021-04-05_NC_DM_2.5mM_calibration_452021_010_010.lcd
Output Date,4/5/2021
Output Time,11:48:21 PM

[File Information]
Type,Data File
Generated,4/5/2021 11:08:02 PM
Generated by,System Administrator
Modified,4/5/2021 11:48:21 PM
Modified by,System Administrator

[Sample Information]
Operator Name,System Administrator
Acquired,4/5/2021 11:08:21 PM
Sample Type,1:Standard
Level,1
Sample Name,2021-04-05_NC_glucose_glycerol_acetate_0.5mM
Sample ID,010
ISTD Amount1,1
ISTD Amount2,1
ISTD Amount3,1
ISTD Amount4,1
ISTD Amount5,1
ISTD Amount6,1
ISTD Amount7,1
ISTD Amount8,1
ISTD Amount9,1
ISTD Amount10,1
ISTD Amount11,1
ISTD Amount12,1
ISTD Amount13,1
ISTD Amount14,1
ISTD Amount15,1
ISTD Amount16,1
ISTD Amount17,1
ISTD Amount18,1
ISTD Amount19,1
ISTD Amount20,1
ISTD Amount21,1
ISTD Amount22,1
ISTD Amount23,1
ISTD Amount24,1
ISTD Amount25,1
ISTD Amount26,1
ISTD Amount27,1
ISTD Amount28,1
ISTD Amount29,1
ISTD Amount30,1
ISTD Amount31,1
ISTD Amount32,1
Sample Amount,1
Dilution Factor,1
Vial#,10
Injection Volume,20

[Original Files]
Data File,C:\Users\cremerlab\Desktop\griffin\2021-04-05_NC_DM_calibration\2021-04-05_NC_DM_2.5mM_calibration_452021_010_010.lcd
Method File,C:\Users\cremerlab\Desktop\griffin\2021-04-05_NC_DM_calibration\2021-04-05_2.5mM_mobile.lcm
Batch File,C:\Users\cremerlab\Desktop\griffin\2021-04-05_NC_DM_calibration\2021-04-05_NC_DM_2.5mM_calibration.lcb
Report Format File,c:\LabSolutions\System\DEFAULT.lsr

[File Description]


[Configuration]
Instrument Name,HPLC-PC-Instrument1
Instrument #,1
Line #,1
# of Detectors,2
Detector ID,Detector A,Detector B
Detector Name,Detector A,Detector B
# of Channels,1,1

[Peak Table(Detector A)]
# of Peaks,0

[Peak Table(Detector B)]
# of Peaks,5
Peak#,R.Time,I.Time,F.Time,Area,Height,A/H,Conc.,Mark,ID#,Name,k',Plate #,Plate Ht.,Tailing,Resolution,Sep.Factor,Area Ratio,Height Ratio,Conc. %,Norm Conc.
1,11.004,10.608,12.125,1371353,80328,17.072,0.000,   ,,,0.000,9441,15.889,0.953,0.000,0.000,0,0,0.000,0.000
2,14.354,12.625,15.225,3553425,81134,43.797,0.000,   ,,,0.304,2879,52.093,0.617,4.399,0.000,0,0,0.000,0.000
3,15.662,15.225,16.492,55804,2113,26.408,0.000, V ,,,0.423,8583,17.477,0.000,1.498,1.390,0,0,0.000,0.000
4,22.050,21.558,22.700,13494,508,26.542,0.000,   ,,,1.004,15392,9.745,1.075,9.210,2.371,0,0,0.000,0.000
5,25.009,24.583,25.792,5430,190,28.637,0.000,   ,,,1.273,17512,8.565,1.265,4.035,1.268,0,0,0.000,0.000

[LC Chromatogram(Detector B-Ch1)]
Interval(msec),500
# of Points,4801
Start Time(min),0.000
End Time(min),40.000
Intensity Units,mV
Intensity Multiplier,0.001
R.Time (min),Intensity
0.00000,14
0.00833,14
0.01667,8
0.02500,0
0.03333,0
0.04167,1
0.05000,1
0.05833,1
0.06667,2
0.07500,2
0.08333,3
0.09167,3
0.10000,3
0.10833,3
0.11667,3
0.12500,3
0.13333,3
0.14167,3
0.15000,2
0.15833,2
0.16667,2
0.17500,2
0.18333,2
0.19167,2
0.20000,1
0.20833,1
0.21667,1
0.22500,1
0.23333,1
0.24167,0
0.25000,-0
0.25833,-0
0.26667,-0
0.27500,-1
0.28333,-1
0.29167,-1
0.30000,-1
0.30833,-2
0.31667,-2
0.32500,-2
0.33333,-2
0.34167,-3
0.35000,-3
0.35833,-3
0.36667,-4
0.37500,-4
0.38333,-4
0.39167,-4
0.40000,-4
0.40833,-5
0.41667,-5
0.42500,-5
0.43333,-6
0.44167,-6
0.45000,-7
0.45833,-7
0.46667,-8
0.47500,-8
0.48333,-9
0.49167,-9
0.50000,-9
0.50833,-9
0.51667,-10
0.52500,-11
0.53333,-11
0.54167,-12
0.55000,-13
0.55833,-13
0.56667,-14
0.57500,-14
0.58333,-15
0.59167,-16
0.60000,-16
0.60833,-17
0.61667,-18
0.62500,-19
0.63333,-20
0.64167,-21
0.65000,-22
0.65833,-23
0.66667,-24
0.67500,-25
0.68333,-26
0.69167,-27
0.70000,-28
0.70833,-29
0.71667,-29
0.72500,-30
0.73333,-31
0.74167,-32
0.75000,-32
0.75833,-33
0.76667,-34
0.77500,-34
0.78333,-35
0.79167,-36
0.80000,-36
0.80833,-37
0.81667,-37
0.82500,-38
0.83333,-38
0.84167,-39
0.85000,-39
0.85833,-39
0.86667,-40
0.87500,-40
0.88333,-40
0.89167,-40
0.90000,-40
0.90833,-40
0.91667,-41
0.92500,-41
0.93333,-41
0.94167,-41
0.95000,-40
0.95833,-40
0.96667,-39
0.97500,-39
0.98333,-38
0.99167,-38
1.00000,-37
1.00833,-36
1.01667,-36
1.02500,-35
1.03333,-34
1.04167,-33
1.05000,-33
1.05833,-32
1.06667,-31
1.07500,-30
1.08333,-29
1.09167,-28
1.10000,-26
1.10833,-26
1.11667,-24
1.12500,-23
1.13333,-21
1.14167,-20
1.15000,-19
1.15833,-17
1.16667,-16
1.17500,-15
1.18333,-14
1.19167,-13
1.20000,-11
1.20833,-10
1.21667,-9
1.22500,-8
1.23333,-7
1.24167,-5
1.25000,-5
1.25833,-4
1.26667,-3
1.27500,-2
1.28333,-1
1.29167,-1
1.30000,-1
1.30833,-1
1.31667,-0
1.32500,0
1.33333,0
1.34167,1
1.35000,1
1.35833,1
1.36667,1
1.37500,1
1.38333,1
1.39167,1
1.40000,0
1.40833,0
1.41667,1
1.42500,0
1.43333,0
1.44167,-0
1.45000,-0
1.45833,-0
1.46667,-1
1.47500,-1
1.48333,-1
1.49167,-1
1.50000,-1
1.50833,-2
1.51667,-2
1.52500,-3
1.53333,-3
1.54167,-4
1.55000,-4
1.55833,-4
1.56667,-5
1.57500,-5
1.58333,-5
1.59167,-6
1.60000,-6
1.60833,-7
1.61667,-8
1.62500,-8
1.63333,-8
1.64167,-8
1.65000,-8
1.65833,-9
1.66667,-10
1.67500,-10
1.68333,-11
1.69167,-11
1.70000,-11
1.70833,-11
1.71667,-11
1.72500,-11
1.73333,-11
1.74167,-11
1.75000,-11
1.75833,-11
1.76667,-11
1.77500,-11
1.78333,-12
1.79167,-12
1.80000,-12
1.80833,-13
1.81667,-13
1.82500,-13
1.83333,-13
1.84167,-14
1.85000,-14
1.85833,-14
1.86667,-14
1.87500,-14
1.88333,-14
1.89167,-14
1.90000,-14
1.90833,-15
1.91667,-15
1.92500,-16
1.93333,-16
1.94167,-16
1.95000,-17
1.95833,-17
1.96667,-17
1.97500,-17
1.98333,-17
1.99167,-17
2.00000,-18
2.00833,-18
2.01667,-18
2.02500,-19
2.03333,-19
2.04167,-19
2.05000,-19
2.05833,-20
2.06667,-20
2.07500,-20
2.08333,-20
2.09167,-21
2.10000,-21
2.10833,-21
2.11667,-21
2.12500,-21
2.13333,-22
2.14167,-23
2.15000,-23
2.15833,-23
2.16667,-24
2.17500,-24
2.18333,-24
2.19167,-24
2.20000,-25
2.20833,-25
2.21667,-26
2.22500,-25
2.23333,-25
2.24167,-25
2.25000,-25
2.25833,-25
2.26667,-25
2.27500,-26
2.28333,-25
2.29167,-26
2.30000,-26
2.30833,-26
2.31667,-26
2.32500,-26
2.33333,-26
2.34167,-26
2.35000,-25
2.35833,-25
2.36667,-25
2.37500,-24
2.38333,-24
2.39167,-24
2.40000,-23
2.40833,-23
2.41667,-22
2.42500,-22
2.43333,-22
2.44167,-21
2.45000,-21
2.45833,-21
2.46667,-21
2.47500,-20
2.48333,-19
2.49167,-18
2.50000,-17
2.50833,-17
2.51667,-16
2.52500,-15
2.53333,-15
2.54167,-14
2.55000,-13
2.55833,-12
2.56667,-11
2.57500,-10
2.58333,-9
2.59167,-8
2.60000,-7
2.60833,-6
2.61667,-5
2.62500,-4
2.63333,-3
2.64167,-2
2.65000,-2
2.65833,-1
2.66667,0
2.67500,1
2.68333,2
2.69167,3
2.70000,4
2.70833,5
2.71667,5
2.72500,6
2.73333,7
2.74167,7
2.75000,8
2.75833,8
2.76667,9
2.77500,9
2.78333,9
2.79167,10
2.80000,10
2.80833,11
2.81667,11
2.82500,11
2.83333,12
2.84167,13
2.85000,13
2.85833,14
2.86667,14
2.87500,14
2.88333,14
2.89167,13
2.90000,13
2.90833,13
2.91667,12
2.92500,12
2.93333,12
2.94167,11
2.95000,11
2.95833,11
2.96667,11
2.97500,11
2.98333,10
2.99167,10
3.00000,10
3.00833,10
3.01667,9
3.02500,9
3.03333,9
3.04167,9
3.05000,8
3.05833,8
3.06667,7
3.07500,7
3.08333,7
3.09167,7
3.10000,6
3.10833,6
3.11667,6
3.12500,5
3.13333,5
3.14167,5
3.15000,5
3.15833,5
3.16667,4
3.17500,5
3.18333,4
3.19167,4
3.20000,4
3.20833,4
3.21667,4
3.22500,4
3.23333,4
3.24167,5
3.25000,5
3.25833,5
3.26667,5
3.27500,5
3.28333,5
3.29167,5
3.30000,6
3.30833,6
3.31667,5
3.32500,5
3.33333,5
3.34167,5
3.35000,5
3.35833,6
3.36667,6
3.37500,6
3.38333,6
3.39167,6
3.40000,6
3.40833,6
3.41667,7
3.42500,7
3.43333,7
3.44167,6
3.45000,6
3.45833,6
3.46667,6
3.47500,6
3.48333,6
3.49167,5
3.50000,5
3.50833,5
3.51667,5
3.52500,5
3.53333,5
3.54167,5
3.55000,5
3.55833,5
3.56667,5
3.57500,4
3.58333,4
3.59167,4
3.60000,4
3.60833,3
3.61667,2
3.62500,2
3.63333,2
3.64167,1
3.65000,1
3.65833,0
3.66667,0
3.67500,-0
3.68333,-1
3.69167,-1
3.70000,-2
3.70833,-2
3.71667,-3
3.72500,-3
3.73333,-3
3.74167,-4
3.75000,-5
3.75833,-5
3.76667,-6
3.77500,-6
3.78333,-7
3.79167,-8
3.80000,-8
3.80833,-8
3.81667,-9
3.82500,-9
3.83333,-10
3.84167,-10
3.85000,-11
3.85833,-11
3.86667,-12
3.87500,-12
3.88333,-12
3.89167,-12
3.90000,-12
3.90833,-12
3.91667,-13
3.92500,-13
3.93333,-13
3.94167,-13
3.95000,-13
3.95833,-13
3.96667,-13
3.97500,-13
3.98333,-13
3.99167,-13
4.00000,-13
4.00833,-13
4.01667,-13
4.02500,-13
4.03333,-13
4.04167,-13
4.05000,-13
4.05833,-13
4.06667,-13
4.07500,-13
4.08333,-13
4.09167,-13
4.10000,-13
4.10833,-12
4.11667,-12
4.12500,-12
4.13333,-11
4.14167,-11
4.15000,-11
4.15833,-11
4.16667,-11
4.17500,-11
4.18333,-11
4.19167,-11
4.20000,-11
4.20833,-11
4.21667,-11
4.22500,-11
4.23333,-10
4.24167,-10
4.25000,-10
4.25833,-10
4.26667,-9
4.27500,-9
4.28333,-9
4.29167,-9
4.30000,-9
4.30833,-9
4.31667,-9
4.32500,-9
4.33333,-9
4.34167,-9
4.35000,-9
4.35833,-9
4.36667,-9
4.37500,-9
4.38333,-9
4.39167,-9
4.40000,-9
4.40833,-9
4.41667,-9
4.42500,-9
4.43333,-9
4.44167,-9
4.45000,-9
4.45833,-9
4.46667,-8
4.47500,-8
4.48333,-8
4.49167,-8
4.50000,-8
4.50833,-8
4.51667,-8
4.52500,-8
4.53333,-8
4.54167,-8
4.55000,-8
4.55833,-8
4.56667,-8
4.57500,-8
4.58333,-8
4.59167,-7
4.60000,-7
4.60833,-7
4.61667,-7
4.62500,-6
4.63333,-6
4.64167,-6
4.65000,-6
4.65833,-6
4.66667,-6
4.67500,-5
4.68333,-5
4.69167,-4
4.70000,-4
4.70833,-3
4.71667,-3
4.72500,-3
4.73333,-2
4.74167,-2
4.75000,-1
4.75833,-1
4.76667,-1
4.77500,-1
4.78333,-1
4.79167,-1
4.80000,-1
4.80833,-1
4.81667,-0
4.82500,-0
4.83333,-0
4.84167,-0
4.85000,0
4.85833,0
4.86667,1
4.87500,1
4.88333,2
4.89167,2
4.90000,2
4.90833,2
4.91667,2
4.92500,2
4.93333,2
4.94167,2
4.95000,2
4.95833,2
4.96667,2
4.97500,2
4.98333,1
4.99167,1
5.00000,1
5.00833,1
5.01667,1
5.02500,0
5.03333,0
5.04167,0
5.05000,0
5.05833,0
5.06667,0
5.07500,-0
5.08333,-0
5.09167,-0
5.10000,-0
5.10833,-1
5.11667,-1
5.12500,-1
5.13333,-2
5.14167,-2
5.15000,-2
5.15833,-2
5.16667,-2
5.17500,-2
5.18333,-3
5.19167,-3
5.20000,-3
5.20833,-3
5.21667,-3
5.22500,-3
5.23333,-3
5.24167,-3
5.25000,-3
5.25833,-3
5.26667,-3
5.27500,-3
5.28333,-3
5.29167,-3
5.30000,-4
5.30833,-4
5.31667,-3
5.32500,-3
5.33333,-3
5.34167,-4
5.35000,-4
5.35833,-3
5.36667,-3
5.37500,-4
5.38333,-4
5.39167,-4
5.40000,-5
5.40833,-5
5.41667,-5
5.42500,-5
5.43333,-4
5.44167,-4
5.45000,-5
5.45833,-5
5.46667,-6
5.47500,-6
5.48333,-6
5.49167,-6
5.50000,-6
5.50833,-6
5.51667,-6
5.52500,-7
5.53333,-7
5.54167,-7
5.55000,-8
5.55833,-8
5.56667,-8
5.57500,-9
5.58333,-9
5.59167,-9
5.60000,-9
5.60833,-9
5.61667,-9
5.62500,-9
5.63333,-10
5.64167,-11
5.65000,-12
5.65833,-13
5.66667,-13
5.67500,-14
5.68333,-14
5.69167,-15
5.70000,-15
5.70833,-15
5.71667,-16
5.72500,-16
5.73333,-17
5.74167,-18
5.75000,-19
5.75833,-20
5.76667,-20
5.77500,-21
5.78333,-21
5.79167,-21
5.80000,-21
5.80833,-21
5.81667,-21
5.82500,-21
5.83333,-22
5.84167,-22
5.85000,-22
5.85833,-22
5.86667,-22
5.87500,-22
5.88333,-21
5.89167,-21
5.90000,-21
5.90833,-21
5.91667,-20
5.92500,-20
5.93333,-19
5.94167,-19
5.95000,-18
5.95833,-18
5.96667,-18
5.97500,-17
5.98333,-17
5.99167,-16
6.00000,-16
6.00833,-15
6.01667,-15
6.02500,-15
6.03333,-14
6.04167,-13
6.05000,-13
6.05833,-12
6.06667,-11
6.07500,-11
6.08333,-10
6.09167,-10
6.10000,-9
6.10833,-8
6.11667,-8
6.12500,-8
6.13333,-7
6.14167,-7
6.15000,-7
6.15833,-6
6.16667,-6
6.17500,-5
6.18333,-5
6.19167,-4
6.20000,-4
6.20833,-4
6.21667,-5
6.22500,-5
6.23333,-5
6.24167,-6
6.25000,-6
6.25833,-6
6.26667,-6
6.27500,-7
6.28333,-7
6.29167,-7
6.30000,-8
6.30833,-8
6.31667,-9
6.32500,-9
6.33333,-10
6.34167,-10
6.35000,-11
6.35833,-11
6.36667,-12
6.37500,-12
6.38333,-13
6.39167,-14
6.40000,-14
6.40833,-15
6.41667,-16
6.42500,-16
6.43333,-17
6.44167,-18
6.45000,-19
6.45833,-19
6.46667,-19
6.47500,-20
6.48333,-21
6.49167,-21
6.50000,-22
6.50833,-23
6.51667,-23
6.52500,-23
6.53333,-23
6.54167,-23
6.55000,-23
6.55833,-23
6.56667,-23
6.57500,-23
6.58333,-23
6.59167,-23
6.60000,-24
6.60833,-24
6.61667,-23
6.62500,-23
6.63333,-23
6.64167,-23
6.65000,-22
6.65833,-22
6.66667,-22
6.67500,-21
6.68333,-20
6.69167,-20
6.70000,-19
6.70833,-19
6.71667,-18
6.72500,-17
6.73333,-16
6.74167,-16
6.75000,-15
6.75833,-14
6.76667,-13
6.77500,-13
6.78333,-11
6.79167,-10
6.80000,-9
6.80833,-8
6.81667,-8
6.82500,-6
6.83333,-5
6.84167,-4
6.85000,-3
6.85833,-2
6.86667,-0
6.87500,0
6.88333,1
6.89167,2
6.90000,3
6.90833,5
6.91667,6
6.92500,7
6.93333,8
6.94167,9
6.95000,11
6.95833,11
6.96667,12
6.97500,13
6.98333,14
6.99167,15
7.00000,16
7.00833,17
7.01667,18
7.02500,18
7.03333,19
7.04167,19
7.05000,20
7.05833,20
7.06667,21
7.07500,21
7.08333,22
7.09167,22
7.10000,23
7.10833,23
7.11667,23
7.12500,23
7.13333,23
7.14167,23
7.15000,23
7.15833,23
7.16667,23
7.17500,23
7.18333,23
7.19167,23
7.20000,22
7.20833,22
7.21667,21
7.22500,21
7.23333,21
7.24167,20
7.25000,20
7.25833,19
7.26667,19
7.27500,18
7.28333,18
7.29167,17
7.30000,16
7.30833,15
7.31667,14
7.32500,13
7.33333,13
7.34167,12
7.35000,11
7.35833,10
7.36667,9
7.37500,8
7.38333,7
7.39167,6
7.40000,5
7.40833,4
7.41667,3
7.42500,2
7.43333,1
7.44167,0
7.45000,-1
7.45833,-2
7.46667,-3
7.47500,-4
7.48333,-5
7.49167,-6
7.50000,-7
7.50833,-8
7.51667,-9
7.52500,-10
7.53333,-11
7.54167,-12
7.55000,-13
7.55833,-14
7.56667,-15
7.57500,-17
7.58333,-17
7.59167,-18
7.60000,-19
7.60833,-20
7.61667,-20
7.62500,-21
7.63333,-22
7.64167,-22
7.65000,-23
7.65833,-24
7.66667,-25
7.67500,-25
7.68333,-26
7.69167,-26
7.70000,-26
7.70833,-26
7.71667,-26
7.72500,-25
7.73333,-25
7.74167,-25
7.75000,-25
7.75833,-25
7.76667,-24
7.77500,-24
7.78333,-23
7.79167,-23
7.80000,-23
7.80833,-22
7.81667,-21
7.82500,-21
7.83333,-21
7.84167,-20
7.85000,-20
7.85833,-19
7.86667,-18
7.87500,-17
7.88333,-16
7.89167,-15
7.90000,-14
7.90833,-13
7.91667,-12
7.92500,-12
7.93333,-11
7.94167,-10
7.95000,-10
7.95833,-9
7.96667,-8
7.97500,-7
7.98333,-6
7.99167,-5
8.00000,-5
8.00833,-4
8.01667,-3
8.02500,-3
8.03333,-2
8.04167,-1
8.05000,-1
8.05833,-1
8.06667,-1
8.07500,-1
8.08333,-0
8.09167,0
8.10000,1
8.10833,1
8.11667,1
8.12500,1
8.13333,1
8.14167,1
8.15000,1
8.15833,1
8.16667,1
8.17500,1
8.18333,1
8.19167,1
8.20000,1
8.20833,1
8.21667,1
8.22500,1
8.23333,1
8.24167,1
8.25000,1
8.25833,0
8.26667,0
8.27500,-0
8.28333,-0
8.29167,-1
8.30000,-1
8.30833,-1
8.31667,-1
8.32500,-1
8.33333,-2
8.34167,-2
8.35000,-2
8.35833,-3
8.36667,-4
8.37500,-4
8.38333,-5
8.39167,-5
8.40000,-5
8.40833,-5
8.41667,-5
8.42500,-5
8.43333,-5
8.44167,-5
8.45000,-5
8.45833,-5
8.46667,-6
8.47500,-6
8.48333,-6
8.49167,-7
8.50000,-7
8.50833,-7
8.51667,-7
8.52500,-7
8.53333,-7
8.54167,-7
8.55000,-7
8.55833,-7
8.56667,-7
8.57500,-8
8.58333,-8
8.59167,-8
8.60000,-8
8.60833,-8
8.61667,-8
8.62500,-7
8.63333,-7
8.64167,-7
8.65000,-7
8.65833,-6
8.66667,-6
8.67500,-6
8.68333,-6
8.69167,-7
8.70000,-8
8.70833,-8
8.71667,-8
8.72500,-8
8.73333,-8
8.74167,-8
8.75000,-9
8.75833,-9
8.76667,-8
8.77500,-8
8.78333,-8
8.79167,-8
8.80000,-9
8.80833,-8
8.81667,-8
8.82500,-8
8.83333,-8
8.84167,-8
8.85000,-9
8.85833,-9
8.86667,-9
8.87500,-9
8.88333,-9
8.89167,-9
8.90000,-9
8.90833,-9
8.91667,-9
8.92500,-10
8.93333,-10
8.94167,-10
8.95000,-10
8.95833,-11
8.96667,-11
8.97500,-11
8.98333,-11
8.99167,-11
9.00000,-11
9.00833,-12
9.01667,-12
9.02500,-13
9.03333,-13
9.04167,-12
9.05000,-12
9.05833,-12
9.06667,-12
9.07500,-12
9.08333,-12
9.09167,-13
9.10000,-13
9.10833,-13
9.11667,-13
9.12500,-13
9.13333,-13
9.14167,-13
9.15000,-13
9.15833,-13
9.16667,-14
9.17500,-14
9.18333,-14
9.19167,-15
9.20000,-15
9.20833,-16
9.21667,-16
9.22500,-16
9.23333,-16
9.24167,-16
9.25000,-16
9.25833,-16
9.26667,-17
9.27500,-17
9.28333,-16
9.29167,-16
9.30000,-16
9.30833,-16
9.31667,-15
9.32500,-16
9.33333,-16
9.34167,-16
9.35000,-16
9.35833,-16
9.36667,-16
9.37500,-16
9.38333,-16
9.39167,-16
9.40000,-16
9.40833,-16
9.41667,-16
9.42500,-16
9.43333,-16
9.44167,-16
9.45000,-16
9.45833,-15
9.46667,-15
9.47500,-15
9.48333,-15
9.49167,-15
9.50000,-15
9.50833,-15
9.51667,-15
9.52500,-14
9.53333,-14
9.54167,-14
9.55000,-14
9.55833,-13
9.56667,-13
9.57500,-12
9.58333,-11
9.59167,-10
9.60000,-10
9.60833,-9
9.61667,-9
9.62500,-8
9.63333,-8
9.64167,-7
9.65000,-7
9.65833,-6
9.66667,-5
9.67500,-5
9.68333,-4
9.69167,-3
9.70000,-2
9.70833,-1
9.71667,-1
9.72500,0
9.73333,1
9.74167,1
9.75000,2
9.75833,3
9.76667,4
9.77500,5
9.78333,5
9.79167,6
9.80000,6
9.80833,7
9.81667,8
9.82500,8
9.83333,9
9.84167,9
9.85000,10
9.85833,11
9.86667,12
9.87500,12
9.88333,13
9.89167,14
9.90000,14
9.90833,14
9.91667,14
9.92500,14
9.93333,14
9.94167,14
9.95000,14
9.95833,14
9.96667,14
9.97500,14
9.98333,14
9.99167,14
10.00000,13
10.00833,13
10.01667,13
10.02500,13
10.03333,12
10.04167,12
10.05000,12
10.05833,11
10.06667,11
10.07500,11
10.08333,11
10.09167,11
10.10000,11
10.10833,11
10.11667,10
10.12500,9
10.13333,8
10.14167,7
10.15000,6
10.15833,5
10.16667,4
10.17500,4
10.18333,3
10.19167,2
10.20000,1
10.20833,1
10.21667,0
10.22500,-0
10.23333,-1
10.24167,-2
10.25000,-2
10.25833,-3
10.26667,-3
10.27500,-4
10.28333,-4
10.29167,-5
10.30000,-5
10.30833,-6
10.31667,-7
10.32500,-7
10.33333,-7
10.34167,-7
10.35000,-8
10.35833,-9
10.36667,-9
10.37500,-10
10.38333,-11
10.39167,-12
10.40000,-13
10.40833,-15
10.41667,-17
10.42500,-21
10.43333,-27
10.44167,-35
10.45000,-46
10.45833,-61
10.46667,-80
10.47500,-103
10.48333,-133
10.49167,-170
10.50000,-215
10.50833,-268
10.51667,-329
10.52500,-399
10.53333,-476
10.54167,-560
10.55000,-648
10.55833,-738
10.56667,-826
10.57500,-908
10.58333,-978
10.59167,-1031
10.60000,-1060
10.60833,-1058
10.61667,-1018
10.62500,-931
10.63333,-792
10.64167,-591
10.65000,-322
10.65833,23
10.66667,450
10.67500,965
10.68333,1573
10.69167,2279
10.70000,3087
10.70833,4000
10.71667,5021
10.72500,6152
10.73333,7395
10.74167,8750
10.75000,10217
10.75833,11798
10.76667,13491
10.77500,15294
10.78333,17206
10.79167,19225
10.80000,21349
10.80833,23575
10.81667,25898
10.82500,28317
10.83333,30826
10.84167,33420
10.85000,36094
10.85833,38842
10.86667,41654
10.87500,44524
10.88333,47440
10.89167,50390
10.90000,53361
10.90833,56333
10.91667,59287
10.92500,62198
10.93333,65034
10.94167,67760
10.95000,70334
10.95833,72708
10.96667,74827
10.97500,76632
10.98333,78064
10.99167,79062
11.00000,79570
11.00833,79543
11.01667,78949
11.02500,77772
11.03333,76016
11.04167,73708
11.05000,70891
11.05833,67629
11.06667,64000
11.07500,60089
11.08333,55986
11.09167,51782
11.10000,47560
11.10833,43396
11.11667,39355
11.12500,35490
11.13333,31841
11.14167,28435
11.15000,25290
11.15833,22412
11.16667,19800
11.17500,17448
11.18333,15343
11.19167,13470
11.20000,11811
11.20833,10350
11.21667,9067
11.22500,7944
11.23333,6964
11.24167,6111
11.25000,5369
11.25833,4726
11.26667,4168
11.27500,3685
11.28333,3268
11.29167,2906
11.30000,2593
11.30833,2321
11.31667,2086
11.32500,1882
11.33333,1705
11.34167,1551
11.35000,1416
11.35833,1298
11.36667,1195
11.37500,1105
11.38333,1025
11.39167,954
11.40000,891
11.40833,835
11.41667,784
11.42500,739
11.43333,699
11.44167,662
11.45000,628
11.45833,598
11.46667,569
11.47500,543
11.48333,519
11.49167,496
11.50000,476
11.50833,456
11.51667,438
11.52500,421
11.53333,405
11.54167,390
11.55000,376
11.55833,363
11.56667,350
11.57500,338
11.58333,327
11.59167,316
11.60000,305
11.60833,295
11.61667,285
11.62500,276
11.63333,267
11.64167,259
11.65000,251
11.65833,244
11.66667,237
11.67500,230
11.68333,224
11.69167,218
11.70000,212
11.70833,206
11.71667,200
11.72500,195
11.73333,189
11.74167,185
11.75000,180
11.75833,175
11.76667,171
11.77500,167
11.78333,163
11.79167,159
11.80000,156
11.80833,152
11.81667,149
11.82500,146
11.83333,143
11.84167,140
11.85000,137
11.85833,135
11.86667,133
11.87500,131
11.88333,129
11.89167,127
11.90000,125
11.90833,123
11.91667,121
11.92500,120
11.93333,118
11.94167,116
11.95000,114
11.95833,112
11.96667,110
11.97500,108
11.98333,106
11.99167,105
12.00000,104
12.00833,103
12.01667,102
12.02500,102
12.03333,101
12.04167,100
12.05000,100
12.05833,99
12.06667,98
12.07500,98
12.08333,97
12.09167,96
12.10000,96
12.10833,95
12.11667,95
12.12500,94
12.13333,94
12.14167,94
12.15000,93
12.15833,93
12.16667,92
12.17500,92
12.18333,91
12.19167,90
12.20000,90
12.20833,89
12.21667,88
12.22500,88
12.23333,87
12.24167,86
12.25000,85
12.25833,84
12.26667,83
12.27500,82
12.28333,81
12.29167,80
12.30000,79
12.30833,78
12.31667,77
12.32500,75
12.33333,74
12.34167,73
12.35000,71
12.35833,70
12.36667,68
12.37500,67
12.38333,66
12.39167,64
12.40000,63
12.40833,61
12.41667,60
12.42500,59
12.43333,58
12.44167,56
12.45000,55
12.45833,54
12.46667,53
12.47500,52
12.48333,50
12.49167,49
12.50000,48
12.50833,47
12.51667,46
12.52500,45
12.53333,45
12.54167,44
12.55000,43
12.55833,42
12.56667,41
12.57500,41
12.58333,40
12.59167,40
12.60000,40
12.60833,41
12.61667,41
12.62500,42
12.63333,42
12.64167,43
12.65000,43
12.65833,44
12.66667,46
12.67500,48
12.68333,51
12.69167,55
12.70000,59
12.70833,64
12.71667,71
12.72500,80
12.73333,90
12.74167,103
12.75000,117
12.75833,133
12.76667,154
12.77500,177
12.78333,204
12.79167,235
12.80000,270
12.80833,311
12.81667,356
12.82500,407
12.83333,464
12.84167,527
12.85000,596
12.85833,672
12.86667,755
12.87500,845
12.88333,942
12.89167,1046
12.90000,1157
12.90833,1275
12.91667,1400
12.92500,1533
12.93333,1672
12.94167,1818
12.95000,1971
12.95833,2130
12.96667,2297
12.97500,2469
12.98333,2647
12.99167,2832
13.00000,3023
13.00833,3219
13.01667,3421
13.02500,3627
13.03333,3839
13.04167,4056
13.05000,4278
13.05833,4504
13.06667,4734
13.07500,4970
13.08333,5209
13.09167,5452
13.10000,5699
13.10833,5951
13.11667,6206
13.12500,6465
13.13333,6727
13.14167,6993
13.15000,7262
13.15833,7535
13.16667,7810
13.17500,8089
13.18333,8371
13.19167,8656
13.20000,8944
13.20833,9236
13.21667,9530
13.22500,9827
13.23333,10127
13.24167,10431
13.25000,10737
13.25833,11045
13.26667,11357
13.27500,11672
13.28333,11990
13.29167,12310
13.30000,12633
13.30833,12958
13.31667,13287
13.32500,13618
13.33333,13952
13.34167,14289
13.35000,14628
13.35833,14971
13.36667,15316
13.37500,15664
13.38333,16015
13.39167,16369
13.40000,16726
13.40833,17085
13.41667,17447
13.42500,17812
13.43333,18180
13.44167,18551
13.45000,18924
13.45833,19300
13.46667,19680
13.47500,20062
13.48333,20448
13.49167,20836
13.50000,21228
13.50833,21623
13.51667,22020
13.52500,22421
13.53333,22824
13.54167,23231
13.55000,23641
13.55833,24055
13.56667,24471
13.57500,24891
13.58333,25315
13.59167,25741
13.60000,26171
13.60833,26604
13.61667,27040
13.62500,27480
13.63333,27923
13.64167,28369
13.65000,28819
13.65833,29273
13.66667,29730
13.67500,30191
13.68333,30656
13.69167,31124
13.70000,31596
13.70833,32071
13.71667,32550
13.72500,33032
13.73333,33519
13.74167,34009
13.75000,34504
13.75833,35002
13.76667,35504
13.77500,36011
13.78333,36521
13.79167,37035
13.80000,37553
13.80833,38076
13.81667,38603
13.82500,39134
13.83333,39669
13.84167,40209
13.85000,40753
13.85833,41301
13.86667,41854
13.87500,42411
13.88333,42973
13.89167,43540
13.90000,44111
13.90833,44687
13.91667,45268
13.92500,45854
13.93333,46444
13.94167,47039
13.95000,47639
13.95833,48244
13.96667,48855
13.97500,49470
13.98333,50091
13.99167,50717
14.00000,51348
14.00833,51984
14.01667,52626
14.02500,53273
14.03333,53927
14.04167,54586
14.05000,55250
14.05833,55920
14.06667,56595
14.07500,57277
14.08333,57964
14.09167,58656
14.10000,59355
14.10833,60060
14.11667,60771
14.12500,61489
14.13333,62213
14.14167,62943
14.15000,63679
14.15833,64422
14.16667,65171
14.17500,65928
14.18333,66691
14.19167,67461
14.20000,68237
14.20833,69021
14.21667,69811
14.22500,70609
14.23333,71413
14.24167,72225
14.25000,73043
14.25833,73866
14.26667,74695
14.27500,75526
14.28333,76355
14.29167,77175
14.30000,77977
14.30833,78747
14.31667,79464
14.32500,80106
14.33333,80640
14.34167,81032
14.35000,81244
14.35833,81232
14.36667,80956
14.37500,80376
14.38333,79460
14.39167,78181
14.40000,76523
14.40833,74483
14.41667,72068
14.42500,69302
14.43333,66216
14.44167,62857
14.45000,59276
14.45833,55534
14.46667,51692
14.47500,47815
14.48333,43960
14.49167,40185
14.50000,36538
14.50833,33058
14.51667,29777
14.52500,26717
14.53333,23892
14.54167,21306
14.55000,18959
14.55833,16845
14.56667,14951
14.57500,13265
14.58333,11770
14.59167,10450
14.60000,9287
14.60833,8266
14.61667,7371
14.62500,6587
14.63333,5901
14.64167,5300
14.65000,4775
14.65833,4315
14.66667,3911
14.67500,3557
14.68333,3246
14.69167,2972
14.70000,2730
14.70833,2516
14.71667,2327
14.72500,2159
14.73333,2009
14.74167,1876
14.75000,1756
14.75833,1649
14.76667,1553
14.77500,1466
14.78333,1387
14.79167,1316
14.80000,1251
14.80833,1191
14.81667,1138
14.82500,1089
14.83333,1043
14.84167,1001
14.85000,962
14.85833,927
14.86667,893
14.87500,863
14.88333,834
14.89167,807
14.90000,783
14.90833,759
14.91667,737
14.92500,717
14.93333,698
14.94167,680
14.95000,664
14.95833,649
14.96667,634
14.97500,621
14.98333,608
14.99167,596
15.00000,586
15.00833,575
15.01667,566
15.02500,556
15.03333,548
15.04167,540
15.05000,533
15.05833,526
15.06667,519
15.07500,513
15.08333,507
15.09167,502
15.10000,497
15.10833,493
15.11667,489
15.12500,485
15.13333,482
15.14167,478
15.15000,475
15.15833,472
15.16667,469
15.17500,466
15.18333,464
15.19167,462
15.20000,460
15.20833,458
15.21667,457
15.22500,457
15.23333,457
15.24167,458
15.25000,459
15.25833,461
15.26667,464
15.27500,468
15.28333,473
15.29167,479
15.30000,487
15.30833,496
15.31667,507
15.32500,520
15.33333,536
15.34167,554
15.35000,574
15.35833,596
15.36667,622
15.37500,650
15.38333,682
15.39167,716
15.40000,753
15.40833,794
15.41667,837
15.42500,884
15.43333,934
15.44167,987
15.45000,1042
15.45833,1100
15.46667,1161
15.47500,1223
15.48333,1287
15.49167,1352
15.50000,1418
15.50833,1485
15.51667,1552
15.52500,1619
15.53333,1685
15.54167,1749
15.55000,1811
15.55833,1871
15.56667,1928
15.57500,1982
15.58333,2033
15.59167,2079
15.60000,2121
15.60833,2159
15.61667,2191
15.62500,2219
15.63333,2241
15.64167,2258
15.65000,2269
15.65833,2274
15.66667,2274
15.67500,2268
15.68333,2257
15.69167,2240
15.70000,2219
15.70833,2192
15.71667,2161
15.72500,2126
15.73333,2088
15.74167,2045
15.75000,2000
15.75833,1952
15.76667,1901
15.77500,1848
15.78333,1793
15.79167,1737
15.80000,1680
15.80833,1621
15.81667,1563
15.82500,1504
15.83333,1446
15.84167,1388
15.85000,1331
15.85833,1274
15.86667,1219
15.87500,1165
15.88333,1112
15.89167,1061
15.90000,1011
15.90833,963
15.91667,917
15.92500,873
15.93333,831
15.94167,791
15.95000,752
15.95833,716
15.96667,681
15.97500,649
15.98333,618
15.99167,588
16.00000,561
16.00833,535
16.01667,511
16.02500,489
16.03333,467
16.04167,447
16.05000,428
16.05833,411
16.06667,395
16.07500,380
16.08333,366
16.09167,354
16.10000,342
16.10833,331
16.11667,321
16.12500,311
16.13333,302
16.14167,294
16.15000,286
16.15833,279
16.16667,272
16.17500,266
16.18333,260
16.19167,255
16.20000,250
16.20833,246
16.21667,242
16.22500,238
16.23333,235
16.24167,231
16.25000,228
16.25833,225
16.26667,223
16.27500,220
16.28333,218
16.29167,216
16.30000,214
16.30833,213
16.31667,211
16.32500,210
16.33333,208
16.34167,207
16.35000,205
16.35833,204
16.36667,203
16.37500,203
16.38333,202
16.39167,201
16.40000,201
16.40833,200
16.41667,199
16.42500,198
16.43333,198
16.44167,197
16.45000,196
16.45833,196
16.46667,195
16.47500,194
16.48333,194
16.49167,194
16.50000,194
16.50833,194
16.51667,194
16.52500,193
16.53333,193
16.54167,193
16.55000,193
16.55833,192
16.56667,192
16.57500,192
16.58333,191
16.59167,190
16.60000,190
16.60833,189
16.61667,188
16.62500,188
16.63333,187
16.64167,187
16.65000,187
16.65833,186
16.66667,185
16.67500,185
16.68333,184
16.69167,184
16.70000,183
16.70833,182
16.71667,181
16.72500,180
16.73333,179
16.74167,178
16.75000,177
16.75833,176
16.76667,176
16.77500,175
16.78333,174
16.79167,174
16.80000,173
16.80833,172
16.81667,172
16.82500,171
16.83333,169
16.84167,168
16.85000,168
16.85833,167
16.86667,166
16.87500,165
16.88333,165
16.89167,164
16.90000,163
16.90833,162
16.91667,162
16.92500,161
16.93333,160
16.94167,159
16.95000,159
16.95833,158
16.96667,157
16.97500,156
16.98333,156
16.99167,155
17.00000,155
17.00833,154
17.01667,153
17.02500,152
17.03333,152
17.04167,151
17.05000,150
17.05833,150
17.06667,149
17.07500,149
17.08333,149
17.09167,148
17.10000,147
17.10833,147
17.11667,146
17.12500,145
17.13333,144
17.14167,143
17.15000,143
17.15833,142
17.16667,141
17.17500,141
17.18333,140
17.19167,139
17.20000,138
17.20833,137
17.21667,136
17.22500,136
17.23333,136
17.24167,135
17.25000,134
17.25833,132
17.26667,132
17.27500,131
17.28333,129
17.29167,128
17.30000,128
17.30833,127
17.31667,126
17.32500,125
17.33333,124
17.34167,123
17.35000,121
17.35833,121
17.36667,119
17.37500,118
17.38333,117
17.39167,115
17.40000,114
17.40833,113
17.41667,112
17.42500,111
17.43333,109
17.44167,108
17.45000,106
17.45833,104
17.46667,103
17.47500,102
17.48333,100
17.49167,99
17.50000,98
17.50833,96
17.51667,95
17.52500,94
17.53333,92
17.54167,91
17.55000,89
17.55833,88
17.56667,86
17.57500,84
17.58333,82
17.59167,80
17.60000,79
17.60833,77
17.61667,76
17.62500,75
17.63333,74
17.64167,72
17.65000,70
17.65833,69
17.66667,67
17.67500,65
17.68333,64
17.69167,62
17.70000,61
17.70833,59
17.71667,58
17.72500,57
17.73333,55
17.74167,54
17.75000,53
17.75833,53
17.76667,52
17.77500,50
17.78333,49
17.79167,48
17.80000,47
17.80833,46
17.81667,45
17.82500,44
17.83333,43
17.84167,42
17.85000,42
17.85833,42
17.86667,42
17.87500,42
17.88333,42
17.89167,42
17.90000,42
17.90833,42
17.91667,42
17.92500,42
17.93333,42
17.94167,43
17.95000,43
17.95833,43
17.96667,44
17.97500,44
17.98333,45
17.99167,46
18.00000,46
18.00833,46
18.01667,47
18.02500,47
18.03333,48
18.04167,49
18.05000,49
18.05833,50
18.06667,52
18.07500,52
18.08333,53
18.09167,54
18.10000,55
18.10833,57
18.11667,58
18.12500,59
18.13333,60
18.14167,61
18.15000,62
18.15833,63
18.16667,63
18.17500,64
18.18333,65
18.19167,67
18.20000,68
18.20833,68
18.21667,69
18.22500,70
18.23333,71
18.24167,71
18.25000,71
18.25833,72
18.26667,72
18.27500,73
18.28333,73
18.29167,74
18.30000,74
18.30833,74
18.31667,74
18.32500,74
18.33333,75
18.34167,75
18.35000,75
18.35833,75
18.36667,76
18.37500,76
18.38333,76
18.39167,76
18.40000,76
18.40833,76
18.41667,76
18.42500,76
18.43333,76
18.44167,75
18.45000,75
18.45833,74
18.46667,74
18.47500,73
18.48333,74
18.49167,74
18.50000,74
18.50833,74
18.51667,74
18.52500,73
18.53333,73
18.54167,73
18.55000,73
18.55833,74
18.56667,74
18.57500,74
18.58333,74
18.59167,74
18.60000,75
18.60833,75
18.61667,75
18.62500,75
18.63333,76
18.64167,77
18.65000,77
18.65833,77
18.66667,77
18.67500,77
18.68333,78
18.69167,78
18.70000,78
18.70833,79
18.71667,79
18.72500,79
18.73333,79
18.74167,79
18.75000,79
18.75833,79
18.76667,79
18.77500,79
18.78333,79
18.79167,80
18.80000,81
18.80833,81
18.81667,81
18.82500,81
18.83333,81
18.84167,81
18.85000,81
18.85833,81
18.86667,81
18.87500,81
18.88333,81
18.89167,81
18.90000,81
18.90833,81
18.91667,81
18.92500,81
18.93333,81
18.94167,81
18.95000,81
18.95833,81
18.96667,81
18.97500,81
18.98333,80
18.99167,80
19.00000,79
19.00833,79
19.01667,79
19.02500,78
19.03333,78
19.04167,77
19.05000,76
19.05833,76
19.06667,75
19.07500,75
19.08333,74
19.09167,73
19.10000,72
19.10833,71
19.11667,71
19.12500,70
19.13333,70
19.14167,69
19.15000,68
19.15833,67
19.16667,66
19.17500,65
19.18333,65
19.19167,64
19.20000,64
19.20833,63
19.21667,63
19.22500,62
19.23333,61
19.24167,61
19.25000,60
19.25833,60
19.26667,59
19.27500,59
19.28333,58
19.29167,58
19.30000,58
19.30833,57
19.31667,57
19.32500,57
19.33333,56
19.34167,56
19.35000,55
19.35833,55
19.36667,55
19.37500,54
19.38333,54
19.39167,54
19.40000,53
19.40833,53
19.41667,52
19.42500,52
19.43333,51
19.44167,50
19.45000,50
19.45833,50
19.46667,49
19.47500,49
19.48333,48
19.49167,48
19.50000,47
19.50833,46
19.51667,46
19.52500,45
19.53333,45
19.54167,44
19.55000,44
19.55833,43
19.56667,43
19.57500,42
19.58333,42
19.59167,41
19.60000,40
19.60833,40
19.61667,39
19.62500,39
19.63333,39
19.64167,39
19.65000,38
19.65833,38
19.66667,37
19.67500,37
19.68333,37
19.69167,37
19.70000,37
19.70833,37
19.71667,37
19.72500,37
19.73333,37
19.74167,36
19.75000,36
19.75833,36
19.76667,35
19.77500,35
19.78333,35
19.79167,35
19.80000,35
19.80833,35
19.81667,35
19.82500,35
19.83333,35
19.84167,34
19.85000,34
19.85833,34
19.86667,33
19.87500,33
19.88333,32
19.89167,32
19.90000,31
19.90833,31
19.91667,31
19.92500,30
19.93333,29
19.94167,29
19.95000,29
19.95833,28
19.96667,27
19.97500,27
19.98333,27
19.99167,27
20.00000,26
20.00833,26
20.01667,26
20.02500,26
20.03333,25
20.04167,25
20.05000,25
20.05833,24
20.06667,24
20.07500,23
20.08333,23
20.09167,23
20.10000,24
20.10833,24
20.11667,24
20.12500,24
20.13333,23
20.14167,23
20.15000,23
20.15833,24
20.16667,24
20.17500,24
20.18333,24
20.19167,25
20.20000,25
20.20833,26
20.21667,26
20.22500,27
20.23333,27
20.24167,28
20.25000,28
20.25833,29
20.26667,30
20.27500,30
20.28333,31
20.29167,32
20.30000,33
20.30833,34
20.31667,35
20.32500,37
20.33333,38
20.34167,39
20.35000,41
20.35833,42
20.36667,43
20.37500,44
20.38333,45
20.39167,45
20.40000,46
20.40833,47
20.41667,48
20.42500,49
20.43333,50
20.44167,51
20.45000,52
20.45833,52
20.46667,53
20.47500,54
20.48333,54
20.49167,55
20.50000,56
20.50833,56
20.51667,57
20.52500,57
20.53333,57
20.54167,57
20.55000,57
20.55833,58
20.56667,58
20.57500,59
20.58333,59
20.59167,59
20.60000,59
20.60833,58
20.61667,58
20.62500,58
20.63333,58
20.64167,58
20.65000,58
20.65833,58
20.66667,57
20.67500,57
20.68333,56
20.69167,56
20.70000,56
20.70833,55
20.71667,55
20.72500,54
20.73333,53
20.74167,52
20.75000,51
20.75833,51
20.76667,51
20.77500,50
20.78333,49
20.79167,49
20.80000,49
20.80833,48
20.81667,47
20.82500,47
20.83333,46
20.84167,45
20.85000,44
20.85833,44
20.86667,43
20.87500,43
20.88333,43
20.89167,43
20.90000,42
20.90833,42
20.91667,42
20.92500,42
20.93333,41
20.94167,41
20.95000,41
20.95833,41
20.96667,41
20.97500,41
20.98333,41
20.99167,41
21.00000,41
21.00833,41
21.01667,41
21.02500,41
21.03333,41
21.04167,42
21.05000,42
21.05833,42
21.06667,42
21.07500,41
21.08333,41
21.09167,41
21.10000,41
21.10833,41
21.11667,42
21.12500,42
21.13333,42
21.14167,42
21.15000,42
21.15833,42
21.16667,42
21.17500,42
21.18333,42
21.19167,42
21.20000,41
21.20833,41
21.21667,41
21.22500,41
21.23333,40
21.24167,40
21.25000,39
21.25833,39
21.26667,39
21.27500,38
21.28333,37
21.29167,37
21.30000,36
21.30833,35
21.31667,35
21.32500,34
21.33333,34
21.34167,33
21.35000,33
21.35833,32
21.36667,31
21.37500,30
21.38333,29
21.39167,28
21.40000,28
21.40833,27
21.41667,27
21.42500,27
21.43333,26
21.44167,26
21.45000,26
21.45833,26
21.46667,26
21.47500,26
21.48333,26
21.49167,25
21.50000,26
21.50833,26
21.51667,26
21.52500,27
21.53333,27
21.54167,28
21.55000,29
21.55833,30
21.56667,32
21.57500,34
21.58333,35
21.59167,37
21.60000,38
21.60833,41
21.61667,43
21.62500,46
21.63333,50
21.64167,53
21.65000,57
21.65833,62
21.66667,67
21.67500,72
21.68333,78
21.69167,84
21.70000,90
21.70833,97
21.71667,105
21.72500,113
21.73333,121
21.74167,130
21.75000,140
21.75833,150
21.76667,161
21.77500,172
21.78333,184
21.79167,196
21.80000,209
21.80833,222
21.81667,235
21.82500,250
21.83333,264
21.84167,279
21.85000,294
21.85833,309
21.86667,325
21.87500,340
21.88333,355
21.89167,370
21.90000,385
21.90833,400
21.91667,414
21.92500,428
21.93333,442
21.94167,455
21.95000,467
21.95833,478
21.96667,489
21.97500,499
21.98333,508
21.99167,516
22.00000,523
22.00833,529
22.01667,534
22.02500,538
22.03333,540
22.04167,542
22.05000,543
22.05833,542
22.06667,540
22.07500,537
22.08333,533
22.09167,528
22.10000,522
22.10833,515
22.11667,507
22.12500,498
22.13333,489
22.14167,478
22.15000,467
22.15833,456
22.16667,445
22.17500,433
22.18333,420
22.19167,407
22.20000,394
22.20833,380
22.21667,366
22.22500,352
22.23333,338
22.24167,325
22.25000,312
22.25833,298
22.26667,285
22.27500,273
22.28333,260
22.29167,247
22.30000,235
22.30833,223
22.31667,212
22.32500,201
22.33333,190
22.34167,181
22.35000,171
22.35833,162
22.36667,154
22.37500,145
22.38333,138
22.39167,130
22.40000,123
22.40833,117
22.41667,110
22.42500,105
22.43333,99
22.44167,94
22.45000,89
22.45833,84
22.46667,80
22.47500,77
22.48333,73
22.49167,70
22.50000,67
22.50833,65
22.51667,62
22.52500,60
22.53333,58
22.54167,56
22.55000,54
22.55833,53
22.56667,52
22.57500,51
22.58333,50
22.59167,49
22.60000,48
22.60833,47
22.61667,47
22.62500,46
22.63333,45
22.64167,44
22.65000,43
22.65833,43
22.66667,42
22.67500,41
22.68333,41
22.69167,40
22.70000,40
22.70833,40
22.71667,40
22.72500,40
22.73333,40
22.74167,40
22.75000,39
22.75833,39
22.76667,39
22.77500,39
22.78333,38
22.79167,38
22.80000,38
22.80833,38
22.81667,37
22.82500,37
22.83333,37
22.84167,36
22.85000,36
22.85833,36
22.86667,35
22.87500,35
22.88333,34
22.89167,34
22.90000,33
22.90833,32
22.91667,32
22.92500,32
22.93333,32
22.94167,31
22.95000,31
22.95833,30
22.96667,30
22.97500,30
22.98333,29
22.99167,29
23.00000,29
23.00833,29
23.01667,29
23.02500,29
23.03333,28
23.04167,28
23.05000,28
23.05833,28
23.06667,28
23.07500,28
23.08333,27
23.09167,27
23.10000,27
23.10833,27
23.11667,27
23.12500,27
23.13333,27
23.14167,27
23.15000,27
23.15833,27
23.16667,27
23.17500,27
23.18333,26
23.19167,26
23.20000,26
23.20833,26
23.21667,27
23.22500,27
23.23333,27
23.24167,28
23.25000,28
23.25833,28
23.26667,28
23.27500,29
23.28333,29
23.29167,29
23.30000,29
23.30833,29
23.31667,29
23.32500,29
23.33333,29
23.34167,30
23.35000,30
23.35833,30
23.36667,31
23.37500,31
23.38333,32
23.39167,32
23.40000,32
23.40833,33
23.41667,33
23.42500,33
23.43333,34
23.44167,34
23.45000,35
23.45833,36
23.46667,36
23.47500,36
23.48333,36
23.49167,37
23.50000,37
23.50833,37
23.51667,38
23.52500,38
23.53333,38
23.54167,38
23.55000,38
23.55833,39
23.56667,39
23.57500,40
23.58333,41
23.59167,41
23.60000,41
23.60833,41
23.61667,41
23.62500,41
23.63333,41
23.64167,42
23.65000,42
23.65833,42
23.66667,43
23.67500,43
23.68333,43
23.69167,43
23.70000,43
23.70833,43
23.71667,43
23.72500,43
23.73333,43
23.74167,43
23.75000,43
23.75833,43
23.76667,42
23.77500,42
23.78333,42
23.79167,41
23.80000,41
23.80833,40
23.81667,40
23.82500,39
23.83333,39
23.84167,38
23.85000,38
23.85833,37
23.86667,37
23.87500,36
23.88333,35
23.89167,34
23.90000,34
23.90833,33
23.91667,32
23.92500,31
23.93333,31
23.94167,30
23.95000,30
23.95833,30
23.96667,29
23.97500,29
23.98333,29
23.99167,29
24.00000,28
24.00833,28
24.01667,28
24.02500,28
24.03333,28
24.04167,28
24.05000,28
24.05833,29
24.06667,29
24.07500,30
24.08333,30
24.09167,30
24.10000,30
24.10833,31
24.11667,32
24.12500,32
24.13333,33
24.14167,34
24.15000,34
24.15833,35
24.16667,35
24.17500,36
24.18333,37
24.19167,38
24.20000,39
24.20833,40
24.21667,41
24.22500,41
24.23333,42
24.24167,43
24.25000,43
24.25833,45
24.26667,46
24.27500,47
24.28333,48
24.29167,48
24.30000,49
24.30833,50
24.31667,50
24.32500,51
24.33333,52
24.34167,53
24.35000,53
24.35833,54
24.36667,54
24.37500,54
24.38333,55
24.39167,55
24.40000,56
24.40833,56
24.41667,56
24.42500,56
24.43333,57
24.44167,58
24.45000,58
24.45833,59
24.46667,59
24.47500,59
24.48333,60
24.49167,60
24.50000,61
24.50833,61
24.51667,62
24.52500,62
24.53333,63
24.54167,64
24.55000,65
24.55833,65
24.56667,66
24.57500,67
24.58333,69
24.59167,70
24.60000,71
24.60833,72
24.61667,74
24.62500,76
24.63333,78
24.64167,80
24.65000,83
24.65833,86
24.66667,89
24.67500,91
24.68333,94
24.69167,97
24.70000,101
24.70833,104
24.71667,108
24.72500,112
24.73333,116
24.74167,120
24.75000,125
24.75833,129
24.76667,134
24.77500,138
24.78333,143
24.79167,148
24.80000,153
24.80833,157
24.81667,162
24.82500,167
24.83333,172
24.84167,177
24.85000,183
24.85833,188
24.86667,193
24.87500,198
24.88333,203
24.89167,207
24.90000,212
24.90833,217
24.91667,221
24.92500,225
24.93333,228
24.94167,231
24.95000,234
24.95833,236
24.96667,239
24.97500,241
24.98333,242
24.99167,243
25.00000,243
25.00833,243
25.01667,243
25.02500,243
25.03333,243
25.04167,241
25.05000,240
25.05833,238
25.06667,236
25.07500,233
25.08333,230
25.09167,228
25.10000,225
25.10833,221
25.11667,218
25.12500,213
25.13333,209
25.14167,204
25.15000,200
25.15833,195
25.16667,190
25.17500,185
25.18333,180
25.19167,175
25.20000,170
25.20833,165
25.21667,160
25.22500,155
25.23333,150
25.24167,145
25.25000,141
25.25833,136
25.26667,131
25.27500,127
25.28333,122
25.29167,118
25.30000,114
25.30833,111
25.31667,107
25.32500,103
25.33333,99
25.34167,96
25.35000,92
25.35833,89
25.36667,86
25.37500,83
25.38333,80
25.39167,78
25.40000,75
25.40833,73
25.41667,71
25.42500,69
25.43333,67
25.44167,66
25.45000,64
25.45833,62
25.46667,60
25.47500,59
25.48333,58
25.49167,57
25.50000,56
25.50833,54
25.51667,53
25.52500,52
25.53333,51
25.54167,50
25.55000,49
25.55833,47
25.56667,46
25.57500,45
25.58333,44
25.59167,43
25.60000,43
25.60833,42
25.61667,41
25.62500,40
25.63333,39
25.64167,38
25.65000,37
25.65833,36
25.66667,35
25.67500,34
25.68333,33
25.69167,33
25.70000,32
25.70833,31
25.71667,31
25.72500,30
25.73333,30
25.74167,30
25.75000,29
25.75833,28
25.76667,28
25.77500,27
25.78333,27
25.79167,27
25.80000,27
25.80833,26
25.81667,26
25.82500,26
25.83333,26
25.84167,26
25.85000,26
25.85833,25
25.86667,25
25.87500,25
25.88333,26
25.89167,26
25.90000,26
25.90833,26
25.91667,26
25.92500,27
25.93333,27
25.94167,27
25.95000,27
25.95833,28
25.96667,29
25.97500,29
25.98333,29
25.99167,29
26.00000,30
26.00833,30
26.01667,30
26.02500,31
26.03333,31
26.04167,32
26.05000,32
26.05833,33
26.06667,33
26.07500,34
26.08333,35
26.09167,36
26.10000,36
26.10833,37
26.11667,37
26.12500,37
26.13333,37
26.14167,38
26.15000,38
26.15833,38
26.16667,38
26.17500,39
26.18333,39
26.19167,39
26.20000,39
26.20833,39
26.21667,40
26.22500,40
26.23333,40
26.24167,40
26.25000,40
26.25833,40
26.26667,40
26.27500,40
26.28333,41
26.29167,41
26.30000,41
26.30833,41
26.31667,41
26.32500,41
26.33333,41
26.34167,40
26.35000,39
26.35833,39
26.36667,39
26.37500,38
26.38333,38
26.39167,38
26.40000,38
26.40833,37
26.41667,37
26.42500,37
26.43333,36
26.44167,36
26.45000,36
26.45833,35
26.46667,35
26.47500,34
26.48333,34
26.49167,33
26.50000,33
26.50833,32
26.51667,32
26.52500,31
26.53333,31
26.54167,31
26.55000,31
26.55833,30
26.56667,29
26.57500,28
26.58333,28
26.59167,28
26.60000,28
26.60833,28
26.61667,28
26.62500,28
26.63333,27
26.64167,27
26.65000,27
26.65833,27
26.66667,26
26.67500,26
26.68333,26
26.69167,26
26.70000,26
26.70833,27
26.71667,27
26.72500,27
26.73333,27
26.74167,27
26.75000,27
26.75833,27
26.76667,27
26.77500,28
26.78333,28
26.79167,28
26.80000,28
26.80833,28
26.81667,28
26.82500,28
26.83333,28
26.84167,28
26.85000,28
26.85833,28
26.86667,28
26.87500,28
26.88333,29
26.89167,29
26.90000,29
26.90833,29
26.91667,30
26.92500,30
26.93333,30
26.94167,30
26.95000,29
26.95833,29
26.96667,30
26.97500,30
26.98333,31
26.99167,31
27.00000,31
27.00833,31
27.01667,31
27.02500,31
27.03333,31
27.04167,31
27.05000,31
27.05833,31
27.06667,31
27.07500,31
27.08333,31
27.09167,31
27.10000,31
27.10833,31
27.11667,31
27.12500,32
27.13333,32
27.14167,32
27.15000,33
27.15833,33
27.16667,34
27.17500,34
27.18333,34
27.19167,34
27.20000,35
27.20833,35
27.21667,36
27.22500,36
27.23333,36
27.24167,36
27.25000,37
27.25833,37
27.26667,37
27.27500,38
27.28333,39
27.29167,39
27.30000,40
27.30833,40
27.31667,40
27.32500,40
27.33333,40
27.34167,40
27.35000,41
27.35833,41
27.36667,41
27.37500,42
27.38333,42
27.39167,43
27.40000,43
27.40833,43
27.41667,43
27.42500,43
27.43333,42
27.44167,42
27.45000,42
27.45833,42
27.46667,41
27.47500,41
27.48333,41
27.49167,41
27.50000,41
27.50833,41
27.51667,40
27.52500,40
27.53333,39
27.54167,39
27.55000,38
27.55833,38
27.56667,37
27.57500,36
27.58333,36
27.59167,35
27.60000,34
27.60833,33
27.61667,32
27.62500,32
27.63333,31
27.64167,30
27.65000,29
27.65833,28
27.66667,27
27.67500,26
27.68333,25
27.69167,24
27.70000,23
27.70833,21
27.71667,21
27.72500,20
27.73333,19
27.74167,18
27.75000,17
27.75833,16
27.76667,15
27.77500,14
27.78333,13
27.79167,12
27.80000,11
27.80833,9
27.81667,8
27.82500,7
27.83333,6
27.84167,5
27.85000,4
27.85833,3
27.86667,2
27.87500,1
27.88333,-0
27.89167,-2
27.90000,-3
27.90833,-4
27.91667,-6
27.92500,-7
27.93333,-8
27.94167,-11
27.95000,-13
27.95833,-15
27.96667,-17
27.97500,-19
27.98333,-21
27.99167,-23
28.00000,-25
28.00833,-27
28.01667,-29
28.02500,-31
28.03333,-34
28.04167,-36
28.05000,-38
28.05833,-41
28.06667,-44
28.07500,-47
28.08333,-50
28.09167,-53
28.10000,-56
28.10833,-59
28.11667,-62
28.12500,-65
28.13333,-68
28.14167,-71
28.15000,-74
28.15833,-77
28.16667,-81
28.17500,-84
28.18333,-87
28.19167,-91
28.20000,-94
28.20833,-97
28.21667,-100
28.22500,-102
28.23333,-105
28.24167,-108
28.25000,-110
28.25833,-112
28.26667,-114
28.27500,-116
28.28333,-118
28.29167,-120
28.30000,-121
28.30833,-122
28.31667,-123
28.32500,-124
28.33333,-125
28.34167,-125
28.35000,-126
28.35833,-126
28.36667,-126
28.37500,-126
28.38333,-126
28.39167,-125
28.40000,-124
28.40833,-123
28.41667,-122
28.42500,-121
28.43333,-120
28.44167,-119
28.45000,-117
28.45833,-116
28.46667,-114
28.47500,-111
28.48333,-109
28.49167,-106
28.50000,-104
28.50833,-101
28.51667,-98
28.52500,-96
28.53333,-93
28.54167,-90
28.55000,-87
28.55833,-85
28.56667,-82
28.57500,-79
28.58333,-76
28.59167,-73
28.60000,-70
28.60833,-67
28.61667,-64
28.62500,-61
28.63333,-58
28.64167,-55
28.65000,-52
28.65833,-50
28.66667,-47
28.67500,-44
28.68333,-41
28.69167,-39
28.70000,-36
28.70833,-33
28.71667,-31
28.72500,-28
28.73333,-26
28.74167,-23
28.75000,-21
28.75833,-18
28.76667,-16
28.77500,-14
28.78333,-11
28.79167,-9
28.80000,-7
28.80833,-5
28.81667,-3
28.82500,-0
28.83333,2
28.84167,4
28.85000,6
28.85833,8
28.86667,10
28.87500,11
28.88333,13
28.89167,15
28.90000,16
28.90833,18
28.91667,20
28.92500,21
28.93333,23
28.94167,24
28.95000,26
28.95833,27
28.96667,29
28.97500,30
28.98333,31
28.99167,32
29.00000,33
29.00833,34
29.01667,35
29.02500,37
29.03333,37
29.04167,38
29.05000,39
29.05833,39
29.06667,39
29.07500,40
29.08333,40
29.09167,41
29.10000,42
29.10833,42
29.11667,42
29.12500,42
29.13333,43
29.14167,43
29.15000,43
29.15833,43
29.16667,43
29.17500,43
29.18333,43
29.19167,43
29.20000,43
29.20833,43
29.21667,43
29.22500,43
29.23333,43
29.24167,43
29.25000,42
29.25833,42
29.26667,42
29.27500,42
29.28333,41
29.29167,41
29.30000,41
29.30833,41
29.31667,40
29.32500,40
29.33333,40
29.34167,40
29.35000,40
29.35833,40
29.36667,40
29.37500,40
29.38333,39
29.39167,39
29.40000,39
29.40833,39
29.41667,39
29.42500,39
29.43333,38
29.44167,38
29.45000,37
29.45833,37
29.46667,36
29.47500,36
29.48333,36
29.49167,35
29.50000,35
29.50833,35
29.51667,35
29.52500,34
29.53333,34
29.54167,34
29.55000,33
29.55833,32
29.56667,32
29.57500,31
29.58333,30
29.59167,29
29.60000,28
29.60833,27
29.61667,26
29.62500,25
29.63333,24
29.64167,23
29.65000,22
29.65833,22
29.66667,21
29.67500,20
29.68333,19
29.69167,17
29.70000,16
29.70833,14
29.71667,13
29.72500,12
29.73333,11
29.74167,9
29.75000,7
29.75833,6
29.76667,5
29.77500,3
29.78333,2
29.79167,0
29.80000,-1
29.80833,-2
29.81667,-4
29.82500,-5
29.83333,-6
29.84167,-8
29.85000,-9
29.85833,-11
29.86667,-12
29.87500,-14
29.88333,-15
29.89167,-17
29.90000,-19
29.90833,-20
29.91667,-21
29.92500,-22
29.93333,-23
29.94167,-25
29.95000,-26
29.95833,-27
29.96667,-28
29.97500,-30
29.98333,-31
29.99167,-32
30.00000,-33
30.00833,-34
30.01667,-35
30.02500,-36
30.03333,-37
30.04167,-38
30.05000,-39
30.05833,-39
30.06667,-40
30.07500,-41
30.08333,-41
30.09167,-42
30.10000,-43
30.10833,-43
30.11667,-44
30.12500,-44
30.13333,-44
30.14167,-45
30.15000,-45
30.15833,-45
30.16667,-45
30.17500,-45
30.18333,-45
30.19167,-44
30.20000,-44
30.20833,-44
30.21667,-44
30.22500,-44
30.23333,-44
30.24167,-44
30.25000,-44
30.25833,-44
30.26667,-44
30.27500,-43
30.28333,-43
30.29167,-43
30.30000,-42
30.30833,-42
30.31667,-41
30.32500,-41
30.33333,-40
30.34167,-39
30.35000,-38
30.35833,-37
30.36667,-35
30.37500,-34
30.38333,-33
30.39167,-32
30.40000,-31
30.40833,-30
30.41667,-30
30.42500,-29
30.43333,-28
30.44167,-27
30.45000,-26
30.45833,-25
30.46667,-23
30.47500,-22
30.48333,-20
30.49167,-19
30.50000,-18
30.50833,-16
30.51667,-15
30.52500,-14
30.53333,-13
30.54167,-11
30.55000,-10
30.55833,-9
30.56667,-8
30.57500,-7
30.58333,-5
30.59167,-5
30.60000,-4
30.60833,-3
30.61667,-2
30.62500,-1
30.63333,1
30.64167,2
30.65000,2
30.65833,3
30.66667,4
30.67500,5
30.68333,6
30.69167,7
30.70000,8
30.70833,8
30.71667,9
30.72500,9
30.73333,10
30.74167,10
30.75000,10
30.75833,11
30.76667,12
30.77500,12
30.78333,13
30.79167,13
30.80000,14
30.80833,14
30.81667,14
30.82500,15
30.83333,15
30.84167,15
30.85000,15
30.85833,16
30.86667,17
30.87500,18
30.88333,19
30.89167,19
30.90000,20
30.90833,20
30.91667,21
30.92500,21
30.93333,22
30.94167,22
30.95000,22
30.95833,23
30.96667,23
30.97500,24
30.98333,25
30.99167,25
31.00000,26
31.00833,27
31.01667,27
31.02500,27
31.03333,28
31.04167,28
31.05000,29
31.05833,29
31.06667,30
31.07500,30
31.08333,31
31.09167,32
31.10000,33
31.10833,33
31.11667,34
31.12500,35
31.13333,35
31.14167,36
31.15000,36
31.15833,37
31.16667,38
31.17500,38
31.18333,39
31.19167,39
31.20000,40
31.20833,40
31.21667,40
31.22500,40
31.23333,41
31.24167,41
31.25000,42
31.25833,42
31.26667,43
31.27500,43
31.28333,44
31.29167,44
31.30000,44
31.30833,44
31.31667,45
31.32500,45
31.33333,45
31.34167,46
31.35000,46
31.35833,46
31.36667,46
31.37500,46
31.38333,46
31.39167,46
31.40000,46
31.40833,47
31.41667,47
31.42500,47
31.43333,47
31.44167,47
31.45000,47
31.45833,47
31.46667,47
31.47500,47
31.48333,47
31.49167,47
31.50000,47
31.50833,47
31.51667,47
31.52500,47
31.53333,47
31.54167,47
31.55000,47
31.55833,48
31.56667,47
31.57500,47
31.58333,47
31.59167,46
31.60000,46
31.60833,46
31.61667,46
31.62500,46
31.63333,46
31.64167,46
31.65000,46
31.65833,46
31.66667,46
31.67500,46
31.68333,46
31.69167,46
31.70000,46
31.70833,46
31.71667,46
31.72500,46
31.73333,46
31.74167,46
31.75000,47
31.75833,46
31.76667,46
31.77500,46
31.78333,46
31.79167,46
31.80000,46
31.80833,46
31.81667,46
31.82500,46
31.83333,46
31.84167,46
31.85000,46
31.85833,45
31.86667,45
31.87500,45
31.88333,46
31.89167,45
31.90000,45
31.90833,45
31.91667,45
31.92500,44
31.93333,44
31.94167,44
31.95000,43
31.95833,43
31.96667,42
31.97500,42
31.98333,41
31.99167,40
32.00000,39
32.00833,39
32.01667,38
32.02500,37
32.03333,37
32.04167,36
32.05000,35
32.05833,34
32.06667,33
32.07500,32
32.08333,31
32.09167,30
32.10000,30
32.10833,29
32.11667,28
32.12500,27
32.13333,26
32.14167,26
32.15000,25
32.15833,24
32.16667,23
32.17500,22
32.18333,21
32.19167,21
32.20000,20
32.20833,19
32.21667,19
32.22500,18
32.23333,18
32.24167,17
32.25000,17
32.25833,16
32.26667,15
32.27500,15
32.28333,14
32.29167,14
32.30000,13
32.30833,13
32.31667,13
32.32500,13
32.33333,12
32.34167,12
32.35000,12
32.35833,13
32.36667,13
32.37500,13
32.38333,13
32.39167,13
32.40000,13
32.40833,12
32.41667,12
32.42500,12
32.43333,12
32.44167,13
32.45000,12
32.45833,12
32.46667,12
32.47500,13
32.48333,13
32.49167,13
32.50000,14
32.50833,14
32.51667,14
32.52500,14
32.53333,14
32.54167,15
32.55000,16
32.55833,16
32.56667,17
32.57500,17
32.58333,18
32.59167,18
32.60000,19
32.60833,20
32.61667,20
32.62500,21
32.63333,22
32.64167,22
32.65000,23
32.65833,24
32.66667,25
32.67500,26
32.68333,26
32.69167,27
32.70000,27
32.70833,28
32.71667,28
32.72500,29
32.73333,30
32.74167,31
32.75000,31
32.75833,32
32.76667,33
32.77500,33
32.78333,34
32.79167,34
32.80000,35
32.80833,36
32.81667,36
32.82500,36
32.83333,37
32.84167,38
32.85000,38
32.85833,39
32.86667,39
32.87500,40
32.88333,40
32.89167,41
32.90000,41
32.90833,42
32.91667,42
32.92500,43
32.93333,43
32.94167,43
32.95000,44
32.95833,44
32.96667,44
32.97500,44
32.98333,45
32.99167,45
33.00000,45
33.00833,46
33.01667,46
33.02500,46
33.03333,46
33.04167,46
33.05000,46
33.05833,47
33.06667,47
33.07500,47
33.08333,47
33.09167,47
33.10000,47
33.10833,47
33.11667,47
33.12500,47
33.13333,47
33.14167,48
33.15000,48
33.15833,48
33.16667,48
33.17500,48
33.18333,47
33.19167,48
33.20000,48
33.20833,48
33.21667,48
33.22500,48
33.23333,48
33.24167,47
33.25000,47
33.25833,47
33.26667,47
33.27500,47
33.28333,47
33.29167,46
33.30000,46
33.30833,45
33.31667,44
33.32500,44
33.33333,44
33.34167,43
33.35000,43
33.35833,42
33.36667,42
33.37500,42
33.38333,41
33.39167,40
33.40000,39
33.40833,39
33.41667,38
33.42500,38
33.43333,37
33.44167,37
33.45000,36
33.45833,35
33.46667,34
33.47500,33
33.48333,32
33.49167,32
33.50000,31
33.50833,30
33.51667,30
33.52500,29
33.53333,29
33.54167,29
33.55000,28
33.55833,28
33.56667,27
33.57500,27
33.58333,26
33.59167,25
33.60000,25
33.60833,24
33.61667,24
33.62500,24
33.63333,24
33.64167,24
33.65000,24
33.65833,23
33.66667,23
33.67500,23
33.68333,24
33.69167,24
33.70000,24
33.70833,24
33.71667,25
33.72500,25
33.73333,25
33.74167,25
33.75000,25
33.75833,26
33.76667,27
33.77500,27
33.78333,28
33.79167,29
33.80000,30
33.80833,31
33.81667,33
33.82500,34
33.83333,35
33.84167,35
33.85000,36
33.85833,37
33.86667,37
33.87500,38
33.88333,38
33.89167,39
33.90000,39
33.90833,40
33.91667,40
33.92500,41
33.93333,41
33.94167,42
33.95000,42
33.95833,43
33.96667,44
33.97500,45
33.98333,45
33.99167,45
34.00000,45
34.00833,46
34.01667,46
34.02500,46
34.03333,46
34.04167,45
34.05000,46
34.05833,46
34.06667,45
34.07500,45
34.08333,45
34.09167,45
34.10000,45
34.10833,44
34.11667,43
34.12500,43
34.13333,43
34.14167,42
34.15000,42
34.15833,42
34.16667,41
34.17500,41
34.18333,41
34.19167,40
34.20000,40
34.20833,39
34.21667,39
34.22500,39
34.23333,39
34.24167,39
34.25000,39
34.25833,39
34.26667,38
34.27500,38
34.28333,38
34.29167,38
34.30000,38
34.30833,38
34.31667,38
34.32500,38
34.33333,38
34.34167,38
34.35000,38
34.35833,38
34.36667,38
34.37500,39
34.38333,39
34.39167,39
34.40000,39
34.40833,38
34.41667,38
34.42500,38
34.43333,38
34.44167,39
34.45000,39
34.45833,39
34.46667,40
34.47500,40
34.48333,40
34.49167,40
34.50000,40
34.50833,40
34.51667,40
34.52500,41
34.53333,41
34.54167,41
34.55000,42
34.55833,42
34.56667,42
34.57500,43
34.58333,42
34.59167,43
34.60000,43
34.60833,43
34.61667,43
34.62500,44
34.63333,45
34.64167,45
34.65000,45
34.65833,45
34.66667,46
34.67500,46
34.68333,46
34.69167,46
34.70000,46
34.70833,46
34.71667,46
34.72500,46
34.73333,46
34.74167,46
34.75000,46
34.75833,46
34.76667,46
34.77500,46
34.78333,46
34.79167,46
34.80000,46
34.80833,45
34.81667,45
34.82500,45
34.83333,45
34.84167,44
34.85000,44
34.85833,44
34.86667,43
34.87500,42
34.88333,42
34.89167,42
34.90000,42
34.90833,41
34.91667,41
34.92500,40
34.93333,40
34.94167,40
34.95000,39
34.95833,39
34.96667,39
34.97500,38
34.98333,38
34.99167,37
35.00000,36
35.00833,35
35.01667,35
35.02500,35
35.03333,34
35.04167,34
35.05000,33
35.05833,33
35.06667,32
35.07500,32
35.08333,31
35.09167,31
35.10000,30
35.10833,30
35.11667,29
35.12500,29
35.13333,28
35.14167,27
35.15000,27
35.15833,27
35.16667,27
35.17500,27
35.18333,27
35.19167,27
35.20000,27
35.20833,26
35.21667,26
35.22500,26
35.23333,27
35.24167,27
35.25000,27
35.25833,28
35.26667,28
35.27500,28
35.28333,28
35.29167,28
35.30000,29
35.30833,29
35.31667,30
35.32500,31
35.33333,31
35.34167,32
35.35000,33
35.35833,33
35.36667,34
35.37500,35
35.38333,36
35.39167,37
35.40000,38
35.40833,39
35.41667,39
35.42500,40
35.43333,41
35.44167,41
35.45000,42
35.45833,43
35.46667,43
35.47500,44
35.48333,44
35.49167,45
35.50000,45
35.50833,45
35.51667,46
35.52500,46
35.53333,46
35.54167,47
35.55000,47
35.55833,47
35.56667,47
35.57500,47
35.58333,46
35.59167,46
35.60000,46
35.60833,46
35.61667,46
35.62500,45
35.63333,44
35.64167,44
35.65000,44
35.65833,43
35.66667,42
35.67500,41
35.68333,41
35.69167,40
35.70000,39
35.70833,38
35.71667,36
35.72500,35
35.73333,34
35.74167,34
35.75000,33
35.75833,31
35.76667,30
35.77500,29
35.78333,28
35.79167,26
35.80000,25
35.80833,24
35.81667,22
35.82500,21
35.83333,20
35.84167,19
35.85000,18
35.85833,17
35.86667,16
35.87500,16
35.88333,15
35.89167,14
35.90000,13
35.90833,12
35.91667,12
35.92500,11
35.93333,10
35.94167,10
35.95000,9
35.95833,8
35.96667,8
35.97500,7
35.98333,7
35.99167,6
36.00000,6
36.00833,6
36.01667,6
36.02500,6
36.03333,7
36.04167,7
36.05000,7
36.05833,8
36.06667,8
36.07500,8
36.08333,9
36.09167,9
36.10000,9
36.10833,10
36.11667,10
36.12500,11
36.13333,12
36.14167,13
36.15000,14
36.15833,14
36.16667,15
36.17500,17
36.18333,18
36.19167,19
36.20000,20
36.20833,21
36.21667,22
36.22500,23
36.23333,24
36.24167,25
36.25000,25
36.25833,26
36.26667,27
36.27500,28
36.28333,29
36.29167,30
36.30000,32
36.30833,33
36.31667,34
36.32500,34
36.33333,35
36.34167,36
36.35000,37
36.35833,37
36.36667,38
36.37500,38
36.38333,39
36.39167,40
36.40000,41
36.40833,42
36.41667,42
36.42500,43
36.43333,43
36.44167,44
36.45000,44
36.45833,44
36.46667,44
36.47500,45
36.48333,46
36.49167,46
36.50000,46
36.50833,46
36.51667,46
36.52500,45
36.53333,45
36.54167,46
36.55000,46
36.55833,46
36.56667,46
36.57500,47
36.58333,47
36.59167,47
36.60000,47
36.60833,47
36.61667,46
36.62500,46
36.63333,46
36.64167,45
36.65000,46
36.65833,46
36.66667,46
36.67500,46
36.68333,46
36.69167,47
36.70000,47
36.70833,47
36.71667,47
36.72500,47
36.73333,47
36.74167,47
36.75000,48
36.75833,48
36.76667,48
36.77500,48
36.78333,48
36.79167,49
36.80000,49
36.80833,49
36.81667,49
36.82500,50
36.83333,50
36.84167,50
36.85000,50
36.85833,50
36.86667,50
36.87500,50
36.88333,50
36.89167,50
36.90000,50
36.90833,50
36.91667,51
36.92500,51
36.93333,51
36.94167,52
36.95000,52
36.95833,52
36.96667,52
36.97500,52
36.98333,52
36.99167,52
37.00000,53
37.00833,53
37.01667,53
37.02500,53
37.03333,53
37.04167,53
37.05000,53
37.05833,53
37.06667,53
37.07500,53
37.08333,53
37.09167,53
37.10000,53
37.10833,53
37.11667,53
37.12500,53
37.13333,53
37.14167,53
37.15000,53
37.15833,53
37.16667,53
37.17500,53
37.18333,53
37.19167,53
37.20000,52
37.20833,52
37.21667,52
37.22500,51
37.23333,51
37.24167,51
37.25000,51
37.25833,51
37.26667,51
37.27500,50
37.28333,50
37.29167,49
37.30000,49
37.30833,49
37.31667,48
37.32500,48
37.33333,48
37.34167,48
37.35000,48
37.35833,48
37.36667,48
37.37500,47
37.38333,47
37.39167,46
37.40000,46
37.40833,46
37.41667,46
37.42500,46
37.43333,45
37.44167,45
37.45000,44
37.45833,44
37.46667,43
37.47500,43
37.48333,42
37.49167,42
37.50000,41
37.50833,41
37.51667,40
37.52500,39
37.53333,39
37.54167,38
37.55000,38
37.55833,38
37.56667,37
37.57500,37
37.58333,36
37.59167,36
37.60000,36
37.60833,36
37.61667,36
37.62500,36
37.63333,36
37.64167,35
37.65000,35
37.65833,35
37.66667,35
37.67500,35
37.68333,34
37.69167,34
37.70000,34
37.70833,34
37.71667,33
37.72500,34
37.73333,34
37.74167,34
37.75000,34
37.75833,34
37.76667,35
37.77500,35
37.78333,35
37.79167,35
37.80000,36
37.80833,36
37.81667,37
37.82500,37
37.83333,38
37.84167,38
37.85000,39
37.85833,39
37.86667,40
37.87500,41
37.88333,41
37.89167,42
37.90000,42
37.90833,43
37.91667,44
37.92500,45
37.93333,46
37.94167,46
37.95000,47
37.95833,48
37.96667,49
37.97500,50
37.98333,51
37.99167,51
38.00000,51
38.00833,52
38.01667,53
38.02500,53
38.03333,54
38.04167,55
38.05000,55
38.05833,56
38.06667,56
38.07500,56
38.08333,57
38.09167,57
38.10000,57
38.10833,57
38.11667,57
38.12500,57
38.13333,57
38.14167,58
38.15000,58
38.15833,58
38.16667,58
38.17500,58
38.18333,58
38.19167,58
38.20000,57
38.20833,57
38.21667,57
38.22500,56
38.23333,56
38.24167,56
38.25000,55
38.25833,55
38.26667,54
38.27500,54
38.28333,54
38.29167,53
38.30000,53
38.30833,52
38.31667,51
38.32500,50
38.33333,49
38.34167,48
38.35000,48
38.35833,47
38.36667,46
38.37500,45
38.38333,44
38.39167,43
38.40000,43
38.40833,42
38.41667,41
38.42500,40
38.43333,39
38.44167,38
38.45000,37
38.45833,37
38.46667,36
38.47500,35
38.48333,34
38.49167,33
38.50000,33
38.50833,31
38.51667,30
38.52500,30
38.53333,29
38.54167,28
38.55000,27
38.55833,27
38.56667,26
38.57500,25
38.58333,25
38.59167,24
38.60000,23
38.60833,23
38.61667,22
38.62500,22
38.63333,22
38.64167,21
38.65000,21
38.65833,20
38.66667,20
38.67500,20
38.68333,21
38.69167,21
38.70000,21
38.70833,21
38.71667,20
38.72500,20
38.73333,21
38.74167,21
38.75000,21
38.75833,22
38.76667,22
38.77500,22
38.78333,23
38.79167,23
38.80000,23
38.80833,24
38.81667,25
38.82500,26
38.83333,26
38.84167,27
38.85000,28
38.85833,28
38.86667,29
38.87500,29
38.88333,30
38.89167,31
38.90000,31
38.90833,32
38.91667,32
38.92500,33
38.93333,34
38.94167,35
38.95000,36
38.95833,37
38.96667,37
38.97500,38
38.98333,39
38.99167,40
39.00000,40
39.00833,41
39.01667,41
39.02500,42
39.03333,42
39.04167,42
39.05000,43
39.05833,44
39.06667,44
39.07500,45
39.08333,45
39.09167,46
39.10000,46
39.10833,46
39.11667,47
39.12500,47
39.13333,47
39.14167,48
39.15000,48
39.15833,48
39.16667,48
39.17500,48
39.18333,48
39.19167,48
39.20000,48
39.20833,48
39.21667,48
39.22500,48
39.23333,48
39.24167,48
39.25000,48
39.25833,47
39.26667,47
39.27500,46
39.28333,46
39.29167,45
39.30000,45
39.30833,45
39.31667,44
39.32500,44
39.33333,43
39.34167,43
39.35000,42
39.35833,41
39.36667,41
39.37500,40
39.38333,39
39.39167,38
39.40000,38
39.40833,38
39.41667,37
39.42500,36
39.43333,35
39.44167,36
39.45000,35
39.45833,35
39.46667,34
39.47500,34
39.48333,34
39.49167,33
39.50000,33
39.50833,32
39.51667,32
39.52500,32
39.53333,32
39.54167,31
39.55000,31
39.55833,31
39.56667,30
39.57500,30
39.58333,30
39.59167,30
39.60000,31
39.60833,31
39.61667,31
39.62500,32
39.63333,32
39.64167,33
39.65000,33
39.65833,33
39.66667,34
39.67500,34
39.68333,35
39.69167,35
39.70000,35
39.70833,36
39.71667,36
39.72500,37
39.73333,37
39.74167,38
39.75000,38
39.75833,39
39.76667,39
39.77500,40
39.78333,40
39.79167,41
39.80000,41
39.80833,41
39.81667,42
39.82500,42
39.83333,43
39.84167,43
39.85000,43
39.85833,43
39.86667,44
39.87500,44
39.88333,43
39.89167,43
39.90000,43
39.90833,43
39.91667,42
39.92500,42
39.93333,42
39.94167,43
39.95000,43
39.95833,43
39.96667,42
39.97500,42
39.98333,41
39.99167,40
40.00000,40

