[Header]
Application Name,LabSolutions
Version,5.97 SP1
Data File Name,C:\Users\cremerlab\Desktop\griffin\2021-04-05_NC_DM_calibration\2021-04-05_NC_DM_2.5mM_calibration_452021_011_011.lcd
Output Date,4/6/2021
Output Time,12:28:41 AM

[File Information]
Type,Data File
Generated,4/5/2021 11:48:22 PM
Generated by,System Administrator
Modified,4/6/2021 12:28:41 AM
Modified by,System Administrator

[Sample Information]
Operator Name,System Administrator
Acquired,4/5/2021 11:48:41 PM
Sample Type,1:Standard
Level,2
Sample Name,2021-04-05_NC_glucose_glycerol_acetate_0.3mM
Sample ID,011
ISTD Amount1,1
ISTD Amount2,1
ISTD Amount3,1
ISTD Amount4,1
ISTD Amount5,1
ISTD Amount6,1
ISTD Amount7,1
ISTD Amount8,1
ISTD Amount9,1
ISTD Amount10,1
ISTD Amount11,1
ISTD Amount12,1
ISTD Amount13,1
ISTD Amount14,1
ISTD Amount15,1
ISTD Amount16,1
ISTD Amount17,1
ISTD Amount18,1
ISTD Amount19,1
ISTD Amount20,1
ISTD Amount21,1
ISTD Amount22,1
ISTD Amount23,1
ISTD Amount24,1
ISTD Amount25,1
ISTD Amount26,1
ISTD Amount27,1
ISTD Amount28,1
ISTD Amount29,1
ISTD Amount30,1
ISTD Amount31,1
ISTD Amount32,1
Sample Amount,1
Dilution Factor,1
Vial#,11
Injection Volume,20

[Original Files]
Data File,C:\Users\cremerlab\Desktop\griffin\2021-04-05_NC_DM_calibration\2021-04-05_NC_DM_2.5mM_calibration_452021_011_011.lcd
Method File,C:\Users\cremerlab\Desktop\griffin\2021-04-05_NC_DM_calibration\2021-04-05_2.5mM_mobile.lcm
Batch File,C:\Users\cremerlab\Desktop\griffin\2021-04-05_NC_DM_calibration\2021-04-05_NC_DM_2.5mM_calibration.lcb
Report Format File,c:\LabSolutions\System\DEFAULT.lsr

[File Description]


[Configuration]
Instrument Name,HPLC-PC-Instrument1
Instrument #,1
Line #,1
# of Detectors,2
Detector ID,Detector A,Detector B
Detector Name,Detector A,Detector B
# of Channels,1,1

[Peak Table(Detector A)]
# of Peaks,0

[Peak Table(Detector B)]
# of Peaks,5
Peak#,R.Time,I.Time,F.Time,Area,Height,A/H,Conc.,Mark,ID#,Name,k',Plate #,Plate Ht.,Tailing,Resolution,Sep.Factor,Area Ratio,Height Ratio,Conc. %,Norm Conc.
1,11.001,10.600,12.592,1430641,80657,17.737,0.000,   ,,,0.000,9399,15.960,0.964,0.000,0.000,0,0,0.000,0.000
2,14.352,12.592,15.258,3622181,81588,44.396,0.000, V ,,,0.305,2858,52.492,0.617,4.386,0.000,0,0,0.000,0.000
3,15.657,15.258,16.317,38804,1368,28.372,0.000, V ,,,0.423,7197,20.842,0.000,1.440,1.389,0,0,0.000,0.000
4,22.047,21.575,22.600,8125,311,26.143,0.000,   ,,,1.004,15439,9.716,1.039,8.826,2.373,0,0,0.000,0.000
5,25.033,24.575,25.600,4641,156,29.701,0.000,   ,,,1.275,15321,9.791,1.087,3.932,1.270,0,0,0.000,0.000

[LC Chromatogram(Detector B-Ch1)]
Interval(msec),500
# of Points,4801
Start Time(min),0.000
End Time(min),40.000
Intensity Units,mV
Intensity Multiplier,0.001
R.Time (min),Intensity
0.00000,3
0.00833,3
0.01667,0
0.02500,0
0.03333,1
0.04167,1
0.05000,1
0.05833,1
0.06667,2
0.07500,2
0.08333,2
0.09167,3
0.10000,3
0.10833,4
0.11667,5
0.12500,5
0.13333,6
0.14167,6
0.15000,6
0.15833,7
0.16667,8
0.17500,8
0.18333,8
0.19167,8
0.20000,8
0.20833,8
0.21667,8
0.22500,8
0.23333,7
0.24167,7
0.25000,7
0.25833,7
0.26667,7
0.27500,7
0.28333,7
0.29167,7
0.30000,7
0.30833,6
0.31667,6
0.32500,5
0.33333,4
0.34167,4
0.35000,3
0.35833,3
0.36667,2
0.37500,1
0.38333,0
0.39167,0
0.40000,-0
0.40833,-0
0.41667,-1
0.42500,-2
0.43333,-3
0.44167,-4
0.45000,-4
0.45833,-5
0.46667,-5
0.47500,-6
0.48333,-6
0.49167,-6
0.50000,-7
0.50833,-7
0.51667,-7
0.52500,-8
0.53333,-8
0.54167,-8
0.55000,-8
0.55833,-8
0.56667,-8
0.57500,-8
0.58333,-7
0.59167,-7
0.60000,-7
0.60833,-6
0.61667,-6
0.62500,-6
0.63333,-5
0.64167,-5
0.65000,-5
0.65833,-4
0.66667,-3
0.67500,-3
0.68333,-2
0.69167,-1
0.70000,-0
0.70833,1
0.71667,1
0.72500,2
0.73333,3
0.74167,4
0.75000,5
0.75833,6
0.76667,7
0.77500,8
0.78333,9
0.79167,10
0.80000,11
0.80833,11
0.81667,12
0.82500,13
0.83333,13
0.84167,14
0.85000,15
0.85833,15
0.86667,16
0.87500,16
0.88333,17
0.89167,17
0.90000,17
0.90833,17
0.91667,17
0.92500,17
0.93333,17
0.94167,18
0.95000,17
0.95833,17
0.96667,17
0.97500,17
0.98333,17
0.99167,17
1.00000,17
1.00833,17
1.01667,16
1.02500,16
1.03333,16
1.04167,16
1.05000,15
1.05833,15
1.06667,14
1.07500,14
1.08333,14
1.09167,14
1.10000,14
1.10833,14
1.11667,14
1.12500,14
1.13333,13
1.14167,13
1.15000,13
1.15833,12
1.16667,12
1.17500,12
1.18333,12
1.19167,12
1.20000,12
1.20833,12
1.21667,12
1.22500,12
1.23333,12
1.24167,12
1.25000,12
1.25833,12
1.26667,12
1.27500,12
1.28333,13
1.29167,13
1.30000,13
1.30833,13
1.31667,13
1.32500,13
1.33333,13
1.34167,13
1.35000,13
1.35833,13
1.36667,13
1.37500,13
1.38333,13
1.39167,13
1.40000,13
1.40833,13
1.41667,13
1.42500,13
1.43333,12
1.44167,12
1.45000,11
1.45833,11
1.46667,11
1.47500,11
1.48333,10
1.49167,10
1.50000,9
1.50833,9
1.51667,9
1.52500,9
1.53333,8
1.54167,8
1.55000,8
1.55833,7
1.56667,7
1.57500,6
1.58333,6
1.59167,5
1.60000,4
1.60833,4
1.61667,3
1.62500,3
1.63333,2
1.64167,2
1.65000,1
1.65833,-0
1.66667,-1
1.67500,-1
1.68333,-2
1.69167,-3
1.70000,-4
1.70833,-4
1.71667,-5
1.72500,-6
1.73333,-7
1.74167,-8
1.75000,-8
1.75833,-9
1.76667,-9
1.77500,-10
1.78333,-11
1.79167,-11
1.80000,-12
1.80833,-13
1.81667,-13
1.82500,-13
1.83333,-14
1.84167,-15
1.85000,-16
1.85833,-17
1.86667,-18
1.87500,-18
1.88333,-19
1.89167,-20
1.90000,-21
1.90833,-21
1.91667,-22
1.92500,-22
1.93333,-22
1.94167,-23
1.95000,-23
1.95833,-23
1.96667,-24
1.97500,-24
1.98333,-24
1.99167,-24
2.00000,-24
2.00833,-24
2.01667,-25
2.02500,-25
2.03333,-25
2.04167,-25
2.05000,-25
2.05833,-25
2.06667,-25
2.07500,-25
2.08333,-24
2.09167,-24
2.10000,-24
2.10833,-23
2.11667,-23
2.12500,-23
2.13333,-22
2.14167,-22
2.15000,-22
2.15833,-21
2.16667,-21
2.17500,-21
2.18333,-20
2.19167,-20
2.20000,-19
2.20833,-19
2.21667,-18
2.22500,-18
2.23333,-17
2.24167,-16
2.25000,-16
2.25833,-15
2.26667,-15
2.27500,-14
2.28333,-14
2.29167,-13
2.30000,-13
2.30833,-12
2.31667,-12
2.32500,-12
2.33333,-11
2.34167,-11
2.35000,-10
2.35833,-9
2.36667,-9
2.37500,-8
2.38333,-8
2.39167,-8
2.40000,-8
2.40833,-7
2.41667,-7
2.42500,-7
2.43333,-7
2.44167,-7
2.45000,-7
2.45833,-7
2.46667,-7
2.47500,-6
2.48333,-6
2.49167,-6
2.50000,-6
2.50833,-6
2.51667,-6
2.52500,-6
2.53333,-6
2.54167,-6
2.55000,-6
2.55833,-6
2.56667,-6
2.57500,-6
2.58333,-6
2.59167,-6
2.60000,-7
2.60833,-7
2.61667,-7
2.62500,-7
2.63333,-7
2.64167,-8
2.65000,-8
2.65833,-8
2.66667,-8
2.67500,-9
2.68333,-9
2.69167,-9
2.70000,-9
2.70833,-9
2.71667,-9
2.72500,-10
2.73333,-10
2.74167,-10
2.75000,-11
2.75833,-11
2.76667,-11
2.77500,-11
2.78333,-12
2.79167,-12
2.80000,-12
2.80833,-12
2.81667,-12
2.82500,-12
2.83333,-12
2.84167,-12
2.85000,-12
2.85833,-12
2.86667,-13
2.87500,-12
2.88333,-12
2.89167,-13
2.90000,-13
2.90833,-13
2.91667,-13
2.92500,-13
2.93333,-12
2.94167,-12
2.95000,-12
2.95833,-12
2.96667,-11
2.97500,-11
2.98333,-11
2.99167,-11
3.00000,-11
3.00833,-11
3.01667,-11
3.02500,-11
3.03333,-10
3.04167,-10
3.05000,-10
3.05833,-9
3.06667,-9
3.07500,-8
3.08333,-7
3.09167,-6
3.10000,-6
3.10833,-5
3.11667,-5
3.12500,-5
3.13333,-4
3.14167,-3
3.15000,-2
3.15833,-2
3.16667,-1
3.17500,0
3.18333,1
3.19167,2
3.20000,3
3.20833,4
3.21667,5
3.22500,6
3.23333,7
3.24167,8
3.25000,8
3.25833,9
3.26667,10
3.27500,11
3.28333,12
3.29167,14
3.30000,15
3.30833,16
3.31667,16
3.32500,17
3.33333,18
3.34167,19
3.35000,20
3.35833,21
3.36667,22
3.37500,23
3.38333,24
3.39167,24
3.40000,25
3.40833,25
3.41667,26
3.42500,26
3.43333,27
3.44167,28
3.45000,29
3.45833,29
3.46667,30
3.47500,30
3.48333,30
3.49167,30
3.50000,30
3.50833,31
3.51667,31
3.52500,31
3.53333,31
3.54167,31
3.55000,31
3.55833,31
3.56667,30
3.57500,30
3.58333,30
3.59167,30
3.60000,29
3.60833,28
3.61667,27
3.62500,26
3.63333,26
3.64167,25
3.65000,24
3.65833,23
3.66667,22
3.67500,22
3.68333,21
3.69167,20
3.70000,19
3.70833,18
3.71667,17
3.72500,16
3.73333,15
3.74167,14
3.75000,13
3.75833,12
3.76667,11
3.77500,10
3.78333,9
3.79167,8
3.80000,7
3.80833,5
3.81667,4
3.82500,3
3.83333,2
3.84167,2
3.85000,1
3.85833,1
3.86667,-0
3.87500,-1
3.88333,-2
3.89167,-3
3.90000,-4
3.90833,-4
3.91667,-5
3.92500,-6
3.93333,-6
3.94167,-7
3.95000,-7
3.95833,-8
3.96667,-8
3.97500,-8
3.98333,-8
3.99167,-8
4.00000,-8
4.00833,-9
4.01667,-9
4.02500,-8
4.03333,-8
4.04167,-8
4.05000,-8
4.05833,-7
4.06667,-7
4.07500,-7
4.08333,-6
4.09167,-6
4.10000,-5
4.10833,-5
4.11667,-5
4.12500,-4
4.13333,-4
4.14167,-3
4.15000,-2
4.15833,-1
4.16667,-0
4.17500,1
4.18333,2
4.19167,3
4.20000,4
4.20833,5
4.21667,6
4.22500,7
4.23333,8
4.24167,9
4.25000,10
4.25833,11
4.26667,12
4.27500,14
4.28333,15
4.29167,15
4.30000,16
4.30833,17
4.31667,18
4.32500,19
4.33333,20
4.34167,21
4.35000,21
4.35833,22
4.36667,23
4.37500,24
4.38333,25
4.39167,26
4.40000,27
4.40833,27
4.41667,28
4.42500,28
4.43333,29
4.44167,29
4.45000,30
4.45833,30
4.46667,31
4.47500,31
4.48333,31
4.49167,31
4.50000,31
4.50833,31
4.51667,31
4.52500,31
4.53333,31
4.54167,31
4.55000,30
4.55833,30
4.56667,30
4.57500,29
4.58333,29
4.59167,28
4.60000,28
4.60833,27
4.61667,27
4.62500,26
4.63333,25
4.64167,24
4.65000,24
4.65833,23
4.66667,22
4.67500,22
4.68333,21
4.69167,20
4.70000,19
4.70833,19
4.71667,18
4.72500,17
4.73333,16
4.74167,16
4.75000,15
4.75833,14
4.76667,13
4.77500,12
4.78333,11
4.79167,11
4.80000,11
4.80833,10
4.81667,10
4.82500,9
4.83333,9
4.84167,8
4.85000,8
4.85833,7
4.86667,7
4.87500,6
4.88333,6
4.89167,5
4.90000,5
4.90833,5
4.91667,4
4.92500,4
4.93333,4
4.94167,4
4.95000,4
4.95833,4
4.96667,4
4.97500,4
4.98333,4
4.99167,4
5.00000,4
5.00833,4
5.01667,4
5.02500,4
5.03333,3
5.04167,3
5.05000,3
5.05833,3
5.06667,3
5.07500,3
5.08333,3
5.09167,3
5.10000,2
5.10833,2
5.11667,2
5.12500,2
5.13333,2
5.14167,1
5.15000,1
5.15833,0
5.16667,-0
5.17500,-2
5.18333,-3
5.19167,-3
5.20000,-4
5.20833,-4
5.21667,-5
5.22500,-5
5.23333,-6
5.24167,-7
5.25000,-8
5.25833,-9
5.26667,-10
5.27500,-10
5.28333,-11
5.29167,-12
5.30000,-12
5.30833,-13
5.31667,-14
5.32500,-15
5.33333,-15
5.34167,-16
5.35000,-16
5.35833,-17
5.36667,-18
5.37500,-18
5.38333,-19
5.39167,-19
5.40000,-20
5.40833,-20
5.41667,-21
5.42500,-21
5.43333,-21
5.44167,-21
5.45000,-21
5.45833,-21
5.46667,-21
5.47500,-21
5.48333,-21
5.49167,-20
5.50000,-20
5.50833,-20
5.51667,-20
5.52500,-20
5.53333,-19
5.54167,-19
5.55000,-19
5.55833,-19
5.56667,-19
5.57500,-18
5.58333,-17
5.59167,-16
5.60000,-16
5.60833,-15
5.61667,-15
5.62500,-14
5.63333,-14
5.64167,-13
5.65000,-13
5.65833,-12
5.66667,-11
5.67500,-10
5.68333,-10
5.69167,-10
5.70000,-9
5.70833,-8
5.71667,-8
5.72500,-7
5.73333,-7
5.74167,-6
5.75000,-6
5.75833,-5
5.76667,-5
5.77500,-4
5.78333,-4
5.79167,-4
5.80000,-4
5.80833,-3
5.81667,-3
5.82500,-4
5.83333,-3
5.84167,-3
5.85000,-3
5.85833,-3
5.86667,-3
5.87500,-3
5.88333,-3
5.89167,-3
5.90000,-2
5.90833,-2
5.91667,-2
5.92500,-2
5.93333,-2
5.94167,-2
5.95000,-2
5.95833,-2
5.96667,-2
5.97500,-2
5.98333,-2
5.99167,-2
6.00000,-1
6.00833,-1
6.01667,-1
6.02500,-0
6.03333,-0
6.04167,0
6.05000,0
6.05833,1
6.06667,1
6.07500,1
6.08333,2
6.09167,2
6.10000,3
6.10833,3
6.11667,4
6.12500,4
6.13333,5
6.14167,5
6.15000,5
6.15833,6
6.16667,7
6.17500,7
6.18333,7
6.19167,8
6.20000,8
6.20833,9
6.21667,10
6.22500,10
6.23333,11
6.24167,12
6.25000,12
6.25833,13
6.26667,14
6.27500,14
6.28333,14
6.29167,15
6.30000,15
6.30833,16
6.31667,16
6.32500,17
6.33333,17
6.34167,18
6.35000,18
6.35833,19
6.36667,19
6.37500,19
6.38333,19
6.39167,20
6.40000,20
6.40833,21
6.41667,21
6.42500,21
6.43333,21
6.44167,21
6.45000,21
6.45833,21
6.46667,21
6.47500,21
6.48333,21
6.49167,21
6.50000,21
6.50833,21
6.51667,22
6.52500,22
6.53333,22
6.54167,22
6.55000,22
6.55833,22
6.56667,21
6.57500,21
6.58333,21
6.59167,21
6.60000,21
6.60833,20
6.61667,20
6.62500,20
6.63333,19
6.64167,19
6.65000,19
6.65833,18
6.66667,18
6.67500,18
6.68333,17
6.69167,17
6.70000,16
6.70833,15
6.71667,15
6.72500,14
6.73333,14
6.74167,13
6.75000,13
6.75833,13
6.76667,12
6.77500,12
6.78333,12
6.79167,11
6.80000,11
6.80833,11
6.81667,10
6.82500,9
6.83333,9
6.84167,8
6.85000,8
6.85833,8
6.86667,7
6.87500,7
6.88333,7
6.89167,6
6.90000,6
6.90833,6
6.91667,6
6.92500,5
6.93333,5
6.94167,5
6.95000,5
6.95833,5
6.96667,5
6.97500,4
6.98333,4
6.99167,4
7.00000,4
7.00833,4
7.01667,4
7.02500,4
7.03333,5
7.04167,4
7.05000,5
7.05833,4
7.06667,4
7.07500,4
7.08333,4
7.09167,4
7.10000,4
7.10833,4
7.11667,4
7.12500,4
7.13333,4
7.14167,4
7.15000,4
7.15833,4
7.16667,4
7.17500,4
7.18333,4
7.19167,4
7.20000,4
7.20833,4
7.21667,4
7.22500,4
7.23333,4
7.24167,4
7.25000,4
7.25833,3
7.26667,3
7.27500,3
7.28333,3
7.29167,3
7.30000,3
7.30833,3
7.31667,3
7.32500,3
7.33333,3
7.34167,3
7.35000,3
7.35833,3
7.36667,3
7.37500,4
7.38333,4
7.39167,4
7.40000,5
7.40833,5
7.41667,6
7.42500,6
7.43333,6
7.44167,7
7.45000,7
7.45833,8
7.46667,8
7.47500,9
7.48333,10
7.49167,10
7.50000,11
7.50833,11
7.51667,12
7.52500,13
7.53333,14
7.54167,14
7.55000,14
7.55833,15
7.56667,15
7.57500,16
7.58333,17
7.59167,17
7.60000,18
7.60833,19
7.61667,20
7.62500,21
7.63333,22
7.64167,23
7.65000,24
7.65833,24
7.66667,25
7.67500,26
7.68333,26
7.69167,27
7.70000,27
7.70833,28
7.71667,28
7.72500,29
7.73333,30
7.74167,30
7.75000,29
7.75833,29
7.76667,29
7.77500,29
7.78333,29
7.79167,29
7.80000,30
7.80833,30
7.81667,30
7.82500,30
7.83333,30
7.84167,30
7.85000,29
7.85833,29
7.86667,28
7.87500,28
7.88333,27
7.89167,27
7.90000,27
7.90833,27
7.91667,27
7.92500,26
7.93333,26
7.94167,26
7.95000,25
7.95833,25
7.96667,25
7.97500,25
7.98333,24
7.99167,23
8.00000,23
8.00833,22
8.01667,22
8.02500,21
8.03333,21
8.04167,21
8.05000,21
8.05833,21
8.06667,21
8.07500,21
8.08333,20
8.09167,20
8.10000,19
8.10833,19
8.11667,19
8.12500,18
8.13333,18
8.14167,18
8.15000,17
8.15833,17
8.16667,17
8.17500,17
8.18333,16
8.19167,16
8.20000,15
8.20833,15
8.21667,15
8.22500,14
8.23333,14
8.24167,13
8.25000,12
8.25833,11
8.26667,11
8.27500,10
8.28333,9
8.29167,9
8.30000,8
8.30833,7
8.31667,6
8.32500,5
8.33333,4
8.34167,3
8.35000,2
8.35833,2
8.36667,1
8.37500,1
8.38333,0
8.39167,-0
8.40000,-1
8.40833,-2
8.41667,-2
8.42500,-3
8.43333,-4
8.44167,-5
8.45000,-5
8.45833,-6
8.46667,-7
8.47500,-7
8.48333,-8
8.49167,-8
8.50000,-9
8.50833,-9
8.51667,-10
8.52500,-10
8.53333,-11
8.54167,-11
8.55000,-11
8.55833,-11
8.56667,-11
8.57500,-11
8.58333,-11
8.59167,-11
8.60000,-12
8.60833,-11
8.61667,-11
8.62500,-11
8.63333,-10
8.64167,-10
8.65000,-10
8.65833,-10
8.66667,-9
8.67500,-9
8.68333,-9
8.69167,-8
8.70000,-7
8.70833,-6
8.71667,-6
8.72500,-5
8.73333,-5
8.74167,-4
8.75000,-3
8.75833,-3
8.76667,-2
8.77500,-1
8.78333,-0
8.79167,0
8.80000,1
8.80833,1
8.81667,2
8.82500,2
8.83333,3
8.84167,3
8.85000,4
8.85833,5
8.86667,5
8.87500,6
8.88333,7
8.89167,7
8.90000,8
8.90833,8
8.91667,9
8.92500,9
8.93333,10
8.94167,10
8.95000,11
8.95833,11
8.96667,12
8.97500,12
8.98333,13
8.99167,13
9.00000,14
9.00833,14
9.01667,15
9.02500,15
9.03333,16
9.04167,16
9.05000,17
9.05833,17
9.06667,17
9.07500,17
9.08333,17
9.09167,18
9.10000,18
9.10833,19
9.11667,19
9.12500,20
9.13333,20
9.14167,20
9.15000,21
9.15833,21
9.16667,22
9.17500,22
9.18333,22
9.19167,22
9.20000,22
9.20833,23
9.21667,23
9.22500,23
9.23333,23
9.24167,24
9.25000,24
9.25833,24
9.26667,25
9.27500,25
9.28333,26
9.29167,26
9.30000,26
9.30833,26
9.31667,27
9.32500,27
9.33333,27
9.34167,27
9.35000,27
9.35833,26
9.36667,26
9.37500,25
9.38333,25
9.39167,25
9.40000,24
9.40833,23
9.41667,23
9.42500,23
9.43333,23
9.44167,23
9.45000,22
9.45833,22
9.46667,21
9.47500,21
9.48333,21
9.49167,20
9.50000,20
9.50833,19
9.51667,19
9.52500,18
9.53333,17
9.54167,17
9.55000,16
9.55833,16
9.56667,15
9.57500,15
9.58333,15
9.59167,15
9.60000,15
9.60833,14
9.61667,14
9.62500,13
9.63333,13
9.64167,13
9.65000,12
9.65833,12
9.66667,13
9.67500,13
9.68333,13
9.69167,12
9.70000,13
9.70833,13
9.71667,13
9.72500,13
9.73333,13
9.74167,13
9.75000,14
9.75833,14
9.76667,14
9.77500,15
9.78333,15
9.79167,16
9.80000,17
9.80833,17
9.81667,17
9.82500,18
9.83333,19
9.84167,19
9.85000,20
9.85833,21
9.86667,22
9.87500,23
9.88333,23
9.89167,24
9.90000,25
9.90833,25
9.91667,26
9.92500,26
9.93333,27
9.94167,27
9.95000,28
9.95833,28
9.96667,29
9.97500,29
9.98333,30
9.99167,30
10.00000,30
10.00833,31
10.01667,31
10.02500,31
10.03333,31
10.04167,31
10.05000,31
10.05833,31
10.06667,31
10.07500,31
10.08333,30
10.09167,30
10.10000,30
10.10833,30
10.11667,29
10.12500,29
10.13333,28
10.14167,28
10.15000,28
10.15833,27
10.16667,26
10.17500,26
10.18333,25
10.19167,25
10.20000,24
10.20833,23
10.21667,23
10.22500,22
10.23333,22
10.24167,21
10.25000,21
10.25833,20
10.26667,20
10.27500,21
10.28333,21
10.29167,20
10.30000,20
10.30833,20
10.31667,20
10.32500,20
10.33333,20
10.34167,19
10.35000,19
10.35833,19
10.36667,19
10.37500,18
10.38333,18
10.39167,16
10.40000,15
10.40833,12
10.41667,9
10.42500,4
10.43333,-3
10.44167,-12
10.45000,-25
10.45833,-41
10.46667,-61
10.47500,-86
10.48333,-119
10.49167,-158
10.50000,-206
10.50833,-262
10.51667,-326
10.52500,-399
10.53333,-479
10.54167,-566
10.55000,-656
10.55833,-747
10.56667,-835
10.57500,-915
10.58333,-982
10.59167,-1030
10.60000,-1052
10.60833,-1040
10.61667,-988
10.62500,-888
10.63333,-732
10.64167,-513
10.65000,-222
10.65833,145
10.66667,597
10.67500,1137
10.68333,1773
10.69167,2508
10.70000,3345
10.70833,4289
10.71667,5341
10.72500,6504
10.73333,7779
10.74167,9167
10.75000,10668
10.75833,12280
10.76667,14004
10.77500,15838
10.78333,17781
10.79167,19830
10.80000,21984
10.80833,24238
10.81667,26589
10.82500,29034
10.83333,31568
10.84167,34186
10.85000,36881
10.85833,39648
10.86667,42479
10.87500,45364
10.88333,48291
10.89167,51250
10.90000,54224
10.90833,57195
10.91667,60141
10.92500,63036
10.93333,65848
10.94167,68539
10.95000,71067
10.95833,73379
10.96667,75422
10.97500,77134
10.98333,78456
10.99167,79327
11.00000,79696
11.00833,79519
11.01667,78767
11.02500,77430
11.03333,75518
11.04167,73062
11.05000,70113
11.05833,66738
11.06667,63017
11.07500,59038
11.08333,54891
11.09167,50667
11.10000,46447
11.10833,42305
11.11667,38303
11.12500,34489
11.13333,30902
11.14167,27564
11.15000,24489
11.15833,21683
11.16667,19143
11.17500,16859
11.18333,14819
11.19167,13006
11.20000,11404
11.20833,9994
11.21667,8757
11.22500,7676
11.23333,6732
11.24167,5912
11.25000,5200
11.25833,4582
11.26667,4046
11.27500,3583
11.28333,3181
11.29167,2834
11.30000,2533
11.30833,2273
11.31667,2047
11.32500,1851
11.33333,1680
11.34167,1531
11.35000,1401
11.35833,1286
11.36667,1186
11.37500,1097
11.38333,1018
11.39167,948
11.40000,886
11.40833,830
11.41667,780
11.42500,735
11.43333,694
11.44167,657
11.45000,623
11.45833,592
11.46667,562
11.47500,535
11.48333,510
11.49167,487
11.50000,466
11.50833,446
11.51667,427
11.52500,409
11.53333,392
11.54167,376
11.55000,361
11.55833,347
11.56667,334
11.57500,321
11.58333,309
11.59167,298
11.60000,287
11.60833,277
11.61667,267
11.62500,258
11.63333,250
11.64167,242
11.65000,234
11.65833,227
11.66667,220
11.67500,214
11.68333,208
11.69167,202
11.70000,196
11.70833,191
11.71667,186
11.72500,182
11.73333,178
11.74167,175
11.75000,171
11.75833,168
11.76667,165
11.77500,162
11.78333,159
11.79167,157
11.80000,155
11.80833,153
11.81667,152
11.82500,150
11.83333,149
11.84167,147
11.85000,146
11.85833,145
11.86667,143
11.87500,143
11.88333,142
11.89167,140
11.90000,139
11.90833,139
11.91667,138
11.92500,137
11.93333,137
11.94167,136
11.95000,135
11.95833,135
11.96667,134
11.97500,133
11.98333,132
11.99167,132
12.00000,131
12.00833,130
12.01667,129
12.02500,129
12.03333,128
12.04167,127
12.05000,126
12.05833,125
12.06667,124
12.07500,123
12.08333,123
12.09167,122
12.10000,121
12.10833,120
12.11667,119
12.12500,119
12.13333,118
12.14167,117
12.15000,116
12.15833,116
12.16667,115
12.17500,115
12.18333,114
12.19167,114
12.20000,113
12.20833,113
12.21667,113
12.22500,112
12.23333,111
12.24167,111
12.25000,110
12.25833,110
12.26667,110
12.27500,109
12.28333,108
12.29167,107
12.30000,106
12.30833,106
12.31667,106
12.32500,105
12.33333,105
12.34167,104
12.35000,103
12.35833,102
12.36667,101
12.37500,100
12.38333,100
12.39167,99
12.40000,98
12.40833,97
12.41667,97
12.42500,96
12.43333,95
12.44167,94
12.45000,94
12.45833,94
12.46667,93
12.47500,92
12.48333,91
12.49167,91
12.50000,90
12.50833,89
12.51667,88
12.52500,88
12.53333,87
12.54167,86
12.55000,86
12.55833,85
12.56667,85
12.57500,85
12.58333,84
12.59167,84
12.60000,83
12.60833,83
12.61667,83
12.62500,83
12.63333,84
12.64167,84
12.65000,84
12.65833,85
12.66667,86
12.67500,88
12.68333,90
12.69167,93
12.70000,97
12.70833,102
12.71667,108
12.72500,116
12.73333,125
12.74167,136
12.75000,150
12.75833,167
12.76667,186
12.77500,209
12.78333,236
12.79167,267
12.80000,302
12.80833,342
12.81667,388
12.82500,440
12.83333,497
12.84167,560
12.85000,630
12.85833,706
12.86667,790
12.87500,881
12.88333,978
12.89167,1083
12.90000,1195
12.90833,1314
12.91667,1440
12.92500,1574
12.93333,1714
12.94167,1861
12.95000,2015
12.95833,2176
12.96667,2344
12.97500,2518
12.98333,2697
12.99167,2883
13.00000,3075
13.00833,3272
13.01667,3475
13.02500,3683
13.03333,3897
13.04167,4116
13.05000,4339
13.05833,4567
13.06667,4800
13.07500,5037
13.08333,5278
13.09167,5523
13.10000,5773
13.10833,6026
13.11667,6283
13.12500,6544
13.13333,6808
13.14167,7076
13.15000,7347
13.15833,7621
13.16667,7899
13.17500,8180
13.18333,8465
13.19167,8752
13.20000,9043
13.20833,9336
13.21667,9633
13.22500,9932
13.23333,10234
13.24167,10539
13.25000,10847
13.25833,11157
13.26667,11471
13.27500,11787
13.28333,12106
13.29167,12428
13.30000,12752
13.30833,13080
13.31667,13410
13.32500,13743
13.33333,14079
13.34167,14417
13.35000,14758
13.35833,15102
13.36667,15449
13.37500,15799
13.38333,16151
13.39167,16506
13.40000,16863
13.40833,17224
13.41667,17587
13.42500,17953
13.43333,18322
13.44167,18694
13.45000,19068
13.45833,19446
13.46667,19826
13.47500,20209
13.48333,20595
13.49167,20984
13.50000,21377
13.50833,21772
13.51667,22170
13.52500,22571
13.53333,22976
13.54167,23383
13.55000,23793
13.55833,24206
13.56667,24623
13.57500,25043
13.58333,25467
13.59167,25893
13.60000,26323
13.60833,26755
13.61667,27192
13.62500,27631
13.63333,28074
13.64167,28521
13.65000,28971
13.65833,29425
13.66667,29882
13.67500,30343
13.68333,30807
13.69167,31275
13.70000,31747
13.70833,32222
13.71667,32702
13.72500,33184
13.73333,33671
13.74167,34161
13.75000,34656
13.75833,35154
13.76667,35656
13.77500,36163
13.78333,36673
13.79167,37188
13.80000,37707
13.80833,38230
13.81667,38758
13.82500,39289
13.83333,39825
13.84167,40366
13.85000,40910
13.85833,41460
13.86667,42013
13.87500,42572
13.88333,43135
13.89167,43702
13.90000,44275
13.90833,44852
13.91667,45434
13.92500,46021
13.93333,46613
13.94167,47210
13.95000,47812
13.95833,48419
13.96667,49031
13.97500,49648
13.98333,50270
13.99167,50898
14.00000,51531
14.00833,52170
14.01667,52813
14.02500,53463
14.03333,54117
14.04167,54777
14.05000,55444
14.05833,56116
14.06667,56793
14.07500,57477
14.08333,58167
14.09167,58862
14.10000,59564
14.10833,60272
14.11667,60986
14.12500,61706
14.13333,62432
14.14167,63165
14.15000,63905
14.15833,64651
14.16667,65403
14.17500,66162
14.18333,66927
14.19167,67699
14.20000,68479
14.20833,69266
14.21667,70059
14.22500,70860
14.23333,71667
14.24167,72481
14.25000,73302
14.25833,74128
14.26667,74959
14.27500,75791
14.28333,76621
14.29167,77441
14.30000,78240
14.30833,79003
14.31667,79711
14.32500,80336
14.33333,80848
14.34167,81210
14.35000,81381
14.35833,81319
14.36667,80983
14.37500,80333
14.38333,79337
14.39167,77970
14.40000,76219
14.40833,74083
14.41667,71574
14.42500,68715
14.43333,65546
14.44167,62112
14.45000,58469
14.45833,54679
14.46667,50805
14.47500,46910
14.48333,43054
14.49167,39291
14.50000,35669
14.50833,32225
14.51667,28988
14.52500,25979
14.53333,23208
14.54167,20679
14.55000,18389
14.55833,16330
14.56667,14490
14.57500,12854
14.58333,11404
14.59167,10126
14.60000,9002
14.60833,8015
14.61667,7150
14.62500,6393
14.63333,5731
14.64167,5151
14.65000,4644
14.65833,4200
14.66667,3810
14.67500,3468
14.68333,3168
14.69167,2903
14.70000,2670
14.70833,2463
14.71667,2280
14.72500,2117
14.73333,1972
14.74167,1842
14.75000,1726
14.75833,1622
14.76667,1528
14.77500,1444
14.78333,1367
14.79167,1298
14.80000,1236
14.80833,1178
14.81667,1126
14.82500,1078
14.83333,1034
14.84167,994
14.85000,956
14.85833,922
14.86667,890
14.87500,861
14.88333,834
14.89167,808
14.90000,785
14.90833,762
14.91667,742
14.92500,723
14.93333,705
14.94167,689
14.95000,674
14.95833,659
14.96667,646
14.97500,633
14.98333,621
14.99167,610
15.00000,600
15.00833,590
15.01667,581
15.02500,573
15.03333,565
15.04167,558
15.05000,551
15.05833,545
15.06667,539
15.07500,533
15.08333,528
15.09167,523
15.10000,518
15.10833,514
15.11667,509
15.12500,505
15.13333,502
15.14167,498
15.15000,495
15.15833,492
15.16667,488
15.17500,485
15.18333,482
15.19167,479
15.20000,477
15.20833,474
15.21667,472
15.22500,470
15.23333,468
15.24167,467
15.25000,466
15.25833,466
15.26667,466
15.27500,467
15.28333,469
15.29167,471
15.30000,474
15.30833,478
15.31667,484
15.32500,490
15.33333,498
15.34167,507
15.35000,517
15.35833,530
15.36667,543
15.37500,559
15.38333,576
15.39167,595
15.40000,615
15.40833,637
15.41667,662
15.42500,688
15.43333,716
15.44167,746
15.45000,777
15.45833,810
15.46667,844
15.47500,879
15.48333,915
15.49167,952
15.50000,989
15.50833,1026
15.51667,1064
15.52500,1102
15.53333,1139
15.54167,1175
15.55000,1210
15.55833,1243
15.56667,1275
15.57500,1305
15.58333,1333
15.59167,1358
15.60000,1381
15.60833,1401
15.61667,1418
15.62500,1432
15.63333,1442
15.64167,1449
15.65000,1454
15.65833,1455
15.66667,1452
15.67500,1447
15.68333,1439
15.69167,1427
15.70000,1413
15.70833,1395
15.71667,1376
15.72500,1354
15.73333,1329
15.74167,1303
15.75000,1275
15.75833,1245
15.76667,1214
15.77500,1182
15.78333,1149
15.79167,1114
15.80000,1080
15.80833,1045
15.81667,1009
15.82500,974
15.83333,939
15.84167,903
15.85000,869
15.85833,835
15.86667,802
15.87500,770
15.88333,739
15.89167,708
15.90000,679
15.90833,651
15.91667,623
15.92500,597
15.93333,573
15.94167,549
15.95000,527
15.95833,506
15.96667,485
15.97500,466
15.98333,448
15.99167,432
16.00000,416
16.00833,401
16.01667,387
16.02500,374
16.03333,362
16.04167,351
16.05000,341
16.05833,331
16.06667,322
16.07500,314
16.08333,307
16.09167,300
16.10000,293
16.10833,287
16.11667,282
16.12500,278
16.13333,273
16.14167,269
16.15000,266
16.15833,263
16.16667,260
16.17500,257
16.18333,254
16.19167,252
16.20000,250
16.20833,248
16.21667,246
16.22500,244
16.23333,243
16.24167,241
16.25000,240
16.25833,239
16.26667,239
16.27500,238
16.28333,237
16.29167,236
16.30000,236
16.30833,236
16.31667,236
16.32500,235
16.33333,235
16.34167,234
16.35000,234
16.35833,234
16.36667,233
16.37500,232
16.38333,232
16.39167,231
16.40000,230
16.40833,230
16.41667,229
16.42500,228
16.43333,227
16.44167,226
16.45000,225
16.45833,224
16.46667,223
16.47500,223
16.48333,222
16.49167,220
16.50000,219
16.50833,218
16.51667,217
16.52500,216
16.53333,214
16.54167,213
16.55000,211
16.55833,209
16.56667,207
16.57500,206
16.58333,205
16.59167,203
16.60000,201
16.60833,199
16.61667,197
16.62500,195
16.63333,193
16.64167,191
16.65000,189
16.65833,188
16.66667,186
16.67500,185
16.68333,183
16.69167,181
16.70000,179
16.70833,177
16.71667,175
16.72500,173
16.73333,171
16.74167,170
16.75000,168
16.75833,166
16.76667,164
16.77500,163
16.78333,161
16.79167,159
16.80000,158
16.80833,156
16.81667,154
16.82500,153
16.83333,151
16.84167,150
16.85000,148
16.85833,147
16.86667,146
16.87500,145
16.88333,144
16.89167,143
16.90000,142
16.90833,141
16.91667,140
16.92500,140
16.93333,139
16.94167,138
16.95000,138
16.95833,137
16.96667,137
16.97500,136
16.98333,136
16.99167,136
17.00000,136
17.00833,135
17.01667,134
17.02500,134
17.03333,134
17.04167,134
17.05000,134
17.05833,134
17.06667,134
17.07500,134
17.08333,134
17.09167,134
17.10000,133
17.10833,134
17.11667,134
17.12500,134
17.13333,134
17.14167,134
17.15000,134
17.15833,134
17.16667,135
17.17500,135
17.18333,136
17.19167,136
17.20000,136
17.20833,136
17.21667,136
17.22500,136
17.23333,136
17.24167,136
17.25000,136
17.25833,136
17.26667,136
17.27500,137
17.28333,137
17.29167,136
17.30000,136
17.30833,136
17.31667,136
17.32500,135
17.33333,135
17.34167,134
17.35000,134
17.35833,134
17.36667,135
17.37500,134
17.38333,134
17.39167,134
17.40000,134
17.40833,133
17.41667,133
17.42500,133
17.43333,133
17.44167,133
17.45000,133
17.45833,132
17.46667,132
17.47500,132
17.48333,132
17.49167,131
17.50000,131
17.50833,131
17.51667,130
17.52500,130
17.53333,129
17.54167,129
17.55000,129
17.55833,128
17.56667,128
17.57500,128
17.58333,128
17.59167,127
17.60000,127
17.60833,127
17.61667,126
17.62500,126
17.63333,125
17.64167,125
17.65000,125
17.65833,125
17.66667,125
17.67500,125
17.68333,125
17.69167,125
17.70000,124
17.70833,123
17.71667,122
17.72500,122
17.73333,121
17.74167,120
17.75000,120
17.75833,119
17.76667,118
17.77500,118
17.78333,117
17.79167,117
17.80000,116
17.80833,116
17.81667,115
17.82500,115
17.83333,114
17.84167,113
17.85000,113
17.85833,112
17.86667,111
17.87500,110
17.88333,110
17.89167,109
17.90000,108
17.90833,108
17.91667,107
17.92500,107
17.93333,106
17.94167,105
17.95000,104
17.95833,104
17.96667,103
17.97500,102
17.98333,101
17.99167,101
18.00000,100
18.00833,100
18.01667,99
18.02500,99
18.03333,98
18.04167,97
18.05000,96
18.05833,95
18.06667,94
18.07500,93
18.08333,92
18.09167,91
18.10000,91
18.10833,90
18.11667,90
18.12500,89
18.13333,89
18.14167,88
18.15000,87
18.15833,86
18.16667,85
18.17500,85
18.18333,84
18.19167,82
18.20000,81
18.20833,80
18.21667,79
18.22500,79
18.23333,78
18.24167,77
18.25000,77
18.25833,77
18.26667,76
18.27500,75
18.28333,74
18.29167,74
18.30000,73
18.30833,72
18.31667,71
18.32500,70
18.33333,69
18.34167,68
18.35000,67
18.35833,67
18.36667,67
18.37500,66
18.38333,66
18.39167,66
18.40000,66
18.40833,65
18.41667,65
18.42500,64
18.43333,63
18.44167,63
18.45000,62
18.45833,62
18.46667,61
18.47500,61
18.48333,60
18.49167,60
18.50000,60
18.50833,60
18.51667,60
18.52500,59
18.53333,59
18.54167,59
18.55000,58
18.55833,58
18.56667,58
18.57500,58
18.58333,58
18.59167,58
18.60000,58
18.60833,58
18.61667,58
18.62500,58
18.63333,58
18.64167,58
18.65000,59
18.65833,59
18.66667,59
18.67500,59
18.68333,60
18.69167,60
18.70000,60
18.70833,60
18.71667,60
18.72500,60
18.73333,60
18.74167,60
18.75000,60
18.75833,61
18.76667,61
18.77500,61
18.78333,61
18.79167,62
18.80000,62
18.80833,62
18.81667,63
18.82500,63
18.83333,64
18.84167,64
18.85000,65
18.85833,66
18.86667,67
18.87500,68
18.88333,68
18.89167,69
18.90000,70
18.90833,70
18.91667,71
18.92500,72
18.93333,72
18.94167,73
18.95000,73
18.95833,74
18.96667,75
18.97500,75
18.98333,75
18.99167,75
19.00000,75
19.00833,75
19.01667,75
19.02500,75
19.03333,75
19.04167,74
19.05000,74
19.05833,73
19.06667,73
19.07500,72
19.08333,72
19.09167,72
19.10000,71
19.10833,70
19.11667,69
19.12500,68
19.13333,68
19.14167,67
19.15000,66
19.15833,64
19.16667,63
19.17500,61
19.18333,60
19.19167,59
19.20000,58
19.20833,57
19.21667,56
19.22500,55
19.23333,54
19.24167,53
19.25000,52
19.25833,51
19.26667,50
19.27500,49
19.28333,48
19.29167,48
19.30000,47
19.30833,47
19.31667,46
19.32500,46
19.33333,45
19.34167,45
19.35000,44
19.35833,44
19.36667,44
19.37500,44
19.38333,44
19.39167,44
19.40000,44
19.40833,43
19.41667,43
19.42500,43
19.43333,44
19.44167,44
19.45000,45
19.45833,45
19.46667,46
19.47500,46
19.48333,47
19.49167,47
19.50000,47
19.50833,47
19.51667,48
19.52500,48
19.53333,48
19.54167,49
19.55000,49
19.55833,50
19.56667,50
19.57500,51
19.58333,51
19.59167,52
19.60000,52
19.60833,53
19.61667,53
19.62500,54
19.63333,54
19.64167,55
19.65000,55
19.65833,55
19.66667,55
19.67500,55
19.68333,55
19.69167,55
19.70000,56
19.70833,56
19.71667,56
19.72500,56
19.73333,56
19.74167,56
19.75000,56
19.75833,56
19.76667,55
19.77500,55
19.78333,54
19.79167,54
19.80000,53
19.80833,53
19.81667,52
19.82500,52
19.83333,51
19.84167,50
19.85000,49
19.85833,49
19.86667,48
19.87500,48
19.88333,47
19.89167,47
19.90000,46
19.90833,46
19.91667,45
19.92500,44
19.93333,43
19.94167,42
19.95000,41
19.95833,41
19.96667,40
19.97500,39
19.98333,38
19.99167,38
20.00000,37
20.00833,36
20.01667,36
20.02500,35
20.03333,35
20.04167,35
20.05000,34
20.05833,34
20.06667,33
20.07500,33
20.08333,33
20.09167,32
20.10000,32
20.10833,32
20.11667,31
20.12500,31
20.13333,31
20.14167,31
20.15000,31
20.15833,31
20.16667,30
20.17500,30
20.18333,30
20.19167,30
20.20000,30
20.20833,31
20.21667,31
20.22500,31
20.23333,31
20.24167,32
20.25000,32
20.25833,32
20.26667,33
20.27500,33
20.28333,33
20.29167,34
20.30000,34
20.30833,35
20.31667,35
20.32500,35
20.33333,36
20.34167,37
20.35000,37
20.35833,38
20.36667,38
20.37500,39
20.38333,40
20.39167,41
20.40000,42
20.40833,42
20.41667,43
20.42500,43
20.43333,44
20.44167,45
20.45000,45
20.45833,45
20.46667,46
20.47500,47
20.48333,47
20.49167,48
20.50000,49
20.50833,50
20.51667,50
20.52500,51
20.53333,51
20.54167,52
20.55000,52
20.55833,52
20.56667,53
20.57500,54
20.58333,54
20.59167,55
20.60000,55
20.60833,56
20.61667,56
20.62500,56
20.63333,57
20.64167,57
20.65000,57
20.65833,57
20.66667,58
20.67500,58
20.68333,59
20.69167,59
20.70000,59
20.70833,60
20.71667,60
20.72500,60
20.73333,60
20.74167,60
20.75000,60
20.75833,60
20.76667,60
20.77500,61
20.78333,61
20.79167,61
20.80000,61
20.80833,62
20.81667,61
20.82500,61
20.83333,61
20.84167,61
20.85000,60
20.85833,60
20.86667,60
20.87500,59
20.88333,59
20.89167,59
20.90000,58
20.90833,58
20.91667,58
20.92500,58
20.93333,58
20.94167,57
20.95000,57
20.95833,56
20.96667,56
20.97500,55
20.98333,54
20.99167,54
21.00000,53
21.00833,53
21.01667,52
21.02500,52
21.03333,51
21.04167,51
21.05000,50
21.05833,49
21.06667,49
21.07500,48
21.08333,48
21.09167,47
21.10000,47
21.10833,46
21.11667,46
21.12500,46
21.13333,45
21.14167,44
21.15000,44
21.15833,44
21.16667,43
21.17500,43
21.18333,43
21.19167,43
21.20000,43
21.20833,43
21.21667,42
21.22500,42
21.23333,42
21.24167,42
21.25000,41
21.25833,41
21.26667,41
21.27500,41
21.28333,41
21.29167,41
21.30000,41
21.30833,41
21.31667,41
21.32500,41
21.33333,41
21.34167,41
21.35000,41
21.35833,40
21.36667,40
21.37500,41
21.38333,41
21.39167,42
21.40000,42
21.40833,42
21.41667,43
21.42500,43
21.43333,44
21.44167,45
21.45000,45
21.45833,46
21.46667,46
21.47500,47
21.48333,47
21.49167,48
21.50000,49
21.50833,49
21.51667,50
21.52500,51
21.53333,52
21.54167,52
21.55000,53
21.55833,54
21.56667,55
21.57500,56
21.58333,57
21.59167,59
21.60000,60
21.60833,62
21.61667,64
21.62500,66
21.63333,68
21.64167,71
21.65000,73
21.65833,76
21.66667,79
21.67500,83
21.68333,87
21.69167,91
21.70000,95
21.70833,99
21.71667,104
21.72500,108
21.73333,113
21.74167,119
21.75000,125
21.75833,131
21.76667,137
21.77500,144
21.78333,152
21.79167,160
21.80000,168
21.80833,176
21.81667,185
21.82500,193
21.83333,202
21.84167,211
21.85000,219
21.85833,228
21.86667,238
21.87500,247
21.88333,256
21.89167,265
21.90000,274
21.90833,283
21.91667,291
21.92500,300
21.93333,308
21.94167,316
21.95000,323
21.95833,329
21.96667,335
21.97500,341
21.98333,346
21.99167,351
22.00000,355
22.00833,358
22.01667,361
22.02500,363
22.03333,364
22.04167,364
22.05000,365
22.05833,364
22.06667,363
22.07500,360
22.08333,357
22.09167,353
22.10000,349
22.10833,345
22.11667,340
22.12500,334
22.13333,327
22.14167,321
22.15000,314
22.15833,306
22.16667,299
22.17500,291
22.18333,282
22.19167,274
22.20000,265
22.20833,257
22.21667,249
22.22500,240
22.23333,231
22.24167,223
22.25000,215
22.25833,206
22.26667,198
22.27500,190
22.28333,182
22.29167,174
22.30000,167
22.30833,159
22.31667,152
22.32500,145
22.33333,138
22.34167,132
22.35000,126
22.35833,120
22.36667,115
22.37500,110
22.38333,105
22.39167,101
22.40000,97
22.40833,93
22.41667,89
22.42500,85
22.43333,82
22.44167,79
22.45000,76
22.45833,74
22.46667,71
22.47500,69
22.48333,67
22.49167,64
22.50000,62
22.50833,61
22.51667,59
22.52500,58
22.53333,57
22.54167,56
22.55000,55
22.55833,54
22.56667,53
22.57500,52
22.58333,51
22.59167,51
22.60000,51
22.60833,51
22.61667,50
22.62500,50
22.63333,49
22.64167,49
22.65000,49
22.65833,49
22.66667,49
22.67500,48
22.68333,48
22.69167,48
22.70000,48
22.70833,48
22.71667,48
22.72500,48
22.73333,48
22.74167,48
22.75000,48
22.75833,48
22.76667,48
22.77500,48
22.78333,48
22.79167,48
22.80000,48
22.80833,48
22.81667,48
22.82500,48
22.83333,48
22.84167,47
22.85000,47
22.85833,47
22.86667,47
22.87500,47
22.88333,47
22.89167,47
22.90000,47
22.90833,47
22.91667,47
22.92500,47
22.93333,47
22.94167,47
22.95000,47
22.95833,47
22.96667,47
22.97500,46
22.98333,46
22.99167,46
23.00000,46
23.00833,47
23.01667,47
23.02500,47
23.03333,47
23.04167,47
23.05000,47
23.05833,46
23.06667,46
23.07500,47
23.08333,47
23.09167,47
23.10000,47
23.10833,47
23.11667,48
23.12500,48
23.13333,48
23.14167,48
23.15000,48
23.15833,48
23.16667,48
23.17500,48
23.18333,48
23.19167,48
23.20000,48
23.20833,48
23.21667,48
23.22500,49
23.23333,49
23.24167,50
23.25000,50
23.25833,50
23.26667,51
23.27500,51
23.28333,51
23.29167,52
23.30000,52
23.30833,53
23.31667,53
23.32500,53
23.33333,54
23.34167,54
23.35000,54
23.35833,54
23.36667,55
23.37500,55
23.38333,55
23.39167,55
23.40000,55
23.40833,55
23.41667,56
23.42500,56
23.43333,57
23.44167,58
23.45000,58
23.45833,58
23.46667,58
23.47500,58
23.48333,58
23.49167,58
23.50000,58
23.50833,58
23.51667,58
23.52500,58
23.53333,58
23.54167,59
23.55000,59
23.55833,59
23.56667,59
23.57500,59
23.58333,58
23.59167,58
23.60000,58
23.60833,58
23.61667,59
23.62500,59
23.63333,59
23.64167,59
23.65000,59
23.65833,59
23.66667,59
23.67500,59
23.68333,60
23.69167,60
23.70000,60
23.70833,59
23.71667,59
23.72500,59
23.73333,59
23.74167,59
23.75000,59
23.75833,59
23.76667,59
23.77500,59
23.78333,59
23.79167,59
23.80000,59
23.80833,59
23.81667,58
23.82500,58
23.83333,58
23.84167,58
23.85000,58
23.85833,58
23.86667,58
23.87500,57
23.88333,57
23.89167,57
23.90000,56
23.90833,56
23.91667,55
23.92500,55
23.93333,54
23.94167,54
23.95000,53
23.95833,52
23.96667,51
23.97500,50
23.98333,50
23.99167,48
24.00000,47
24.00833,46
24.01667,45
24.02500,45
24.03333,44
24.04167,43
24.05000,42
24.05833,42
24.06667,41
24.07500,41
24.08333,40
24.09167,39
24.10000,39
24.10833,38
24.11667,37
24.12500,37
24.13333,36
24.14167,35
24.15000,34
24.15833,34
24.16667,33
24.17500,32
24.18333,32
24.19167,31
24.20000,30
24.20833,29
24.21667,28
24.22500,28
24.23333,28
24.24167,27
24.25000,27
24.25833,26
24.26667,26
24.27500,25
24.28333,25
24.29167,25
24.30000,24
24.30833,24
24.31667,24
24.32500,24
24.33333,24
24.34167,23
24.35000,23
24.35833,24
24.36667,24
24.37500,24
24.38333,24
24.39167,24
24.40000,24
24.40833,23
24.41667,23
24.42500,23
24.43333,23
24.44167,24
24.45000,25
24.45833,25
24.46667,25
24.47500,25
24.48333,25
24.49167,26
24.50000,26
24.50833,27
24.51667,28
24.52500,29
24.53333,30
24.54167,30
24.55000,31
24.55833,32
24.56667,33
24.57500,35
24.58333,36
24.59167,37
24.60000,39
24.60833,41
24.61667,42
24.62500,44
24.63333,46
24.64167,48
24.65000,50
24.65833,53
24.66667,55
24.67500,58
24.68333,61
24.69167,64
24.70000,67
24.70833,70
24.71667,73
24.72500,77
24.73333,81
24.74167,84
24.75000,88
24.75833,92
24.76667,96
24.77500,99
24.78333,103
24.79167,108
24.80000,112
24.80833,116
24.81667,120
24.82500,124
24.83333,128
24.84167,133
24.85000,137
24.85833,141
24.86667,145
24.87500,149
24.88333,153
24.89167,157
24.90000,161
24.90833,164
24.91667,168
24.92500,171
24.93333,174
24.94167,177
24.95000,180
24.95833,182
24.96667,184
24.97500,186
24.98333,188
24.99167,190
25.00000,192
25.00833,193
25.01667,193
25.02500,194
25.03333,194
25.04167,194
25.05000,193
25.05833,192
25.06667,191
25.07500,191
25.08333,189
25.09167,188
25.10000,186
25.10833,184
25.11667,182
25.12500,180
25.13333,178
25.14167,176
25.15000,173
25.15833,171
25.16667,168
25.17500,165
25.18333,162
25.19167,159
25.20000,156
25.20833,152
25.21667,149
25.22500,145
25.23333,141
25.24167,137
25.25000,133
25.25833,130
25.26667,126
25.27500,123
25.28333,119
25.29167,116
25.30000,112
25.30833,109
25.31667,105
25.32500,102
25.33333,99
25.34167,96
25.35000,92
25.35833,90
25.36667,87
25.37500,84
25.38333,81
25.39167,78
25.40000,76
25.40833,73
25.41667,70
25.42500,68
25.43333,66
25.44167,64
25.45000,62
25.45833,60
25.46667,58
25.47500,56
25.48333,54
25.49167,52
25.50000,51
25.50833,50
25.51667,49
25.52500,48
25.53333,46
25.54167,45
25.55000,45
25.55833,44
25.56667,43
25.57500,43
25.58333,42
25.59167,42
25.60000,41
25.60833,41
25.61667,41
25.62500,41
25.63333,41
25.64167,40
25.65000,40
25.65833,40
25.66667,41
25.67500,41
25.68333,42
25.69167,42
25.70000,42
25.70833,42
25.71667,43
25.72500,43
25.73333,43
25.74167,44
25.75000,44
25.75833,45
25.76667,45
25.77500,46
25.78333,47
25.79167,47
25.80000,47
25.80833,48
25.81667,49
25.82500,49
25.83333,50
25.84167,50
25.85000,51
25.85833,51
25.86667,51
25.87500,51
25.88333,52
25.89167,52
25.90000,52
25.90833,52
25.91667,53
25.92500,53
25.93333,52
25.94167,52
25.95000,52
25.95833,53
25.96667,53
25.97500,53
25.98333,53
25.99167,53
26.00000,53
26.00833,53
26.01667,53
26.02500,54
26.03333,54
26.04167,54
26.05000,54
26.05833,54
26.06667,55
26.07500,54
26.08333,54
26.09167,54
26.10000,54
26.10833,55
26.11667,55
26.12500,55
26.13333,55
26.14167,55
26.15000,56
26.15833,56
26.16667,57
26.17500,57
26.18333,58
26.19167,58
26.20000,59
26.20833,59
26.21667,59
26.22500,60
26.23333,60
26.24167,61
26.25000,61
26.25833,62
26.26667,62
26.27500,63
26.28333,63
26.29167,64
26.30000,64
26.30833,65
26.31667,65
26.32500,66
26.33333,66
26.34167,67
26.35000,68
26.35833,68
26.36667,68
26.37500,69
26.38333,69
26.39167,69
26.40000,69
26.40833,70
26.41667,70
26.42500,70
26.43333,71
26.44167,71
26.45000,71
26.45833,71
26.46667,71
26.47500,71
26.48333,71
26.49167,71
26.50000,72
26.50833,71
26.51667,71
26.52500,71
26.53333,71
26.54167,71
26.55000,71
26.55833,70
26.56667,70
26.57500,70
26.58333,70
26.59167,70
26.60000,70
26.60833,70
26.61667,70
26.62500,70
26.63333,70
26.64167,70
26.65000,70
26.65833,69
26.66667,69
26.67500,68
26.68333,68
26.69167,68
26.70000,67
26.70833,68
26.71667,67
26.72500,67
26.73333,67
26.74167,67
26.75000,67
26.75833,67
26.76667,67
26.77500,67
26.78333,67
26.79167,67
26.80000,67
26.80833,67
26.81667,66
26.82500,66
26.83333,66
26.84167,66
26.85000,66
26.85833,66
26.86667,66
26.87500,65
26.88333,65
26.89167,65
26.90000,65
26.90833,65
26.91667,65
26.92500,65
26.93333,65
26.94167,65
26.95000,65
26.95833,64
26.96667,64
26.97500,64
26.98333,63
26.99167,63
27.00000,62
27.00833,61
27.01667,61
27.02500,60
27.03333,59
27.04167,58
27.05000,58
27.05833,57
27.06667,57
27.07500,56
27.08333,55
27.09167,55
27.10000,54
27.10833,53
27.11667,52
27.12500,52
27.13333,51
27.14167,51
27.15000,50
27.15833,49
27.16667,49
27.17500,48
27.18333,48
27.19167,47
27.20000,46
27.20833,46
27.21667,45
27.22500,45
27.23333,44
27.24167,44
27.25000,44
27.25833,44
27.26667,44
27.27500,44
27.28333,43
27.29167,43
27.30000,43
27.30833,43
27.31667,43
27.32500,42
27.33333,43
27.34167,43
27.35000,43
27.35833,43
27.36667,43
27.37500,43
27.38333,43
27.39167,43
27.40000,43
27.40833,43
27.41667,44
27.42500,45
27.43333,46
27.44167,47
27.45000,48
27.45833,48
27.46667,49
27.47500,49
27.48333,50
27.49167,50
27.50000,51
27.50833,51
27.51667,52
27.52500,52
27.53333,53
27.54167,53
27.55000,54
27.55833,54
27.56667,55
27.57500,55
27.58333,56
27.59167,56
27.60000,57
27.60833,57
27.61667,58
27.62500,58
27.63333,59
27.64167,59
27.65000,60
27.65833,60
27.66667,60
27.67500,60
27.68333,60
27.69167,60
27.70000,60
27.70833,60
27.71667,60
27.72500,59
27.73333,59
27.74167,59
27.75000,58
27.75833,58
27.76667,57
27.77500,57
27.78333,56
27.79167,55
27.80000,54
27.80833,53
27.81667,52
27.82500,51
27.83333,50
27.84167,49
27.85000,48
27.85833,46
27.86667,44
27.87500,42
27.88333,40
27.89167,38
27.90000,35
27.90833,33
27.91667,30
27.92500,27
27.93333,25
27.94167,21
27.95000,18
27.95833,15
27.96667,12
27.97500,9
27.98333,5
27.99167,1
28.00000,-2
28.00833,-6
28.01667,-9
28.02500,-13
28.03333,-17
28.04167,-21
28.05000,-26
28.05833,-30
28.06667,-35
28.07500,-40
28.08333,-44
28.09167,-48
28.10000,-52
28.10833,-56
28.11667,-61
28.12500,-65
28.13333,-70
28.14167,-74
28.15000,-79
28.15833,-83
28.16667,-87
28.17500,-92
28.18333,-96
28.19167,-100
28.20000,-104
28.20833,-107
28.21667,-111
28.22500,-115
28.23333,-118
28.24167,-121
28.25000,-124
28.25833,-127
28.26667,-129
28.27500,-132
28.28333,-134
28.29167,-136
28.30000,-138
28.30833,-140
28.31667,-141
28.32500,-141
28.33333,-142
28.34167,-142
28.35000,-143
28.35833,-143
28.36667,-142
28.37500,-142
28.38333,-141
28.39167,-140
28.40000,-139
28.40833,-138
28.41667,-136
28.42500,-134
28.43333,-132
28.44167,-130
28.45000,-128
28.45833,-125
28.46667,-122
28.47500,-119
28.48333,-116
28.49167,-113
28.50000,-109
28.50833,-106
28.51667,-102
28.52500,-98
28.53333,-95
28.54167,-91
28.55000,-87
28.55833,-84
28.56667,-80
28.57500,-76
28.58333,-72
28.59167,-69
28.60000,-65
28.60833,-62
28.61667,-58
28.62500,-54
28.63333,-50
28.64167,-46
28.65000,-43
28.65833,-39
28.66667,-35
28.67500,-32
28.68333,-29
28.69167,-26
28.70000,-22
28.70833,-20
28.71667,-17
28.72500,-14
28.73333,-11
28.74167,-8
28.75000,-5
28.75833,-3
28.76667,-1
28.77500,0
28.78333,2
28.79167,4
28.80000,6
28.80833,8
28.81667,10
28.82500,12
28.83333,14
28.84167,16
28.85000,17
28.85833,18
28.86667,20
28.87500,21
28.88333,22
28.89167,23
28.90000,24
28.90833,25
28.91667,26
28.92500,27
28.93333,27
28.94167,28
28.95000,28
28.95833,29
28.96667,29
28.97500,29
28.98333,29
28.99167,30
29.00000,30
29.00833,31
29.01667,31
29.02500,31
29.03333,31
29.04167,32
29.05000,32
29.05833,31
29.06667,31
29.07500,31
29.08333,31
29.09167,31
29.10000,31
29.10833,31
29.11667,31
29.12500,31
29.13333,31
29.14167,31
29.15000,31
29.15833,31
29.16667,31
29.17500,30
29.18333,30
29.19167,29
29.20000,29
29.20833,28
29.21667,28
29.22500,28
29.23333,27
29.24167,27
29.25000,27
29.25833,26
29.26667,26
29.27500,25
29.28333,25
29.29167,24
29.30000,24
29.30833,23
29.31667,22
29.32500,21
29.33333,21
29.34167,20
29.35000,19
29.35833,19
29.36667,18
29.37500,18
29.38333,18
29.39167,17
29.40000,17
29.40833,17
29.41667,16
29.42500,16
29.43333,15
29.44167,14
29.45000,13
29.45833,13
29.46667,12
29.47500,12
29.48333,11
29.49167,10
29.50000,10
29.50833,9
29.51667,9
29.52500,9
29.53333,8
29.54167,8
29.55000,7
29.55833,7
29.56667,6
29.57500,6
29.58333,6
29.59167,5
29.60000,5
29.60833,5
29.61667,5
29.62500,5
29.63333,5
29.64167,5
29.65000,5
29.65833,5
29.66667,4
29.67500,4
29.68333,4
29.69167,5
29.70000,5
29.70833,5
29.71667,5
29.72500,5
29.73333,5
29.74167,5
29.75000,5
29.75833,5
29.76667,6
29.77500,6
29.78333,6
29.79167,6
29.80000,6
29.80833,6
29.81667,6
29.82500,7
29.83333,7
29.84167,7
29.85000,7
29.85833,7
29.86667,7
29.87500,7
29.88333,7
29.89167,7
29.90000,7
29.90833,7
29.91667,8
29.92500,8
29.93333,8
29.94167,8
29.95000,8
29.95833,8
29.96667,8
29.97500,8
29.98333,8
29.99167,8
30.00000,7
30.00833,8
30.01667,7
30.02500,7
30.03333,6
30.04167,6
30.05000,6
30.05833,6
30.06667,6
30.07500,6
30.08333,6
30.09167,6
30.10000,6
30.10833,6
30.11667,6
30.12500,6
30.13333,6
30.14167,6
30.15000,6
30.15833,7
30.16667,7
30.17500,7
30.18333,8
30.19167,8
30.20000,8
30.20833,8
30.21667,9
30.22500,9
30.23333,9
30.24167,10
30.25000,10
30.25833,11
30.26667,11
30.27500,12
30.28333,13
30.29167,13
30.30000,14
30.30833,14
30.31667,15
30.32500,15
30.33333,16
30.34167,17
30.35000,18
30.35833,18
30.36667,18
30.37500,19
30.38333,19
30.39167,20
30.40000,20
30.40833,20
30.41667,21
30.42500,21
30.43333,21
30.44167,21
30.45000,21
30.45833,21
30.46667,21
30.47500,21
30.48333,22
30.49167,22
30.50000,22
30.50833,22
30.51667,22
30.52500,22
30.53333,22
30.54167,22
30.55000,22
30.55833,22
30.56667,21
30.57500,21
30.58333,21
30.59167,21
30.60000,21
30.60833,21
30.61667,20
30.62500,20
30.63333,20
30.64167,20
30.65000,20
30.65833,19
30.66667,19
30.67500,18
30.68333,18
30.69167,18
30.70000,18
30.70833,18
30.71667,17
30.72500,17
30.73333,16
30.74167,16
30.75000,15
30.75833,15
30.76667,15
30.77500,15
30.78333,15
30.79167,15
30.80000,15
30.80833,15
30.81667,15
30.82500,15
30.83333,14
30.84167,14
30.85000,14
30.85833,14
30.86667,14
30.87500,14
30.88333,15
30.89167,15
30.90000,15
30.90833,15
30.91667,15
30.92500,15
30.93333,16
30.94167,16
30.95000,16
30.95833,16
30.96667,16
30.97500,16
30.98333,16
30.99167,17
31.00000,17
31.00833,18
31.01667,18
31.02500,19
31.03333,19
31.04167,20
31.05000,21
31.05833,22
31.06667,22
31.07500,23
31.08333,24
31.09167,24
31.10000,25
31.10833,25
31.11667,26
31.12500,26
31.13333,27
31.14167,27
31.15000,28
31.15833,29
31.16667,30
31.17500,30
31.18333,31
31.19167,32
31.20000,32
31.20833,33
31.21667,34
31.22500,35
31.23333,35
31.24167,36
31.25000,37
31.25833,37
31.26667,38
31.27500,39
31.28333,40
31.29167,41
31.30000,42
31.30833,43
31.31667,44
31.32500,45
31.33333,45
31.34167,45
31.35000,46
31.35833,46
31.36667,47
31.37500,48
31.38333,49
31.39167,50
31.40000,50
31.40833,50
31.41667,51
31.42500,51
31.43333,52
31.44167,52
31.45000,53
31.45833,53
31.46667,54
31.47500,54
31.48333,55
31.49167,55
31.50000,56
31.50833,56
31.51667,57
31.52500,57
31.53333,57
31.54167,57
31.55000,57
31.55833,58
31.56667,58
31.57500,58
31.58333,59
31.59167,59
31.60000,59
31.60833,59
31.61667,59
31.62500,60
31.63333,61
31.64167,61
31.65000,61
31.65833,62
31.66667,62
31.67500,62
31.68333,63
31.69167,63
31.70000,64
31.70833,64
31.71667,64
31.72500,64
31.73333,64
31.74167,63
31.75000,63
31.75833,63
31.76667,63
31.77500,63
31.78333,62
31.79167,62
31.80000,61
31.80833,61
31.81667,61
31.82500,61
31.83333,62
31.84167,62
31.85000,62
31.85833,62
31.86667,61
31.87500,61
31.88333,61
31.89167,61
31.90000,61
31.90833,61
31.91667,61
31.92500,61
31.93333,60
31.94167,60
31.95000,59
31.95833,59
31.96667,59
31.97500,58
31.98333,58
31.99167,58
32.00000,58
32.00833,57
32.01667,57
32.02500,57
32.03333,56
32.04167,56
32.05000,56
32.05833,55
32.06667,54
32.07500,54
32.08333,54
32.09167,54
32.10000,54
32.10833,54
32.11667,53
32.12500,53
32.13333,53
32.14167,52
32.15000,52
32.15833,52
32.16667,52
32.17500,51
32.18333,51
32.19167,50
32.20000,49
32.20833,49
32.21667,48
32.22500,48
32.23333,48
32.24167,48
32.25000,47
32.25833,47
32.26667,47
32.27500,47
32.28333,46
32.29167,46
32.30000,45
32.30833,45
32.31667,45
32.32500,45
32.33333,44
32.34167,44
32.35000,44
32.35833,44
32.36667,44
32.37500,44
32.38333,43
32.39167,42
32.40000,42
32.40833,42
32.41667,41
32.42500,42
32.43333,42
32.44167,42
32.45000,42
32.45833,41
32.46667,41
32.47500,41
32.48333,40
32.49167,40
32.50000,40
32.50833,39
32.51667,39
32.52500,39
32.53333,39
32.54167,39
32.55000,38
32.55833,38
32.56667,38
32.57500,38
32.58333,37
32.59167,37
32.60000,37
32.60833,37
32.61667,37
32.62500,38
32.63333,38
32.64167,38
32.65000,37
32.65833,37
32.66667,37
32.67500,37
32.68333,37
32.69167,37
32.70000,37
32.70833,38
32.71667,38
32.72500,38
32.73333,38
32.74167,38
32.75000,38
32.75833,38
32.76667,38
32.77500,38
32.78333,38
32.79167,37
32.80000,38
32.80833,38
32.81667,38
32.82500,39
32.83333,39
32.84167,39
32.85000,39
32.85833,39
32.86667,40
32.87500,40
32.88333,40
32.89167,41
32.90000,41
32.90833,41
32.91667,41
32.92500,42
32.93333,42
32.94167,43
32.95000,43
32.95833,43
32.96667,44
32.97500,44
32.98333,45
32.99167,45
33.00000,45
33.00833,46
33.01667,46
33.02500,47
33.03333,47
33.04167,48
33.05000,49
33.05833,50
33.06667,51
33.07500,52
33.08333,53
33.09167,54
33.10000,55
33.10833,56
33.11667,57
33.12500,58
33.13333,59
33.14167,60
33.15000,60
33.15833,61
33.16667,62
33.17500,63
33.18333,63
33.19167,64
33.20000,65
33.20833,65
33.21667,65
33.22500,66
33.23333,66
33.24167,67
33.25000,68
33.25833,68
33.26667,68
33.27500,68
33.28333,68
33.29167,68
33.30000,68
33.30833,68
33.31667,68
33.32500,68
33.33333,68
33.34167,68
33.35000,68
33.35833,68
33.36667,68
33.37500,67
33.38333,66
33.39167,66
33.40000,66
33.40833,65
33.41667,64
33.42500,64
33.43333,63
33.44167,62
33.45000,61
33.45833,61
33.46667,59
33.47500,59
33.48333,58
33.49167,57
33.50000,57
33.50833,56
33.51667,56
33.52500,55
33.53333,54
33.54167,53
33.55000,52
33.55833,52
33.56667,51
33.57500,51
33.58333,50
33.59167,49
33.60000,49
33.60833,48
33.61667,48
33.62500,48
33.63333,47
33.64167,46
33.65000,46
33.65833,45
33.66667,45
33.67500,44
33.68333,44
33.69167,43
33.70000,43
33.70833,43
33.71667,43
33.72500,43
33.73333,43
33.74167,42
33.75000,42
33.75833,42
33.76667,42
33.77500,42
33.78333,43
33.79167,42
33.80000,43
33.80833,43
33.81667,43
33.82500,44
33.83333,44
33.84167,44
33.85000,45
33.85833,45
33.86667,46
33.87500,46
33.88333,47
33.89167,47
33.90000,48
33.90833,48
33.91667,49
33.92500,49
33.93333,50
33.94167,51
33.95000,52
33.95833,52
33.96667,53
33.97500,54
33.98333,55
33.99167,56
34.00000,56
34.00833,57
34.01667,57
34.02500,58
34.03333,58
34.04167,59
34.05000,60
34.05833,60
34.06667,60
34.07500,60
34.08333,61
34.09167,62
34.10000,62
34.10833,63
34.11667,63
34.12500,63
34.13333,63
34.14167,63
34.15000,63
34.15833,63
34.16667,62
34.17500,62
34.18333,62
34.19167,62
34.20000,62
34.20833,62
34.21667,62
34.22500,62
34.23333,62
34.24167,61
34.25000,61
34.25833,61
34.26667,61
34.27500,60
34.28333,60
34.29167,59
34.30000,58
34.30833,58
34.31667,57
34.32500,57
34.33333,56
34.34167,55
34.35000,54
34.35833,54
34.36667,52
34.37500,52
34.38333,51
34.39167,50
34.40000,49
34.40833,48
34.41667,47
34.42500,46
34.43333,45
34.44167,44
34.45000,43
34.45833,42
34.46667,41
34.47500,40
34.48333,39
34.49167,39
34.50000,38
34.50833,37
34.51667,36
34.52500,35
34.53333,34
34.54167,33
34.55000,32
34.55833,32
34.56667,32
34.57500,31
34.58333,30
34.59167,30
34.60000,29
34.60833,29
34.61667,28
34.62500,28
34.63333,28
34.64167,28
34.65000,28
34.65833,28
34.66667,28
34.67500,28
34.68333,28
34.69167,28
34.70000,28
34.70833,27
34.71667,28
34.72500,28
34.73333,28
34.74167,29
34.75000,29
34.75833,30
34.76667,30
34.77500,30
34.78333,30
34.79167,31
34.80000,31
34.80833,32
34.81667,33
34.82500,34
34.83333,35
34.84167,36
34.85000,37
34.85833,37
34.86667,38
34.87500,38
34.88333,39
34.89167,40
34.90000,41
34.90833,42
34.91667,43
34.92500,44
34.93333,45
34.94167,46
34.95000,47
34.95833,48
34.96667,49
34.97500,50
34.98333,51
34.99167,52
35.00000,53
35.00833,53
35.01667,53
35.02500,54
35.03333,54
35.04167,55
35.05000,56
35.05833,57
35.06667,58
35.07500,59
35.08333,59
35.09167,60
35.10000,61
35.10833,62
35.11667,62
35.12500,63
35.13333,63
35.14167,64
35.15000,64
35.15833,64
35.16667,64
35.17500,65
35.18333,65
35.19167,66
35.20000,66
35.20833,67
35.21667,67
35.22500,67
35.23333,68
35.24167,68
35.25000,68
35.25833,68
35.26667,68
35.27500,68
35.28333,68
35.29167,68
35.30000,68
35.30833,68
35.31667,68
35.32500,67
35.33333,67
35.34167,66
35.35000,65
35.35833,64
35.36667,63
35.37500,63
35.38333,62
35.39167,62
35.40000,61
35.40833,61
35.41667,60
35.42500,59
35.43333,58
35.44167,58
35.45000,57
35.45833,56
35.46667,56
35.47500,55
35.48333,53
35.49167,52
35.50000,51
35.50833,50
35.51667,49
35.52500,48
35.53333,47
35.54167,47
35.55000,46
35.55833,45
35.56667,45
35.57500,44
35.58333,43
35.59167,42
35.60000,42
35.60833,42
35.61667,42
35.62500,42
35.63333,42
35.64167,42
35.65000,42
35.65833,42
35.66667,42
35.67500,42
35.68333,42
35.69167,41
35.70000,41
35.70833,42
35.71667,42
35.72500,42
35.73333,42
35.74167,42
35.75000,42
35.75833,42
35.76667,42
35.77500,43
35.78333,43
35.79167,44
35.80000,44
35.80833,44
35.81667,45
35.82500,46
35.83333,46
35.84167,46
35.85000,47
35.85833,47
35.86667,48
35.87500,49
35.88333,49
35.89167,50
35.90000,51
35.90833,51
35.91667,51
35.92500,52
35.93333,53
35.94167,53
35.95000,54
35.95833,54
35.96667,55
35.97500,55
35.98333,56
35.99167,56
36.00000,57
36.00833,57
36.01667,57
36.02500,58
36.03333,58
36.04167,59
36.05000,60
36.05833,60
36.06667,60
36.07500,61
36.08333,61
36.09167,62
36.10000,62
36.10833,63
36.11667,64
36.12500,65
36.13333,65
36.14167,66
36.15000,66
36.15833,66
36.16667,67
36.17500,67
36.18333,68
36.19167,68
36.20000,69
36.20833,69
36.21667,70
36.22500,70
36.23333,70
36.24167,71
36.25000,71
36.25833,71
36.26667,71
36.27500,71
36.28333,71
36.29167,71
36.30000,71
36.30833,71
36.31667,71
36.32500,71
36.33333,71
36.34167,71
36.35000,71
36.35833,70
36.36667,70
36.37500,69
36.38333,69
36.39167,69
36.40000,68
36.40833,68
36.41667,68
36.42500,67
36.43333,67
36.44167,67
36.45000,66
36.45833,65
36.46667,65
36.47500,64
36.48333,63
36.49167,62
36.50000,60
36.50833,60
36.51667,59
36.52500,59
36.53333,58
36.54167,57
36.55000,56
36.55833,55
36.56667,54
36.57500,53
36.58333,53
36.59167,52
36.60000,51
36.60833,51
36.61667,50
36.62500,49
36.63333,48
36.64167,47
36.65000,47
36.65833,46
36.66667,45
36.67500,45
36.68333,45
36.69167,44
36.70000,44
36.70833,44
36.71667,43
36.72500,42
36.73333,42
36.74167,41
36.75000,41
36.75833,40
36.76667,39
36.77500,39
36.78333,39
36.79167,39
36.80000,39
36.80833,38
36.81667,38
36.82500,37
36.83333,37
36.84167,37
36.85000,36
36.85833,36
36.86667,36
36.87500,36
36.88333,36
36.89167,35
36.90000,35
36.90833,35
36.91667,34
36.92500,34
36.93333,34
36.94167,34
36.95000,34
36.95833,34
36.96667,33
36.97500,33
36.98333,33
36.99167,33
37.00000,33
37.00833,32
37.01667,33
37.02500,33
37.03333,33
37.04167,33
37.05000,33
37.05833,33
37.06667,33
37.07500,33
37.08333,34
37.09167,34
37.10000,34
37.10833,34
37.11667,35
37.12500,35
37.13333,36
37.14167,37
37.15000,37
37.15833,38
37.16667,39
37.17500,40
37.18333,41
37.19167,42
37.20000,43
37.20833,44
37.21667,45
37.22500,46
37.23333,47
37.24167,48
37.25000,49
37.25833,51
37.26667,52
37.27500,53
37.28333,54
37.29167,55
37.30000,56
37.30833,58
37.31667,58
37.32500,59
37.33333,60
37.34167,61
37.35000,61
37.35833,62
37.36667,63
37.37500,64
37.38333,64
37.39167,65
37.40000,66
37.40833,66
37.41667,67
37.42500,67
37.43333,68
37.44167,69
37.45000,70
37.45833,70
37.46667,71
37.47500,71
37.48333,72
37.49167,72
37.50000,72
37.50833,72
37.51667,72
37.52500,72
37.53333,72
37.54167,72
37.55000,71
37.55833,71
37.56667,71
37.57500,71
37.58333,70
37.59167,70
37.60000,70
37.60833,69
37.61667,69
37.62500,68
37.63333,68
37.64167,68
37.65000,67
37.65833,67
37.66667,66
37.67500,66
37.68333,65
37.69167,65
37.70000,64
37.70833,63
37.71667,62
37.72500,62
37.73333,61
37.74167,61
37.75000,60
37.75833,60
37.76667,59
37.77500,59
37.78333,59
37.79167,58
37.80000,58
37.80833,57
37.81667,56
37.82500,55
37.83333,55
37.84167,54
37.85000,53
37.85833,52
37.86667,52
37.87500,51
37.88333,51
37.89167,50
37.90000,50
37.90833,50
37.91667,49
37.92500,49
37.93333,48
37.94167,48
37.95000,48
37.95833,48
37.96667,48
37.97500,48
37.98333,48
37.99167,48
38.00000,48
38.00833,48
38.01667,48
38.02500,49
38.03333,49
38.04167,49
38.05000,49
38.05833,49
38.06667,49
38.07500,50
38.08333,50
38.09167,51
38.10000,51
38.10833,52
38.11667,52
38.12500,52
38.13333,53
38.14167,53
38.15000,54
38.15833,54
38.16667,55
38.17500,56
38.18333,57
38.19167,57
38.20000,58
38.20833,58
38.21667,59
38.22500,59
38.23333,59
38.24167,60
38.25000,60
38.25833,60
38.26667,60
38.27500,61
38.28333,61
38.29167,62
38.30000,62
38.30833,62
38.31667,63
38.32500,63
38.33333,63
38.34167,63
38.35000,63
38.35833,64
38.36667,64
38.37500,65
38.38333,65
38.39167,65
38.40000,65
38.40833,65
38.41667,65
38.42500,65
38.43333,66
38.44167,66
38.45000,66
38.45833,65
38.46667,65
38.47500,65
38.48333,65
38.49167,65
38.50000,65
38.50833,65
38.51667,65
38.52500,64
38.53333,64
38.54167,63
38.55000,62
38.55833,61
38.56667,60
38.57500,59
38.58333,58
38.59167,58
38.60000,57
38.60833,56
38.61667,54
38.62500,53
38.63333,52
38.64167,51
38.65000,50
38.65833,49
38.66667,48
38.67500,47
38.68333,45
38.69167,45
38.70000,44
38.70833,42
38.71667,41
38.72500,40
38.73333,39
38.74167,38
38.75000,36
38.75833,35
38.76667,34
38.77500,33
38.78333,32
38.79167,31
38.80000,31
38.80833,30
38.81667,29
38.82500,28
38.83333,28
38.84167,27
38.85000,26
38.85833,26
38.86667,25
38.87500,25
38.88333,25
38.89167,25
38.90000,26
38.90833,26
38.91667,26
38.92500,26
38.93333,26
38.94167,26
38.95000,26
38.95833,27
38.96667,27
38.97500,27
38.98333,28
38.99167,28
39.00000,29
39.00833,29
39.01667,29
39.02500,30
39.03333,31
39.04167,32
39.05000,33
39.05833,33
39.06667,34
39.07500,35
39.08333,35
39.09167,36
39.10000,37
39.10833,38
39.11667,39
39.12500,39
39.13333,40
39.14167,41
39.15000,41
39.15833,42
39.16667,42
39.17500,43
39.18333,44
39.19167,44
39.20000,45
39.20833,46
39.21667,47
39.22500,48
39.23333,48
39.24167,48
39.25000,49
39.25833,49
39.26667,50
39.27500,51
39.28333,52
39.29167,53
39.30000,54
39.30833,55
39.31667,56
39.32500,57
39.33333,57
39.34167,58
39.35000,59
39.35833,60
39.36667,60
39.37500,61
39.38333,62
39.39167,63
39.40000,63
39.40833,64
39.41667,64
39.42500,65
39.43333,66
39.44167,66
39.45000,67
39.45833,67
39.46667,68
39.47500,69
39.48333,69
39.49167,70
39.50000,70
39.50833,71
39.51667,71
39.52500,71
39.53333,71
39.54167,71
39.55000,71
39.55833,71
39.56667,70
39.57500,70
39.58333,70
39.59167,70
39.60000,70
39.60833,70
39.61667,69
39.62500,69
39.63333,69
39.64167,68
39.65000,68
39.65833,67
39.66667,67
39.67500,66
39.68333,65
39.69167,64
39.70000,63
39.70833,63
39.71667,62
39.72500,61
39.73333,61
39.74167,60
39.75000,59
39.75833,58
39.76667,58
39.77500,57
39.78333,57
39.79167,56
39.80000,56
39.80833,55
39.81667,55
39.82500,54
39.83333,54
39.84167,54
39.85000,53
39.85833,53
39.86667,53
39.87500,52
39.88333,52
39.89167,52
39.90000,52
39.90833,52
39.91667,51
39.92500,51
39.93333,51
39.94167,50
39.95000,50
39.95833,50
39.96667,50
39.97500,49
39.98333,49
39.99167,49
40.00000,50

