[Header]
Application Name,LabSolutions
Version,5.97 SP1
Data File Name,C:\Users\cremerlab\Desktop\griffin\2021-04-05_NC_DM_calibration\2021-04-05_NC_DM_2.5mM_calibration_452021_001_023.lcd
Output Date,4/6/2021
Output Time,9:13:20 AM

[File Information]
Type,Data File
Generated,4/6/2021 8:33:01 AM
Generated by,System Administrator
Modified,4/6/2021 9:13:20 AM
Modified by,System Administrator

[Sample Information]
Operator Name,System Administrator
Acquired,4/6/2021 8:33:20 AM
Sample Type,1:Standard
Level,1
Sample Name,2021-04-05_DM_glucose_glycerol_acetate_0.5mM
Sample ID,001
ISTD Amount1,1
ISTD Amount2,1
ISTD Amount3,1
ISTD Amount4,1
ISTD Amount5,1
ISTD Amount6,1
ISTD Amount7,1
ISTD Amount8,1
ISTD Amount9,1
ISTD Amount10,1
ISTD Amount11,1
ISTD Amount12,1
ISTD Amount13,1
ISTD Amount14,1
ISTD Amount15,1
ISTD Amount16,1
ISTD Amount17,1
ISTD Amount18,1
ISTD Amount19,1
ISTD Amount20,1
ISTD Amount21,1
ISTD Amount22,1
ISTD Amount23,1
ISTD Amount24,1
ISTD Amount25,1
ISTD Amount26,1
ISTD Amount27,1
ISTD Amount28,1
ISTD Amount29,1
ISTD Amount30,1
ISTD Amount31,1
ISTD Amount32,1
Sample Amount,1
Dilution Factor,1
Vial#,28
Injection Volume,20

[Original Files]
Data File,C:\Users\cremerlab\Desktop\griffin\2021-04-05_NC_DM_calibration\2021-04-05_NC_DM_2.5mM_calibration_452021_001_023.lcd
Method File,C:\Users\cremerlab\Desktop\griffin\2021-04-05_NC_DM_calibration\2021-04-05_2.5mM_mobile.lcm
Batch File,C:\Users\cremerlab\Desktop\griffin\2021-04-05_NC_DM_calibration\2021-04-05_NC_DM_2.5mM_calibration.lcb
Report Format File,c:\LabSolutions\System\DEFAULT.lsr

[File Description]


[Configuration]
Instrument Name,HPLC-PC-Instrument1
Instrument #,1
Line #,1
# of Detectors,2
Detector ID,Detector A,Detector B
Detector Name,Detector A,Detector B
# of Channels,1,1

[Peak Table(Detector A)]
# of Peaks,0

[Peak Table(Detector B)]
# of Peaks,6
Peak#,R.Time,I.Time,F.Time,Area,Height,A/H,Conc.,Mark,ID#,Name,k',Plate #,Plate Ht.,Tailing,Resolution,Sep.Factor,Area Ratio,Height Ratio,Conc. %,Norm Conc.
1,10.884,10.433,12.092,226564,13397,16.911,0.000,   ,,,0.000,9454,15.867,1.050,0.000,0.000,0,0,0.000,0.000
2,13.899,12.500,14.175,1564748,42636,36.700,0.000,   ,,,0.277,3244,46.233,0.000,4.235,0.000,0,0,0.000,0.000
3,14.323,14.175,15.017,147138,8059,18.258,0.000, V ,,,0.316,7704,19.470,0.000,0.520,1.140,0,0,0.000,0.000
4,15.671,15.208,16.400,46331,1964,23.586,0.000,   ,,,0.440,9863,15.208,1.143,2.100,1.392,0,0,0.000,0.000
5,22.054,21.542,22.675,13760,522,26.356,0.000,   ,,,1.026,15420,9.728,1.047,9.517,2.334,0,0,0.000,0.000
6,25.033,24.558,25.675,5906,199,29.670,0.000,   ,,,1.300,15397,9.742,1.125,3.926,1.267,0,0,0.000,0.000

[LC Chromatogram(Detector B-Ch1)]
Interval(msec),500
# of Points,4801
Start Time(min),0.000
End Time(min),40.000
Intensity Units,mV
Intensity Multiplier,0.001
R.Time (min),Intensity
0.00000,3
0.00833,3
0.01667,0
0.02500,0
0.03333,0
0.04167,1
0.05000,1
0.05833,1
0.06667,1
0.07500,1
0.08333,1
0.09167,2
0.10000,2
0.10833,2
0.11667,2
0.12500,2
0.13333,2
0.14167,3
0.15000,3
0.15833,3
0.16667,3
0.17500,3
0.18333,3
0.19167,3
0.20000,3
0.20833,4
0.21667,4
0.22500,4
0.23333,4
0.24167,4
0.25000,4
0.25833,3
0.26667,3
0.27500,3
0.28333,4
0.29167,3
0.30000,3
0.30833,3
0.31667,3
0.32500,3
0.33333,3
0.34167,2
0.35000,2
0.35833,2
0.36667,1
0.37500,1
0.38333,1
0.39167,1
0.40000,2
0.40833,2
0.41667,2
0.42500,1
0.43333,1
0.44167,1
0.45000,1
0.45833,1
0.46667,1
0.47500,1
0.48333,1
0.49167,1
0.50000,1
0.50833,1
0.51667,1
0.52500,1
0.53333,1
0.54167,1
0.55000,1
0.55833,1
0.56667,2
0.57500,2
0.58333,2
0.59167,2
0.60000,2
0.60833,2
0.61667,2
0.62500,2
0.63333,2
0.64167,2
0.65000,2
0.65833,2
0.66667,2
0.67500,2
0.68333,2
0.69167,2
0.70000,2
0.70833,2
0.71667,2
0.72500,2
0.73333,3
0.74167,3
0.75000,3
0.75833,3
0.76667,2
0.77500,2
0.78333,2
0.79167,2
0.80000,3
0.80833,3
0.81667,3
0.82500,3
0.83333,3
0.84167,3
0.85000,3
0.85833,3
0.86667,3
0.87500,3
0.88333,3
0.89167,3
0.90000,3
0.90833,3
0.91667,4
0.92500,3
0.93333,3
0.94167,3
0.95000,3
0.95833,4
0.96667,4
0.97500,4
0.98333,4
0.99167,3
1.00000,3
1.00833,3
1.01667,3
1.02500,2
1.03333,2
1.04167,1
1.05000,1
1.05833,1
1.06667,0
1.07500,-0
1.08333,-0
1.09167,-1
1.10000,-1
1.10833,-1
1.11667,-2
1.12500,-2
1.13333,-2
1.14167,-3
1.15000,-3
1.15833,-3
1.16667,-3
1.17500,-4
1.18333,-4
1.19167,-4
1.20000,-4
1.20833,-4
1.21667,-5
1.22500,-5
1.23333,-5
1.24167,-5
1.25000,-5
1.25833,-5
1.26667,-4
1.27500,-5
1.28333,-5
1.29167,-5
1.30000,-5
1.30833,-5
1.31667,-5
1.32500,-5
1.33333,-5
1.34167,-5
1.35000,-5
1.35833,-5
1.36667,-5
1.37500,-5
1.38333,-5
1.39167,-5
1.40000,-5
1.40833,-5
1.41667,-4
1.42500,-4
1.43333,-4
1.44167,-3
1.45000,-3
1.45833,-3
1.46667,-3
1.47500,-3
1.48333,-3
1.49167,-3
1.50000,-3
1.50833,-3
1.51667,-3
1.52500,-3
1.53333,-3
1.54167,-3
1.55000,-2
1.55833,-2
1.56667,-2
1.57500,-1
1.58333,-1
1.59167,-1
1.60000,-1
1.60833,-1
1.61667,-1
1.62500,-1
1.63333,-1
1.64167,-1
1.65000,-1
1.65833,-1
1.66667,-1
1.67500,-1
1.68333,-1
1.69167,-1
1.70000,-0
1.70833,-0
1.71667,-0
1.72500,-0
1.73333,-0
1.74167,-0
1.75000,-1
1.75833,-1
1.76667,-1
1.77500,-1
1.78333,-1
1.79167,-1
1.80000,-1
1.80833,-1
1.81667,-1
1.82500,-2
1.83333,-2
1.84167,-2
1.85000,-2
1.85833,-2
1.86667,-2
1.87500,-2
1.88333,-2
1.89167,-2
1.90000,-2
1.90833,-2
1.91667,-2
1.92500,-3
1.93333,-3
1.94167,-3
1.95000,-2
1.95833,-2
1.96667,-2
1.97500,-2
1.98333,-2
1.99167,-2
2.00000,-2
2.00833,-2
2.01667,-2
2.02500,-2
2.03333,-2
2.04167,-2
2.05000,-2
2.05833,-2
2.06667,-2
2.07500,-2
2.08333,-2
2.09167,-3
2.10000,-2
2.10833,-3
2.11667,-3
2.12500,-3
2.13333,-3
2.14167,-3
2.15000,-3
2.15833,-3
2.16667,-3
2.17500,-3
2.18333,-3
2.19167,-3
2.20000,-3
2.20833,-3
2.21667,-3
2.22500,-3
2.23333,-3
2.24167,-3
2.25000,-3
2.25833,-2
2.26667,-2
2.27500,-2
2.28333,-2
2.29167,-3
2.30000,-3
2.30833,-3
2.31667,-3
2.32500,-3
2.33333,-3
2.34167,-3
2.35000,-3
2.35833,-3
2.36667,-3
2.37500,-3
2.38333,-3
2.39167,-3
2.40000,-3
2.40833,-3
2.41667,-3
2.42500,-2
2.43333,-3
2.44167,-3
2.45000,-3
2.45833,-3
2.46667,-3
2.47500,-3
2.48333,-3
2.49167,-2
2.50000,-2
2.50833,-1
2.51667,-1
2.52500,-1
2.53333,-1
2.54167,-0
2.55000,-0
2.55833,0
2.56667,0
2.57500,1
2.58333,1
2.59167,1
2.60000,1
2.60833,0
2.61667,0
2.62500,0
2.63333,0
2.64167,0
2.65000,1
2.65833,1
2.66667,1
2.67500,2
2.68333,2
2.69167,2
2.70000,2
2.70833,2
2.71667,2
2.72500,3
2.73333,3
2.74167,3
2.75000,3
2.75833,3
2.76667,3
2.77500,3
2.78333,3
2.79167,3
2.80000,3
2.80833,4
2.81667,4
2.82500,4
2.83333,4
2.84167,4
2.85000,4
2.85833,4
2.86667,4
2.87500,4
2.88333,4
2.89167,4
2.90000,4
2.90833,3
2.91667,3
2.92500,3
2.93333,4
2.94167,4
2.95000,4
2.95833,4
2.96667,4
2.97500,4
2.98333,4
2.99167,4
3.00000,4
3.00833,4
3.01667,5
3.02500,5
3.03333,5
3.04167,5
3.05000,5
3.05833,5
3.06667,5
3.07500,5
3.08333,5
3.09167,5
3.10000,5
3.10833,4
3.11667,4
3.12500,4
3.13333,4
3.14167,4
3.15000,4
3.15833,4
3.16667,4
3.17500,4
3.18333,4
3.19167,4
3.20000,4
3.20833,4
3.21667,3
3.22500,3
3.23333,4
3.24167,4
3.25000,4
3.25833,4
3.26667,5
3.27500,5
3.28333,5
3.29167,5
3.30000,5
3.30833,5
3.31667,5
3.32500,5
3.33333,5
3.34167,5
3.35000,5
3.35833,5
3.36667,5
3.37500,5
3.38333,5
3.39167,5
3.40000,5
3.40833,6
3.41667,6
3.42500,6
3.43333,7
3.44167,7
3.45000,8
3.45833,8
3.46667,8
3.47500,8
3.48333,8
3.49167,8
3.50000,8
3.50833,8
3.51667,8
3.52500,8
3.53333,8
3.54167,8
3.55000,8
3.55833,8
3.56667,8
3.57500,8
3.58333,8
3.59167,8
3.60000,7
3.60833,7
3.61667,7
3.62500,7
3.63333,7
3.64167,7
3.65000,6
3.65833,6
3.66667,6
3.67500,5
3.68333,4
3.69167,4
3.70000,4
3.70833,4
3.71667,4
3.72500,4
3.73333,4
3.74167,4
3.75000,4
3.75833,4
3.76667,3
3.77500,3
3.78333,3
3.79167,2
3.80000,2
3.80833,2
3.81667,3
3.82500,3
3.83333,3
3.84167,3
3.85000,3
3.85833,3
3.86667,2
3.87500,2
3.88333,2
3.89167,2
3.90000,1
3.90833,1
3.91667,1
3.92500,1
3.93333,1
3.94167,1
3.95000,1
3.95833,2
3.96667,2
3.97500,2
3.98333,2
3.99167,2
4.00000,2
4.00833,3
4.01667,3
4.02500,4
4.03333,4
4.04167,4
4.05000,5
4.05833,5
4.06667,5
4.07500,5
4.08333,5
4.09167,5
4.10000,5
4.10833,6
4.11667,6
4.12500,6
4.13333,5
4.14167,5
4.15000,4
4.15833,4
4.16667,4
4.17500,4
4.18333,3
4.19167,3
4.20000,3
4.20833,3
4.21667,3
4.22500,3
4.23333,3
4.24167,3
4.25000,3
4.25833,2
4.26667,2
4.27500,2
4.28333,1
4.29167,1
4.30000,1
4.30833,1
4.31667,1
4.32500,1
4.33333,1
4.34167,1
4.35000,0
4.35833,1
4.36667,0
4.37500,0
4.38333,0
4.39167,-0
4.40000,-0
4.40833,-1
4.41667,-1
4.42500,-1
4.43333,-1
4.44167,-2
4.45000,-2
4.45833,-2
4.46667,-2
4.47500,-2
4.48333,-2
4.49167,-2
4.50000,-2
4.50833,-3
4.51667,-3
4.52500,-3
4.53333,-3
4.54167,-4
4.55000,-3
4.55833,-3
4.56667,-3
4.57500,-3
4.58333,-4
4.59167,-4
4.60000,-5
4.60833,-5
4.61667,-5
4.62500,-5
4.63333,-5
4.64167,-5
4.65000,-5
4.65833,-6
4.66667,-6
4.67500,-6
4.68333,-6
4.69167,-6
4.70000,-6
4.70833,-6
4.71667,-6
4.72500,-6
4.73333,-7
4.74167,-7
4.75000,-7
4.75833,-8
4.76667,-8
4.77500,-8
4.78333,-8
4.79167,-8
4.80000,-8
4.80833,-8
4.81667,-8
4.82500,-8
4.83333,-8
4.84167,-8
4.85000,-8
4.85833,-8
4.86667,-8
4.87500,-8
4.88333,-8
4.89167,-8
4.90000,-8
4.90833,-8
4.91667,-8
4.92500,-8
4.93333,-8
4.94167,-8
4.95000,-8
4.95833,-8
4.96667,-8
4.97500,-7
4.98333,-7
4.99167,-7
5.00000,-7
5.00833,-6
5.01667,-6
5.02500,-5
5.03333,-5
5.04167,-5
5.05000,-4
5.05833,-4
5.06667,-3
5.07500,-3
5.08333,-3
5.09167,-3
5.10000,-3
5.10833,-2
5.11667,-2
5.12500,-2
5.13333,-1
5.14167,-1
5.15000,-1
5.15833,0
5.16667,1
5.17500,1
5.18333,2
5.19167,2
5.20000,3
5.20833,3
5.21667,3
5.22500,4
5.23333,3
5.24167,4
5.25000,4
5.25833,5
5.26667,6
5.27500,6
5.28333,7
5.29167,7
5.30000,7
5.30833,7
5.31667,7
5.32500,7
5.33333,7
5.34167,8
5.35000,8
5.35833,9
5.36667,10
5.37500,10
5.38333,10
5.39167,11
5.40000,11
5.40833,11
5.41667,11
5.42500,11
5.43333,11
5.44167,11
5.45000,12
5.45833,12
5.46667,12
5.47500,12
5.48333,11
5.49167,11
5.50000,11
5.50833,11
5.51667,10
5.52500,10
5.53333,10
5.54167,10
5.55000,10
5.55833,10
5.56667,10
5.57500,9
5.58333,8
5.59167,7
5.60000,6
5.60833,6
5.61667,6
5.62500,6
5.63333,6
5.64167,5
5.65000,5
5.65833,4
5.66667,4
5.67500,3
5.68333,3
5.69167,3
5.70000,2
5.70833,2
5.71667,1
5.72500,0
5.73333,-0
5.74167,-1
5.75000,-1
5.75833,-1
5.76667,-2
5.77500,-2
5.78333,-2
5.79167,-3
5.80000,-4
5.80833,-4
5.81667,-5
5.82500,-5
5.83333,-5
5.84167,-5
5.85000,-6
5.85833,-6
5.86667,-6
5.87500,-7
5.88333,-7
5.89167,-6
5.90000,-6
5.90833,-6
5.91667,-6
5.92500,-6
5.93333,-6
5.94167,-5
5.95000,-5
5.95833,-5
5.96667,-5
5.97500,-5
5.98333,-5
5.99167,-5
6.00000,-4
6.00833,-4
6.01667,-3
6.02500,-3
6.03333,-2
6.04167,-2
6.05000,-2
6.05833,-1
6.06667,-1
6.07500,-1
6.08333,-0
6.09167,0
6.10000,0
6.10833,0
6.11667,0
6.12500,0
6.13333,1
6.14167,1
6.15000,1
6.15833,2
6.16667,2
6.17500,3
6.18333,3
6.19167,3
6.20000,3
6.20833,3
6.21667,3
6.22500,3
6.23333,4
6.24167,4
6.25000,5
6.25833,5
6.26667,6
6.27500,6
6.28333,6
6.29167,6
6.30000,6
6.30833,6
6.31667,6
6.32500,6
6.33333,6
6.34167,7
6.35000,7
6.35833,7
6.36667,8
6.37500,8
6.38333,8
6.39167,8
6.40000,9
6.40833,9
6.41667,8
6.42500,9
6.43333,9
6.44167,9
6.45000,9
6.45833,9
6.46667,10
6.47500,10
6.48333,10
6.49167,10
6.50000,10
6.50833,10
6.51667,11
6.52500,11
6.53333,11
6.54167,11
6.55000,11
6.55833,11
6.56667,11
6.57500,11
6.58333,11
6.59167,11
6.60000,11
6.60833,12
6.61667,12
6.62500,12
6.63333,12
6.64167,12
6.65000,13
6.65833,13
6.66667,13
6.67500,13
6.68333,13
6.69167,13
6.70000,13
6.70833,14
6.71667,14
6.72500,14
6.73333,13
6.74167,13
6.75000,13
6.75833,13
6.76667,13
6.77500,13
6.78333,13
6.79167,13
6.80000,14
6.80833,14
6.81667,14
6.82500,14
6.83333,14
6.84167,13
6.85000,13
6.85833,13
6.86667,12
6.87500,12
6.88333,12
6.89167,12
6.90000,13
6.90833,13
6.91667,13
6.92500,13
6.93333,13
6.94167,13
6.95000,13
6.95833,12
6.96667,12
6.97500,12
6.98333,12
6.99167,12
7.00000,11
7.00833,11
7.01667,12
7.02500,12
7.03333,12
7.04167,12
7.05000,12
7.05833,11
7.06667,11
7.07500,10
7.08333,10
7.09167,9
7.10000,9
7.10833,9
7.11667,9
7.12500,9
7.13333,9
7.14167,9
7.15000,9
7.15833,9
7.16667,9
7.17500,9
7.18333,9
7.19167,9
7.20000,9
7.20833,9
7.21667,10
7.22500,10
7.23333,9
7.24167,9
7.25000,9
7.25833,9
7.26667,9
7.27500,9
7.28333,9
7.29167,8
7.30000,9
7.30833,9
7.31667,9
7.32500,9
7.33333,9
7.34167,9
7.35000,9
7.35833,9
7.36667,9
7.37500,9
7.38333,9
7.39167,9
7.40000,9
7.40833,9
7.41667,9
7.42500,9
7.43333,8
7.44167,8
7.45000,8
7.45833,9
7.46667,9
7.47500,9
7.48333,9
7.49167,9
7.50000,9
7.50833,8
7.51667,8
7.52500,8
7.53333,8
7.54167,8
7.55000,8
7.55833,8
7.56667,8
7.57500,8
7.58333,8
7.59167,8
7.60000,8
7.60833,9
7.61667,9
7.62500,9
7.63333,9
7.64167,9
7.65000,8
7.65833,8
7.66667,8
7.67500,8
7.68333,8
7.69167,8
7.70000,7
7.70833,7
7.71667,7
7.72500,7
7.73333,8
7.74167,8
7.75000,8
7.75833,8
7.76667,8
7.77500,8
7.78333,7
7.79167,7
7.80000,7
7.80833,7
7.81667,7
7.82500,7
7.83333,7
7.84167,7
7.85000,8
7.85833,8
7.86667,8
7.87500,8
7.88333,8
7.89167,8
7.90000,8
7.90833,8
7.91667,8
7.92500,8
7.93333,7
7.94167,7
7.95000,7
7.95833,7
7.96667,7
7.97500,7
7.98333,7
7.99167,7
8.00000,7
8.00833,6
8.01667,6
8.02500,5
8.03333,5
8.04167,5
8.05000,5
8.05833,5
8.06667,5
8.07500,4
8.08333,4
8.09167,3
8.10000,3
8.10833,3
8.11667,2
8.12500,2
8.13333,1
8.14167,1
8.15000,0
8.15833,0
8.16667,-0
8.17500,-1
8.18333,-1
8.19167,-1
8.20000,-1
8.20833,-1
8.21667,-2
8.22500,-2
8.23333,-3
8.24167,-3
8.25000,-4
8.25833,-5
8.26667,-5
8.27500,-6
8.28333,-6
8.29167,-6
8.30000,-6
8.30833,-7
8.31667,-7
8.32500,-7
8.33333,-7
8.34167,-8
8.35000,-8
8.35833,-9
8.36667,-9
8.37500,-9
8.38333,-9
8.39167,-10
8.40000,-10
8.40833,-10
8.41667,-10
8.42500,-11
8.43333,-11
8.44167,-12
8.45000,-12
8.45833,-12
8.46667,-12
8.47500,-12
8.48333,-13
8.49167,-13
8.50000,-13
8.50833,-13
8.51667,-13
8.52500,-13
8.53333,-13
8.54167,-13
8.55000,-13
8.55833,-12
8.56667,-12
8.57500,-12
8.58333,-12
8.59167,-12
8.60000,-12
8.60833,-12
8.61667,-11
8.62500,-11
8.63333,-10
8.64167,-10
8.65000,-10
8.65833,-10
8.66667,-10
8.67500,-9
8.68333,-9
8.69167,-9
8.70000,-9
8.70833,-8
8.71667,-8
8.72500,-8
8.73333,-7
8.74167,-7
8.75000,-6
8.75833,-6
8.76667,-6
8.77500,-6
8.78333,-5
8.79167,-5
8.80000,-4
8.80833,-4
8.81667,-3
8.82500,-2
8.83333,-2
8.84167,-1
8.85000,-0
8.85833,1
8.86667,2
8.87500,2
8.88333,3
8.89167,4
8.90000,4
8.90833,5
8.91667,5
8.92500,6
8.93333,6
8.94167,6
8.95000,7
8.95833,7
8.96667,8
8.97500,8
8.98333,8
8.99167,8
9.00000,8
9.00833,8
9.01667,9
9.02500,10
9.03333,11
9.04167,11
9.05000,12
9.05833,12
9.06667,12
9.07500,13
9.08333,13
9.09167,13
9.10000,13
9.10833,13
9.11667,13
9.12500,13
9.13333,13
9.14167,13
9.15000,13
9.15833,13
9.16667,12
9.17500,12
9.18333,12
9.19167,12
9.20000,12
9.20833,12
9.21667,12
9.22500,12
9.23333,11
9.24167,11
9.25000,11
9.25833,11
9.26667,10
9.27500,10
9.28333,10
9.29167,10
9.30000,10
9.30833,10
9.31667,10
9.32500,10
9.33333,9
9.34167,9
9.35000,8
9.35833,8
9.36667,8
9.37500,7
9.38333,7
9.39167,7
9.40000,7
9.40833,8
9.41667,8
9.42500,8
9.43333,8
9.44167,8
9.45000,8
9.45833,8
9.46667,8
9.47500,8
9.48333,9
9.49167,9
9.50000,9
9.50833,10
9.51667,10
9.52500,10
9.53333,10
9.54167,11
9.55000,11
9.55833,11
9.56667,11
9.57500,11
9.58333,12
9.59167,12
9.60000,12
9.60833,12
9.61667,13
9.62500,14
9.63333,14
9.64167,15
9.65000,15
9.65833,14
9.66667,15
9.67500,15
9.68333,15
9.69167,15
9.70000,15
9.70833,15
9.71667,15
9.72500,16
9.73333,16
9.74167,16
9.75000,16
9.75833,16
9.76667,16
9.77500,16
9.78333,15
9.79167,15
9.80000,15
9.80833,15
9.81667,15
9.82500,15
9.83333,14
9.84167,14
9.85000,14
9.85833,14
9.86667,14
9.87500,14
9.88333,14
9.89167,14
9.90000,14
9.90833,13
9.91667,13
9.92500,12
9.93333,13
9.94167,12
9.95000,12
9.95833,12
9.96667,13
9.97500,13
9.98333,13
9.99167,13
10.00000,13
10.00833,12
10.01667,12
10.02500,12
10.03333,12
10.04167,12
10.05000,13
10.05833,13
10.06667,13
10.07500,13
10.08333,13
10.09167,13
10.10000,13
10.10833,13
10.11667,13
10.12500,13
10.13333,12
10.14167,12
10.15000,12
10.15833,12
10.16667,12
10.17500,12
10.18333,13
10.19167,13
10.20000,13
10.20833,14
10.21667,14
10.22500,14
10.23333,14
10.24167,15
10.25000,15
10.25833,15
10.26667,15
10.27500,14
10.28333,15
10.29167,15
10.30000,15
10.30833,15
10.31667,15
10.32500,16
10.33333,16
10.34167,16
10.35000,16
10.35833,16
10.36667,16
10.37500,17
10.38333,17
10.39167,18
10.40000,17
10.40833,17
10.41667,18
10.42500,18
10.43333,18
10.44167,19
10.45000,19
10.45833,20
10.46667,22
10.47500,24
10.48333,27
10.49167,31
10.50000,36
10.50833,42
10.51667,51
10.52500,62
10.53333,77
10.54167,97
10.55000,121
10.55833,153
10.56667,192
10.57500,241
10.58333,300
10.59167,372
10.60000,459
10.60833,562
10.61667,684
10.62500,827
10.63333,992
10.64167,1183
10.65000,1400
10.65833,1646
10.66667,1921
10.67500,2229
10.68333,2569
10.69167,2942
10.70000,3347
10.70833,3785
10.71667,4255
10.72500,4754
10.73333,5282
10.74167,5834
10.75000,6407
10.75833,6996
10.76667,7597
10.77500,8204
10.78333,8811
10.79167,9410
10.80000,9995
10.80833,10557
10.81667,11090
10.82500,11585
10.83333,12034
10.84167,12430
10.85000,12766
10.85833,13036
10.86667,13236
10.87500,13360
10.88333,13406
10.89167,13374
10.90000,13262
10.90833,13074
10.91667,12813
10.92500,12484
10.93333,12091
10.94167,11642
10.95000,11145
10.95833,10609
10.96667,10043
10.97500,9455
10.98333,8854
10.99167,8249
11.00000,7646
11.00833,7054
11.01667,6477
11.02500,5921
11.03333,5390
11.04167,4887
11.05000,4414
11.05833,3973
11.06667,3564
11.07500,3187
11.08333,2842
11.09167,2527
11.10000,2241
11.10833,1984
11.11667,1752
11.12500,1544
11.13333,1359
11.14167,1194
11.15000,1048
11.15833,918
11.16667,805
11.17500,704
11.18333,617
11.19167,540
11.20000,473
11.20833,415
11.21667,364
11.22500,321
11.23333,283
11.24167,251
11.25000,223
11.25833,200
11.26667,179
11.27500,162
11.28333,148
11.29167,135
11.30000,125
11.30833,116
11.31667,109
11.32500,102
11.33333,97
11.34167,93
11.35000,89
11.35833,86
11.36667,83
11.37500,81
11.38333,79
11.39167,77
11.40000,75
11.40833,73
11.41667,71
11.42500,69
11.43333,68
11.44167,66
11.45000,65
11.45833,64
11.46667,63
11.47500,62
11.48333,61
11.49167,60
11.50000,59
11.50833,57
11.51667,55
11.52500,54
11.53333,53
11.54167,52
11.55000,51
11.55833,49
11.56667,48
11.57500,46
11.58333,44
11.59167,43
11.60000,41
11.60833,40
11.61667,39
11.62500,38
11.63333,37
11.64167,36
11.65000,35
11.65833,34
11.66667,32
11.67500,31
11.68333,30
11.69167,29
11.70000,28
11.70833,27
11.71667,26
11.72500,24
11.73333,23
11.74167,22
11.75000,21
11.75833,20
11.76667,18
11.77500,17
11.78333,16
11.79167,15
11.80000,14
11.80833,13
11.81667,12
11.82500,11
11.83333,10
11.84167,8
11.85000,7
11.85833,7
11.86667,5
11.87500,4
11.88333,2
11.89167,1
11.90000,-0
11.90833,-1
11.91667,-2
11.92500,-3
11.93333,-4
11.94167,-5
11.95000,-5
11.95833,-6
11.96667,-6
11.97500,-7
11.98333,-8
11.99167,-9
12.00000,-10
12.00833,-10
12.01667,-11
12.02500,-12
12.03333,-12
12.04167,-13
12.05000,-13
12.05833,-14
12.06667,-14
12.07500,-15
12.08333,-15
12.09167,-15
12.10000,-15
12.10833,-16
12.11667,-16
12.12500,-17
12.13333,-17
12.14167,-18
12.15000,-18
12.15833,-19
12.16667,-20
12.17500,-20
12.18333,-20
12.19167,-20
12.20000,-21
12.20833,-21
12.21667,-21
12.22500,-21
12.23333,-21
12.24167,-22
12.25000,-21
12.25833,-21
12.26667,-21
12.27500,-22
12.28333,-22
12.29167,-22
12.30000,-22
12.30833,-21
12.31667,-21
12.32500,-21
12.33333,-21
12.34167,-20
12.35000,-20
12.35833,-19
12.36667,-18
12.37500,-17
12.38333,-17
12.39167,-16
12.40000,-15
12.40833,-14
12.41667,-14
12.42500,-13
12.43333,-12
12.44167,-11
12.45000,-10
12.45833,-9
12.46667,-8
12.47500,-7
12.48333,-6
12.49167,-5
12.50000,-4
12.50833,-3
12.51667,-2
12.52500,-0
12.53333,1
12.54167,3
12.55000,5
12.55833,6
12.56667,8
12.57500,10
12.58333,13
12.59167,15
12.60000,18
12.60833,21
12.61667,24
12.62500,29
12.63333,34
12.64167,41
12.65000,49
12.65833,58
12.66667,69
12.67500,82
12.68333,97
12.69167,115
12.70000,136
12.70833,160
12.71667,188
12.72500,220
12.73333,256
12.74167,298
12.75000,344
12.75833,395
12.76667,452
12.77500,515
12.78333,584
12.79167,659
12.80000,741
12.80833,830
12.81667,925
12.82500,1026
12.83333,1135
12.84167,1250
12.85000,1371
12.85833,1499
12.86667,1633
12.87500,1775
12.88333,1922
12.89167,2075
12.90000,2235
12.90833,2400
12.91667,2570
12.92500,2746
12.93333,2927
12.94167,3114
12.95000,3305
12.95833,3501
12.96667,3702
12.97500,3907
12.98333,4117
12.99167,4331
13.00000,4548
13.00833,4770
13.01667,4995
13.02500,5224
13.03333,5456
13.04167,5692
13.05000,5932
13.05833,6174
13.06667,6420
13.07500,6669
13.08333,6921
13.09167,7176
13.10000,7433
13.10833,7693
13.11667,7956
13.12500,8222
13.13333,8491
13.14167,8762
13.15000,9036
13.15833,9313
13.16667,9592
13.17500,9873
13.18333,10157
13.19167,10443
13.20000,10732
13.20833,11023
13.21667,11317
13.22500,11613
13.23333,11911
13.24167,12212
13.25000,12516
13.25833,12821
13.26667,13129
13.27500,13440
13.28333,13752
13.29167,14068
13.30000,14385
13.30833,14705
13.31667,15027
13.32500,15352
13.33333,15679
13.34167,16008
13.35000,16340
13.35833,16674
13.36667,17011
13.37500,17349
13.38333,17691
13.39167,18035
13.40000,18381
13.40833,18730
13.41667,19081
13.42500,19435
13.43333,19791
13.44167,20150
13.45000,20512
13.45833,20876
13.46667,21242
13.47500,21611
13.48333,21982
13.49167,22357
13.50000,22734
13.50833,23113
13.51667,23495
13.52500,23880
13.53333,24268
13.54167,24658
13.55000,25051
13.55833,25446
13.56667,25845
13.57500,26246
13.58333,26651
13.59167,27058
13.60000,27468
13.60833,27880
13.61667,28296
13.62500,28714
13.63333,29135
13.64167,29559
13.65000,29987
13.65833,30416
13.66667,30849
13.67500,31285
13.68333,31725
13.69167,32167
13.70000,32613
13.70833,33062
13.71667,33513
13.72500,33968
13.73333,34426
13.74167,34888
13.75000,35352
13.75833,35820
13.76667,36290
13.77500,36764
13.78333,37241
13.79167,37721
13.80000,38204
13.80833,38689
13.81667,39175
13.82500,39662
13.83333,40144
13.84167,40619
13.85000,41079
13.85833,41515
13.86667,41915
13.87500,42262
13.88333,42536
13.89167,42714
13.90000,42773
13.90833,42687
13.91667,42431
13.92500,41984
13.93333,41328
13.94167,40453
13.95000,39355
13.95833,38041
13.96667,36523
13.97500,34824
13.98333,32971
13.99167,30999
14.00000,28945
14.00833,26849
14.01667,24748
14.02500,22679
14.03333,20674
14.04167,18762
14.05000,16963
14.05833,15295
14.06667,13769
14.07500,12391
14.08333,11163
14.09167,10083
14.10000,9146
14.10833,8346
14.11667,7676
14.12500,7125
14.13333,6686
14.14167,6348
14.15000,6102
14.15833,5938
14.16667,5848
14.17500,5821
14.18333,5852
14.19167,5930
14.20000,6048
14.20833,6198
14.21667,6373
14.22500,6567
14.23333,6771
14.24167,6980
14.25000,7187
14.25833,7387
14.26667,7575
14.27500,7747
14.28333,7897
14.29167,8023
14.30000,8123
14.30833,8192
14.31667,8231
14.32500,8238
14.33333,8213
14.34167,8156
14.35000,8068
14.35833,7951
14.36667,7805
14.37500,7633
14.38333,7438
14.39167,7222
14.40000,6988
14.40833,6738
14.41667,6476
14.42500,6204
14.43333,5925
14.44167,5642
14.45000,5358
14.45833,5074
14.46667,4793
14.47500,4516
14.48333,4247
14.49167,3985
14.50000,3731
14.50833,3487
14.51667,3254
14.52500,3031
14.53333,2820
14.54167,2621
14.55000,2433
14.55833,2257
14.56667,2093
14.57500,1940
14.58333,1797
14.59167,1664
14.60000,1542
14.60833,1429
14.61667,1324
14.62500,1228
14.63333,1140
14.64167,1058
14.65000,984
14.65833,916
14.66667,854
14.67500,798
14.68333,746
14.69167,699
14.70000,656
14.70833,617
14.71667,582
14.72500,550
14.73333,521
14.74167,494
14.75000,470
14.75833,448
14.76667,428
14.77500,410
14.78333,394
14.79167,379
14.80000,365
14.80833,353
14.81667,342
14.82500,331
14.83333,322
14.84167,313
14.85000,306
14.85833,299
14.86667,293
14.87500,287
14.88333,282
14.89167,278
14.90000,274
14.90833,270
14.91667,267
14.92500,263
14.93333,260
14.94167,258
14.95000,256
14.95833,254
14.96667,252
14.97500,251
14.98333,250
14.99167,250
15.00000,249
15.00833,249
15.01667,249
15.02500,249
15.03333,249
15.04167,249
15.05000,249
15.05833,249
15.06667,250
15.07500,250
15.08333,251
15.09167,251
15.10000,252
15.10833,252
15.11667,252
15.12500,252
15.13333,252
15.14167,252
15.15000,252
15.15833,252
15.16667,251
15.17500,251
15.18333,251
15.19167,251
15.20000,251
15.20833,251
15.21667,252
15.22500,252
15.23333,253
15.24167,254
15.25000,256
15.25833,259
15.26667,263
15.27500,267
15.28333,272
15.29167,278
15.30000,286
15.30833,295
15.31667,305
15.32500,318
15.33333,333
15.34167,350
15.35000,370
15.35833,392
15.36667,416
15.37500,444
15.38333,475
15.39167,509
15.40000,545
15.40833,585
15.41667,628
15.42500,674
15.43333,723
15.44167,776
15.45000,832
15.45833,890
15.46667,951
15.47500,1014
15.48333,1079
15.49167,1146
15.50000,1214
15.50833,1282
15.51667,1352
15.52500,1421
15.53333,1489
15.54167,1557
15.55000,1622
15.55833,1686
15.56667,1747
15.57500,1806
15.58333,1861
15.59167,1913
15.60000,1961
15.60833,2003
15.61667,2042
15.62500,2074
15.63333,2102
15.64167,2125
15.65000,2141
15.65833,2153
15.66667,2158
15.67500,2158
15.68333,2153
15.69167,2142
15.70000,2125
15.70833,2104
15.71667,2078
15.72500,2047
15.73333,2012
15.74167,1973
15.75000,1931
15.75833,1885
15.76667,1836
15.77500,1785
15.78333,1732
15.79167,1677
15.80000,1621
15.80833,1564
15.81667,1505
15.82500,1447
15.83333,1388
15.84167,1330
15.85000,1272
15.85833,1215
15.86667,1158
15.87500,1103
15.88333,1048
15.89167,995
15.90000,944
15.90833,894
15.91667,847
15.92500,801
15.93333,756
15.94167,714
15.95000,674
15.95833,636
15.96667,600
15.97500,566
15.98333,533
15.99167,502
16.00000,473
16.00833,446
16.01667,420
16.02500,396
16.03333,374
16.04167,353
16.05000,334
16.05833,315
16.06667,299
16.07500,283
16.08333,269
16.09167,256
16.10000,244
16.10833,232
16.11667,221
16.12500,211
16.13333,202
16.14167,194
16.15000,187
16.15833,180
16.16667,173
16.17500,167
16.18333,162
16.19167,158
16.20000,153
16.20833,149
16.21667,145
16.22500,141
16.23333,138
16.24167,135
16.25000,132
16.25833,130
16.26667,127
16.27500,125
16.28333,122
16.29167,120
16.30000,119
16.30833,117
16.31667,115
16.32500,114
16.33333,112
16.34167,111
16.35000,110
16.35833,109
16.36667,108
16.37500,106
16.38333,105
16.39167,104
16.40000,103
16.40833,102
16.41667,101
16.42500,100
16.43333,99
16.44167,98
16.45000,97
16.45833,96
16.46667,95
16.47500,95
16.48333,94
16.49167,93
16.50000,92
16.50833,91
16.51667,91
16.52500,90
16.53333,90
16.54167,89
16.55000,89
16.55833,88
16.56667,87
16.57500,87
16.58333,87
16.59167,86
16.60000,86
16.60833,85
16.61667,85
16.62500,85
16.63333,84
16.64167,84
16.65000,83
16.65833,83
16.66667,83
16.67500,82
16.68333,82
16.69167,82
16.70000,82
16.70833,81
16.71667,81
16.72500,81
16.73333,80
16.74167,79
16.75000,79
16.75833,79
16.76667,78
16.77500,78
16.78333,78
16.79167,78
16.80000,78
16.80833,78
16.81667,78
16.82500,78
16.83333,77
16.84167,77
16.85000,77
16.85833,76
16.86667,76
16.87500,75
16.88333,75
16.89167,74
16.90000,73
16.90833,73
16.91667,73
16.92500,72
16.93333,72
16.94167,71
16.95000,70
16.95833,70
16.96667,69
16.97500,68
16.98333,68
16.99167,67
17.00000,67
17.00833,66
17.01667,66
17.02500,65
17.03333,65
17.04167,64
17.05000,64
17.05833,64
17.06667,64
17.07500,63
17.08333,63
17.09167,62
17.10000,62
17.10833,62
17.11667,62
17.12500,62
17.13333,61
17.14167,61
17.15000,60
17.15833,60
17.16667,59
17.17500,59
17.18333,58
17.19167,58
17.20000,58
17.20833,58
17.21667,57
17.22500,57
17.23333,57
17.24167,57
17.25000,57
17.25833,57
17.26667,56
17.27500,56
17.28333,55
17.29167,55
17.30000,55
17.30833,54
17.31667,53
17.32500,53
17.33333,52
17.34167,51
17.35000,51
17.35833,50
17.36667,50
17.37500,49
17.38333,49
17.39167,48
17.40000,48
17.40833,48
17.41667,48
17.42500,47
17.43333,47
17.44167,46
17.45000,46
17.45833,45
17.46667,45
17.47500,44
17.48333,43
17.49167,43
17.50000,42
17.50833,42
17.51667,42
17.52500,41
17.53333,41
17.54167,41
17.55000,40
17.55833,40
17.56667,39
17.57500,39
17.58333,38
17.59167,38
17.60000,38
17.60833,38
17.61667,38
17.62500,38
17.63333,38
17.64167,38
17.65000,38
17.65833,38
17.66667,38
17.67500,38
17.68333,38
17.69167,38
17.70000,38
17.70833,38
17.71667,38
17.72500,39
17.73333,40
17.74167,40
17.75000,40
17.75833,40
17.76667,41
17.77500,42
17.78333,43
17.79167,43
17.80000,43
17.80833,43
17.81667,44
17.82500,44
17.83333,45
17.84167,45
17.85000,46
17.85833,46
17.86667,47
17.87500,47
17.88333,47
17.89167,48
17.90000,49
17.90833,49
17.91667,50
17.92500,50
17.93333,51
17.94167,51
17.95000,51
17.95833,52
17.96667,52
17.97500,52
17.98333,52
17.99167,52
18.00000,52
18.00833,52
18.01667,53
18.02500,53
18.03333,53
18.04167,53
18.05000,53
18.05833,54
18.06667,54
18.07500,55
18.08333,55
18.09167,55
18.10000,55
18.10833,55
18.11667,54
18.12500,54
18.13333,54
18.14167,54
18.15000,54
18.15833,53
18.16667,53
18.17500,53
18.18333,53
18.19167,53
18.20000,53
18.20833,53
18.21667,53
18.22500,53
18.23333,53
18.24167,53
18.25000,53
18.25833,53
18.26667,53
18.27500,53
18.28333,53
18.29167,52
18.30000,52
18.30833,52
18.31667,52
18.32500,52
18.33333,52
18.34167,51
18.35000,51
18.35833,51
18.36667,51
18.37500,51
18.38333,51
18.39167,51
18.40000,51
18.40833,51
18.41667,50
18.42500,50
18.43333,49
18.44167,49
18.45000,49
18.45833,49
18.46667,48
18.47500,48
18.48333,48
18.49167,48
18.50000,47
18.50833,47
18.51667,46
18.52500,46
18.53333,45
18.54167,45
18.55000,45
18.55833,44
18.56667,44
18.57500,44
18.58333,43
18.59167,43
18.60000,43
18.60833,42
18.61667,42
18.62500,41
18.63333,41
18.64167,41
18.65000,41
18.65833,40
18.66667,40
18.67500,40
18.68333,40
18.69167,39
18.70000,39
18.70833,39
18.71667,38
18.72500,38
18.73333,38
18.74167,38
18.75000,38
18.75833,38
18.76667,39
18.77500,39
18.78333,39
18.79167,39
18.80000,40
18.80833,40
18.81667,41
18.82500,42
18.83333,43
18.84167,44
18.85000,44
18.85833,45
18.86667,46
18.87500,47
18.88333,49
18.89167,50
18.90000,51
18.90833,53
18.91667,54
18.92500,55
18.93333,57
18.94167,58
18.95000,59
18.95833,61
18.96667,62
18.97500,64
18.98333,65
18.99167,66
19.00000,67
19.00833,68
19.01667,69
19.02500,70
19.03333,71
19.04167,72
19.05000,72
19.05833,73
19.06667,73
19.07500,74
19.08333,74
19.09167,74
19.10000,74
19.10833,74
19.11667,74
19.12500,74
19.13333,73
19.14167,72
19.15000,72
19.15833,71
19.16667,70
19.17500,69
19.18333,68
19.19167,67
19.20000,66
19.20833,65
19.21667,64
19.22500,63
19.23333,62
19.24167,61
19.25000,60
19.25833,59
19.26667,58
19.27500,57
19.28333,56
19.29167,55
19.30000,54
19.30833,53
19.31667,52
19.32500,50
19.33333,50
19.34167,49
19.35000,48
19.35833,48
19.36667,47
19.37500,46
19.38333,45
19.39167,44
19.40000,44
19.40833,43
19.41667,42
19.42500,42
19.43333,41
19.44167,41
19.45000,41
19.45833,40
19.46667,39
19.47500,39
19.48333,39
19.49167,39
19.50000,39
19.50833,39
19.51667,38
19.52500,38
19.53333,38
19.54167,38
19.55000,38
19.55833,37
19.56667,37
19.57500,38
19.58333,38
19.59167,37
19.60000,38
19.60833,38
19.61667,38
19.62500,38
19.63333,38
19.64167,38
19.65000,38
19.65833,38
19.66667,38
19.67500,38
19.68333,38
19.69167,38
19.70000,38
19.70833,38
19.71667,38
19.72500,38
19.73333,38
19.74167,38
19.75000,38
19.75833,38
19.76667,38
19.77500,38
19.78333,38
19.79167,38
19.80000,38
19.80833,38
19.81667,38
19.82500,38
19.83333,38
19.84167,39
19.85000,39
19.85833,39
19.86667,39
19.87500,39
19.88333,39
19.89167,39
19.90000,38
19.90833,39
19.91667,39
19.92500,38
19.93333,38
19.94167,38
19.95000,38
19.95833,38
19.96667,38
19.97500,37
19.98333,37
19.99167,37
20.00000,37
20.00833,37
20.01667,37
20.02500,37
20.03333,37
20.04167,36
20.05000,36
20.05833,36
20.06667,36
20.07500,35
20.08333,35
20.09167,35
20.10000,34
20.10833,34
20.11667,33
20.12500,32
20.13333,32
20.14167,31
20.15000,31
20.15833,30
20.16667,30
20.17500,30
20.18333,29
20.19167,29
20.20000,29
20.20833,28
20.21667,28
20.22500,27
20.23333,26
20.24167,26
20.25000,25
20.25833,25
20.26667,24
20.27500,24
20.28333,23
20.29167,23
20.30000,23
20.30833,22
20.31667,22
20.32500,22
20.33333,22
20.34167,21
20.35000,21
20.35833,21
20.36667,20
20.37500,19
20.38333,19
20.39167,19
20.40000,19
20.40833,19
20.41667,19
20.42500,19
20.43333,19
20.44167,20
20.45000,20
20.45833,20
20.46667,20
20.47500,19
20.48333,19
20.49167,19
20.50000,19
20.50833,19
20.51667,19
20.52500,19
20.53333,19
20.54167,19
20.55000,19
20.55833,19
20.56667,20
20.57500,20
20.58333,20
20.59167,20
20.60000,20
20.60833,20
20.61667,21
20.62500,21
20.63333,21
20.64167,21
20.65000,21
20.65833,21
20.66667,21
20.67500,20
20.68333,20
20.69167,21
20.70000,21
20.70833,21
20.71667,21
20.72500,20
20.73333,20
20.74167,20
20.75000,20
20.75833,19
20.76667,19
20.77500,18
20.78333,17
20.79167,17
20.80000,17
20.80833,17
20.81667,16
20.82500,16
20.83333,15
20.84167,14
20.85000,14
20.85833,13
20.86667,13
20.87500,13
20.88333,12
20.89167,12
20.90000,12
20.90833,11
20.91667,11
20.92500,11
20.93333,10
20.94167,10
20.95000,10
20.95833,10
20.96667,10
20.97500,9
20.98333,9
20.99167,9
21.00000,9
21.00833,9
21.01667,9
21.02500,9
21.03333,8
21.04167,8
21.05000,8
21.05833,9
21.06667,9
21.07500,9
21.08333,9
21.09167,9
21.10000,9
21.10833,10
21.11667,10
21.12500,10
21.13333,11
21.14167,11
21.15000,11
21.15833,11
21.16667,11
21.17500,12
21.18333,13
21.19167,14
21.20000,15
21.20833,15
21.21667,16
21.22500,16
21.23333,16
21.24167,16
21.25000,17
21.25833,17
21.26667,18
21.27500,19
21.28333,19
21.29167,20
21.30000,21
21.30833,22
21.31667,23
21.32500,23
21.33333,24
21.34167,25
21.35000,25
21.35833,25
21.36667,26
21.37500,27
21.38333,27
21.39167,27
21.40000,27
21.40833,28
21.41667,28
21.42500,29
21.43333,29
21.44167,30
21.45000,31
21.45833,31
21.46667,32
21.47500,32
21.48333,33
21.49167,34
21.50000,35
21.50833,36
21.51667,37
21.52500,38
21.53333,39
21.54167,40
21.55000,41
21.55833,43
21.56667,44
21.57500,46
21.58333,48
21.59167,50
21.60000,52
21.60833,54
21.61667,56
21.62500,59
21.63333,62
21.64167,65
21.65000,69
21.65833,73
21.66667,77
21.67500,82
21.68333,88
21.69167,94
21.70000,100
21.70833,107
21.71667,114
21.72500,122
21.73333,130
21.74167,139
21.75000,148
21.75833,158
21.76667,169
21.77500,180
21.78333,192
21.79167,205
21.80000,218
21.80833,231
21.81667,245
21.82500,259
21.83333,274
21.84167,289
21.85000,304
21.85833,320
21.86667,335
21.87500,351
21.88333,366
21.89167,381
21.90000,396
21.90833,412
21.91667,427
21.92500,442
21.93333,456
21.94167,469
21.95000,482
21.95833,494
21.96667,505
21.97500,516
21.98333,526
21.99167,535
22.00000,543
22.00833,549
22.01667,555
22.02500,560
22.03333,563
22.04167,565
22.05000,566
22.05833,566
22.06667,565
22.07500,562
22.08333,559
22.09167,554
22.10000,548
22.10833,541
22.11667,533
22.12500,525
22.13333,516
22.14167,505
22.15000,494
22.15833,482
22.16667,470
22.17500,456
22.18333,443
22.19167,430
22.20000,416
22.20833,401
22.21667,387
22.22500,373
22.23333,359
22.24167,345
22.25000,331
22.25833,317
22.26667,303
22.27500,289
22.28333,275
22.29167,262
22.30000,249
22.30833,236
22.31667,224
22.32500,213
22.33333,202
22.34167,192
22.35000,182
22.35833,172
22.36667,163
22.37500,154
22.38333,145
22.39167,137
22.40000,130
22.40833,123
22.41667,116
22.42500,110
22.43333,105
22.44167,99
22.45000,94
22.45833,90
22.46667,86
22.47500,82
22.48333,79
22.49167,76
22.50000,73
22.50833,71
22.51667,69
22.52500,66
22.53333,64
22.54167,62
22.55000,61
22.55833,59
22.56667,58
22.57500,56
22.58333,55
22.59167,54
22.60000,53
22.60833,53
22.61667,52
22.62500,51
22.63333,50
22.64167,49
22.65000,49
22.65833,49
22.66667,48
22.67500,48
22.68333,48
22.69167,48
22.70000,47
22.70833,47
22.71667,47
22.72500,47
22.73333,46
22.74167,46
22.75000,45
22.75833,45
22.76667,45
22.77500,44
22.78333,44
22.79167,44
22.80000,44
22.80833,44
22.81667,43
22.82500,43
22.83333,43
22.84167,42
22.85000,42
22.85833,41
22.86667,40
22.87500,40
22.88333,39
22.89167,39
22.90000,39
22.90833,38
22.91667,38
22.92500,38
22.93333,37
22.94167,37
22.95000,37
22.95833,36
22.96667,36
22.97500,36
22.98333,35
22.99167,35
23.00000,34
23.00833,34
23.01667,33
23.02500,33
23.03333,33
23.04167,32
23.05000,31
23.05833,31
23.06667,30
23.07500,30
23.08333,29
23.09167,29
23.10000,29
23.10833,28
23.11667,28
23.12500,28
23.13333,28
23.14167,28
23.15000,27
23.15833,27
23.16667,27
23.17500,26
23.18333,26
23.19167,26
23.20000,26
23.20833,25
23.21667,25
23.22500,25
23.23333,25
23.24167,25
23.25000,25
23.25833,25
23.26667,25
23.27500,25
23.28333,24
23.29167,24
23.30000,24
23.30833,24
23.31667,24
23.32500,24
23.33333,24
23.34167,24
23.35000,25
23.35833,25
23.36667,25
23.37500,24
23.38333,24
23.39167,24
23.40000,24
23.40833,24
23.41667,24
23.42500,25
23.43333,25
23.44167,24
23.45000,24
23.45833,24
23.46667,24
23.47500,24
23.48333,23
23.49167,23
23.50000,23
23.50833,23
23.51667,22
23.52500,22
23.53333,22
23.54167,22
23.55000,22
23.55833,22
23.56667,22
23.57500,22
23.58333,22
23.59167,21
23.60000,21
23.60833,21
23.61667,21
23.62500,21
23.63333,21
23.64167,21
23.65000,21
23.65833,21
23.66667,22
23.67500,21
23.68333,21
23.69167,21
23.70000,21
23.70833,21
23.71667,21
23.72500,21
23.73333,22
23.74167,22
23.75000,22
23.75833,22
23.76667,22
23.77500,22
23.78333,23
23.79167,23
23.80000,23
23.80833,23
23.81667,23
23.82500,23
23.83333,23
23.84167,24
23.85000,24
23.85833,25
23.86667,26
23.87500,26
23.88333,27
23.89167,27
23.90000,28
23.90833,28
23.91667,29
23.92500,29
23.93333,29
23.94167,29
23.95000,30
23.95833,30
23.96667,30
23.97500,30
23.98333,31
23.99167,31
24.00000,31
24.00833,31
24.01667,31
24.02500,31
24.03333,31
24.04167,31
24.05000,31
24.05833,31
24.06667,31
24.07500,31
24.08333,31
24.09167,30
24.10000,30
24.10833,30
24.11667,30
24.12500,30
24.13333,30
24.14167,30
24.15000,30
24.15833,30
24.16667,30
24.17500,29
24.18333,29
24.19167,28
24.20000,28
24.20833,28
24.21667,27
24.22500,27
24.23333,28
24.24167,28
24.25000,28
24.25833,27
24.26667,27
24.27500,27
24.28333,27
24.29167,27
24.30000,27
24.30833,28
24.31667,28
24.32500,28
24.33333,28
24.34167,28
24.35000,29
24.35833,29
24.36667,29
24.37500,29
24.38333,29
24.39167,29
24.40000,30
24.40833,30
24.41667,31
24.42500,31
24.43333,32
24.44167,32
24.45000,32
24.45833,33
24.46667,33
24.47500,34
24.48333,34
24.49167,35
24.50000,36
24.50833,37
24.51667,38
24.52500,39
24.53333,40
24.54167,41
24.55000,42
24.55833,43
24.56667,45
24.57500,46
24.58333,47
24.59167,49
24.60000,50
24.60833,52
24.61667,54
24.62500,56
24.63333,59
24.64167,61
24.65000,64
24.65833,66
24.66667,69
24.67500,72
24.68333,75
24.69167,78
24.70000,81
24.70833,84
24.71667,88
24.72500,92
24.73333,97
24.74167,101
24.75000,106
24.75833,110
24.76667,115
24.77500,120
24.78333,125
24.79167,130
24.80000,136
24.80833,141
24.81667,146
24.82500,151
24.83333,156
24.84167,162
24.85000,167
24.85833,173
24.86667,178
24.87500,183
24.88333,188
24.89167,193
24.90000,198
24.90833,203
24.91667,208
24.92500,212
24.93333,216
24.94167,220
24.95000,224
24.95833,227
24.96667,230
24.97500,233
24.98333,235
24.99167,238
25.00000,239
25.00833,241
25.01667,241
25.02500,242
25.03333,242
25.04167,242
25.05000,241
25.05833,240
25.06667,239
25.07500,237
25.08333,236
25.09167,234
25.10000,232
25.10833,229
25.11667,226
25.12500,224
25.13333,220
25.14167,217
25.15000,213
25.15833,210
25.16667,206
25.17500,201
25.18333,197
25.19167,193
25.20000,188
25.20833,184
25.21667,179
25.22500,174
25.23333,170
25.24167,165
25.25000,161
25.25833,156
25.26667,151
25.27500,146
25.28333,142
25.29167,137
25.30000,133
25.30833,129
25.31667,125
25.32500,121
25.33333,117
25.34167,113
25.35000,110
25.35833,106
25.36667,103
25.37500,100
25.38333,97
25.39167,94
25.40000,91
25.40833,88
25.41667,85
25.42500,82
25.43333,80
25.44167,77
25.45000,75
25.45833,73
25.46667,71
25.47500,69
25.48333,67
25.49167,65
25.50000,64
25.50833,62
25.51667,60
25.52500,58
25.53333,57
25.54167,55
25.55000,54
25.55833,53
25.56667,52
25.57500,51
25.58333,50
25.59167,49
25.60000,48
25.60833,47
25.61667,46
25.62500,45
25.63333,45
25.64167,45
25.65000,44
25.65833,44
25.66667,43
25.67500,43
25.68333,43
25.69167,43
25.70000,42
25.70833,42
25.71667,41
25.72500,41
25.73333,40
25.74167,40
25.75000,39
25.75833,39
25.76667,38
25.77500,38
25.78333,37
25.79167,37
25.80000,37
25.80833,36
25.81667,36
25.82500,35
25.83333,35
25.84167,35
25.85000,36
25.85833,35
25.86667,35
25.87500,35
25.88333,35
25.89167,35
25.90000,35
25.90833,35
25.91667,35
25.92500,35
25.93333,35
25.94167,34
25.95000,34
25.95833,34
25.96667,34
25.97500,34
25.98333,33
25.99167,33
26.00000,33
26.00833,33
26.01667,33
26.02500,33
26.03333,33
26.04167,32
26.05000,32
26.05833,32
26.06667,33
26.07500,32
26.08333,32
26.09167,32
26.10000,31
26.10833,31
26.11667,31
26.12500,31
26.13333,31
26.14167,31
26.15000,30
26.15833,30
26.16667,30
26.17500,30
26.18333,30
26.19167,30
26.20000,29
26.20833,29
26.21667,29
26.22500,29
26.23333,29
26.24167,28
26.25000,28
26.25833,27
26.26667,27
26.27500,27
26.28333,26
26.29167,26
26.30000,26
26.30833,26
26.31667,26
26.32500,27
26.33333,26
26.34167,26
26.35000,26
26.35833,26
26.36667,26
26.37500,26
26.38333,26
26.39167,26
26.40000,26
26.40833,25
26.41667,25
26.42500,25
26.43333,25
26.44167,25
26.45000,25
26.45833,25
26.46667,25
26.47500,25
26.48333,26
26.49167,26
26.50000,26
26.50833,26
26.51667,27
26.52500,27
26.53333,27
26.54167,28
26.55000,29
26.55833,29
26.56667,29
26.57500,28
26.58333,28
26.59167,28
26.60000,28
26.60833,28
26.61667,29
26.62500,29
26.63333,29
26.64167,30
26.65000,30
26.65833,30
26.66667,30
26.67500,31
26.68333,31
26.69167,32
26.70000,32
26.70833,32
26.71667,33
26.72500,34
26.73333,34
26.74167,35
26.75000,35
26.75833,35
26.76667,35
26.77500,36
26.78333,36
26.79167,36
26.80000,36
26.80833,37
26.81667,37
26.82500,37
26.83333,37
26.84167,37
26.85000,37
26.85833,37
26.86667,38
26.87500,38
26.88333,38
26.89167,39
26.90000,39
26.90833,38
26.91667,38
26.92500,38
26.93333,38
26.94167,38
26.95000,38
26.95833,38
26.96667,38
26.97500,38
26.98333,38
26.99167,38
27.00000,38
27.00833,38
27.01667,38
27.02500,37
27.03333,37
27.04167,37
27.05000,37
27.05833,37
27.06667,36
27.07500,36
27.08333,36
27.09167,36
27.10000,36
27.10833,36
27.11667,36
27.12500,35
27.13333,35
27.14167,35
27.15000,35
27.15833,34
27.16667,34
27.17500,34
27.18333,34
27.19167,34
27.20000,34
27.20833,34
27.21667,34
27.22500,34
27.23333,34
27.24167,34
27.25000,35
27.25833,35
27.26667,35
27.27500,35
27.28333,35
27.29167,35
27.30000,35
27.30833,36
27.31667,36
27.32500,36
27.33333,36
27.34167,36
27.35000,36
27.35833,36
27.36667,36
27.37500,37
27.38333,37
27.39167,37
27.40000,38
27.40833,39
27.41667,39
27.42500,39
27.43333,40
27.44167,40
27.45000,40
27.45833,41
27.46667,41
27.47500,41
27.48333,41
27.49167,41
27.50000,42
27.50833,42
27.51667,42
27.52500,42
27.53333,43
27.54167,43
27.55000,43
27.55833,44
27.56667,44
27.57500,44
27.58333,43
27.59167,43
27.60000,44
27.60833,43
27.61667,43
27.62500,43
27.63333,43
27.64167,43
27.65000,43
27.65833,43
27.66667,43
27.67500,42
27.68333,42
27.69167,42
27.70000,41
27.70833,40
27.71667,39
27.72500,38
27.73333,37
27.74167,37
27.75000,36
27.75833,35
27.76667,34
27.77500,32
27.78333,31
27.79167,29
27.80000,28
27.80833,27
27.81667,25
27.82500,23
27.83333,22
27.84167,20
27.85000,19
27.85833,17
27.86667,14
27.87500,12
27.88333,10
27.89167,7
27.90000,5
27.90833,2
27.91667,-0
27.92500,-3
27.93333,-6
27.94167,-9
27.95000,-12
27.95833,-15
27.96667,-18
27.97500,-20
27.98333,-23
27.99167,-27
28.00000,-30
28.00833,-33
28.01667,-36
28.02500,-40
28.03333,-43
28.04167,-47
28.05000,-50
28.05833,-52
28.06667,-55
28.07500,-59
28.08333,-62
28.09167,-65
28.10000,-68
28.10833,-71
28.11667,-75
28.12500,-78
28.13333,-81
28.14167,-84
28.15000,-87
28.15833,-90
28.16667,-93
28.17500,-96
28.18333,-99
28.19167,-101
28.20000,-104
28.20833,-106
28.21667,-108
28.22500,-110
28.23333,-112
28.24167,-113
28.25000,-115
28.25833,-116
28.26667,-117
28.27500,-118
28.28333,-119
28.29167,-120
28.30000,-120
28.30833,-121
28.31667,-122
28.32500,-122
28.33333,-122
28.34167,-122
28.35000,-122
28.35833,-121
28.36667,-121
28.37500,-120
28.38333,-119
28.39167,-118
28.40000,-117
28.40833,-116
28.41667,-114
28.42500,-113
28.43333,-111
28.44167,-109
28.45000,-107
28.45833,-105
28.46667,-103
28.47500,-101
28.48333,-98
28.49167,-96
28.50000,-93
28.50833,-91
28.51667,-88
28.52500,-86
28.53333,-83
28.54167,-81
28.55000,-78
28.55833,-75
28.56667,-72
28.57500,-69
28.58333,-67
28.59167,-64
28.60000,-61
28.60833,-58
28.61667,-55
28.62500,-52
28.63333,-50
28.64167,-47
28.65000,-45
28.65833,-42
28.66667,-40
28.67500,-37
28.68333,-35
28.69167,-33
28.70000,-31
28.70833,-29
28.71667,-27
28.72500,-25
28.73333,-23
28.74167,-21
28.75000,-19
28.75833,-17
28.76667,-15
28.77500,-14
28.78333,-13
28.79167,-11
28.80000,-10
28.80833,-9
28.81667,-8
28.82500,-7
28.83333,-6
28.84167,-5
28.85000,-4
28.85833,-3
28.86667,-2
28.87500,-1
28.88333,-1
28.89167,0
28.90000,1
28.90833,1
28.91667,2
28.92500,2
28.93333,3
28.94167,2
28.95000,2
28.95833,2
28.96667,3
28.97500,3
28.98333,3
28.99167,4
29.00000,4
29.00833,4
29.01667,4
29.02500,5
29.03333,5
29.04167,5
29.05000,5
29.05833,5
29.06667,5
29.07500,5
29.08333,5
29.09167,5
29.10000,6
29.10833,6
29.11667,6
29.12500,7
29.13333,7
29.14167,7
29.15000,8
29.15833,8
29.16667,8
29.17500,8
29.18333,8
29.19167,8
29.20000,8
29.20833,9
29.21667,9
29.22500,10
29.23333,11
29.24167,12
29.25000,12
29.25833,13
29.26667,14
29.27500,15
29.28333,15
29.29167,16
29.30000,17
29.30833,18
29.31667,18
29.32500,19
29.33333,20
29.34167,20
29.35000,21
29.35833,22
29.36667,23
29.37500,24
29.38333,25
29.39167,26
29.40000,27
29.40833,28
29.41667,29
29.42500,29
29.43333,30
29.44167,31
29.45000,31
29.45833,32
29.46667,32
29.47500,32
29.48333,33
29.49167,33
29.50000,34
29.50833,34
29.51667,35
29.52500,35
29.53333,35
29.54167,36
29.55000,36
29.55833,36
29.56667,36
29.57500,36
29.58333,37
29.59167,37
29.60000,37
29.60833,37
29.61667,36
29.62500,36
29.63333,35
29.64167,35
29.65000,35
29.65833,34
29.66667,33
29.67500,32
29.68333,32
29.69167,31
29.70000,30
29.70833,30
29.71667,29
29.72500,28
29.73333,27
29.74167,26
29.75000,25
29.75833,24
29.76667,23
29.77500,22
29.78333,21
29.79167,19
29.80000,18
29.80833,17
29.81667,15
29.82500,14
29.83333,12
29.84167,11
29.85000,10
29.85833,8
29.86667,7
29.87500,6
29.88333,5
29.89167,3
29.90000,2
29.90833,1
29.91667,-1
29.92500,-3
29.93333,-4
29.94167,-6
29.95000,-7
29.95833,-9
29.96667,-11
29.97500,-12
29.98333,-14
29.99167,-15
30.00000,-17
30.00833,-18
30.01667,-19
30.02500,-20
30.03333,-22
30.04167,-23
30.05000,-24
30.05833,-25
30.06667,-27
30.07500,-28
30.08333,-28
30.09167,-29
30.10000,-30
30.10833,-31
30.11667,-31
30.12500,-32
30.13333,-33
30.14167,-33
30.15000,-33
30.15833,-33
30.16667,-34
30.17500,-34
30.18333,-34
30.19167,-34
30.20000,-34
30.20833,-34
30.21667,-33
30.22500,-33
30.23333,-32
30.24167,-32
30.25000,-32
30.25833,-31
30.26667,-30
30.27500,-29
30.28333,-29
30.29167,-28
30.30000,-27
30.30833,-25
30.31667,-24
30.32500,-24
30.33333,-23
30.34167,-21
30.35000,-20
30.35833,-19
30.36667,-18
30.37500,-16
30.38333,-15
30.39167,-13
30.40000,-12
30.40833,-10
30.41667,-9
30.42500,-8
30.43333,-6
30.44167,-5
30.45000,-3
30.45833,-1
30.46667,0
30.47500,2
30.48333,3
30.49167,4
30.50000,5
30.50833,6
30.51667,7
30.52500,8
30.53333,9
30.54167,10
30.55000,12
30.55833,13
30.56667,14
30.57500,15
30.58333,17
30.59167,18
30.60000,19
30.60833,20
30.61667,22
30.62500,23
30.63333,24
30.64167,25
30.65000,25
30.65833,26
30.66667,27
30.67500,29
30.68333,30
30.69167,31
30.70000,31
30.70833,32
30.71667,33
30.72500,34
30.73333,34
30.74167,35
30.75000,36
30.75833,37
30.76667,38
30.77500,38
30.78333,39
30.79167,39
30.80000,40
30.80833,40
30.81667,40
30.82500,41
30.83333,42
30.84167,42
30.85000,42
30.85833,42
30.86667,42
30.87500,42
30.88333,42
30.89167,42
30.90000,42
30.90833,42
30.91667,42
30.92500,42
30.93333,42
30.94167,42
30.95000,42
30.95833,41
30.96667,41
30.97500,40
30.98333,40
30.99167,39
31.00000,39
31.00833,39
31.01667,38
31.02500,38
31.03333,37
31.04167,37
31.05000,36
31.05833,36
31.06667,35
31.07500,34
31.08333,34
31.09167,33
31.10000,33
31.10833,32
31.11667,32
31.12500,31
31.13333,30
31.14167,29
31.15000,29
31.15833,29
31.16667,28
31.17500,28
31.18333,27
31.19167,26
31.20000,25
31.20833,25
31.21667,24
31.22500,23
31.23333,23
31.24167,22
31.25000,22
31.25833,21
31.26667,21
31.27500,21
31.28333,20
31.29167,20
31.30000,19
31.30833,19
31.31667,19
31.32500,19
31.33333,19
31.34167,19
31.35000,19
31.35833,19
31.36667,19
31.37500,19
31.38333,19
31.39167,19
31.40000,20
31.40833,20
31.41667,20
31.42500,20
31.43333,20
31.44167,20
31.45000,20
31.45833,20
31.46667,21
31.47500,21
31.48333,21
31.49167,22
31.50000,22
31.50833,22
31.51667,22
31.52500,22
31.53333,23
31.54167,23
31.55000,24
31.55833,24
31.56667,24
31.57500,24
31.58333,25
31.59167,25
31.60000,25
31.60833,26
31.61667,26
31.62500,27
31.63333,27
31.64167,27
31.65000,28
31.65833,28
31.66667,29
31.67500,30
31.68333,30
31.69167,31
31.70000,31
31.70833,31
31.71667,31
31.72500,32
31.73333,32
31.74167,32
31.75000,32
31.75833,33
31.76667,33
31.77500,34
31.78333,34
31.79167,34
31.80000,35
31.80833,35
31.81667,35
31.82500,36
31.83333,36
31.84167,36
31.85000,36
31.85833,36
31.86667,37
31.87500,37
31.88333,37
31.89167,37
31.90000,37
31.90833,37
31.91667,37
31.92500,38
31.93333,38
31.94167,38
31.95000,38
31.95833,38
31.96667,38
31.97500,38
31.98333,38
31.99167,38
32.00000,38
32.00833,38
32.01667,38
32.02500,38
32.03333,38
32.04167,37
32.05000,37
32.05833,36
32.06667,37
32.07500,36
32.08333,36
32.09167,36
32.10000,36
32.10833,36
32.11667,36
32.12500,36
32.13333,36
32.14167,35
32.15000,35
32.15833,35
32.16667,35
32.17500,35
32.18333,34
32.19167,34
32.20000,33
32.20833,33
32.21667,33
32.22500,33
32.23333,33
32.24167,34
32.25000,34
32.25833,33
32.26667,33
32.27500,34
32.28333,34
32.29167,34
32.30000,34
32.30833,34
32.31667,34
32.32500,34
32.33333,34
32.34167,34
32.35000,34
32.35833,35
32.36667,35
32.37500,35
32.38333,35
32.39167,35
32.40000,35
32.40833,35
32.41667,36
32.42500,36
32.43333,36
32.44167,36
32.45000,37
32.45833,37
32.46667,38
32.47500,38
32.48333,38
32.49167,39
32.50000,39
32.50833,39
32.51667,39
32.52500,40
32.53333,40
32.54167,40
32.55000,40
32.55833,40
32.56667,40
32.57500,40
32.58333,40
32.59167,40
32.60000,40
32.60833,40
32.61667,41
32.62500,41
32.63333,41
32.64167,41
32.65000,42
32.65833,42
32.66667,42
32.67500,42
32.68333,42
32.69167,42
32.70000,42
32.70833,42
32.71667,43
32.72500,43
32.73333,44
32.74167,44
32.75000,44
32.75833,44
32.76667,44
32.77500,44
32.78333,45
32.79167,45
32.80000,45
32.80833,45
32.81667,45
32.82500,45
32.83333,46
32.84167,46
32.85000,47
32.85833,47
32.86667,47
32.87500,47
32.88333,47
32.89167,48
32.90000,48
32.90833,48
32.91667,48
32.92500,48
32.93333,48
32.94167,48
32.95000,48
32.95833,48
32.96667,48
32.97500,48
32.98333,48
32.99167,48
33.00000,48
33.00833,48
33.01667,47
33.02500,47
33.03333,47
33.04167,46
33.05000,46
33.05833,46
33.06667,46
33.07500,46
33.08333,45
33.09167,45
33.10000,44
33.10833,44
33.11667,43
33.12500,43
33.13333,42
33.14167,42
33.15000,41
33.15833,41
33.16667,40
33.17500,39
33.18333,38
33.19167,37
33.20000,36
33.20833,35
33.21667,35
33.22500,34
33.23333,34
33.24167,33
33.25000,33
33.25833,32
33.26667,31
33.27500,30
33.28333,29
33.29167,28
33.30000,28
33.30833,28
33.31667,27
33.32500,27
33.33333,26
33.34167,26
33.35000,26
33.35833,25
33.36667,25
33.37500,24
33.38333,23
33.39167,23
33.40000,23
33.40833,22
33.41667,22
33.42500,22
33.43333,22
33.44167,22
33.45000,22
33.45833,21
33.46667,21
33.47500,21
33.48333,21
33.49167,21
33.50000,21
33.50833,22
33.51667,22
33.52500,22
33.53333,21
33.54167,22
33.55000,22
33.55833,22
33.56667,23
33.57500,23
33.58333,24
33.59167,24
33.60000,24
33.60833,25
33.61667,25
33.62500,26
33.63333,26
33.64167,27
33.65000,27
33.65833,27
33.66667,28
33.67500,28
33.68333,28
33.69167,29
33.70000,29
33.70833,29
33.71667,30
33.72500,30
33.73333,31
33.74167,31
33.75000,32
33.75833,32
33.76667,32
33.77500,33
33.78333,33
33.79167,33
33.80000,34
33.80833,34
33.81667,35
33.82500,36
33.83333,36
33.84167,37
33.85000,38
33.85833,38
33.86667,38
33.87500,39
33.88333,39
33.89167,39
33.90000,40
33.90833,40
33.91667,40
33.92500,41
33.93333,41
33.94167,42
33.95000,42
33.95833,43
33.96667,43
33.97500,43
33.98333,43
33.99167,44
34.00000,44
34.00833,44
34.01667,44
34.02500,44
34.03333,44
34.04167,44
34.05000,44
34.05833,44
34.06667,44
34.07500,45
34.08333,45
34.09167,46
34.10000,46
34.10833,46
34.11667,46
34.12500,46
34.13333,46
34.14167,46
34.15000,46
34.15833,46
34.16667,46
34.17500,45
34.18333,45
34.19167,45
34.20000,45
34.20833,45
34.21667,45
34.22500,45
34.23333,45
34.24167,45
34.25000,45
34.25833,44
34.26667,44
34.27500,43
34.28333,43
34.29167,43
34.30000,42
34.30833,42
34.31667,42
34.32500,42
34.33333,41
34.34167,42
34.35000,42
34.35833,41
34.36667,41
34.37500,40
34.38333,40
34.39167,39
34.40000,39
34.40833,39
34.41667,39
34.42500,38
34.43333,38
34.44167,37
34.45000,37
34.45833,37
34.46667,37
34.47500,37
34.48333,36
34.49167,36
34.50000,36
34.50833,36
34.51667,36
34.52500,35
34.53333,35
34.54167,35
34.55000,34
34.55833,34
34.56667,34
34.57500,34
34.58333,33
34.59167,33
34.60000,33
34.60833,33
34.61667,33
34.62500,33
34.63333,33
34.64167,33
34.65000,34
34.65833,34
34.66667,34
34.67500,34
34.68333,34
34.69167,35
34.70000,35
34.70833,35
34.71667,36
34.72500,36
34.73333,36
34.74167,37
34.75000,37
34.75833,38
34.76667,38
34.77500,39
34.78333,39
34.79167,40
34.80000,40
34.80833,41
34.81667,41
34.82500,42
34.83333,43
34.84167,43
34.85000,44
34.85833,44
34.86667,45
34.87500,45
34.88333,46
34.89167,46
34.90000,47
34.90833,48
34.91667,48
34.92500,49
34.93333,49
34.94167,49
34.95000,50
34.95833,50
34.96667,50
34.97500,51
34.98333,51
34.99167,51
35.00000,51
35.00833,51
35.01667,51
35.02500,51
35.03333,52
35.04167,51
35.05000,51
35.05833,51
35.06667,51
35.07500,51
35.08333,51
35.09167,51
35.10000,51
35.10833,51
35.11667,51
35.12500,51
35.13333,51
35.14167,51
35.15000,51
35.15833,51
35.16667,51
35.17500,50
35.18333,50
35.19167,50
35.20000,50
35.20833,49
35.21667,49
35.22500,49
35.23333,49
35.24167,49
35.25000,49
35.25833,49
35.26667,49
35.27500,49
35.28333,49
35.29167,49
35.30000,49
35.30833,49
35.31667,49
35.32500,49
35.33333,48
35.34167,48
35.35000,49
35.35833,49
35.36667,49
35.37500,49
35.38333,49
35.39167,49
35.40000,49
35.40833,49
35.41667,49
35.42500,49
35.43333,49
35.44167,49
35.45000,49
35.45833,50
35.46667,49
35.47500,49
35.48333,49
35.49167,49
35.50000,49
35.50833,48
35.51667,48
35.52500,48
35.53333,48
35.54167,48
35.55000,48
35.55833,48
35.56667,48
35.57500,49
35.58333,49
35.59167,49
35.60000,49
35.60833,49
35.61667,49
35.62500,49
35.63333,49
35.64167,48
35.65000,48
35.65833,48
35.66667,47
35.67500,47
35.68333,46
35.69167,46
35.70000,46
35.70833,46
35.71667,46
35.72500,45
35.73333,45
35.74167,44
35.75000,44
35.75833,44
35.76667,44
35.77500,44
35.78333,43
35.79167,43
35.80000,43
35.80833,43
35.81667,43
35.82500,42
35.83333,42
35.84167,41
35.85000,41
35.85833,41
35.86667,41
35.87500,41
35.88333,40
35.89167,40
35.90000,40
35.90833,40
35.91667,39
35.92500,38
35.93333,38
35.94167,38
35.95000,37
35.95833,37
35.96667,37
35.97500,37
35.98333,36
35.99167,36
36.00000,36
36.00833,37
36.01667,37
36.02500,36
36.03333,36
36.04167,36
36.05000,36
36.05833,36
36.06667,36
36.07500,36
36.08333,35
36.09167,35
36.10000,35
36.10833,35
36.11667,35
36.12500,36
36.13333,36
36.14167,36
36.15000,36
36.15833,35
36.16667,35
36.17500,35
36.18333,35
36.19167,34
36.20000,34
36.20833,34
36.21667,34
36.22500,35
36.23333,35
36.24167,35
36.25000,35
36.25833,36
36.26667,36
36.27500,36
36.28333,36
36.29167,36
36.30000,37
36.30833,37
36.31667,37
36.32500,37
36.33333,38
36.34167,38
36.35000,39
36.35833,40
36.36667,40
36.37500,40
36.38333,40
36.39167,41
36.40000,41
36.40833,42
36.41667,42
36.42500,42
36.43333,43
36.44167,43
36.45000,44
36.45833,45
36.46667,45
36.47500,45
36.48333,46
36.49167,46
36.50000,47
36.50833,47
36.51667,48
36.52500,48
36.53333,49
36.54167,49
36.55000,49
36.55833,50
36.56667,50
36.57500,50
36.58333,51
36.59167,51
36.60000,51
36.60833,51
36.61667,51
36.62500,50
36.63333,50
36.64167,51
36.65000,50
36.65833,50
36.66667,50
36.67500,50
36.68333,49
36.69167,49
36.70000,48
36.70833,48
36.71667,47
36.72500,46
36.73333,46
36.74167,45
36.75000,45
36.75833,45
36.76667,44
36.77500,44
36.78333,43
36.79167,43
36.80000,42
36.80833,41
36.81667,40
36.82500,39
36.83333,38
36.84167,37
36.85000,36
36.85833,36
36.86667,36
36.87500,35
36.88333,35
36.89167,34
36.90000,34
36.90833,34
36.91667,33
36.92500,33
36.93333,33
36.94167,33
36.95000,32
36.95833,32
36.96667,31
36.97500,31
36.98333,31
36.99167,31
37.00000,31
37.00833,31
37.01667,31
37.02500,32
37.03333,32
37.04167,32
37.05000,32
37.05833,33
37.06667,33
37.07500,34
37.08333,34
37.09167,34
37.10000,34
37.10833,34
37.11667,35
37.12500,35
37.13333,36
37.14167,36
37.15000,36
37.15833,36
37.16667,36
37.17500,37
37.18333,38
37.19167,38
37.20000,39
37.20833,39
37.21667,40
37.22500,40
37.23333,40
37.24167,40
37.25000,40
37.25833,41
37.26667,41
37.27500,42
37.28333,42
37.29167,43
37.30000,43
37.30833,44
37.31667,44
37.32500,43
37.33333,43
37.34167,43
37.35000,43
37.35833,43
37.36667,42
37.37500,43
37.38333,43
37.39167,42
37.40000,42
37.40833,41
37.41667,40
37.42500,40
37.43333,40
37.44167,40
37.45000,40
37.45833,40
37.46667,40
37.47500,40
37.48333,40
37.49167,40
37.50000,40
37.50833,40
37.51667,40
37.52500,39
37.53333,39
37.54167,39
37.55000,39
37.55833,38
37.56667,38
37.57500,38
37.58333,38
37.59167,37
37.60000,37
37.60833,37
37.61667,37
37.62500,37
37.63333,37
37.64167,36
37.65000,36
37.65833,36
37.66667,35
37.67500,35
37.68333,34
37.69167,34
37.70000,34
37.70833,34
37.71667,34
37.72500,34
37.73333,35
37.74167,35
37.75000,34
37.75833,34
37.76667,34
37.77500,34
37.78333,33
37.79167,33
37.80000,33
37.80833,33
37.81667,32
37.82500,33
37.83333,33
37.84167,33
37.85000,33
37.85833,33
37.86667,33
37.87500,33
37.88333,34
37.89167,34
37.90000,34
37.90833,34
37.91667,34
37.92500,34
37.93333,34
37.94167,34
37.95000,34
37.95833,34
37.96667,34
37.97500,34
37.98333,34
37.99167,34
38.00000,34
38.00833,34
38.01667,34
38.02500,34
38.03333,34
38.04167,35
38.05000,35
38.05833,35
38.06667,36
38.07500,36
38.08333,36
38.09167,36
38.10000,36
38.10833,36
38.11667,36
38.12500,36
38.13333,36
38.14167,36
38.15000,37
38.15833,37
38.16667,37
38.17500,37
38.18333,38
38.19167,38
38.20000,39
38.20833,39
38.21667,40
38.22500,41
38.23333,41
38.24167,42
38.25000,42
38.25833,42
38.26667,42
38.27500,43
38.28333,43
38.29167,44
38.30000,44
38.30833,45
38.31667,45
38.32500,45
38.33333,46
38.34167,46
38.35000,47
38.35833,47
38.36667,47
38.37500,48
38.38333,49
38.39167,50
38.40000,50
38.40833,51
38.41667,52
38.42500,53
38.43333,54
38.44167,54
38.45000,55
38.45833,55
38.46667,56
38.47500,57
38.48333,58
38.49167,59
38.50000,59
38.50833,60
38.51667,61
38.52500,61
38.53333,62
38.54167,63
38.55000,63
38.55833,64
38.56667,65
38.57500,66
38.58333,67
38.59167,68
38.60000,69
38.60833,69
38.61667,70
38.62500,70
38.63333,71
38.64167,71
38.65000,72
38.65833,72
38.66667,73
38.67500,73
38.68333,74
38.69167,74
38.70000,75
38.70833,75
38.71667,75
38.72500,75
38.73333,75
38.74167,75
38.75000,75
38.75833,76
38.76667,76
38.77500,76
38.78333,76
38.79167,75
38.80000,75
38.80833,75
38.81667,74
38.82500,74
38.83333,73
38.84167,72
38.85000,72
38.85833,71
38.86667,70
38.87500,69
38.88333,69
38.89167,68
38.90000,67
38.90833,67
38.91667,66
38.92500,65
38.93333,65
38.94167,64
38.95000,63
38.95833,62
38.96667,61
38.97500,60
38.98333,59
38.99167,58
39.00000,57
39.00833,56
39.01667,55
39.02500,54
39.03333,54
39.04167,53
39.05000,52
39.05833,51
39.06667,50
39.07500,49
39.08333,49
39.09167,48
39.10000,47
39.10833,46
39.11667,46
39.12500,45
39.13333,45
39.14167,44
39.15000,44
39.15833,44
39.16667,44
39.17500,43
39.18333,43
39.19167,42
39.20000,42
39.20833,42
39.21667,41
39.22500,40
39.23333,40
39.24167,40
39.25000,40
39.25833,40
39.26667,41
39.27500,41
39.28333,41
39.29167,41
39.30000,40
39.30833,40
39.31667,40
39.32500,40
39.33333,41
39.34167,41
39.35000,41
39.35833,41
39.36667,42
39.37500,42
39.38333,43
39.39167,43
39.40000,44
39.40833,44
39.41667,45
39.42500,45
39.43333,46
39.44167,46
39.45000,46
39.45833,46
39.46667,47
39.47500,47
39.48333,48
39.49167,48
39.50000,48
39.50833,48
39.51667,49
39.52500,49
39.53333,49
39.54167,50
39.55000,50
39.55833,51
39.56667,51
39.57500,52
39.58333,52
39.59167,52
39.60000,53
39.60833,53
39.61667,54
39.62500,54
39.63333,55
39.64167,55
39.65000,55
39.65833,56
39.66667,56
39.67500,57
39.68333,57
39.69167,57
39.70000,57
39.70833,57
39.71667,58
39.72500,58
39.73333,58
39.74167,59
39.75000,59
39.75833,59
39.76667,60
39.77500,60
39.78333,60
39.79167,60
39.80000,61
39.80833,61
39.81667,62
39.82500,62
39.83333,62
39.84167,62
39.85000,62
39.85833,62
39.86667,62
39.87500,62
39.88333,62
39.89167,62
39.90000,61
39.90833,61
39.91667,61
39.92500,61
39.93333,61
39.94167,61
39.95000,61
39.95833,61
39.96667,61
39.97500,61
39.98333,61
39.99167,61
40.00000,61

