[Header]
Application Name,LabSolutions
Version,5.97 SP1
Data File Name,C:\Users\cremerlab\Desktop\griffin\2021-04-05_NC_DM_calibration\2021-04-05_NC_DM_2.5mM_calibration_452021_001_014.lcd
Output Date,4/6/2021
Output Time,3:10:21 AM

[File Information]
Type,Data File
Generated,4/6/2021 2:30:02 AM
Generated by,System Administrator
Modified,4/6/2021 3:10:21 AM
Modified by,System Administrator

[Sample Information]
Operator Name,System Administrator
Acquired,4/6/2021 2:30:20 AM
Sample Type,1:Standard
Level,1
Sample Name,2021-04-05_DM_glucose_glycerol_acetate_30mM
Sample ID,001
ISTD Amount1,1
ISTD Amount2,1
ISTD Amount3,1
ISTD Amount4,1
ISTD Amount5,1
ISTD Amount6,1
ISTD Amount7,1
ISTD Amount8,1
ISTD Amount9,1
ISTD Amount10,1
ISTD Amount11,1
ISTD Amount12,1
ISTD Amount13,1
ISTD Amount14,1
ISTD Amount15,1
ISTD Amount16,1
ISTD Amount17,1
ISTD Amount18,1
ISTD Amount19,1
ISTD Amount20,1
ISTD Amount21,1
ISTD Amount22,1
ISTD Amount23,1
ISTD Amount24,1
ISTD Amount25,1
ISTD Amount26,1
ISTD Amount27,1
ISTD Amount28,1
ISTD Amount29,1
ISTD Amount30,1
ISTD Amount31,1
ISTD Amount32,1
Sample Amount,1
Dilution Factor,1
Vial#,19
Injection Volume,20

[Original Files]
Data File,C:\Users\cremerlab\Desktop\griffin\2021-04-05_NC_DM_calibration\2021-04-05_NC_DM_2.5mM_calibration_452021_001_014.lcd
Method File,C:\Users\cremerlab\Desktop\griffin\2021-04-05_NC_DM_calibration\2021-04-05_2.5mM_mobile.lcm
Batch File,C:\Users\cremerlab\Desktop\griffin\2021-04-05_NC_DM_calibration\2021-04-05_NC_DM_2.5mM_calibration.lcb
Report Format File,c:\LabSolutions\System\DEFAULT.lsr

[File Description]


[Configuration]
Instrument Name,HPLC-PC-Instrument1
Instrument #,1
Line #,1
# of Detectors,2
Detector ID,Detector A,Detector B
Detector Name,Detector A,Detector B
# of Channels,1,1

[Peak Table(Detector A)]
# of Peaks,0

[Peak Table(Detector B)]
# of Peaks,7
Peak#,R.Time,I.Time,F.Time,Area,Height,A/H,Conc.,Mark,ID#,Name,k',Plate #,Plate Ht.,Tailing,Resolution,Sep.Factor,Area Ratio,Height Ratio,Conc. %,Norm Conc.
1,10.884,10.417,11.300,229061,13284,17.243,0.000,   ,,,0.000,9210,16.287,1.096,0.000,0.000,0,0,0.000,0.000
2,11.657,11.300,12.575,31518,714,44.123,0.000, V ,,,0.071,950,157.970,0.000,0.786,0.000,0,0,0.000,0.000
3,13.899,12.575,14.175,1574157,42704,36.862,0.000, V ,,,0.277,3210,46.733,0.000,1.797,3.899,0,0,0.000,0.000
4,14.322,14.175,15.008,154910,8153,19.001,0.000, V ,,,0.316,7194,20.850,0.000,0.510,1.140,0,0,0.000,0.000
5,15.675,15.008,18.125,2829841,114556,24.703,0.000, V ,,,0.440,9434,15.900,1.152,2.049,1.394,0,0,0.000,0.000
6,22.065,21.333,23.700,841465,30334,27.740,0.000,   ,,,1.027,14679,10.219,1.099,9.301,2.334,0,0,0.000,0.000
7,25.030,24.292,26.042,356501,11963,29.800,0.000,   ,,,1.300,16081,9.328,1.076,3.906,1.265,0,0,0.000,0.000

[LC Chromatogram(Detector B-Ch1)]
Interval(msec),500
# of Points,4801
Start Time(min),0.000
End Time(min),40.000
Intensity Units,mV
Intensity Multiplier,0.001
R.Time (min),Intensity
0.00000,138
0.00833,138
0.01667,1
0.02500,3
0.03333,4
0.04167,6
0.05000,8
0.05833,9
0.06667,10
0.07500,12
0.08333,13
0.09167,14
0.10000,16
0.10833,17
0.11667,18
0.12500,19
0.13333,21
0.14167,22
0.15000,22
0.15833,24
0.16667,25
0.17500,25
0.18333,26
0.19167,27
0.20000,28
0.20833,29
0.21667,29
0.22500,30
0.23333,31
0.24167,31
0.25000,32
0.25833,32
0.26667,33
0.27500,33
0.28333,34
0.29167,34
0.30000,35
0.30833,35
0.31667,35
0.32500,35
0.33333,35
0.34167,36
0.35000,36
0.35833,36
0.36667,36
0.37500,37
0.38333,37
0.39167,38
0.40000,38
0.40833,39
0.41667,39
0.42500,40
0.43333,40
0.44167,40
0.45000,41
0.45833,40
0.46667,40
0.47500,40
0.48333,40
0.49167,39
0.50000,39
0.50833,39
0.51667,39
0.52500,39
0.53333,39
0.54167,38
0.55000,38
0.55833,38
0.56667,37
0.57500,37
0.58333,37
0.59167,37
0.60000,37
0.60833,36
0.61667,36
0.62500,36
0.63333,36
0.64167,37
0.65000,37
0.65833,37
0.66667,37
0.67500,37
0.68333,37
0.69167,37
0.70000,36
0.70833,37
0.71667,37
0.72500,37
0.73333,37
0.74167,37
0.75000,38
0.75833,38
0.76667,38
0.77500,38
0.78333,39
0.79167,39
0.80000,39
0.80833,39
0.81667,39
0.82500,39
0.83333,39
0.84167,39
0.85000,39
0.85833,38
0.86667,38
0.87500,38
0.88333,39
0.89167,39
0.90000,38
0.90833,38
0.91667,38
0.92500,38
0.93333,38
0.94167,38
0.95000,38
0.95833,38
0.96667,38
0.97500,37
0.98333,37
0.99167,37
1.00000,37
1.00833,37
1.01667,37
1.02500,37
1.03333,36
1.04167,36
1.05000,36
1.05833,36
1.06667,35
1.07500,34
1.08333,34
1.09167,33
1.10000,33
1.10833,32
1.11667,32
1.12500,31
1.13333,31
1.14167,30
1.15000,29
1.15833,28
1.16667,28
1.17500,27
1.18333,27
1.19167,27
1.20000,27
1.20833,26
1.21667,26
1.22500,25
1.23333,24
1.24167,24
1.25000,23
1.25833,23
1.26667,22
1.27500,21
1.28333,20
1.29167,19
1.30000,19
1.30833,19
1.31667,18
1.32500,17
1.33333,17
1.34167,16
1.35000,16
1.35833,15
1.36667,14
1.37500,14
1.38333,13
1.39167,12
1.40000,12
1.40833,11
1.41667,11
1.42500,10
1.43333,9
1.44167,8
1.45000,8
1.45833,7
1.46667,7
1.47500,6
1.48333,6
1.49167,5
1.50000,4
1.50833,3
1.51667,3
1.52500,2
1.53333,2
1.54167,1
1.55000,1
1.55833,0
1.56667,0
1.57500,-0
1.58333,-1
1.59167,-1
1.60000,-2
1.60833,-2
1.61667,-2
1.62500,-3
1.63333,-3
1.64167,-4
1.65000,-5
1.65833,-6
1.66667,-7
1.67500,-7
1.68333,-8
1.69167,-8
1.70000,-8
1.70833,-9
1.71667,-10
1.72500,-10
1.73333,-11
1.74167,-12
1.75000,-12
1.75833,-12
1.76667,-13
1.77500,-14
1.78333,-14
1.79167,-15
1.80000,-15
1.80833,-15
1.81667,-16
1.82500,-16
1.83333,-17
1.84167,-17
1.85000,-17
1.85833,-17
1.86667,-17
1.87500,-17
1.88333,-17
1.89167,-17
1.90000,-17
1.90833,-17
1.91667,-16
1.92500,-16
1.93333,-16
1.94167,-16
1.95000,-16
1.95833,-16
1.96667,-16
1.97500,-16
1.98333,-15
1.99167,-15
2.00000,-14
2.00833,-14
2.01667,-14
2.02500,-14
2.03333,-13
2.04167,-13
2.05000,-13
2.05833,-13
2.06667,-13
2.07500,-12
2.08333,-12
2.09167,-11
2.10000,-10
2.10833,-10
2.11667,-9
2.12500,-8
2.13333,-7
2.14167,-6
2.15000,-5
2.15833,-5
2.16667,-4
2.17500,-3
2.18333,-2
2.19167,-1
2.20000,-1
2.20833,-0
2.21667,1
2.22500,1
2.23333,2
2.24167,3
2.25000,4
2.25833,4
2.26667,5
2.27500,6
2.28333,6
2.29167,7
2.30000,8
2.30833,9
2.31667,9
2.32500,10
2.33333,10
2.34167,11
2.35000,11
2.35833,12
2.36667,12
2.37500,12
2.38333,12
2.39167,12
2.40000,12
2.40833,12
2.41667,12
2.42500,11
2.43333,11
2.44167,11
2.45000,10
2.45833,10
2.46667,10
2.47500,9
2.48333,8
2.49167,8
2.50000,7
2.50833,6
2.51667,5
2.52500,4
2.53333,2
2.54167,1
2.55000,-0
2.55833,-2
2.56667,-4
2.57500,-6
2.58333,-8
2.59167,-10
2.60000,-12
2.60833,-15
2.61667,-17
2.62500,-20
2.63333,-23
2.64167,-26
2.65000,-29
2.65833,-33
2.66667,-37
2.67500,-41
2.68333,-45
2.69167,-50
2.70000,-55
2.70833,-60
2.71667,-66
2.72500,-71
2.73333,-77
2.74167,-84
2.75000,-91
2.75833,-97
2.76667,-104
2.77500,-112
2.78333,-120
2.79167,-128
2.80000,-136
2.80833,-145
2.81667,-154
2.82500,-163
2.83333,-173
2.84167,-183
2.85000,-193
2.85833,-204
2.86667,-215
2.87500,-226
2.88333,-237
2.89167,-248
2.90000,-260
2.90833,-272
2.91667,-285
2.92500,-297
2.93333,-310
2.94167,-323
2.95000,-337
2.95833,-350
2.96667,-364
2.97500,-378
2.98333,-392
2.99167,-406
3.00000,-420
3.00833,-434
3.01667,-448
3.02500,-462
3.03333,-476
3.04167,-491
3.05000,-505
3.05833,-519
3.06667,-533
3.07500,-548
3.08333,-562
3.09167,-577
3.10000,-591
3.10833,-605
3.11667,-618
3.12500,-632
3.13333,-646
3.14167,-659
3.15000,-672
3.15833,-686
3.16667,-699
3.17500,-712
3.18333,-724
3.19167,-736
3.20000,-749
3.20833,-760
3.21667,-772
3.22500,-783
3.23333,-794
3.24167,-805
3.25000,-815
3.25833,-826
3.26667,-836
3.27500,-846
3.28333,-856
3.29167,-865
3.30000,-874
3.30833,-883
3.31667,-892
3.32500,-900
3.33333,-908
3.34167,-916
3.35000,-924
3.35833,-931
3.36667,-938
3.37500,-945
3.38333,-951
3.39167,-958
3.40000,-964
3.40833,-970
3.41667,-976
3.42500,-982
3.43333,-987
3.44167,-993
3.45000,-998
3.45833,-1004
3.46667,-1009
3.47500,-1014
3.48333,-1019
3.49167,-1023
3.50000,-1028
3.50833,-1032
3.51667,-1037
3.52500,-1041
3.53333,-1046
3.54167,-1050
3.55000,-1055
3.55833,-1059
3.56667,-1063
3.57500,-1067
3.58333,-1071
3.59167,-1075
3.60000,-1080
3.60833,-1084
3.61667,-1088
3.62500,-1093
3.63333,-1097
3.64167,-1101
3.65000,-1105
3.65833,-1109
3.66667,-1113
3.67500,-1118
3.68333,-1122
3.69167,-1126
3.70000,-1131
3.70833,-1136
3.71667,-1140
3.72500,-1145
3.73333,-1150
3.74167,-1154
3.75000,-1159
3.75833,-1163
3.76667,-1168
3.77500,-1172
3.78333,-1177
3.79167,-1181
3.80000,-1186
3.80833,-1190
3.81667,-1194
3.82500,-1198
3.83333,-1202
3.84167,-1207
3.85000,-1211
3.85833,-1216
3.86667,-1220
3.87500,-1225
3.88333,-1229
3.89167,-1233
3.90000,-1237
3.90833,-1240
3.91667,-1244
3.92500,-1248
3.93333,-1251
3.94167,-1254
3.95000,-1257
3.95833,-1260
3.96667,-1263
3.97500,-1265
3.98333,-1268
3.99167,-1270
4.00000,-1272
4.00833,-1273
4.01667,-1275
4.02500,-1276
4.03333,-1277
4.04167,-1279
4.05000,-1279
4.05833,-1280
4.06667,-1280
4.07500,-1279
4.08333,-1279
4.09167,-1279
4.10000,-1278
4.10833,-1277
4.11667,-1276
4.12500,-1275
4.13333,-1273
4.14167,-1271
4.15000,-1269
4.15833,-1267
4.16667,-1264
4.17500,-1261
4.18333,-1258
4.19167,-1255
4.20000,-1252
4.20833,-1248
4.21667,-1244
4.22500,-1240
4.23333,-1236
4.24167,-1232
4.25000,-1227
4.25833,-1222
4.26667,-1216
4.27500,-1211
4.28333,-1205
4.29167,-1200
4.30000,-1195
4.30833,-1189
4.31667,-1183
4.32500,-1177
4.33333,-1170
4.34167,-1164
4.35000,-1158
4.35833,-1151
4.36667,-1145
4.37500,-1138
4.38333,-1132
4.39167,-1125
4.40000,-1118
4.40833,-1111
4.41667,-1105
4.42500,-1098
4.43333,-1091
4.44167,-1084
4.45000,-1078
4.45833,-1071
4.46667,-1064
4.47500,-1058
4.48333,-1051
4.49167,-1045
4.50000,-1039
4.50833,-1033
4.51667,-1027
4.52500,-1021
4.53333,-1014
4.54167,-1009
4.55000,-1003
4.55833,-998
4.56667,-992
4.57500,-987
4.58333,-982
4.59167,-977
4.60000,-972
4.60833,-968
4.61667,-963
4.62500,-959
4.63333,-956
4.64167,-952
4.65000,-948
4.65833,-944
4.66667,-941
4.67500,-938
4.68333,-934
4.69167,-932
4.70000,-929
4.70833,-927
4.71667,-925
4.72500,-923
4.73333,-921
4.74167,-920
4.75000,-918
4.75833,-917
4.76667,-915
4.77500,-914
4.78333,-913
4.79167,-911
4.80000,-910
4.80833,-909
4.81667,-908
4.82500,-908
4.83333,-908
4.84167,-908
4.85000,-907
4.85833,-907
4.86667,-907
4.87500,-907
4.88333,-906
4.89167,-906
4.90000,-906
4.90833,-906
4.91667,-906
4.92500,-906
4.93333,-906
4.94167,-906
4.95000,-907
4.95833,-906
4.96667,-906
4.97500,-906
4.98333,-906
4.99167,-906
5.00000,-906
5.00833,-906
5.01667,-906
5.02500,-906
5.03333,-906
5.04167,-906
5.05000,-906
5.05833,-905
5.06667,-905
5.07500,-905
5.08333,-905
5.09167,-905
5.10000,-904
5.10833,-904
5.11667,-903
5.12500,-903
5.13333,-903
5.14167,-903
5.15000,-903
5.15833,-902
5.16667,-902
5.17500,-901
5.18333,-900
5.19167,-900
5.20000,-899
5.20833,-898
5.21667,-898
5.22500,-897
5.23333,-896
5.24167,-896
5.25000,-895
5.25833,-894
5.26667,-893
5.27500,-892
5.28333,-891
5.29167,-890
5.30000,-889
5.30833,-888
5.31667,-887
5.32500,-886
5.33333,-886
5.34167,-885
5.35000,-884
5.35833,-883
5.36667,-882
5.37500,-881
5.38333,-880
5.39167,-879
5.40000,-878
5.40833,-877
5.41667,-876
5.42500,-875
5.43333,-873
5.44167,-872
5.45000,-871
5.45833,-870
5.46667,-869
5.47500,-868
5.48333,-867
5.49167,-865
5.50000,-864
5.50833,-862
5.51667,-861
5.52500,-860
5.53333,-859
5.54167,-857
5.55000,-856
5.55833,-855
5.56667,-854
5.57500,-853
5.58333,-851
5.59167,-850
5.60000,-849
5.60833,-847
5.61667,-846
5.62500,-844
5.63333,-843
5.64167,-841
5.65000,-839
5.65833,-837
5.66667,-836
5.67500,-834
5.68333,-833
5.69167,-831
5.70000,-829
5.70833,-828
5.71667,-826
5.72500,-825
5.73333,-823
5.74167,-821
5.75000,-819
5.75833,-818
5.76667,-816
5.77500,-814
5.78333,-812
5.79167,-810
5.80000,-809
5.80833,-807
5.81667,-805
5.82500,-803
5.83333,-801
5.84167,-799
5.85000,-797
5.85833,-795
5.86667,-793
5.87500,-792
5.88333,-790
5.89167,-788
5.90000,-786
5.90833,-784
5.91667,-782
5.92500,-780
5.93333,-778
5.94167,-776
5.95000,-774
5.95833,-772
5.96667,-770
5.97500,-768
5.98333,-766
5.99167,-764
6.00000,-762
6.00833,-759
6.01667,-757
6.02500,-754
6.03333,-752
6.04167,-750
6.05000,-747
6.05833,-745
6.06667,-742
6.07500,-739
6.08333,-736
6.09167,-734
6.10000,-731
6.10833,-729
6.11667,-726
6.12500,-723
6.13333,-719
6.14167,-716
6.15000,-712
6.15833,-709
6.16667,-705
6.17500,-702
6.18333,-698
6.19167,-694
6.20000,-690
6.20833,-687
6.21667,-683
6.22500,-679
6.23333,-675
6.24167,-671
6.25000,-666
6.25833,-662
6.26667,-658
6.27500,-653
6.28333,-649
6.29167,-644
6.30000,-639
6.30833,-635
6.31667,-630
6.32500,-626
6.33333,-621
6.34167,-616
6.35000,-611
6.35833,-606
6.36667,-601
6.37500,-596
6.38333,-591
6.39167,-586
6.40000,-582
6.40833,-577
6.41667,-572
6.42500,-568
6.43333,-563
6.44167,-559
6.45000,-554
6.45833,-550
6.46667,-545
6.47500,-541
6.48333,-536
6.49167,-532
6.50000,-527
6.50833,-523
6.51667,-518
6.52500,-514
6.53333,-510
6.54167,-506
6.55000,-502
6.55833,-498
6.56667,-495
6.57500,-491
6.58333,-487
6.59167,-484
6.60000,-480
6.60833,-477
6.61667,-473
6.62500,-470
6.63333,-466
6.64167,-462
6.65000,-459
6.65833,-456
6.66667,-453
6.67500,-450
6.68333,-447
6.69167,-444
6.70000,-441
6.70833,-438
6.71667,-435
6.72500,-432
6.73333,-429
6.74167,-427
6.75000,-424
6.75833,-421
6.76667,-418
6.77500,-415
6.78333,-413
6.79167,-410
6.80000,-408
6.80833,-405
6.81667,-403
6.82500,-400
6.83333,-397
6.84167,-394
6.85000,-391
6.85833,-389
6.86667,-387
6.87500,-384
6.88333,-382
6.89167,-379
6.90000,-376
6.90833,-373
6.91667,-371
6.92500,-368
6.93333,-366
6.94167,-363
6.95000,-360
6.95833,-357
6.96667,-354
6.97500,-352
6.98333,-349
6.99167,-346
7.00000,-343
7.00833,-340
7.01667,-337
7.02500,-334
7.03333,-332
7.04167,-329
7.05000,-326
7.05833,-324
7.06667,-321
7.07500,-318
7.08333,-315
7.09167,-312
7.10000,-308
7.10833,-306
7.11667,-303
7.12500,-300
7.13333,-297
7.14167,-294
7.15000,-291
7.15833,-287
7.16667,-284
7.17500,-281
7.18333,-278
7.19167,-275
7.20000,-272
7.20833,-270
7.21667,-267
7.22500,-264
7.23333,-262
7.24167,-259
7.25000,-256
7.25833,-254
7.26667,-251
7.27500,-248
7.28333,-246
7.29167,-243
7.30000,-241
7.30833,-239
7.31667,-237
7.32500,-235
7.33333,-233
7.34167,-231
7.35000,-229
7.35833,-227
7.36667,-225
7.37500,-223
7.38333,-222
7.39167,-220
7.40000,-218
7.40833,-217
7.41667,-216
7.42500,-214
7.43333,-213
7.44167,-212
7.45000,-211
7.45833,-210
7.46667,-210
7.47500,-209
7.48333,-208
7.49167,-207
7.50000,-207
7.50833,-206
7.51667,-205
7.52500,-204
7.53333,-203
7.54167,-203
7.55000,-202
7.55833,-202
7.56667,-202
7.57500,-201
7.58333,-201
7.59167,-201
7.60000,-201
7.60833,-202
7.61667,-202
7.62500,-202
7.63333,-202
7.64167,-202
7.65000,-201
7.65833,-201
7.66667,-201
7.67500,-201
7.68333,-201
7.69167,-201
7.70000,-201
7.70833,-201
7.71667,-200
7.72500,-200
7.73333,-200
7.74167,-200
7.75000,-200
7.75833,-200
7.76667,-200
7.77500,-201
7.78333,-201
7.79167,-201
7.80000,-201
7.80833,-200
7.81667,-200
7.82500,-200
7.83333,-200
7.84167,-200
7.85000,-200
7.85833,-200
7.86667,-200
7.87500,-200
7.88333,-200
7.89167,-200
7.90000,-200
7.90833,-200
7.91667,-200
7.92500,-200
7.93333,-200
7.94167,-200
7.95000,-200
7.95833,-200
7.96667,-200
7.97500,-201
7.98333,-201
7.99167,-201
8.00000,-201
8.00833,-201
8.01667,-201
8.02500,-201
8.03333,-201
8.04167,-201
8.05000,-201
8.05833,-201
8.06667,-201
8.07500,-201
8.08333,-201
8.09167,-201
8.10000,-202
8.10833,-202
8.11667,-202
8.12500,-202
8.13333,-202
8.14167,-202
8.15000,-202
8.15833,-202
8.16667,-202
8.17500,-202
8.18333,-202
8.19167,-202
8.20000,-202
8.20833,-202
8.21667,-202
8.22500,-203
8.23333,-202
8.24167,-202
8.25000,-202
8.25833,-202
8.26667,-202
8.27500,-203
8.28333,-203
8.29167,-203
8.30000,-203
8.30833,-203
8.31667,-203
8.32500,-203
8.33333,-203
8.34167,-203
8.35000,-203
8.35833,-203
8.36667,-203
8.37500,-203
8.38333,-203
8.39167,-203
8.40000,-204
8.40833,-204
8.41667,-204
8.42500,-203
8.43333,-203
8.44167,-203
8.45000,-203
8.45833,-203
8.46667,-203
8.47500,-203
8.48333,-203
8.49167,-203
8.50000,-203
8.50833,-203
8.51667,-203
8.52500,-202
8.53333,-202
8.54167,-202
8.55000,-202
8.55833,-202
8.56667,-201
8.57500,-201
8.58333,-200
8.59167,-200
8.60000,-199
8.60833,-199
8.61667,-198
8.62500,-198
8.63333,-197
8.64167,-196
8.65000,-196
8.65833,-195
8.66667,-194
8.67500,-193
8.68333,-193
8.69167,-192
8.70000,-191
8.70833,-190
8.71667,-190
8.72500,-189
8.73333,-189
8.74167,-188
8.75000,-188
8.75833,-187
8.76667,-187
8.77500,-186
8.78333,-185
8.79167,-184
8.80000,-183
8.80833,-182
8.81667,-182
8.82500,-181
8.83333,-180
8.84167,-180
8.85000,-179
8.85833,-178
8.86667,-177
8.87500,-177
8.88333,-176
8.89167,-175
8.90000,-174
8.90833,-173
8.91667,-173
8.92500,-172
8.93333,-171
8.94167,-170
8.95000,-169
8.95833,-168
8.96667,-167
8.97500,-167
8.98333,-166
8.99167,-166
9.00000,-166
9.00833,-165
9.01667,-165
9.02500,-164
9.03333,-164
9.04167,-164
9.05000,-163
9.05833,-162
9.06667,-162
9.07500,-162
9.08333,-161
9.09167,-161
9.10000,-160
9.10833,-160
9.11667,-160
9.12500,-160
9.13333,-160
9.14167,-160
9.15000,-160
9.15833,-159
9.16667,-159
9.17500,-158
9.18333,-158
9.19167,-158
9.20000,-158
9.20833,-157
9.21667,-157
9.22500,-157
9.23333,-157
9.24167,-157
9.25000,-156
9.25833,-156
9.26667,-155
9.27500,-155
9.28333,-155
9.29167,-154
9.30000,-154
9.30833,-153
9.31667,-153
9.32500,-153
9.33333,-152
9.34167,-151
9.35000,-151
9.35833,-150
9.36667,-150
9.37500,-150
9.38333,-149
9.39167,-149
9.40000,-148
9.40833,-147
9.41667,-146
9.42500,-146
9.43333,-145
9.44167,-144
9.45000,-143
9.45833,-142
9.46667,-142
9.47500,-141
9.48333,-140
9.49167,-139
9.50000,-138
9.50833,-136
9.51667,-135
9.52500,-134
9.53333,-133
9.54167,-132
9.55000,-132
9.55833,-131
9.56667,-130
9.57500,-130
9.58333,-129
9.59167,-128
9.60000,-127
9.60833,-126
9.61667,-125
9.62500,-124
9.63333,-123
9.64167,-122
9.65000,-122
9.65833,-121
9.66667,-120
9.67500,-119
9.68333,-119
9.69167,-118
9.70000,-117
9.70833,-116
9.71667,-115
9.72500,-115
9.73333,-114
9.74167,-114
9.75000,-113
9.75833,-112
9.76667,-111
9.77500,-111
9.78333,-110
9.79167,-109
9.80000,-109
9.80833,-108
9.81667,-108
9.82500,-107
9.83333,-107
9.84167,-107
9.85000,-107
9.85833,-106
9.86667,-105
9.87500,-105
9.88333,-105
9.89167,-104
9.90000,-104
9.90833,-104
9.91667,-104
9.92500,-103
9.93333,-103
9.94167,-102
9.95000,-102
9.95833,-101
9.96667,-101
9.97500,-102
9.98333,-102
9.99167,-101
10.00000,-101
10.00833,-101
10.01667,-101
10.02500,-102
10.03333,-102
10.04167,-102
10.05000,-102
10.05833,-103
10.06667,-103
10.07500,-103
10.08333,-103
10.09167,-103
10.10000,-103
10.10833,-103
10.11667,-103
10.12500,-104
10.13333,-104
10.14167,-104
10.15000,-104
10.15833,-105
10.16667,-105
10.17500,-105
10.18333,-105
10.19167,-106
10.20000,-106
10.20833,-106
10.21667,-107
10.22500,-107
10.23333,-108
10.24167,-108
10.25000,-109
10.25833,-109
10.26667,-109
10.27500,-110
10.28333,-110
10.29167,-110
10.30000,-111
10.30833,-111
10.31667,-111
10.32500,-112
10.33333,-112
10.34167,-112
10.35000,-112
10.35833,-112
10.36667,-112
10.37500,-112
10.38333,-112
10.39167,-112
10.40000,-112
10.40833,-112
10.41667,-112
10.42500,-111
10.43333,-110
10.44167,-109
10.45000,-107
10.45833,-106
10.46667,-103
10.47500,-100
10.48333,-96
10.49167,-89
10.50000,-82
10.50833,-72
10.51667,-59
10.52500,-44
10.53333,-24
10.54167,1
10.55000,33
10.55833,72
10.56667,119
10.57500,177
10.58333,247
10.59167,329
10.60000,427
10.60833,542
10.61667,676
10.62500,831
10.63333,1008
10.64167,1210
10.65000,1437
10.65833,1692
10.66667,1976
10.67500,2289
10.68333,2633
10.69167,3008
10.70000,3414
10.70833,3851
10.71667,4316
10.72500,4809
10.73333,5327
10.74167,5868
10.75000,6427
10.75833,7000
10.76667,7584
10.77500,8172
10.78333,8758
10.79167,9337
10.80000,9901
10.80833,10444
10.81667,10956
10.82500,11433
10.83333,11865
10.84167,12246
10.85000,12570
10.85833,12830
10.86667,13022
10.87500,13142
10.88333,13187
10.89167,13155
10.90000,13047
10.90833,12864
10.91667,12610
10.92500,12287
10.93333,11903
10.94167,11464
10.95000,10977
10.95833,10450
10.96667,9893
10.97500,9313
10.98333,8721
10.99167,8123
11.00000,7528
11.00833,6943
11.01667,6373
11.02500,5825
11.03333,5302
11.04167,4809
11.05000,4346
11.05833,3915
11.06667,3517
11.07500,3152
11.08333,2819
11.09167,2518
11.10000,2247
11.10833,2004
11.11667,1786
11.12500,1594
11.13333,1423
11.14167,1272
11.15000,1140
11.15833,1025
11.16667,924
11.17500,837
11.18333,761
11.19167,696
11.20000,640
11.20833,593
11.21667,552
11.22500,518
11.23333,490
11.24167,467
11.25000,448
11.25833,433
11.26667,422
11.27500,413
11.28333,407
11.29167,404
11.30000,403
11.30833,404
11.31667,406
11.32500,409
11.33333,413
11.34167,418
11.35000,424
11.35833,431
11.36667,438
11.37500,446
11.38333,454
11.39167,462
11.40000,471
11.40833,479
11.41667,488
11.42500,496
11.43333,505
11.44167,514
11.45000,522
11.45833,531
11.46667,539
11.47500,547
11.48333,554
11.49167,562
11.50000,569
11.50833,576
11.51667,582
11.52500,588
11.53333,594
11.54167,600
11.55000,605
11.55833,610
11.56667,615
11.57500,619
11.58333,623
11.59167,626
11.60000,629
11.60833,632
11.61667,634
11.62500,637
11.63333,638
11.64167,639
11.65000,640
11.65833,640
11.66667,640
11.67500,639
11.68333,638
11.69167,637
11.70000,635
11.70833,632
11.71667,630
11.72500,627
11.73333,623
11.74167,619
11.75000,615
11.75833,610
11.76667,606
11.77500,600
11.78333,595
11.79167,589
11.80000,582
11.80833,576
11.81667,569
11.82500,562
11.83333,554
11.84167,547
11.85000,539
11.85833,530
11.86667,522
11.87500,514
11.88333,505
11.89167,496
11.90000,487
11.90833,478
11.91667,469
11.92500,459
11.93333,450
11.94167,440
11.95000,430
11.95833,420
11.96667,411
11.97500,401
11.98333,391
11.99167,382
12.00000,372
12.00833,362
12.01667,352
12.02500,342
12.03333,332
12.04167,323
12.05000,313
12.05833,304
12.06667,294
12.07500,285
12.08333,275
12.09167,266
12.10000,257
12.10833,248
12.11667,239
12.12500,230
12.13333,221
12.14167,212
12.15000,204
12.15833,195
12.16667,186
12.17500,178
12.18333,170
12.19167,161
12.20000,154
12.20833,146
12.21667,139
12.22500,132
12.23333,124
12.24167,118
12.25000,111
12.25833,104
12.26667,98
12.27500,92
12.28333,85
12.29167,79
12.30000,74
12.30833,68
12.31667,63
12.32500,58
12.33333,52
12.34167,48
12.35000,43
12.35833,39
12.36667,35
12.37500,31
12.38333,27
12.39167,23
12.40000,19
12.40833,16
12.41667,13
12.42500,9
12.43333,6
12.44167,3
12.45000,1
12.45833,-2
12.46667,-4
12.47500,-6
12.48333,-8
12.49167,-10
12.50000,-12
12.50833,-14
12.51667,-15
12.52500,-16
12.53333,-17
12.54167,-18
12.55000,-18
12.55833,-19
12.56667,-20
12.57500,-20
12.58333,-20
12.59167,-19
12.60000,-18
12.60833,-16
12.61667,-14
12.62500,-10
12.63333,-5
12.64167,0
12.65000,7
12.65833,15
12.66667,25
12.67500,38
12.68333,53
12.69167,70
12.70000,91
12.70833,115
12.71667,143
12.72500,175
12.73333,211
12.74167,253
12.75000,300
12.75833,352
12.76667,410
12.77500,473
12.78333,543
12.79167,620
12.80000,703
12.80833,792
12.81667,889
12.82500,991
12.83333,1100
12.84167,1216
12.85000,1339
12.85833,1468
12.86667,1604
12.87500,1747
12.88333,1895
12.89167,2050
12.90000,2211
12.90833,2378
12.91667,2551
12.92500,2728
12.93333,2912
12.94167,3100
12.95000,3293
12.95833,3490
12.96667,3693
12.97500,3899
12.98333,4110
12.99167,4325
13.00000,4545
13.00833,4768
13.01667,4995
13.02500,5225
13.03333,5460
13.04167,5697
13.05000,5938
13.05833,6182
13.06667,6429
13.07500,6679
13.08333,6932
13.09167,7189
13.10000,7448
13.10833,7710
13.11667,7974
13.12500,8242
13.13333,8511
13.14167,8783
13.15000,9057
13.15833,9335
13.16667,9614
13.17500,9897
13.18333,10182
13.19167,10469
13.20000,10758
13.20833,11050
13.21667,11344
13.22500,11640
13.23333,11939
13.24167,12241
13.25000,12544
13.25833,12850
13.26667,13158
13.27500,13469
13.28333,13782
13.29167,14096
13.30000,14414
13.30833,14733
13.31667,15055
13.32500,15378
13.33333,15704
13.34167,16033
13.35000,16364
13.35833,16697
13.36667,17033
13.37500,17371
13.38333,17712
13.39167,18054
13.40000,18399
13.40833,18746
13.41667,19096
13.42500,19449
13.43333,19804
13.44167,20161
13.45000,20521
13.45833,20884
13.46667,21249
13.47500,21616
13.48333,21986
13.49167,22359
13.50000,22734
13.50833,23112
13.51667,23493
13.52500,23876
13.53333,24262
13.54167,24650
13.55000,25042
13.55833,25436
13.56667,25833
13.57500,26232
13.58333,26635
13.59167,27040
13.60000,27448
13.60833,27859
13.61667,28273
13.62500,28690
13.63333,29109
13.64167,29532
13.65000,29958
13.65833,30386
13.66667,30818
13.67500,31252
13.68333,31689
13.69167,32129
13.70000,32572
13.70833,33019
13.71667,33468
13.72500,33921
13.73333,34377
13.74167,34836
13.75000,35298
13.75833,35764
13.76667,36233
13.77500,36704
13.78333,37179
13.79167,37656
13.80000,38136
13.80833,38618
13.81667,39102
13.82500,39585
13.83333,40065
13.84167,40538
13.85000,40997
13.85833,41432
13.86667,41831
13.87500,42178
13.88333,42454
13.89167,42635
13.90000,42698
13.90833,42617
13.91667,42367
13.92500,41926
13.93333,41278
13.94167,40412
13.95000,39324
13.95833,38020
13.96667,36513
13.97500,34824
13.98333,32983
13.99167,31021
14.00000,28978
14.00833,26891
14.01667,24799
14.02500,22738
14.03333,20740
14.04167,18833
14.05000,17039
14.05833,15374
14.06667,13850
14.07500,12472
14.08333,11243
14.09167,10162
14.10000,9223
14.10833,8420
14.11667,7746
14.12500,7192
14.13333,6748
14.14167,6405
14.15000,6154
14.15833,5984
14.16667,5888
14.17500,5856
14.18333,5879
14.19167,5951
14.20000,6062
14.20833,6205
14.21667,6373
14.22500,6558
14.23333,6755
14.24167,6957
14.25000,7157
14.25833,7350
14.26667,7531
14.27500,7696
14.28333,7841
14.29167,7961
14.30000,8056
14.30833,8121
14.31667,8155
14.32500,8159
14.33333,8131
14.34167,8072
14.35000,7982
14.35833,7863
14.36667,7717
14.37500,7546
14.38333,7351
14.39167,7135
14.40000,6903
14.40833,6655
14.41667,6396
14.42500,6127
14.43333,5851
14.44167,5572
14.45000,5291
14.45833,5011
14.46667,4734
14.47500,4461
14.48333,4195
14.49167,3937
14.50000,3687
14.50833,3447
14.51667,3217
14.52500,2999
14.53333,2792
14.54167,2596
14.55000,2412
14.55833,2239
14.56667,2077
14.57500,1925
14.58333,1785
14.59167,1655
14.60000,1534
14.60833,1422
14.61667,1319
14.62500,1224
14.63333,1136
14.64167,1056
14.65000,982
14.65833,914
14.66667,852
14.67500,795
14.68333,743
14.69167,696
14.70000,652
14.70833,612
14.71667,576
14.72500,542
14.73333,511
14.74167,483
14.75000,458
14.75833,435
14.76667,413
14.77500,393
14.78333,374
14.79167,358
14.80000,342
14.80833,328
14.81667,315
14.82500,302
14.83333,291
14.84167,281
14.85000,272
14.85833,263
14.86667,255
14.87500,247
14.88333,240
14.89167,234
14.90000,228
14.90833,223
14.91667,219
14.92500,214
14.93333,210
14.94167,207
14.95000,203
14.95833,201
14.96667,199
14.97500,197
14.98333,195
14.99167,194
15.00000,194
15.00833,193
15.01667,194
15.02500,194
15.03333,195
15.04167,197
15.05000,200
15.05833,203
15.06667,207
15.07500,211
15.08333,217
15.09167,224
15.10000,232
15.10833,243
15.11667,256
15.12500,271
15.13333,289
15.14167,311
15.15000,339
15.15833,371
15.16667,411
15.17500,459
15.18333,517
15.19167,586
15.20000,670
15.20833,770
15.21667,889
15.22500,1031
15.23333,1200
15.24167,1399
15.25000,1634
15.25833,1911
15.26667,2234
15.27500,2611
15.28333,3047
15.29167,3552
15.30000,4132
15.30833,4796
15.31667,5553
15.32500,6410
15.33333,7378
15.34167,8466
15.35000,9682
15.35833,11036
15.36667,12535
15.37500,14186
15.38333,15997
15.39167,17974
15.40000,20121
15.40833,22442
15.41667,24938
15.42500,27608
15.43333,30451
15.44167,33462
15.45000,36635
15.45833,39961
15.46667,43429
15.47500,47026
15.48333,50737
15.49167,54543
15.50000,58424
15.50833,62359
15.51667,66325
15.52500,70297
15.53333,74248
15.54167,78153
15.55000,81984
15.55833,85713
15.56667,89314
15.57500,92760
15.58333,96025
15.59167,99085
15.60000,101917
15.60833,104502
15.61667,106821
15.62500,108858
15.63333,110599
15.64167,112034
15.65000,113156
15.65833,113959
15.66667,114441
15.67500,114603
15.68333,114448
15.69167,113984
15.70000,113218
15.70833,112163
15.71667,110830
15.72500,109234
15.73333,107393
15.74167,105323
15.75000,103044
15.75833,100575
15.76667,97937
15.77500,95151
15.78333,92236
15.79167,89214
15.80000,86105
15.80833,82928
15.81667,79702
15.82500,76446
15.83333,73176
15.84167,69909
15.85000,66661
15.85833,63446
15.86667,60276
15.87500,57162
15.88333,54116
15.89167,51146
15.90000,48259
15.90833,45462
15.91667,42761
15.92500,40161
15.93333,37664
15.94167,35273
15.95000,32990
15.95833,30815
15.96667,28749
15.97500,26789
15.98333,24936
15.99167,23188
16.00000,21540
16.00833,19991
16.01667,18539
16.02500,17178
16.03333,15906
16.04167,14719
16.05000,13613
16.05833,12585
16.06667,11630
16.07500,10744
16.08333,9924
16.09167,9165
16.10000,8464
16.10833,7817
16.11667,7220
16.12500,6671
16.13333,6166
16.14167,5701
16.15000,5274
16.15833,4882
16.16667,4523
16.17500,4194
16.18333,3892
16.19167,3615
16.20000,3362
16.20833,3129
16.21667,2917
16.22500,2722
16.23333,2543
16.24167,2380
16.25000,2230
16.25833,2093
16.26667,1968
16.27500,1853
16.28333,1747
16.29167,1650
16.30000,1561
16.30833,1480
16.31667,1405
16.32500,1335
16.33333,1272
16.34167,1213
16.35000,1159
16.35833,1109
16.36667,1063
16.37500,1020
16.38333,980
16.39167,943
16.40000,909
16.40833,878
16.41667,849
16.42500,822
16.43333,796
16.44167,773
16.45000,751
16.45833,731
16.46667,712
16.47500,695
16.48333,678
16.49167,663
16.50000,648
16.50833,635
16.51667,622
16.52500,609
16.53333,598
16.54167,587
16.55000,577
16.55833,568
16.56667,560
16.57500,552
16.58333,545
16.59167,538
16.60000,532
16.60833,526
16.61667,520
16.62500,514
16.63333,508
16.64167,503
16.65000,498
16.65833,493
16.66667,488
16.67500,484
16.68333,480
16.69167,476
16.70000,472
16.70833,468
16.71667,465
16.72500,461
16.73333,457
16.74167,453
16.75000,449
16.75833,446
16.76667,442
16.77500,438
16.78333,435
16.79167,432
16.80000,428
16.80833,425
16.81667,422
16.82500,418
16.83333,415
16.84167,412
16.85000,409
16.85833,405
16.86667,402
16.87500,398
16.88333,395
16.89167,391
16.90000,387
16.90833,384
16.91667,380
16.92500,377
16.93333,373
16.94167,369
16.95000,366
16.95833,362
16.96667,358
16.97500,355
16.98333,351
16.99167,348
17.00000,344
17.00833,340
17.01667,337
17.02500,333
17.03333,329
17.04167,326
17.05000,322
17.05833,319
17.06667,316
17.07500,313
17.08333,310
17.09167,307
17.10000,304
17.10833,300
17.11667,297
17.12500,294
17.13333,290
17.14167,287
17.15000,284
17.15833,281
17.16667,278
17.17500,276
17.18333,273
17.19167,270
17.20000,268
17.20833,266
17.21667,263
17.22500,261
17.23333,259
17.24167,256
17.25000,254
17.25833,252
17.26667,250
17.27500,247
17.28333,246
17.29167,244
17.30000,242
17.30833,240
17.31667,239
17.32500,237
17.33333,235
17.34167,234
17.35000,232
17.35833,230
17.36667,229
17.37500,227
17.38333,225
17.39167,223
17.40000,222
17.40833,220
17.41667,219
17.42500,217
17.43333,215
17.44167,213
17.45000,212
17.45833,210
17.46667,209
17.47500,207
17.48333,206
17.49167,205
17.50000,204
17.50833,202
17.51667,201
17.52500,200
17.53333,199
17.54167,198
17.55000,196
17.55833,195
17.56667,194
17.57500,192
17.58333,191
17.59167,189
17.60000,188
17.60833,187
17.61667,185
17.62500,184
17.63333,183
17.64167,182
17.65000,181
17.65833,180
17.66667,179
17.67500,178
17.68333,178
17.69167,177
17.70000,177
17.70833,176
17.71667,175
17.72500,173
17.73333,172
17.74167,171
17.75000,170
17.75833,169
17.76667,167
17.77500,166
17.78333,165
17.79167,165
17.80000,164
17.80833,163
17.81667,162
17.82500,161
17.83333,160
17.84167,158
17.85000,157
17.85833,156
17.86667,154
17.87500,153
17.88333,151
17.89167,150
17.90000,149
17.90833,148
17.91667,146
17.92500,145
17.93333,144
17.94167,142
17.95000,141
17.95833,140
17.96667,139
17.97500,137
17.98333,136
17.99167,135
18.00000,133
18.00833,132
18.01667,131
18.02500,130
18.03333,129
18.04167,128
18.05000,127
18.05833,127
18.06667,126
18.07500,125
18.08333,124
18.09167,123
18.10000,123
18.10833,122
18.11667,121
18.12500,121
18.13333,121
18.14167,121
18.15000,121
18.15833,121
18.16667,121
18.17500,121
18.18333,121
18.19167,121
18.20000,121
18.20833,120
18.21667,120
18.22500,120
18.23333,120
18.24167,120
18.25000,120
18.25833,121
18.26667,121
18.27500,121
18.28333,121
18.29167,121
18.30000,121
18.30833,121
18.31667,121
18.32500,122
18.33333,121
18.34167,121
18.35000,121
18.35833,121
18.36667,121
18.37500,120
18.38333,120
18.39167,121
18.40000,120
18.40833,120
18.41667,120
18.42500,119
18.43333,119
18.44167,118
18.45000,118
18.45833,117
18.46667,117
18.47500,116
18.48333,116
18.49167,115
18.50000,114
18.50833,113
18.51667,113
18.52500,112
18.53333,112
18.54167,110
18.55000,109
18.55833,109
18.56667,108
18.57500,107
18.58333,107
18.59167,106
18.60000,106
18.60833,105
18.61667,104
18.62500,104
18.63333,103
18.64167,101
18.65000,101
18.65833,100
18.66667,99
18.67500,98
18.68333,98
18.69167,97
18.70000,97
18.70833,96
18.71667,96
18.72500,96
18.73333,95
18.74167,95
18.75000,95
18.75833,94
18.76667,94
18.77500,94
18.78333,93
18.79167,93
18.80000,93
18.80833,93
18.81667,93
18.82500,93
18.83333,93
18.84167,94
18.85000,94
18.85833,94
18.86667,94
18.87500,94
18.88333,95
18.89167,95
18.90000,95
18.90833,95
18.91667,95
18.92500,95
18.93333,95
18.94167,96
18.95000,96
18.95833,96
18.96667,96
18.97500,96
18.98333,96
18.99167,95
19.00000,95
19.00833,95
19.01667,95
19.02500,95
19.03333,95
19.04167,94
19.05000,94
19.05833,93
19.06667,92
19.07500,92
19.08333,91
19.09167,91
19.10000,90
19.10833,88
19.11667,88
19.12500,86
19.13333,85
19.14167,84
19.15000,83
19.15833,81
19.16667,80
19.17500,78
19.18333,77
19.19167,76
19.20000,75
19.20833,74
19.21667,73
19.22500,71
19.23333,70
19.24167,68
19.25000,67
19.25833,66
19.26667,66
19.27500,65
19.28333,64
19.29167,62
19.30000,61
19.30833,60
19.31667,59
19.32500,59
19.33333,58
19.34167,57
19.35000,57
19.35833,56
19.36667,56
19.37500,55
19.38333,55
19.39167,55
19.40000,55
19.40833,55
19.41667,54
19.42500,53
19.43333,53
19.44167,52
19.45000,52
19.45833,52
19.46667,52
19.47500,52
19.48333,52
19.49167,52
19.50000,52
19.50833,52
19.51667,52
19.52500,52
19.53333,52
19.54167,52
19.55000,52
19.55833,52
19.56667,52
19.57500,52
19.58333,51
19.59167,51
19.60000,51
19.60833,51
19.61667,52
19.62500,52
19.63333,52
19.64167,52
19.65000,52
19.65833,52
19.66667,52
19.67500,53
19.68333,53
19.69167,53
19.70000,53
19.70833,52
19.71667,52
19.72500,52
19.73333,52
19.74167,52
19.75000,53
19.75833,53
19.76667,53
19.77500,54
19.78333,54
19.79167,54
19.80000,54
19.80833,53
19.81667,53
19.82500,53
19.83333,53
19.84167,53
19.85000,54
19.85833,54
19.86667,53
19.87500,53
19.88333,53
19.89167,52
19.90000,52
19.90833,51
19.91667,51
19.92500,51
19.93333,51
19.94167,50
19.95000,50
19.95833,49
19.96667,49
19.97500,48
19.98333,47
19.99167,47
20.00000,46
20.00833,46
20.01667,45
20.02500,45
20.03333,44
20.04167,43
20.05000,42
20.05833,41
20.06667,40
20.07500,40
20.08333,39
20.09167,38
20.10000,37
20.10833,36
20.11667,35
20.12500,34
20.13333,33
20.14167,32
20.15000,31
20.15833,30
20.16667,29
20.17500,28
20.18333,27
20.19167,26
20.20000,25
20.20833,24
20.21667,22
20.22500,21
20.23333,19
20.24167,18
20.25000,17
20.25833,16
20.26667,15
20.27500,14
20.28333,13
20.29167,12
20.30000,11
20.30833,10
20.31667,10
20.32500,9
20.33333,8
20.34167,7
20.35000,6
20.35833,5
20.36667,5
20.37500,4
20.38333,4
20.39167,4
20.40000,4
20.40833,3
20.41667,3
20.42500,3
20.43333,3
20.44167,2
20.45000,2
20.45833,2
20.46667,3
20.47500,3
20.48333,3
20.49167,4
20.50000,4
20.50833,4
20.51667,5
20.52500,6
20.53333,7
20.54167,8
20.55000,9
20.55833,10
20.56667,11
20.57500,12
20.58333,13
20.59167,14
20.60000,16
20.60833,17
20.61667,18
20.62500,19
20.63333,20
20.64167,21
20.65000,22
20.65833,23
20.66667,24
20.67500,26
20.68333,27
20.69167,29
20.70000,30
20.70833,31
20.71667,33
20.72500,34
20.73333,35
20.74167,36
20.75000,37
20.75833,38
20.76667,39
20.77500,40
20.78333,41
20.79167,41
20.80000,42
20.80833,42
20.81667,43
20.82500,43
20.83333,44
20.84167,44
20.85000,45
20.85833,45
20.86667,45
20.87500,45
20.88333,46
20.89167,46
20.90000,46
20.90833,46
20.91667,46
20.92500,46
20.93333,46
20.94167,45
20.95000,45
20.95833,45
20.96667,44
20.97500,43
20.98333,43
20.99167,43
21.00000,42
21.00833,42
21.01667,42
21.02500,41
21.03333,41
21.04167,40
21.05000,39
21.05833,38
21.06667,37
21.07500,37
21.08333,36
21.09167,36
21.10000,35
21.10833,35
21.11667,34
21.12500,33
21.13333,33
21.14167,32
21.15000,32
21.15833,32
21.16667,31
21.17500,31
21.18333,30
21.19167,30
21.20000,29
21.20833,29
21.21667,29
21.22500,28
21.23333,28
21.24167,28
21.25000,27
21.25833,27
21.26667,26
21.27500,26
21.28333,26
21.29167,26
21.30000,26
21.30833,26
21.31667,27
21.32500,27
21.33333,28
21.34167,28
21.35000,30
21.35833,31
21.36667,33
21.37500,35
21.38333,37
21.39167,40
21.40000,43
21.40833,47
21.41667,52
21.42500,57
21.43333,63
21.44167,71
21.45000,79
21.45833,89
21.46667,100
21.47500,114
21.48333,129
21.49167,147
21.50000,167
21.50833,190
21.51667,217
21.52500,248
21.53333,283
21.54167,323
21.55000,368
21.55833,419
21.56667,477
21.57500,542
21.58333,616
21.59167,700
21.60000,793
21.60833,899
21.61667,1016
21.62500,1148
21.63333,1295
21.64167,1459
21.65000,1640
21.65833,1840
21.66667,2061
21.67500,2304
21.68333,2569
21.69167,2860
21.70000,3177
21.70833,3521
21.71667,3894
21.72500,4297
21.73333,4731
21.74167,5196
21.75000,5694
21.75833,6224
21.76667,6787
21.77500,7383
21.78333,8013
21.79167,8675
21.80000,9368
21.80833,10093
21.81667,10846
21.82500,11627
21.83333,12433
21.84167,13262
21.85000,14111
21.85833,14977
21.86667,15858
21.87500,16748
21.88333,17645
21.89167,18544
21.90000,19440
21.90833,20330
21.91667,21209
21.92500,22072
21.93333,22914
21.94167,23732
21.95000,24520
21.95833,25274
21.96667,25990
21.97500,26663
21.98333,27289
21.99167,27865
22.00000,28388
22.00833,28855
22.01667,29262
22.02500,29609
22.03333,29892
22.04167,30111
22.05000,30265
22.05833,30353
22.06667,30375
22.07500,30333
22.08333,30226
22.09167,30056
22.10000,29824
22.10833,29534
22.11667,29185
22.12500,28783
22.13333,28330
22.14167,27828
22.15000,27281
22.15833,26693
22.16667,26067
22.17500,25408
22.18333,24719
22.19167,24004
22.20000,23267
22.20833,22512
22.21667,21742
22.22500,20962
22.23333,20175
22.24167,19384
22.25000,18593
22.25833,17804
22.26667,17021
22.27500,16247
22.28333,15483
22.29167,14732
22.30000,13997
22.30833,13279
22.31667,12579
22.32500,11899
22.33333,11241
22.34167,10604
22.35000,9991
22.35833,9401
22.36667,8834
22.37500,8293
22.38333,7775
22.39167,7282
22.40000,6813
22.40833,6368
22.41667,5946
22.42500,5548
22.43333,5171
22.44167,4817
22.45000,4483
22.45833,4170
22.46667,3877
22.47500,3602
22.48333,3346
22.49167,3106
22.50000,2883
22.50833,2676
22.51667,2483
22.52500,2304
22.53333,2138
22.54167,1985
22.55000,1843
22.55833,1712
22.56667,1590
22.57500,1477
22.58333,1374
22.59167,1279
22.60000,1192
22.60833,1112
22.61667,1038
22.62500,969
22.63333,907
22.64167,849
22.65000,797
22.65833,748
22.66667,704
22.67500,663
22.68333,625
22.69167,590
22.70000,559
22.70833,529
22.71667,502
22.72500,477
22.73333,454
22.74167,433
22.75000,414
22.75833,396
22.76667,380
22.77500,365
22.78333,351
22.79167,338
22.80000,326
22.80833,314
22.81667,304
22.82500,294
22.83333,285
22.84167,277
22.85000,269
22.85833,261
22.86667,254
22.87500,248
22.88333,241
22.89167,236
22.90000,231
22.90833,226
22.91667,221
22.92500,216
22.93333,212
22.94167,208
22.95000,205
22.95833,201
22.96667,198
22.97500,195
22.98333,192
22.99167,189
23.00000,187
23.00833,185
23.01667,182
23.02500,180
23.03333,177
23.04167,175
23.05000,174
23.05833,172
23.06667,169
23.07500,168
23.08333,166
23.09167,164
23.10000,163
23.10833,161
23.11667,160
23.12500,159
23.13333,158
23.14167,156
23.15000,155
23.15833,153
23.16667,152
23.17500,150
23.18333,149
23.19167,147
23.20000,146
23.20833,145
23.21667,143
23.22500,142
23.23333,140
23.24167,139
23.25000,138
23.25833,137
23.26667,135
23.27500,134
23.28333,133
23.29167,132
23.30000,130
23.30833,128
23.31667,127
23.32500,125
23.33333,124
23.34167,123
23.35000,121
23.35833,120
23.36667,118
23.37500,117
23.38333,115
23.39167,113
23.40000,112
23.40833,111
23.41667,109
23.42500,108
23.43333,107
23.44167,106
23.45000,104
23.45833,103
23.46667,101
23.47500,100
23.48333,99
23.49167,97
23.50000,96
23.50833,95
23.51667,93
23.52500,91
23.53333,90
23.54167,88
23.55000,87
23.55833,86
23.56667,85
23.57500,84
23.58333,83
23.59167,82
23.60000,81
23.60833,81
23.61667,80
23.62500,80
23.63333,79
23.64167,78
23.65000,76
23.65833,75
23.66667,74
23.67500,73
23.68333,73
23.69167,72
23.70000,72
23.70833,72
23.71667,71
23.72500,71
23.73333,70
23.74167,70
23.75000,70
23.75833,70
23.76667,70
23.77500,70
23.78333,70
23.79167,71
23.80000,71
23.80833,70
23.81667,70
23.82500,70
23.83333,70
23.84167,71
23.85000,71
23.85833,72
23.86667,72
23.87500,73
23.88333,73
23.89167,74
23.90000,74
23.90833,75
23.91667,75
23.92500,75
23.93333,76
23.94167,76
23.95000,76
23.95833,77
23.96667,77
23.97500,77
23.98333,78
23.99167,78
24.00000,78
24.00833,78
24.01667,78
24.02500,78
24.03333,79
24.04167,79
24.05000,80
24.05833,80
24.06667,80
24.07500,80
24.08333,81
24.09167,81
24.10000,81
24.10833,81
24.11667,81
24.12500,81
24.13333,81
24.14167,81
24.15000,81
24.15833,81
24.16667,81
24.17500,81
24.18333,81
24.19167,81
24.20000,81
24.20833,81
24.21667,81
24.22500,81
24.23333,81
24.24167,81
24.25000,81
24.25833,81
24.26667,82
24.27500,82
24.28333,83
24.29167,84
24.30000,84
24.30833,85
24.31667,86
24.32500,88
24.33333,89
24.34167,92
24.35000,94
24.35833,97
24.36667,101
24.37500,105
24.38333,109
24.39167,114
24.40000,120
24.40833,127
24.41667,134
24.42500,143
24.43333,154
24.44167,165
24.45000,178
24.45833,193
24.46667,209
24.47500,227
24.48333,248
24.49167,272
24.50000,298
24.50833,327
24.51667,359
24.52500,394
24.53333,434
24.54167,478
24.55000,526
24.55833,580
24.56667,639
24.57500,703
24.58333,774
24.59167,852
24.60000,936
24.60833,1028
24.61667,1128
24.62500,1236
24.63333,1353
24.64167,1478
24.65000,1613
24.65833,1758
24.66667,1912
24.67500,2077
24.68333,2253
24.69167,2440
24.70000,2637
24.70833,2845
24.71667,3064
24.72500,3294
24.73333,3535
24.74167,3786
24.75000,4047
24.75833,4317
24.76667,4597
24.77500,4885
24.78333,5181
24.79167,5485
24.80000,5795
24.80833,6110
24.81667,6429
24.82500,6751
24.83333,7075
24.84167,7400
24.85000,7724
24.85833,8046
24.86667,8364
24.87500,8678
24.88333,8986
24.89167,9286
24.90000,9576
24.90833,9856
24.91667,10124
24.92500,10379
24.93333,10619
24.94167,10844
24.95000,11053
24.95833,11243
24.96667,11415
24.97500,11568
24.98333,11701
24.99167,11813
25.00000,11903
25.00833,11972
25.01667,12020
25.02500,12045
25.03333,12048
25.04167,12030
25.05000,11990
25.05833,11929
25.06667,11848
25.07500,11747
25.08333,11627
25.09167,11487
25.10000,11331
25.10833,11157
25.11667,10968
25.12500,10764
25.13333,10547
25.14167,10317
25.15000,10076
25.15833,9824
25.16667,9564
25.17500,9296
25.18333,9021
25.19167,8741
25.20000,8457
25.20833,8169
25.21667,7880
25.22500,7590
25.23333,7300
25.24167,7011
25.25000,6723
25.25833,6438
25.26667,6157
25.27500,5881
25.28333,5609
25.29167,5343
25.30000,5082
25.30833,4829
25.31667,4582
25.32500,4342
25.33333,4110
25.34167,3886
25.35000,3669
25.35833,3461
25.36667,3262
25.37500,3070
25.38333,2887
25.39167,2712
25.40000,2545
25.40833,2386
25.41667,2236
25.42500,2093
25.43333,1958
25.44167,1830
25.45000,1710
25.45833,1597
25.46667,1490
25.47500,1390
25.48333,1295
25.49167,1207
25.50000,1124
25.50833,1047
25.51667,975
25.52500,909
25.53333,847
25.54167,789
25.55000,735
25.55833,685
25.56667,639
25.57500,597
25.58333,557
25.59167,520
25.60000,486
25.60833,455
25.61667,426
25.62500,400
25.63333,376
25.64167,353
25.65000,332
25.65833,313
25.66667,295
25.67500,279
25.68333,264
25.69167,250
25.70000,238
25.70833,226
25.71667,216
25.72500,206
25.73333,197
25.74167,189
25.75000,181
25.75833,174
25.76667,167
25.77500,161
25.78333,155
25.79167,150
25.80000,145
25.80833,140
25.81667,135
25.82500,131
25.83333,127
25.84167,124
25.85000,121
25.85833,118
25.86667,115
25.87500,112
25.88333,109
25.89167,107
25.90000,105
25.90833,104
25.91667,102
25.92500,101
25.93333,99
25.94167,98
25.95000,96
25.95833,95
25.96667,94
25.97500,93
25.98333,92
25.99167,91
26.00000,90
26.00833,88
26.01667,88
26.02500,87
26.03333,87
26.04167,87
26.05000,87
26.05833,87
26.06667,87
26.07500,87
26.08333,87
26.09167,87
26.10000,87
26.10833,87
26.11667,87
26.12500,88
26.13333,88
26.14167,89
26.15000,89
26.15833,89
26.16667,89
26.17500,90
26.18333,90
26.19167,91
26.20000,91
26.20833,92
26.21667,92
26.22500,92
26.23333,92
26.24167,93
26.25000,93
26.25833,93
26.26667,93
26.27500,93
26.28333,93
26.29167,93
26.30000,93
26.30833,92
26.31667,92
26.32500,92
26.33333,92
26.34167,92
26.35000,92
26.35833,91
26.36667,91
26.37500,90
26.38333,90
26.39167,90
26.40000,89
26.40833,90
26.41667,89
26.42500,89
26.43333,89
26.44167,89
26.45000,88
26.45833,88
26.46667,88
26.47500,87
26.48333,87
26.49167,86
26.50000,86
26.50833,85
26.51667,85
26.52500,85
26.53333,84
26.54167,84
26.55000,83
26.55833,83
26.56667,83
26.57500,83
26.58333,83
26.59167,82
26.60000,82
26.60833,82
26.61667,82
26.62500,82
26.63333,81
26.64167,81
26.65000,81
26.65833,81
26.66667,81
26.67500,81
26.68333,81
26.69167,81
26.70000,82
26.70833,82
26.71667,82
26.72500,82
26.73333,81
26.74167,81
26.75000,81
26.75833,81
26.76667,81
26.77500,81
26.78333,82
26.79167,82
26.80000,82
26.80833,82
26.81667,82
26.82500,82
26.83333,81
26.84167,81
26.85000,81
26.85833,81
26.86667,81
26.87500,81
26.88333,81
26.89167,81
26.90000,81
26.90833,81
26.91667,81
26.92500,81
26.93333,81
26.94167,80
26.95000,80
26.95833,80
26.96667,80
26.97500,80
26.98333,80
26.99167,80
27.00000,80
27.00833,80
27.01667,79
27.02500,79
27.03333,78
27.04167,78
27.05000,78
27.05833,77
27.06667,77
27.07500,77
27.08333,76
27.09167,76
27.10000,76
27.10833,76
27.11667,76
27.12500,76
27.13333,76
27.14167,76
27.15000,75
27.15833,75
27.16667,74
27.17500,73
27.18333,73
27.19167,72
27.20000,71
27.20833,70
27.21667,70
27.22500,69
27.23333,69
27.24167,68
27.25000,67
27.25833,67
27.26667,66
27.27500,66
27.28333,65
27.29167,64
27.30000,62
27.30833,61
27.31667,61
27.32500,60
27.33333,59
27.34167,59
27.35000,58
27.35833,58
27.36667,57
27.37500,56
27.38333,55
27.39167,55
27.40000,54
27.40833,53
27.41667,52
27.42500,52
27.43333,51
27.44167,50
27.45000,49
27.45833,49
27.46667,49
27.47500,49
27.48333,49
27.49167,49
27.50000,49
27.50833,49
27.51667,49
27.52500,49
27.53333,48
27.54167,49
27.55000,49
27.55833,49
27.56667,49
27.57500,50
27.58333,50
27.59167,50
27.60000,50
27.60833,51
27.61667,51
27.62500,52
27.63333,52
27.64167,52
27.65000,52
27.65833,52
27.66667,52
27.67500,52
27.68333,52
27.69167,52
27.70000,53
27.70833,53
27.71667,53
27.72500,53
27.73333,53
27.74167,53
27.75000,52
27.75833,51
27.76667,51
27.77500,50
27.78333,50
27.79167,49
27.80000,49
27.80833,48
27.81667,47
27.82500,46
27.83333,45
27.84167,44
27.85000,43
27.85833,42
27.86667,41
27.87500,39
27.88333,37
27.89167,35
27.90000,33
27.90833,31
27.91667,29
27.92500,27
27.93333,25
27.94167,22
27.95000,19
27.95833,17
27.96667,14
27.97500,11
27.98333,8
27.99167,5
28.00000,2
28.00833,-1
28.01667,-4
28.02500,-7
28.03333,-11
28.04167,-14
28.05000,-17
28.05833,-21
28.06667,-24
28.07500,-27
28.08333,-30
28.09167,-34
28.10000,-37
28.10833,-41
28.11667,-45
28.12500,-48
28.13333,-52
28.14167,-56
28.15000,-59
28.15833,-63
28.16667,-66
28.17500,-69
28.18333,-72
28.19167,-75
28.20000,-78
28.20833,-81
28.21667,-84
28.22500,-87
28.23333,-90
28.24167,-92
28.25000,-95
28.25833,-97
28.26667,-99
28.27500,-101
28.28333,-103
28.29167,-104
28.30000,-105
28.30833,-106
28.31667,-107
28.32500,-108
28.33333,-109
28.34167,-110
28.35000,-110
28.35833,-111
28.36667,-111
28.37500,-110
28.38333,-110
28.39167,-110
28.40000,-109
28.40833,-108
28.41667,-107
28.42500,-106
28.43333,-104
28.44167,-102
28.45000,-101
28.45833,-99
28.46667,-97
28.47500,-95
28.48333,-92
28.49167,-90
28.50000,-87
28.50833,-85
28.51667,-82
28.52500,-80
28.53333,-77
28.54167,-74
28.55000,-71
28.55833,-68
28.56667,-65
28.57500,-62
28.58333,-59
28.59167,-56
28.60000,-53
28.60833,-50
28.61667,-47
28.62500,-43
28.63333,-40
28.64167,-38
28.65000,-35
28.65833,-32
28.66667,-29
28.67500,-26
28.68333,-23
28.69167,-20
28.70000,-18
28.70833,-15
28.71667,-13
28.72500,-10
28.73333,-8
28.74167,-6
28.75000,-4
28.75833,-2
28.76667,0
28.77500,2
28.78333,4
28.79167,6
28.80000,8
28.80833,9
28.81667,10
28.82500,12
28.83333,13
28.84167,15
28.85000,16
28.85833,17
28.86667,18
28.87500,19
28.88333,20
28.89167,21
28.90000,22
28.90833,23
28.91667,23
28.92500,24
28.93333,25
28.94167,25
28.95000,26
28.95833,27
28.96667,28
28.97500,28
28.98333,29
28.99167,29
29.00000,30
29.00833,30
29.01667,31
29.02500,31
29.03333,32
29.04167,32
29.05000,33
29.05833,33
29.06667,34
29.07500,35
29.08333,35
29.09167,36
29.10000,36
29.10833,36
29.11667,37
29.12500,37
29.13333,38
29.14167,38
29.15000,38
29.15833,39
29.16667,39
29.17500,39
29.18333,40
29.19167,40
29.20000,40
29.20833,40
29.21667,40
29.22500,40
29.23333,40
29.24167,41
29.25000,41
29.25833,41
29.26667,42
29.27500,42
29.28333,42
29.29167,42
29.30000,43
29.30833,43
29.31667,43
29.32500,43
29.33333,43
29.34167,43
29.35000,42
29.35833,42
29.36667,42
29.37500,42
29.38333,42
29.39167,42
29.40000,42
29.40833,41
29.41667,41
29.42500,41
29.43333,42
29.44167,42
29.45000,42
29.45833,42
29.46667,41
29.47500,41
29.48333,41
29.49167,40
29.50000,40
29.50833,40
29.51667,40
29.52500,40
29.53333,40
29.54167,40
29.55000,40
29.55833,40
29.56667,41
29.57500,41
29.58333,41
29.59167,41
29.60000,41
29.60833,42
29.61667,41
29.62500,41
29.63333,41
29.64167,40
29.65000,40
29.65833,40
29.66667,40
29.67500,40
29.68333,40
29.69167,39
29.70000,39
29.70833,38
29.71667,37
29.72500,37
29.73333,36
29.74167,35
29.75000,34
29.75833,33
29.76667,32
29.77500,31
29.78333,29
29.79167,28
29.80000,27
29.80833,25
29.81667,24
29.82500,22
29.83333,21
29.84167,19
29.85000,18
29.85833,16
29.86667,15
29.87500,13
29.88333,11
29.89167,9
29.90000,7
29.90833,5
29.91667,3
29.92500,1
29.93333,-0
29.94167,-2
29.95000,-4
29.95833,-5
29.96667,-7
29.97500,-9
29.98333,-10
29.99167,-12
30.00000,-14
30.00833,-15
30.01667,-16
30.02500,-18
30.03333,-19
30.04167,-20
30.05000,-22
30.05833,-23
30.06667,-24
30.07500,-25
30.08333,-26
30.09167,-26
30.10000,-27
30.10833,-27
30.11667,-28
30.12500,-29
30.13333,-29
30.14167,-29
30.15000,-29
30.15833,-29
30.16667,-29
30.17500,-29
30.18333,-29
30.19167,-29
30.20000,-28
30.20833,-28
30.21667,-27
30.22500,-26
30.23333,-25
30.24167,-24
30.25000,-24
30.25833,-23
30.26667,-22
30.27500,-21
30.28333,-20
30.29167,-19
30.30000,-18
30.30833,-16
30.31667,-15
30.32500,-14
30.33333,-13
30.34167,-11
30.35000,-10
30.35833,-8
30.36667,-7
30.37500,-5
30.38333,-3
30.39167,-2
30.40000,-0
30.40833,1
30.41667,2
30.42500,3
30.43333,5
30.44167,6
30.45000,8
30.45833,10
30.46667,11
30.47500,13
30.48333,14
30.49167,15
30.50000,16
30.50833,17
30.51667,19
30.52500,20
30.53333,22
30.54167,23
30.55000,24
30.55833,25
30.56667,27
30.57500,28
30.58333,28
30.59167,29
30.60000,29
30.60833,29
30.61667,30
30.62500,31
30.63333,31
30.64167,32
30.65000,33
30.65833,33
30.66667,34
30.67500,34
30.68333,34
30.69167,35
30.70000,35
30.70833,36
30.71667,36
30.72500,37
30.73333,38
30.74167,38
30.75000,38
30.75833,39
30.76667,39
30.77500,39
30.78333,39
30.79167,40
30.80000,40
30.80833,41
30.81667,41
30.82500,41
30.83333,42
30.84167,42
30.85000,43
30.85833,43
30.86667,43
30.87500,44
30.88333,43
30.89167,44
30.90000,44
30.90833,45
30.91667,45
30.92500,45
30.93333,46
30.94167,47
30.95000,47
30.95833,47
30.96667,48
30.97500,48
30.98333,48
30.99167,48
31.00000,49
31.00833,49
31.01667,49
31.02500,50
31.03333,50
31.04167,50
31.05000,51
31.05833,51
31.06667,52
31.07500,52
31.08333,53
31.09167,53
31.10000,53
31.10833,53
31.11667,53
31.12500,54
31.13333,54
31.14167,54
31.15000,54
31.15833,55
31.16667,55
31.17500,55
31.18333,55
31.19167,55
31.20000,55
31.20833,55
31.21667,55
31.22500,55
31.23333,55
31.24167,55
31.25000,55
31.25833,55
31.26667,56
31.27500,56
31.28333,56
31.29167,55
31.30000,55
31.30833,55
31.31667,55
31.32500,54
31.33333,54
31.34167,53
31.35000,53
31.35833,52
31.36667,52
31.37500,52
31.38333,52
31.39167,52
31.40000,51
31.40833,51
31.41667,51
31.42500,50
31.43333,50
31.44167,50
31.45000,49
31.45833,49
31.46667,49
31.47500,50
31.48333,50
31.49167,50
31.50000,49
31.50833,49
31.51667,48
31.52500,48
31.53333,48
31.54167,47
31.55000,47
31.55833,47
31.56667,47
31.57500,47
31.58333,46
31.59167,46
31.60000,46
31.60833,46
31.61667,46
31.62500,46
31.63333,45
31.64167,45
31.65000,45
31.65833,45
31.66667,46
31.67500,46
31.68333,46
31.69167,46
31.70000,46
31.70833,46
31.71667,45
31.72500,45
31.73333,44
31.74167,44
31.75000,44
31.75833,43
31.76667,43
31.77500,43
31.78333,43
31.79167,42
31.80000,42
31.80833,41
31.81667,41
31.82500,40
31.83333,40
31.84167,39
31.85000,39
31.85833,39
31.86667,38
31.87500,38
31.88333,37
31.89167,36
31.90000,35
31.90833,35
31.91667,35
31.92500,34
31.93333,34
31.94167,33
31.95000,33
31.95833,33
31.96667,32
31.97500,32
31.98333,31
31.99167,31
32.00000,30
32.00833,30
32.01667,30
32.02500,29
32.03333,29
32.04167,29
32.05000,28
32.05833,28
32.06667,28
32.07500,27
32.08333,27
32.09167,27
32.10000,26
32.10833,26
32.11667,26
32.12500,26
32.13333,26
32.14167,26
32.15000,26
32.15833,26
32.16667,27
32.17500,27
32.18333,26
32.19167,26
32.20000,26
32.20833,26
32.21667,26
32.22500,26
32.23333,27
32.24167,27
32.25000,28
32.25833,29
32.26667,29
32.27500,29
32.28333,30
32.29167,30
32.30000,31
32.30833,31
32.31667,32
32.32500,32
32.33333,32
32.34167,32
32.35000,32
32.35833,33
32.36667,34
32.37500,34
32.38333,35
32.39167,35
32.40000,36
32.40833,37
32.41667,38
32.42500,38
32.43333,39
32.44167,40
32.45000,40
32.45833,41
32.46667,42
32.47500,43
32.48333,44
32.49167,44
32.50000,45
32.50833,45
32.51667,45
32.52500,46
32.53333,46
32.54167,46
32.55000,47
32.55833,47
32.56667,47
32.57500,48
32.58333,49
32.59167,49
32.60000,50
32.60833,50
32.61667,50
32.62500,51
32.63333,51
32.64167,51
32.65000,51
32.65833,51
32.66667,51
32.67500,52
32.68333,52
32.69167,53
32.70000,53
32.70833,53
32.71667,54
32.72500,54
32.73333,54
32.74167,54
32.75000,54
32.75833,54
32.76667,55
32.77500,55
32.78333,55
32.79167,55
32.80000,55
32.80833,54
32.81667,54
32.82500,54
32.83333,54
32.84167,55
32.85000,55
32.85833,55
32.86667,55
32.87500,55
32.88333,55
32.89167,55
32.90000,55
32.90833,55
32.91667,55
32.92500,55
32.93333,55
32.94167,54
32.95000,54
32.95833,54
32.96667,54
32.97500,54
32.98333,54
32.99167,54
33.00000,54
33.00833,53
33.01667,53
33.02500,52
33.03333,52
33.04167,52
33.05000,52
33.05833,52
33.06667,53
33.07500,53
33.08333,54
33.09167,54
33.10000,54
33.10833,54
33.11667,54
33.12500,54
33.13333,54
33.14167,54
33.15000,54
33.15833,54
33.16667,55
33.17500,55
33.18333,55
33.19167,55
33.20000,55
33.20833,56
33.21667,56
33.22500,56
33.23333,56
33.24167,57
33.25000,57
33.25833,57
33.26667,57
33.27500,57
33.28333,58
33.29167,58
33.30000,58
33.30833,58
33.31667,58
33.32500,58
33.33333,58
33.34167,59
33.35000,59
33.35833,59
33.36667,59
33.37500,59
33.38333,59
33.39167,59
33.40000,59
33.40833,59
33.41667,59
33.42500,59
33.43333,59
33.44167,59
33.45000,59
33.45833,58
33.46667,58
33.47500,58
33.48333,58
33.49167,57
33.50000,57
33.50833,56
33.51667,56
33.52500,56
33.53333,56
33.54167,56
33.55000,55
33.55833,55
33.56667,54
33.57500,53
33.58333,53
33.59167,52
33.60000,51
33.60833,50
33.61667,49
33.62500,48
33.63333,48
33.64167,47
33.65000,47
33.65833,47
33.66667,47
33.67500,46
33.68333,46
33.69167,45
33.70000,45
33.70833,45
33.71667,44
33.72500,43
33.73333,43
33.74167,42
33.75000,42
33.75833,42
33.76667,42
33.77500,42
33.78333,41
33.79167,41
33.80000,41
33.80833,41
33.81667,41
33.82500,41
33.83333,42
33.84167,42
33.85000,42
33.85833,42
33.86667,42
33.87500,42
33.88333,42
33.89167,42
33.90000,41
33.90833,42
33.91667,42
33.92500,43
33.93333,43
33.94167,44
33.95000,44
33.95833,44
33.96667,45
33.97500,45
33.98333,46
33.99167,46
34.00000,46
34.00833,47
34.01667,47
34.02500,48
34.03333,48
34.04167,49
34.05000,50
34.05833,50
34.06667,51
34.07500,51
34.08333,51
34.09167,51
34.10000,52
34.10833,52
34.11667,52
34.12500,53
34.13333,53
34.14167,54
34.15000,54
34.15833,55
34.16667,55
34.17500,55
34.18333,55
34.19167,56
34.20000,57
34.20833,57
34.21667,58
34.22500,58
34.23333,59
34.24167,59
34.25000,59
34.25833,59
34.26667,60
34.27500,60
34.28333,61
34.29167,62
34.30000,62
34.30833,62
34.31667,63
34.32500,63
34.33333,63
34.34167,63
34.35000,63
34.35833,63
34.36667,63
34.37500,63
34.38333,63
34.39167,64
34.40000,64
34.40833,65
34.41667,65
34.42500,65
34.43333,65
34.44167,65
34.45000,66
34.45833,66
34.46667,66
34.47500,66
34.48333,66
34.49167,66
34.50000,67
34.50833,67
34.51667,67
34.52500,67
34.53333,67
34.54167,67
34.55000,67
34.55833,67
34.56667,66
34.57500,66
34.58333,66
34.59167,66
34.60000,66
34.60833,66
34.61667,66
34.62500,66
34.63333,66
34.64167,66
34.65000,66
34.65833,65
34.66667,65
34.67500,65
34.68333,65
34.69167,65
34.70000,65
34.70833,65
34.71667,64
34.72500,64
34.73333,63
34.74167,63
34.75000,62
34.75833,62
34.76667,62
34.77500,61
34.78333,61
34.79167,60
34.80000,60
34.80833,59
34.81667,59
34.82500,59
34.83333,58
34.84167,58
34.85000,57
34.85833,57
34.86667,56
34.87500,56
34.88333,56
34.89167,55
34.90000,54
34.90833,54
34.91667,54
34.92500,53
34.93333,53
34.94167,53
34.95000,52
34.95833,52
34.96667,51
34.97500,51
34.98333,50
34.99167,50
35.00000,50
35.00833,50
35.01667,50
35.02500,49
35.03333,49
35.04167,49
35.05000,49
35.05833,48
35.06667,48
35.07500,48
35.08333,48
35.09167,49
35.10000,49
35.10833,49
35.11667,49
35.12500,49
35.13333,49
35.14167,49
35.15000,49
35.15833,49
35.16667,49
35.17500,49
35.18333,50
35.19167,50
35.20000,50
35.20833,50
35.21667,50
35.22500,50
35.23333,51
35.24167,51
35.25000,51
35.25833,51
35.26667,52
35.27500,52
35.28333,52
35.29167,52
35.30000,52
35.30833,52
35.31667,53
35.32500,53
35.33333,53
35.34167,53
35.35000,53
35.35833,53
35.36667,53
35.37500,53
35.38333,54
35.39167,54
35.40000,54
35.40833,54
35.41667,54
35.42500,54
35.43333,54
35.44167,55
35.45000,55
35.45833,56
35.46667,57
35.47500,57
35.48333,58
35.49167,58
35.50000,58
35.50833,58
35.51667,57
35.52500,57
35.53333,58
35.54167,58
35.55000,59
35.55833,59
35.56667,60
35.57500,60
35.58333,61
35.59167,62
35.60000,62
35.60833,63
35.61667,63
35.62500,63
35.63333,64
35.64167,65
35.65000,65
35.65833,66
35.66667,66
35.67500,66
35.68333,67
35.69167,67
35.70000,67
35.70833,67
35.71667,67
35.72500,67
35.73333,67
35.74167,67
35.75000,67
35.75833,67
35.76667,67
35.77500,67
35.78333,66
35.79167,66
35.80000,66
35.80833,66
35.81667,65
35.82500,65
35.83333,64
35.84167,64
35.85000,63
35.85833,62
35.86667,62
35.87500,61
35.88333,60
35.89167,59
35.90000,58
35.90833,57
35.91667,56
35.92500,55
35.93333,54
35.94167,54
35.95000,53
35.95833,52
35.96667,51
35.97500,51
35.98333,50
35.99167,49
36.00000,48
36.00833,47
36.01667,46
36.02500,46
36.03333,45
36.04167,44
36.05000,43
36.05833,43
36.06667,42
36.07500,41
36.08333,41
36.09167,41
36.10000,41
36.10833,40
36.11667,39
36.12500,39
36.13333,38
36.14167,37
36.15000,37
36.15833,37
36.16667,36
36.17500,36
36.18333,36
36.19167,35
36.20000,35
36.20833,35
36.21667,35
36.22500,36
36.23333,36
36.24167,36
36.25000,37
36.25833,37
36.26667,37
36.27500,38
36.28333,38
36.29167,38
36.30000,38
36.30833,38
36.31667,38
36.32500,39
36.33333,39
36.34167,39
36.35000,40
36.35833,40
36.36667,41
36.37500,42
36.38333,42
36.39167,42
36.40000,43
36.40833,43
36.41667,44
36.42500,44
36.43333,45
36.44167,46
36.45000,47
36.45833,47
36.46667,47
36.47500,48
36.48333,48
36.49167,49
36.50000,50
36.50833,51
36.51667,51
36.52500,52
36.53333,53
36.54167,53
36.55000,54
36.55833,54
36.56667,55
36.57500,55
36.58333,55
36.59167,56
36.60000,57
36.60833,57
36.61667,57
36.62500,58
36.63333,58
36.64167,59
36.65000,59
36.65833,59
36.66667,60
36.67500,60
36.68333,60
36.69167,61
36.70000,61
36.70833,61
36.71667,61
36.72500,61
36.73333,61
36.74167,61
36.75000,61
36.75833,61
36.76667,61
36.77500,61
36.78333,61
36.79167,61
36.80000,61
36.80833,61
36.81667,61
36.82500,61
36.83333,60
36.84167,60
36.85000,60
36.85833,59
36.86667,59
36.87500,59
36.88333,59
36.89167,58
36.90000,58
36.90833,58
36.91667,57
36.92500,57
36.93333,56
36.94167,56
36.95000,55
36.95833,55
36.96667,55
36.97500,54
36.98333,53
36.99167,53
37.00000,53
37.00833,52
37.01667,52
37.02500,52
37.03333,51
37.04167,51
37.05000,51
37.05833,51
37.06667,51
37.07500,50
37.08333,49
37.09167,49
37.10000,48
37.10833,48
37.11667,48
37.12500,48
37.13333,48
37.14167,48
37.15000,48
37.15833,48
37.16667,47
37.17500,47
37.18333,47
37.19167,48
37.20000,48
37.20833,48
37.21667,48
37.22500,48
37.23333,48
37.24167,48
37.25000,48
37.25833,48
37.26667,49
37.27500,49
37.28333,49
37.29167,49
37.30000,49
37.30833,49
37.31667,49
37.32500,50
37.33333,50
37.34167,50
37.35000,51
37.35833,51
37.36667,51
37.37500,51
37.38333,52
37.39167,52
37.40000,52
37.40833,53
37.41667,53
37.42500,54
37.43333,55
37.44167,55
37.45000,56
37.45833,57
37.46667,57
37.47500,57
37.48333,57
37.49167,57
37.50000,58
37.50833,59
37.51667,59
37.52500,60
37.53333,61
37.54167,61
37.55000,62
37.55833,62
37.56667,63
37.57500,63
37.58333,63
37.59167,63
37.60000,64
37.60833,64
37.61667,64
37.62500,65
37.63333,65
37.64167,65
37.65000,65
37.65833,65
37.66667,66
37.67500,66
37.68333,66
37.69167,67
37.70000,66
37.70833,66
37.71667,66
37.72500,67
37.73333,67
37.74167,66
37.75000,66
37.75833,66
37.76667,65
37.77500,65
37.78333,64
37.79167,64
37.80000,64
37.80833,64
37.81667,63
37.82500,63
37.83333,63
37.84167,63
37.85000,62
37.85833,61
37.86667,61
37.87500,61
37.88333,61
37.89167,61
37.90000,61
37.90833,61
37.91667,61
37.92500,60
37.93333,60
37.94167,59
37.95000,59
37.95833,59
37.96667,59
37.97500,60
37.98333,60
37.99167,60
38.00000,60
38.00833,60
38.01667,60
38.02500,60
38.03333,60
38.04167,60
38.05000,60
38.05833,61
38.06667,61
38.07500,62
38.08333,62
38.09167,62
38.10000,62
38.10833,62
38.11667,62
38.12500,63
38.13333,63
38.14167,64
38.15000,64
38.15833,64
38.16667,64
38.17500,64
38.18333,65
38.19167,65
38.20000,66
38.20833,66
38.21667,66
38.22500,67
38.23333,67
38.24167,67
38.25000,67
38.25833,67
38.26667,67
38.27500,67
38.28333,68
38.29167,68
38.30000,68
38.30833,68
38.31667,67
38.32500,67
38.33333,67
38.34167,67
38.35000,66
38.35833,66
38.36667,66
38.37500,66
38.38333,66
38.39167,66
38.40000,65
38.40833,65
38.41667,64
38.42500,64
38.43333,64
38.44167,64
38.45000,64
38.45833,64
38.46667,64
38.47500,64
38.48333,64
38.49167,64
38.50000,64
38.50833,64
38.51667,64
38.52500,64
38.53333,64
38.54167,64
38.55000,65
38.55833,65
38.56667,64
38.57500,64
38.58333,64
38.59167,63
38.60000,63
38.60833,64
38.61667,64
38.62500,64
38.63333,63
38.64167,63
38.65000,62
38.65833,62
38.66667,62
38.67500,62
38.68333,61
38.69167,61
38.70000,61
38.70833,61
38.71667,61
38.72500,61
38.73333,61
38.74167,60
38.75000,60
38.75833,60
38.76667,60
38.77500,60
38.78333,60
38.79167,59
38.80000,60
38.80833,60
38.81667,60
38.82500,60
38.83333,60
38.84167,59
38.85000,60
38.85833,60
38.86667,61
38.87500,61
38.88333,62
38.89167,62
38.90000,63
38.90833,63
38.91667,63
38.92500,63
38.93333,64
38.94167,64
38.95000,65
38.95833,65
38.96667,66
38.97500,67
38.98333,68
38.99167,69
39.00000,70
39.00833,71
39.01667,71
39.02500,72
39.03333,73
39.04167,74
39.05000,75
39.05833,76
39.06667,77
39.07500,77
39.08333,78
39.09167,79
39.10000,80
39.10833,81
39.11667,81
39.12500,82
39.13333,82
39.14167,83
39.15000,83
39.15833,83
39.16667,83
39.17500,83
39.18333,83
39.19167,84
39.20000,84
39.20833,84
39.21667,83
39.22500,83
39.23333,83
39.24167,83
39.25000,82
39.25833,82
39.26667,81
39.27500,81
39.28333,80
39.29167,80
39.30000,79
39.30833,79
39.31667,79
39.32500,78
39.33333,77
39.34167,77
39.35000,76
39.35833,76
39.36667,75
39.37500,75
39.38333,75
39.39167,74
39.40000,74
39.40833,74
39.41667,73
39.42500,73
39.43333,73
39.44167,73
39.45000,72
39.45833,72
39.46667,72
39.47500,72
39.48333,72
39.49167,72
39.50000,72
39.50833,72
39.51667,72
39.52500,72
39.53333,72
39.54167,72
39.55000,72
39.55833,72
39.56667,73
39.57500,73
39.58333,74
39.59167,74
39.60000,74
39.60833,75
39.61667,75
39.62500,76
39.63333,76
39.64167,77
39.65000,77
39.65833,78
39.66667,78
39.67500,78
39.68333,79
39.69167,79
39.70000,78
39.70833,78
39.71667,79
39.72500,79
39.73333,80
39.74167,80
39.75000,80
39.75833,80
39.76667,80
39.77500,80
39.78333,80
39.79167,81
39.80000,81
39.80833,81
39.81667,82
39.82500,82
39.83333,82
39.84167,82
39.85000,82
39.85833,82
39.86667,82
39.87500,82
39.88333,82
39.89167,82
39.90000,82
39.90833,82
39.91667,81
39.92500,81
39.93333,81
39.94167,81
39.95000,81
39.95833,81
39.96667,81
39.97500,81
39.98333,81
39.99167,81
40.00000,81

