[Header]
Application Name,LabSolutions
Version,5.97 SP1
Data File Name,C:\Users\cremerlab\Desktop\griffin\2021-04-05_NC_DM_calibration\2021-04-05_NC_DM_2.5mM_calibration_452021_006_006.lcd
Output Date,4/5/2021
Output Time,9:06:58 PM

[File Information]
Type,Data File
Generated,4/5/2021 8:26:40 PM
Generated by,System Administrator
Modified,4/5/2021 9:06:58 PM
Modified by,System Administrator

[Sample Information]
Operator Name,System Administrator
Acquired,4/5/2021 8:26:58 PM
Sample Type,1:Standard
Level,6
Sample Name,2021-04-05_NC_glucose_glycerol_acetate_05mM
Sample ID,006
ISTD Amount1,1
ISTD Amount2,1
ISTD Amount3,1
ISTD Amount4,1
ISTD Amount5,1
ISTD Amount6,1
ISTD Amount7,1
ISTD Amount8,1
ISTD Amount9,1
ISTD Amount10,1
ISTD Amount11,1
ISTD Amount12,1
ISTD Amount13,1
ISTD Amount14,1
ISTD Amount15,1
ISTD Amount16,1
ISTD Amount17,1
ISTD Amount18,1
ISTD Amount19,1
ISTD Amount20,1
ISTD Amount21,1
ISTD Amount22,1
ISTD Amount23,1
ISTD Amount24,1
ISTD Amount25,1
ISTD Amount26,1
ISTD Amount27,1
ISTD Amount28,1
ISTD Amount29,1
ISTD Amount30,1
ISTD Amount31,1
ISTD Amount32,1
Sample Amount,1
Dilution Factor,1
Vial#,6
Injection Volume,20

[Original Files]
Data File,C:\Users\cremerlab\Desktop\griffin\2021-04-05_NC_DM_calibration\2021-04-05_NC_DM_2.5mM_calibration_452021_006_006.lcd
Method File,C:\Users\cremerlab\Desktop\griffin\2021-04-05_NC_DM_calibration\2021-04-05_2.5mM_mobile.lcm
Batch File,C:\Users\cremerlab\Desktop\griffin\2021-04-05_NC_DM_calibration\2021-04-05_NC_DM_2.5mM_calibration.lcb
Report Format File,c:\LabSolutions\System\DEFAULT.lsr

[File Description]


[Configuration]
Instrument Name,HPLC-PC-Instrument1
Instrument #,1
Line #,1
# of Detectors,2
Detector ID,Detector A,Detector B
Detector Name,Detector A,Detector B
# of Channels,1,1

[Peak Table(Detector A)]
# of Peaks,0

[Peak Table(Detector B)]
# of Peaks,6
Peak#,R.Time,I.Time,F.Time,Area,Height,A/H,Conc.,Mark,ID#,Name,k',Plate #,Plate Ht.,Tailing,Resolution,Sep.Factor,Area Ratio,Height Ratio,Conc. %,Norm Conc.
1,11.010,10.592,12.575,1624019,91582,17.733,22.390,   ,,,0.000,9259,16.200,0.939,0.000,0.000,0,0,0.000,0.000
2,14.500,12.575,15.175,4696709,100396,46.782,64.752, V ,,,0.317,2789,53.787,0.613,4.486,0.000,0,0,0.000,0.000
3,15.662,15.175,17.592,681118,26396,25.804,9.390, V ,,,0.423,9265,16.190,1.106,1.329,1.333,0,0,0.000,0.000
4,19.079,18.758,19.700,2058,76,27.238,0.028,   ,,,0.733,10210,14.691,1.398,4.860,1.734,0,0,0.000,0.000
5,22.054,21.358,22.967,177088,6462,27.406,2.441,   ,,,1.003,14867,10.090,1.086,4.024,1.369,0,0,0.000,0.000
6,25.018,24.350,25.750,72395,2466,29.357,0.998,   ,,,1.272,16314,9.195,1.049,3.933,1.268,0,0,0.000,0.000

[LC Chromatogram(Detector B-Ch1)]
Interval(msec),500
# of Points,4801
Start Time(min),0.000
End Time(min),40.000
Intensity Units,mV
Intensity Multiplier,0.001
R.Time (min),Intensity
0.00000,3
0.00833,3
0.01667,0
0.02500,1
0.03333,1
0.04167,2
0.05000,2
0.05833,3
0.06667,3
0.07500,3
0.08333,4
0.09167,4
0.10000,4
0.10833,5
0.11667,5
0.12500,5
0.13333,6
0.14167,6
0.15000,7
0.15833,7
0.16667,7
0.17500,7
0.18333,8
0.19167,8
0.20000,9
0.20833,9
0.21667,9
0.22500,9
0.23333,10
0.24167,10
0.25000,10
0.25833,10
0.26667,10
0.27500,10
0.28333,10
0.29167,10
0.30000,10
0.30833,9
0.31667,9
0.32500,9
0.33333,9
0.34167,9
0.35000,9
0.35833,8
0.36667,8
0.37500,7
0.38333,7
0.39167,6
0.40000,6
0.40833,5
0.41667,5
0.42500,5
0.43333,4
0.44167,4
0.45000,3
0.45833,2
0.46667,1
0.47500,1
0.48333,1
0.49167,0
0.50000,-0
0.50833,-1
0.51667,-1
0.52500,-1
0.53333,-2
0.54167,-3
0.55000,-3
0.55833,-3
0.56667,-4
0.57500,-4
0.58333,-4
0.59167,-5
0.60000,-5
0.60833,-5
0.61667,-5
0.62500,-5
0.63333,-6
0.64167,-6
0.65000,-6
0.65833,-7
0.66667,-7
0.67500,-7
0.68333,-8
0.69167,-8
0.70000,-8
0.70833,-7
0.71667,-7
0.72500,-7
0.73333,-7
0.74167,-7
0.75000,-6
0.75833,-6
0.76667,-6
0.77500,-5
0.78333,-5
0.79167,-5
0.80000,-4
0.80833,-4
0.81667,-4
0.82500,-4
0.83333,-4
0.84167,-3
0.85000,-3
0.85833,-2
0.86667,-2
0.87500,-1
0.88333,-1
0.89167,-0
0.90000,0
0.90833,0
0.91667,1
0.92500,1
0.93333,2
0.94167,3
0.95000,3
0.95833,4
0.96667,5
0.97500,5
0.98333,6
0.99167,6
1.00000,6
1.00833,7
1.01667,7
1.02500,7
1.03333,7
1.04167,8
1.05000,8
1.05833,9
1.06667,9
1.07500,9
1.08333,10
1.09167,10
1.10000,11
1.10833,11
1.11667,11
1.12500,11
1.13333,11
1.14167,11
1.15000,11
1.15833,12
1.16667,12
1.17500,12
1.18333,12
1.19167,12
1.20000,12
1.20833,12
1.21667,13
1.22500,13
1.23333,13
1.24167,13
1.25000,13
1.25833,13
1.26667,13
1.27500,13
1.28333,13
1.29167,12
1.30000,12
1.30833,12
1.31667,12
1.32500,12
1.33333,11
1.34167,11
1.35000,11
1.35833,11
1.36667,11
1.37500,10
1.38333,10
1.39167,10
1.40000,10
1.40833,9
1.41667,9
1.42500,9
1.43333,8
1.44167,8
1.45000,7
1.45833,7
1.46667,7
1.47500,7
1.48333,7
1.49167,7
1.50000,6
1.50833,5
1.51667,4
1.52500,3
1.53333,2
1.54167,2
1.55000,2
1.55833,1
1.56667,1
1.57500,0
1.58333,0
1.59167,-0
1.60000,-0
1.60833,-1
1.61667,-1
1.62500,-1
1.63333,-2
1.64167,-2
1.65000,-2
1.65833,-3
1.66667,-3
1.67500,-4
1.68333,-4
1.69167,-4
1.70000,-4
1.70833,-4
1.71667,-5
1.72500,-5
1.73333,-5
1.74167,-5
1.75000,-5
1.75833,-5
1.76667,-5
1.77500,-5
1.78333,-5
1.79167,-6
1.80000,-6
1.80833,-6
1.81667,-7
1.82500,-7
1.83333,-7
1.84167,-7
1.85000,-7
1.85833,-8
1.86667,-8
1.87500,-8
1.88333,-8
1.89167,-8
1.90000,-8
1.90833,-8
1.91667,-9
1.92500,-8
1.93333,-9
1.94167,-9
1.95000,-9
1.95833,-9
1.96667,-10
1.97500,-10
1.98333,-10
1.99167,-10
2.00000,-10
2.00833,-10
2.01667,-10
2.02500,-11
2.03333,-11
2.04167,-12
2.05000,-12
2.05833,-13
2.06667,-13
2.07500,-13
2.08333,-14
2.09167,-15
2.10000,-15
2.10833,-16
2.11667,-17
2.12500,-17
2.13333,-17
2.14167,-17
2.15000,-18
2.15833,-18
2.16667,-18
2.17500,-17
2.18333,-17
2.19167,-17
2.20000,-17
2.20833,-17
2.21667,-17
2.22500,-17
2.23333,-16
2.24167,-16
2.25000,-16
2.25833,-15
2.26667,-15
2.27500,-14
2.28333,-14
2.29167,-13
2.30000,-12
2.30833,-12
2.31667,-11
2.32500,-11
2.33333,-10
2.34167,-9
2.35000,-9
2.35833,-8
2.36667,-7
2.37500,-7
2.38333,-6
2.39167,-5
2.40000,-4
2.40833,-3
2.41667,-2
2.42500,-1
2.43333,0
2.44167,2
2.45000,3
2.45833,4
2.46667,5
2.47500,6
2.48333,6
2.49167,7
2.50000,8
2.50833,9
2.51667,10
2.52500,11
2.53333,12
2.54167,13
2.55000,14
2.55833,15
2.56667,16
2.57500,16
2.58333,17
2.59167,18
2.60000,19
2.60833,19
2.61667,20
2.62500,20
2.63333,21
2.64167,22
2.65000,22
2.65833,23
2.66667,24
2.67500,24
2.68333,25
2.69167,25
2.70000,26
2.70833,26
2.71667,27
2.72500,27
2.73333,27
2.74167,27
2.75000,27
2.75833,26
2.76667,26
2.77500,26
2.78333,26
2.79167,26
2.80000,26
2.80833,26
2.81667,25
2.82500,25
2.83333,24
2.84167,23
2.85000,23
2.85833,22
2.86667,22
2.87500,21
2.88333,20
2.89167,19
2.90000,18
2.90833,17
2.91667,16
2.92500,15
2.93333,14
2.94167,13
2.95000,12
2.95833,11
2.96667,10
2.97500,9
2.98333,8
2.99167,7
3.00000,6
3.00833,6
3.01667,5
3.02500,4
3.03333,2
3.04167,1
3.05000,1
3.05833,0
3.06667,-1
3.07500,-1
3.08333,-2
3.09167,-3
3.10000,-3
3.10833,-4
3.11667,-4
3.12500,-5
3.13333,-6
3.14167,-6
3.15000,-6
3.15833,-7
3.16667,-7
3.17500,-7
3.18333,-7
3.19167,-7
3.20000,-7
3.20833,-7
3.21667,-7
3.22500,-6
3.23333,-6
3.24167,-6
3.25000,-5
3.25833,-5
3.26667,-5
3.27500,-4
3.28333,-4
3.29167,-3
3.30000,-2
3.30833,-2
3.31667,-2
3.32500,-1
3.33333,-1
3.34167,-0
3.35000,0
3.35833,1
3.36667,1
3.37500,1
3.38333,2
3.39167,3
3.40000,3
3.40833,3
3.41667,3
3.42500,3
3.43333,3
3.44167,3
3.45000,3
3.45833,4
3.46667,4
3.47500,4
3.48333,4
3.49167,4
3.50000,4
3.50833,4
3.51667,4
3.52500,4
3.53333,4
3.54167,4
3.55000,4
3.55833,3
3.56667,3
3.57500,3
3.58333,3
3.59167,2
3.60000,2
3.60833,1
3.61667,1
3.62500,1
3.63333,0
3.64167,0
3.65000,0
3.65833,1
3.66667,1
3.67500,1
3.68333,1
3.69167,1
3.70000,1
3.70833,0
3.71667,0
3.72500,0
3.73333,1
3.74167,1
3.75000,1
3.75833,1
3.76667,1
3.77500,1
3.78333,1
3.79167,1
3.80000,1
3.80833,2
3.81667,1
3.82500,2
3.83333,2
3.84167,2
3.85000,2
3.85833,2
3.86667,2
3.87500,2
3.88333,3
3.89167,4
3.90000,5
3.90833,5
3.91667,6
3.92500,6
3.93333,6
3.94167,6
3.95000,6
3.95833,7
3.96667,7
3.97500,7
3.98333,8
3.99167,8
4.00000,8
4.00833,8
4.01667,8
4.02500,9
4.03333,9
4.04167,9
4.05000,9
4.05833,9
4.06667,10
4.07500,10
4.08333,10
4.09167,11
4.10000,11
4.10833,11
4.11667,11
4.12500,11
4.13333,11
4.14167,11
4.15000,12
4.15833,11
4.16667,12
4.17500,12
4.18333,12
4.19167,12
4.20000,12
4.20833,12
4.21667,11
4.22500,11
4.23333,11
4.24167,11
4.25000,11
4.25833,10
4.26667,10
4.27500,10
4.28333,10
4.29167,9
4.30000,9
4.30833,8
4.31667,8
4.32500,8
4.33333,7
4.34167,7
4.35000,6
4.35833,6
4.36667,5
4.37500,4
4.38333,4
4.39167,4
4.40000,4
4.40833,3
4.41667,3
4.42500,3
4.43333,3
4.44167,3
4.45000,3
4.45833,3
4.46667,3
4.47500,2
4.48333,2
4.49167,2
4.50000,2
4.50833,2
4.51667,2
4.52500,2
4.53333,3
4.54167,3
4.55000,3
4.55833,3
4.56667,3
4.57500,4
4.58333,3
4.59167,3
4.60000,3
4.60833,3
4.61667,3
4.62500,4
4.63333,4
4.64167,4
4.65000,5
4.65833,5
4.66667,5
4.67500,5
4.68333,5
4.69167,6
4.70000,6
4.70833,6
4.71667,6
4.72500,7
4.73333,7
4.74167,7
4.75000,7
4.75833,7
4.76667,8
4.77500,8
4.78333,8
4.79167,8
4.80000,8
4.80833,8
4.81667,8
4.82500,8
4.83333,8
4.84167,8
4.85000,9
4.85833,9
4.86667,10
4.87500,10
4.88333,10
4.89167,10
4.90000,10
4.90833,10
4.91667,10
4.92500,10
4.93333,10
4.94167,9
4.95000,9
4.95833,10
4.96667,10
4.97500,9
4.98333,9
4.99167,9
5.00000,10
5.00833,10
5.01667,10
5.02500,10
5.03333,9
5.04167,9
5.05000,9
5.05833,9
5.06667,9
5.07500,9
5.08333,9
5.09167,9
5.10000,9
5.10833,9
5.11667,9
5.12500,9
5.13333,9
5.14167,9
5.15000,9
5.15833,8
5.16667,8
5.17500,8
5.18333,8
5.19167,8
5.20000,7
5.20833,7
5.21667,7
5.22500,7
5.23333,6
5.24167,6
5.25000,6
5.25833,5
5.26667,5
5.27500,5
5.28333,5
5.29167,4
5.30000,4
5.30833,4
5.31667,4
5.32500,4
5.33333,4
5.34167,4
5.35000,3
5.35833,3
5.36667,2
5.37500,2
5.38333,2
5.39167,2
5.40000,1
5.40833,1
5.41667,1
5.42500,1
5.43333,1
5.44167,0
5.45000,0
5.45833,0
5.46667,0
5.47500,0
5.48333,-0
5.49167,-0
5.50000,0
5.50833,1
5.51667,1
5.52500,2
5.53333,2
5.54167,2
5.55000,2
5.55833,1
5.56667,1
5.57500,0
5.58333,-0
5.59167,-1
5.60000,-1
5.60833,-1
5.61667,-1
5.62500,-1
5.63333,-1
5.64167,-1
5.65000,-1
5.65833,-1
5.66667,-1
5.67500,-1
5.68333,-1
5.69167,-2
5.70000,-2
5.70833,-3
5.71667,-3
5.72500,-4
5.73333,-4
5.74167,-4
5.75000,-5
5.75833,-5
5.76667,-5
5.77500,-5
5.78333,-5
5.79167,-6
5.80000,-6
5.80833,-6
5.81667,-6
5.82500,-7
5.83333,-6
5.84167,-6
5.85000,-7
5.85833,-7
5.86667,-8
5.87500,-8
5.88333,-8
5.89167,-8
5.90000,-8
5.90833,-8
5.91667,-8
5.92500,-8
5.93333,-8
5.94167,-8
5.95000,-7
5.95833,-8
5.96667,-8
5.97500,-8
5.98333,-7
5.99167,-7
6.00000,-7
6.00833,-6
6.01667,-6
6.02500,-5
6.03333,-5
6.04167,-4
6.05000,-3
6.05833,-3
6.06667,-3
6.07500,-2
6.08333,-2
6.09167,-1
6.10000,-1
6.10833,-0
6.11667,0
6.12500,0
6.13333,1
6.14167,2
6.15000,2
6.15833,2
6.16667,3
6.17500,3
6.18333,4
6.19167,5
6.20000,6
6.20833,7
6.21667,8
6.22500,9
6.23333,9
6.24167,10
6.25000,10
6.25833,11
6.26667,11
6.27500,12
6.28333,13
6.29167,13
6.30000,14
6.30833,14
6.31667,14
6.32500,15
6.33333,15
6.34167,16
6.35000,16
6.35833,17
6.36667,17
6.37500,17
6.38333,17
6.39167,17
6.40000,17
6.40833,18
6.41667,18
6.42500,18
6.43333,18
6.44167,18
6.45000,18
6.45833,18
6.46667,18
6.47500,18
6.48333,18
6.49167,18
6.50000,17
6.50833,17
6.51667,16
6.52500,16
6.53333,16
6.54167,16
6.55000,16
6.55833,16
6.56667,16
6.57500,16
6.58333,16
6.59167,16
6.60000,16
6.60833,16
6.61667,15
6.62500,15
6.63333,15
6.64167,14
6.65000,14
6.65833,14
6.66667,13
6.67500,13
6.68333,13
6.69167,13
6.70000,13
6.70833,12
6.71667,13
6.72500,13
6.73333,13
6.74167,13
6.75000,13
6.75833,12
6.76667,12
6.77500,12
6.78333,12
6.79167,12
6.80000,12
6.80833,12
6.81667,12
6.82500,13
6.83333,12
6.84167,12
6.85000,12
6.85833,12
6.86667,12
6.87500,12
6.88333,12
6.89167,12
6.90000,12
6.90833,12
6.91667,12
6.92500,12
6.93333,12
6.94167,12
6.95000,12
6.95833,12
6.96667,12
6.97500,12
6.98333,12
6.99167,12
7.00000,12
7.00833,12
7.01667,12
7.02500,12
7.03333,12
7.04167,12
7.05000,12
7.05833,12
7.06667,12
7.07500,12
7.08333,12
7.09167,12
7.10000,12
7.10833,12
7.11667,12
7.12500,12
7.13333,12
7.14167,12
7.15000,12
7.15833,12
7.16667,12
7.17500,12
7.18333,11
7.19167,11
7.20000,11
7.20833,11
7.21667,11
7.22500,11
7.23333,10
7.24167,10
7.25000,10
7.25833,10
7.26667,9
7.27500,9
7.28333,8
7.29167,8
7.30000,8
7.30833,7
7.31667,7
7.32500,7
7.33333,7
7.34167,7
7.35000,6
7.35833,6
7.36667,6
7.37500,5
7.38333,5
7.39167,5
7.40000,5
7.40833,4
7.41667,4
7.42500,4
7.43333,3
7.44167,3
7.45000,2
7.45833,2
7.46667,2
7.47500,2
7.48333,2
7.49167,2
7.50000,1
7.50833,1
7.51667,1
7.52500,1
7.53333,1
7.54167,1
7.55000,1
7.55833,1
7.56667,1
7.57500,1
7.58333,0
7.59167,0
7.60000,0
7.60833,0
7.61667,0
7.62500,0
7.63333,0
7.64167,0
7.65000,-0
7.65833,-1
7.66667,-1
7.67500,-1
7.68333,-1
7.69167,-1
7.70000,-1
7.70833,-1
7.71667,-1
7.72500,-1
7.73333,-2
7.74167,-2
7.75000,-2
7.75833,-2
7.76667,-2
7.77500,-2
7.78333,-2
7.79167,-2
7.80000,-2
7.80833,-2
7.81667,-2
7.82500,-2
7.83333,-2
7.84167,-3
7.85000,-3
7.85833,-3
7.86667,-3
7.87500,-3
7.88333,-4
7.89167,-4
7.90000,-4
7.90833,-4
7.91667,-5
7.92500,-5
7.93333,-5
7.94167,-5
7.95000,-5
7.95833,-6
7.96667,-6
7.97500,-6
7.98333,-7
7.99167,-7
8.00000,-7
8.00833,-6
8.01667,-6
8.02500,-7
8.03333,-7
8.04167,-7
8.05000,-7
8.05833,-7
8.06667,-6
8.07500,-6
8.08333,-5
8.09167,-5
8.10000,-4
8.10833,-4
8.11667,-4
8.12500,-4
8.13333,-3
8.14167,-3
8.15000,-2
8.15833,-1
8.16667,-0
8.17500,1
8.18333,2
8.19167,2
8.20000,3
8.20833,4
8.21667,5
8.22500,5
8.23333,6
8.24167,6
8.25000,7
8.25833,8
8.26667,9
8.27500,10
8.28333,11
8.29167,11
8.30000,12
8.30833,12
8.31667,13
8.32500,15
8.33333,16
8.34167,17
8.35000,18
8.35833,19
8.36667,19
8.37500,20
8.38333,21
8.39167,21
8.40000,22
8.40833,23
8.41667,23
8.42500,24
8.43333,24
8.44167,24
8.45000,24
8.45833,24
8.46667,24
8.47500,24
8.48333,25
8.49167,25
8.50000,25
8.50833,25
8.51667,24
8.52500,24
8.53333,24
8.54167,24
8.55000,24
8.55833,24
8.56667,24
8.57500,24
8.58333,23
8.59167,23
8.60000,23
8.60833,23
8.61667,22
8.62500,22
8.63333,22
8.64167,21
8.65000,21
8.65833,20
8.66667,20
8.67500,20
8.68333,20
8.69167,20
8.70000,20
8.70833,20
8.71667,19
8.72500,19
8.73333,19
8.74167,18
8.75000,18
8.75833,17
8.76667,17
8.77500,17
8.78333,17
8.79167,17
8.80000,17
8.80833,17
8.81667,17
8.82500,18
8.83333,18
8.84167,18
8.85000,18
8.85833,17
8.86667,17
8.87500,16
8.88333,16
8.89167,16
8.90000,16
8.90833,16
8.91667,16
8.92500,15
8.93333,14
8.94167,14
8.95000,13
8.95833,13
8.96667,12
8.97500,12
8.98333,12
8.99167,11
9.00000,11
9.00833,11
9.01667,10
9.02500,10
9.03333,10
9.04167,9
9.05000,9
9.05833,8
9.06667,8
9.07500,7
9.08333,7
9.09167,6
9.10000,6
9.10833,5
9.11667,5
9.12500,5
9.13333,6
9.14167,6
9.15000,6
9.15833,6
9.16667,5
9.17500,5
9.18333,5
9.19167,5
9.20000,5
9.20833,5
9.21667,5
9.22500,5
9.23333,5
9.24167,5
9.25000,6
9.25833,6
9.26667,6
9.27500,6
9.28333,7
9.29167,7
9.30000,7
9.30833,8
9.31667,8
9.32500,9
9.33333,9
9.34167,9
9.35000,10
9.35833,10
9.36667,11
9.37500,11
9.38333,11
9.39167,12
9.40000,12
9.40833,13
9.41667,13
9.42500,13
9.43333,13
9.44167,14
9.45000,15
9.45833,15
9.46667,16
9.47500,16
9.48333,16
9.49167,16
9.50000,17
9.50833,17
9.51667,17
9.52500,18
9.53333,18
9.54167,19
9.55000,19
9.55833,19
9.56667,19
9.57500,20
9.58333,20
9.59167,20
9.60000,21
9.60833,21
9.61667,21
9.62500,21
9.63333,21
9.64167,21
9.65000,21
9.65833,22
9.66667,21
9.67500,22
9.68333,22
9.69167,22
9.70000,22
9.70833,23
9.71667,23
9.72500,22
9.73333,22
9.74167,21
9.75000,21
9.75833,21
9.76667,21
9.77500,20
9.78333,20
9.79167,19
9.80000,19
9.80833,19
9.81667,20
9.82500,19
9.83333,19
9.84167,19
9.85000,18
9.85833,18
9.86667,18
9.87500,17
9.88333,17
9.89167,16
9.90000,16
9.90833,16
9.91667,15
9.92500,15
9.93333,15
9.94167,14
9.95000,14
9.95833,14
9.96667,13
9.97500,13
9.98333,13
9.99167,13
10.00000,13
10.00833,13
10.01667,12
10.02500,12
10.03333,12
10.04167,12
10.05000,12
10.05833,13
10.06667,12
10.07500,13
10.08333,13
10.09167,12
10.10000,12
10.10833,12
10.11667,12
10.12500,12
10.13333,11
10.14167,11
10.15000,12
10.15833,12
10.16667,12
10.17500,12
10.18333,12
10.19167,12
10.20000,12
10.20833,11
10.21667,11
10.22500,11
10.23333,11
10.24167,11
10.25000,10
10.25833,10
10.26667,10
10.27500,10
10.28333,10
10.29167,10
10.30000,10
10.30833,10
10.31667,9
10.32500,10
10.33333,10
10.34167,10
10.35000,9
10.35833,8
10.36667,8
10.37500,8
10.38333,7
10.39167,6
10.40000,4
10.40833,1
10.41667,-2
10.42500,-7
10.43333,-14
10.44167,-24
10.45000,-36
10.45833,-53
10.46667,-74
10.47500,-101
10.48333,-134
10.49167,-174
10.50000,-223
10.50833,-279
10.51667,-345
10.52500,-417
10.53333,-497
10.54167,-580
10.55000,-666
10.55833,-750
10.56667,-829
10.57500,-897
10.58333,-949
10.59167,-977
10.60000,-974
10.60833,-935
10.61667,-850
10.62500,-712
10.63333,-513
10.64167,-245
10.65000,98
10.65833,525
10.66667,1041
10.67500,1651
10.68333,2362
10.69167,3176
10.70000,4099
10.70833,5134
10.71667,6281
10.72500,7545
10.73333,8925
10.74167,10422
10.75000,12037
10.75833,13770
10.76667,15620
10.77500,17585
10.78333,19664
10.79167,21854
10.80000,24155
10.80833,26561
10.81667,29072
10.82500,31682
10.83333,34389
10.84167,37187
10.85000,40072
10.85833,43037
10.86667,46077
10.87500,49184
10.88333,52348
10.89167,55560
10.90000,58807
10.90833,62073
10.91667,65341
10.92500,68589
10.93333,71789
10.94167,74909
10.95000,77908
10.95833,80739
10.96667,83346
10.97500,85667
10.98333,87632
10.99167,89169
11.00000,90205
11.00833,90674
11.01667,90521
11.02500,89708
11.03333,88216
11.04167,86052
11.05000,83250
11.05833,79866
11.06667,75979
11.07500,71684
11.08333,67085
11.09167,62290
11.10000,57406
11.10833,52531
11.11667,47753
11.12500,43143
11.13333,38760
11.14167,34647
11.15000,30831
11.15833,27326
11.16667,24137
11.17500,21259
11.18333,18680
11.19167,16383
11.20000,14348
11.20833,12555
11.21667,10982
11.22500,9605
11.23333,8405
11.24167,7361
11.25000,6455
11.25833,5669
11.26667,4990
11.27500,4402
11.28333,3893
11.29167,3454
11.30000,3074
11.30833,2745
11.31667,2461
11.32500,2214
11.33333,2000
11.34167,1814
11.35000,1652
11.35833,1510
11.36667,1385
11.37500,1276
11.38333,1180
11.39167,1094
11.40000,1018
11.40833,950
11.41667,889
11.42500,835
11.43333,785
11.44167,740
11.45000,699
11.45833,662
11.46667,627
11.47500,596
11.48333,567
11.49167,541
11.50000,516
11.50833,493
11.51667,471
11.52500,451
11.53333,432
11.54167,413
11.55000,397
11.55833,381
11.56667,366
11.57500,353
11.58333,340
11.59167,328
11.60000,316
11.60833,305
11.61667,295
11.62500,285
11.63333,276
11.64167,268
11.65000,260
11.65833,252
11.66667,244
11.67500,237
11.68333,231
11.69167,225
11.70000,219
11.70833,214
11.71667,209
11.72500,204
11.73333,199
11.74167,194
11.75000,189
11.75833,185
11.76667,181
11.77500,177
11.78333,174
11.79167,171
11.80000,168
11.80833,165
11.81667,162
11.82500,160
11.83333,157
11.84167,155
11.85000,153
11.85833,151
11.86667,149
11.87500,146
11.88333,144
11.89167,143
11.90000,141
11.90833,140
11.91667,138
11.92500,136
11.93333,134
11.94167,133
11.95000,132
11.95833,130
11.96667,129
11.97500,127
11.98333,126
11.99167,125
12.00000,123
12.00833,122
12.01667,121
12.02500,119
12.03333,117
12.04167,116
12.05000,115
12.05833,113
12.06667,111
12.07500,110
12.08333,108
12.09167,107
12.10000,106
12.10833,104
12.11667,103
12.12500,101
12.13333,100
12.14167,99
12.15000,98
12.15833,96
12.16667,95
12.17500,94
12.18333,93
12.19167,92
12.20000,90
12.20833,89
12.21667,88
12.22500,87
12.23333,86
12.24167,85
12.25000,83
12.25833,83
12.26667,82
12.27500,81
12.28333,80
12.29167,79
12.30000,78
12.30833,77
12.31667,76
12.32500,76
12.33333,75
12.34167,74
12.35000,73
12.35833,72
12.36667,71
12.37500,70
12.38333,69
12.39167,68
12.40000,68
12.40833,67
12.41667,66
12.42500,65
12.43333,64
12.44167,63
12.45000,62
12.45833,62
12.46667,61
12.47500,60
12.48333,60
12.49167,59
12.50000,58
12.50833,57
12.51667,57
12.52500,56
12.53333,56
12.54167,56
12.55000,55
12.55833,54
12.56667,54
12.57500,54
12.58333,54
12.59167,54
12.60000,54
12.60833,53
12.61667,53
12.62500,54
12.63333,55
12.64167,56
12.65000,57
12.65833,59
12.66667,61
12.67500,64
12.68333,67
12.69167,71
12.70000,75
12.70833,81
12.71667,88
12.72500,97
12.73333,107
12.74167,119
12.75000,134
12.75833,152
12.76667,173
12.77500,197
12.78333,224
12.79167,257
12.80000,293
12.80833,335
12.81667,382
12.82500,434
12.83333,492
12.84167,557
12.85000,628
12.85833,705
12.86667,789
12.87500,879
12.88333,977
12.89167,1082
12.90000,1194
12.90833,1313
12.91667,1439
12.92500,1573
12.93333,1713
12.94167,1861
12.95000,2015
12.95833,2176
12.96667,2344
12.97500,2517
12.98333,2697
12.99167,2883
13.00000,3074
13.00833,3271
13.01667,3474
13.02500,3682
13.03333,3896
13.04167,4114
13.05000,4337
13.05833,4565
13.06667,4797
13.07500,5033
13.08333,5274
13.09167,5519
13.10000,5768
13.10833,6021
13.11667,6278
13.12500,6538
13.13333,6802
13.14167,7069
13.15000,7340
13.15833,7615
13.16667,7892
13.17500,8173
13.18333,8457
13.19167,8744
13.20000,9035
13.20833,9328
13.21667,9625
13.22500,9924
13.23333,10226
13.24167,10532
13.25000,10840
13.25833,11151
13.26667,11465
13.27500,11781
13.28333,12101
13.29167,12423
13.30000,12748
13.30833,13076
13.31667,13407
13.32500,13740
13.33333,14076
13.34167,14414
13.35000,14756
13.35833,15100
13.36667,15447
13.37500,15797
13.38333,16150
13.39167,16506
13.40000,16864
13.40833,17226
13.41667,17590
13.42500,17958
13.43333,18328
13.44167,18700
13.45000,19076
13.45833,19455
13.46667,19836
13.47500,20220
13.48333,20608
13.49167,20998
13.50000,21392
13.50833,21789
13.51667,22189
13.52500,22592
13.53333,22998
13.54167,23408
13.55000,23821
13.55833,24237
13.56667,24657
13.57500,25080
13.58333,25506
13.59167,25936
13.60000,26368
13.60833,26805
13.61667,27244
13.62500,27688
13.63333,28134
13.64167,28584
13.65000,29037
13.65833,29495
13.66667,29955
13.67500,30420
13.68333,30888
13.69167,31361
13.70000,31837
13.70833,32317
13.71667,32800
13.72500,33288
13.73333,33779
13.74167,34275
13.75000,34775
13.75833,35279
13.76667,35786
13.77500,36298
13.78333,36815
13.79167,37335
13.80000,37860
13.80833,38389
13.81667,38922
13.82500,39460
13.83333,40002
13.84167,40548
13.85000,41100
13.85833,41655
13.86667,42216
13.87500,42781
13.88333,43351
13.89167,43926
13.90000,44505
13.90833,45090
13.91667,45679
13.92500,46273
13.93333,46873
13.94167,47477
13.95000,48087
13.95833,48702
13.96667,49322
13.97500,49948
13.98333,50579
13.99167,51216
14.00000,51858
14.00833,52505
14.01667,53159
14.02500,53818
14.03333,54482
14.04167,55153
14.05000,55830
14.05833,56513
14.06667,57201
14.07500,57896
14.08333,58597
14.09167,59304
14.10000,60017
14.10833,60737
14.11667,61463
14.12500,62196
14.13333,62936
14.14167,63682
14.15000,64435
14.15833,65195
14.16667,65961
14.17500,66735
14.18333,67515
14.19167,68303
14.20000,69098
14.20833,69901
14.21667,70711
14.22500,71528
14.23333,72353
14.24167,73186
14.25000,74026
14.25833,74874
14.26667,75730
14.27500,76594
14.28333,77466
14.29167,78347
14.30000,79236
14.30833,80133
14.31667,81039
14.32500,81953
14.33333,82876
14.34167,83808
14.35000,84749
14.35833,85699
14.36667,86659
14.37500,87627
14.38333,88604
14.39167,89590
14.40000,90584
14.40833,91585
14.41667,92590
14.42500,93596
14.43333,94594
14.44167,95575
14.45000,96525
14.45833,97423
14.46667,98244
14.47500,98958
14.48333,99526
14.49167,99909
14.50000,100061
14.50833,99939
14.51667,99498
14.52500,98699
14.53333,97508
14.54167,95901
14.55000,93863
14.55833,91393
14.56667,88502
14.57500,85213
14.58333,81563
14.59167,77599
14.60000,73377
14.60833,68960
14.61667,64414
14.62500,59810
14.63333,55214
14.64167,50688
14.65000,46289
14.65833,42065
14.66667,38057
14.67500,34293
14.68333,30794
14.69167,27571
14.70000,24628
14.70833,21959
14.71667,19557
14.72500,17406
14.73333,15491
14.74167,13793
14.75000,12293
14.75833,10971
14.76667,9808
14.77500,8788
14.78333,7893
14.79167,7108
14.80000,6420
14.80833,5817
14.81667,5288
14.82500,4823
14.83333,4414
14.84167,4053
14.85000,3734
14.85833,3452
14.86667,3202
14.87500,2979
14.88333,2781
14.89167,2604
14.90000,2446
14.90833,2303
14.91667,2175
14.92500,2059
14.93333,1954
14.94167,1859
14.95000,1772
14.95833,1693
14.96667,1620
14.97500,1554
14.98333,1493
14.99167,1437
15.00000,1385
15.00833,1337
15.01667,1293
15.02500,1252
15.03333,1214
15.04167,1178
15.05000,1145
15.05833,1114
15.06667,1086
15.07500,1059
15.08333,1035
15.09167,1012
15.10000,992
15.10833,973
15.11667,955
15.12500,940
15.13333,926
15.14167,915
15.15000,905
15.15833,898
15.16667,893
15.17500,891
15.18333,893
15.19167,898
15.20000,906
15.20833,920
15.21667,939
15.22500,965
15.23333,999
15.24167,1040
15.25000,1092
15.25833,1154
15.26667,1229
15.27500,1318
15.28333,1423
15.29167,1545
15.30000,1687
15.30833,1850
15.31667,2037
15.32500,2250
15.33333,2491
15.34167,2762
15.35000,3065
15.35833,3402
15.36667,3774
15.37500,4184
15.38333,4633
15.39167,5122
15.40000,5651
15.40833,6222
15.41667,6832
15.42500,7483
15.43333,8173
15.44167,8900
15.45000,9662
15.45833,10457
15.46667,11280
15.47500,12129
15.48333,12999
15.49167,13884
15.50000,14781
15.50833,15684
15.51667,16586
15.52500,17482
15.53333,18365
15.54167,19229
15.55000,20066
15.55833,20872
15.56667,21640
15.57500,22365
15.58333,23040
15.59167,23661
15.60000,24224
15.60833,24723
15.61667,25156
15.62500,25521
15.63333,25813
15.64167,26033
15.65000,26179
15.65833,26252
15.66667,26251
15.67500,26179
15.68333,26035
15.69167,25824
15.70000,25547
15.70833,25208
15.71667,24811
15.72500,24360
15.73333,23859
15.74167,23311
15.75000,22723
15.75833,22099
15.76667,21443
15.77500,20761
15.78333,20056
15.79167,19335
15.80000,18601
15.80833,17859
15.81667,17113
15.82500,16366
15.83333,15623
15.84167,14886
15.85000,14159
15.85833,13444
15.86667,12744
15.87500,12062
15.88333,11399
15.89167,10756
15.90000,10136
15.90833,9538
15.91667,8964
15.92500,8415
15.93333,7891
15.94167,7391
15.95000,6917
15.95833,6467
15.96667,6042
15.97500,5640
15.98333,5261
15.99167,4905
16.00000,4571
16.00833,4258
16.01667,3966
16.02500,3693
16.03333,3439
16.04167,3203
16.05000,2983
16.05833,2780
16.06667,2591
16.07500,2416
16.08333,2255
16.09167,2106
16.10000,1969
16.10833,1843
16.11667,1726
16.12500,1619
16.13333,1520
16.14167,1429
16.15000,1346
16.15833,1270
16.16667,1199
16.17500,1135
16.18333,1076
16.19167,1022
16.20000,972
16.20833,927
16.21667,885
16.22500,846
16.23333,811
16.24167,779
16.25000,749
16.25833,722
16.26667,696
16.27500,673
16.28333,652
16.29167,632
16.30000,613
16.30833,596
16.31667,581
16.32500,566
16.33333,553
16.34167,541
16.35000,529
16.35833,518
16.36667,508
16.37500,498
16.38333,489
16.39167,481
16.40000,473
16.40833,466
16.41667,459
16.42500,452
16.43333,446
16.44167,440
16.45000,434
16.45833,429
16.46667,423
16.47500,418
16.48333,413
16.49167,409
16.50000,404
16.50833,400
16.51667,396
16.52500,392
16.53333,388
16.54167,385
16.55000,382
16.55833,378
16.56667,375
16.57500,371
16.58333,368
16.59167,365
16.60000,362
16.60833,358
16.61667,356
16.62500,353
16.63333,351
16.64167,348
16.65000,345
16.65833,342
16.66667,339
16.67500,337
16.68333,334
16.69167,332
16.70000,330
16.70833,327
16.71667,325
16.72500,322
16.73333,320
16.74167,318
16.75000,315
16.75833,313
16.76667,310
16.77500,308
16.78333,306
16.79167,303
16.80000,301
16.80833,299
16.81667,297
16.82500,295
16.83333,293
16.84167,291
16.85000,288
16.85833,286
16.86667,284
16.87500,282
16.88333,280
16.89167,277
16.90000,275
16.90833,274
16.91667,272
16.92500,270
16.93333,267
16.94167,265
16.95000,263
16.95833,261
16.96667,259
16.97500,257
16.98333,256
16.99167,254
17.00000,252
17.00833,250
17.01667,249
17.02500,247
17.03333,245
17.04167,243
17.05000,241
17.05833,240
17.06667,238
17.07500,237
17.08333,235
17.09167,234
17.10000,232
17.10833,231
17.11667,229
17.12500,227
17.13333,226
17.14167,224
17.15000,222
17.15833,221
17.16667,219
17.17500,218
17.18333,216
17.19167,215
17.20000,214
17.20833,213
17.21667,211
17.22500,210
17.23333,209
17.24167,208
17.25000,207
17.25833,205
17.26667,204
17.27500,203
17.28333,201
17.29167,200
17.30000,199
17.30833,198
17.31667,197
17.32500,196
17.33333,195
17.34167,194
17.35000,194
17.35833,192
17.36667,191
17.37500,190
17.38333,189
17.39167,188
17.40000,187
17.40833,186
17.41667,185
17.42500,184
17.43333,183
17.44167,183
17.45000,182
17.45833,182
17.46667,181
17.47500,180
17.48333,180
17.49167,179
17.50000,178
17.50833,178
17.51667,177
17.52500,176
17.53333,176
17.54167,175
17.55000,175
17.55833,174
17.56667,173
17.57500,173
17.58333,172
17.59167,172
17.60000,172
17.60833,172
17.61667,171
17.62500,171
17.63333,170
17.64167,170
17.65000,170
17.65833,169
17.66667,169
17.67500,170
17.68333,170
17.69167,169
17.70000,169
17.70833,169
17.71667,169
17.72500,169
17.73333,169
17.74167,168
17.75000,168
17.75833,168
17.76667,167
17.77500,167
17.78333,167
17.79167,166
17.80000,166
17.80833,166
17.81667,166
17.82500,166
17.83333,166
17.84167,165
17.85000,165
17.85833,165
17.86667,165
17.87500,165
17.88333,164
17.89167,164
17.90000,163
17.90833,163
17.91667,163
17.92500,163
17.93333,162
17.94167,162
17.95000,162
17.95833,161
17.96667,161
17.97500,160
17.98333,160
17.99167,160
18.00000,160
18.00833,159
18.01667,159
18.02500,159
18.03333,158
18.04167,158
18.05000,157
18.05833,156
18.06667,155
18.07500,154
18.08333,153
18.09167,152
18.10000,151
18.10833,150
18.11667,149
18.12500,149
18.13333,148
18.14167,147
18.15000,146
18.15833,144
18.16667,143
18.17500,142
18.18333,141
18.19167,140
18.20000,138
18.20833,137
18.21667,135
18.22500,134
18.23333,132
18.24167,131
18.25000,129
18.25833,128
18.26667,127
18.27500,125
18.28333,124
18.29167,122
18.30000,121
18.30833,119
18.31667,118
18.32500,116
18.33333,115
18.34167,113
18.35000,111
18.35833,110
18.36667,109
18.37500,108
18.38333,106
18.39167,105
18.40000,103
18.40833,102
18.41667,101
18.42500,99
18.43333,98
18.44167,97
18.45000,96
18.45833,95
18.46667,94
18.47500,93
18.48333,92
18.49167,91
18.50000,90
18.50833,89
18.51667,88
18.52500,87
18.53333,86
18.54167,86
18.55000,85
18.55833,85
18.56667,85
18.57500,85
18.58333,85
18.59167,84
18.60000,84
18.60833,84
18.61667,83
18.62500,83
18.63333,83
18.64167,83
18.65000,83
18.65833,83
18.66667,83
18.67500,84
18.68333,84
18.69167,84
18.70000,85
18.70833,85
18.71667,86
18.72500,87
18.73333,87
18.74167,88
18.75000,90
18.75833,91
18.76667,93
18.77500,94
18.78333,96
18.79167,97
18.80000,99
18.80833,101
18.81667,103
18.82500,105
18.83333,107
18.84167,109
18.85000,111
18.85833,114
18.86667,116
18.87500,119
18.88333,121
18.89167,124
18.90000,126
18.90833,129
18.91667,131
18.92500,134
18.93333,136
18.94167,139
18.95000,141
18.95833,143
18.96667,146
18.97500,148
18.98333,149
18.99167,151
19.00000,152
19.00833,154
19.01667,156
19.02500,157
19.03333,157
19.04167,158
19.05000,158
19.05833,159
19.06667,159
19.07500,159
19.08333,159
19.09167,159
19.10000,159
19.10833,159
19.11667,158
19.12500,158
19.13333,157
19.14167,156
19.15000,154
19.15833,153
19.16667,151
19.17500,150
19.18333,148
19.19167,146
19.20000,145
19.20833,143
19.21667,141
19.22500,139
19.23333,137
19.24167,135
19.25000,133
19.25833,131
19.26667,129
19.27500,127
19.28333,125
19.29167,123
19.30000,121
19.30833,120
19.31667,118
19.32500,117
19.33333,115
19.34167,113
19.35000,111
19.35833,110
19.36667,108
19.37500,106
19.38333,105
19.39167,103
19.40000,102
19.40833,101
19.41667,100
19.42500,98
19.43333,97
19.44167,96
19.45000,95
19.45833,94
19.46667,92
19.47500,92
19.48333,90
19.49167,89
19.50000,88
19.50833,87
19.51667,86
19.52500,85
19.53333,84
19.54167,82
19.55000,81
19.55833,80
19.56667,79
19.57500,79
19.58333,78
19.59167,77
19.60000,76
19.60833,75
19.61667,74
19.62500,74
19.63333,73
19.64167,72
19.65000,71
19.65833,70
19.66667,70
19.67500,69
19.68333,69
19.69167,68
19.70000,68
19.70833,68
19.71667,68
19.72500,67
19.73333,67
19.74167,66
19.75000,66
19.75833,66
19.76667,66
19.77500,66
19.78333,66
19.79167,66
19.80000,67
19.80833,67
19.81667,67
19.82500,67
19.83333,68
19.84167,68
19.85000,68
19.85833,68
19.86667,69
19.87500,69
19.88333,69
19.89167,70
19.90000,71
19.90833,71
19.91667,72
19.92500,73
19.93333,73
19.94167,74
19.95000,74
19.95833,74
19.96667,75
19.97500,75
19.98333,76
19.99167,76
20.00000,76
20.00833,77
20.01667,77
20.02500,77
20.03333,77
20.04167,77
20.05000,78
20.05833,78
20.06667,78
20.07500,78
20.08333,78
20.09167,79
20.10000,79
20.10833,79
20.11667,79
20.12500,79
20.13333,79
20.14167,78
20.15000,78
20.15833,78
20.16667,78
20.17500,77
20.18333,77
20.19167,76
20.20000,76
20.20833,76
20.21667,75
20.22500,74
20.23333,74
20.24167,73
20.25000,72
20.25833,71
20.26667,71
20.27500,71
20.28333,70
20.29167,69
20.30000,68
20.30833,68
20.31667,67
20.32500,67
20.33333,66
20.34167,66
20.35000,65
20.35833,65
20.36667,64
20.37500,63
20.38333,63
20.39167,62
20.40000,61
20.40833,61
20.41667,60
20.42500,59
20.43333,58
20.44167,57
20.45000,57
20.45833,56
20.46667,56
20.47500,56
20.48333,55
20.49167,55
20.50000,55
20.50833,55
20.51667,54
20.52500,54
20.53333,55
20.54167,55
20.55000,55
20.55833,55
20.56667,55
20.57500,55
20.58333,55
20.59167,55
20.60000,55
20.60833,55
20.61667,55
20.62500,56
20.63333,56
20.64167,56
20.65000,57
20.65833,57
20.66667,57
20.67500,57
20.68333,57
20.69167,57
20.70000,58
20.70833,58
20.71667,58
20.72500,58
20.73333,58
20.74167,58
20.75000,58
20.75833,58
20.76667,59
20.77500,59
20.78333,59
20.79167,59
20.80000,59
20.80833,59
20.81667,59
20.82500,59
20.83333,58
20.84167,58
20.85000,57
20.85833,57
20.86667,57
20.87500,57
20.88333,57
20.89167,57
20.90000,57
20.90833,57
20.91667,57
20.92500,57
20.93333,56
20.94167,56
20.95000,56
20.95833,56
20.96667,55
20.97500,55
20.98333,54
20.99167,54
21.00000,53
21.00833,53
21.01667,53
21.02500,53
21.03333,52
21.04167,52
21.05000,51
21.05833,51
21.06667,51
21.07500,50
21.08333,50
21.09167,50
21.10000,50
21.10833,49
21.11667,49
21.12500,49
21.13333,48
21.14167,48
21.15000,48
21.15833,48
21.16667,48
21.17500,48
21.18333,48
21.19167,48
21.20000,48
21.20833,48
21.21667,47
21.22500,47
21.23333,48
21.24167,48
21.25000,49
21.25833,49
21.26667,49
21.27500,50
21.28333,50
21.29167,51
21.30000,51
21.30833,52
21.31667,53
21.32500,53
21.33333,54
21.34167,55
21.35000,55
21.35833,56
21.36667,58
21.37500,59
21.38333,60
21.39167,62
21.40000,64
21.40833,66
21.41667,67
21.42500,69
21.43333,72
21.44167,75
21.45000,78
21.45833,82
21.46667,85
21.47500,89
21.48333,94
21.49167,99
21.50000,105
21.50833,111
21.51667,118
21.52500,127
21.53333,136
21.54167,147
21.55000,159
21.55833,172
21.56667,187
21.57500,203
21.58333,221
21.59167,242
21.60000,265
21.60833,290
21.61667,319
21.62500,351
21.63333,387
21.64167,426
21.65000,470
21.65833,518
21.66667,570
21.67500,628
21.68333,690
21.69167,758
21.70000,832
21.70833,912
21.71667,999
21.72500,1092
21.73333,1192
21.74167,1299
21.75000,1413
21.75833,1535
21.76667,1663
21.77500,1799
21.78333,1941
21.79167,2090
21.80000,2246
21.80833,2407
21.81667,2575
21.82500,2748
21.83333,2926
21.84167,3108
21.85000,3294
21.85833,3482
21.86667,3673
21.87500,3864
21.88333,4056
21.89167,4248
21.90000,4437
21.90833,4625
21.91667,4808
21.92500,4987
21.93333,5161
21.94167,5328
21.95000,5488
21.95833,5639
21.96667,5780
21.97500,5912
21.98333,6032
21.99167,6141
22.00000,6238
22.00833,6322
22.01667,6392
22.02500,6449
22.03333,6492
22.04167,6521
22.05000,6536
22.05833,6536
22.06667,6523
22.07500,6496
22.08333,6455
22.09167,6401
22.10000,6335
22.10833,6256
22.11667,6165
22.12500,6063
22.13333,5952
22.14167,5831
22.15000,5701
22.15833,5563
22.16667,5419
22.17500,5268
22.18333,5113
22.19167,4952
22.20000,4789
22.20833,4622
22.21667,4454
22.22500,4284
22.23333,4114
22.24167,3944
22.25000,3774
22.25833,3607
22.26667,3441
22.27500,3278
22.28333,3118
22.29167,2961
22.30000,2809
22.30833,2660
22.31667,2517
22.32500,2378
22.33333,2244
22.34167,2115
22.35000,1991
22.35833,1872
22.36667,1759
22.37500,1651
22.38333,1548
22.39167,1450
22.40000,1358
22.40833,1270
22.41667,1188
22.42500,1110
22.43333,1037
22.44167,969
22.45000,905
22.45833,844
22.46667,788
22.47500,736
22.48333,687
22.49167,641
22.50000,599
22.50833,560
22.51667,524
22.52500,490
22.53333,459
22.54167,430
22.55000,404
22.55833,379
22.56667,357
22.57500,336
22.58333,318
22.59167,300
22.60000,283
22.60833,268
22.61667,254
22.62500,242
22.63333,230
22.64167,220
22.65000,210
22.65833,200
22.66667,192
22.67500,185
22.68333,178
22.69167,172
22.70000,166
22.70833,161
22.71667,156
22.72500,151
22.73333,147
22.74167,143
22.75000,139
22.75833,136
22.76667,132
22.77500,129
22.78333,126
22.79167,123
22.80000,121
22.80833,119
22.81667,117
22.82500,115
22.83333,113
22.84167,111
22.85000,109
22.85833,108
22.86667,107
22.87500,105
22.88333,104
22.89167,104
22.90000,103
22.90833,102
22.91667,102
22.92500,101
22.93333,100
22.94167,100
22.95000,99
22.95833,99
22.96667,99
22.97500,98
22.98333,98
22.99167,98
23.00000,97
23.00833,97
23.01667,96
23.02500,96
23.03333,95
23.04167,95
23.05000,95
23.05833,94
23.06667,94
23.07500,93
23.08333,93
23.09167,93
23.10000,93
23.10833,92
23.11667,91
23.12500,91
23.13333,90
23.14167,90
23.15000,89
23.15833,89
23.16667,88
23.17500,87
23.18333,86
23.19167,86
23.20000,85
23.20833,85
23.21667,84
23.22500,84
23.23333,83
23.24167,83
23.25000,82
23.25833,82
23.26667,81
23.27500,80
23.28333,79
23.29167,78
23.30000,77
23.30833,76
23.31667,75
23.32500,74
23.33333,73
23.34167,72
23.35000,71
23.35833,70
23.36667,69
23.37500,69
23.38333,68
23.39167,67
23.40000,67
23.40833,66
23.41667,66
23.42500,65
23.43333,64
23.44167,63
23.45000,63
23.45833,62
23.46667,62
23.47500,62
23.48333,62
23.49167,62
23.50000,62
23.50833,61
23.51667,61
23.52500,60
23.53333,60
23.54167,60
23.55000,60
23.55833,60
23.56667,60
23.57500,60
23.58333,60
23.59167,60
23.60000,60
23.60833,61
23.61667,61
23.62500,61
23.63333,61
23.64167,61
23.65000,61
23.65833,61
23.66667,61
23.67500,61
23.68333,62
23.69167,62
23.70000,62
23.70833,63
23.71667,63
23.72500,63
23.73333,63
23.74167,63
23.75000,63
23.75833,64
23.76667,64
23.77500,64
23.78333,64
23.79167,65
23.80000,65
23.80833,65
23.81667,66
23.82500,66
23.83333,66
23.84167,66
23.85000,67
23.85833,67
23.86667,67
23.87500,68
23.88333,68
23.89167,68
23.90000,68
23.90833,67
23.91667,67
23.92500,67
23.93333,67
23.94167,67
23.95000,67
23.95833,66
23.96667,66
23.97500,66
23.98333,66
23.99167,66
24.00000,66
24.00833,66
24.01667,65
24.02500,65
24.03333,65
24.04167,64
24.05000,64
24.05833,64
24.06667,63
24.07500,62
24.08333,62
24.09167,62
24.10000,61
24.10833,61
24.11667,60
24.12500,60
24.13333,59
24.14167,59
24.15000,58
24.15833,58
24.16667,58
24.17500,57
24.18333,57
24.19167,57
24.20000,56
24.20833,56
24.21667,57
24.22500,56
24.23333,56
24.24167,55
24.25000,55
24.25833,55
24.26667,55
24.27500,55
24.28333,55
24.29167,55
24.30000,55
24.30833,55
24.31667,55
24.32500,55
24.33333,56
24.34167,56
24.35000,56
24.35833,57
24.36667,58
24.37500,59
24.38333,61
24.39167,62
24.40000,64
24.40833,67
24.41667,69
24.42500,72
24.43333,75
24.44167,79
24.45000,82
24.45833,86
24.46667,90
24.47500,95
24.48333,101
24.49167,107
24.50000,114
24.50833,122
24.51667,130
24.52500,138
24.53333,148
24.54167,159
24.55000,171
24.55833,184
24.56667,199
24.57500,215
24.58333,232
24.59167,250
24.60000,270
24.60833,292
24.61667,316
24.62500,342
24.63333,369
24.64167,398
24.65000,430
24.65833,463
24.66667,498
24.67500,536
24.68333,576
24.69167,617
24.70000,661
24.70833,708
24.71667,756
24.72500,807
24.73333,860
24.74167,914
24.75000,971
24.75833,1029
24.76667,1089
24.77500,1151
24.78333,1214
24.79167,1278
24.80000,1344
24.80833,1410
24.81667,1477
24.82500,1543
24.83333,1610
24.84167,1676
24.85000,1742
24.85833,1808
24.86667,1872
24.87500,1935
24.88333,1996
24.89167,2055
24.90000,2112
24.90833,2166
24.91667,2217
24.92500,2266
24.93333,2311
24.94167,2353
24.95000,2391
24.95833,2425
24.96667,2455
24.97500,2481
24.98333,2501
24.99167,2518
25.00000,2531
25.00833,2538
25.01667,2542
25.02500,2540
25.03333,2534
25.04167,2524
25.05000,2509
25.05833,2490
25.06667,2467
25.07500,2440
25.08333,2409
25.09167,2374
25.10000,2336
25.10833,2294
25.11667,2250
25.12500,2203
25.13333,2154
25.14167,2102
25.15000,2049
25.15833,1993
25.16667,1937
25.17500,1878
25.18333,1819
25.19167,1759
25.20000,1699
25.20833,1638
25.21667,1577
25.22500,1516
25.23333,1456
25.24167,1397
25.25000,1338
25.25833,1280
25.26667,1223
25.27500,1167
25.28333,1112
25.29167,1059
25.30000,1007
25.30833,957
25.31667,908
25.32500,860
25.33333,815
25.34167,771
25.35000,729
25.35833,688
25.36667,650
25.37500,613
25.38333,578
25.39167,545
25.40000,513
25.40833,483
25.41667,454
25.42500,427
25.43333,402
25.44167,378
25.45000,355
25.45833,334
25.46667,315
25.47500,296
25.48333,279
25.49167,263
25.50000,248
25.50833,234
25.51667,221
25.52500,209
25.53333,198
25.54167,188
25.55000,179
25.55833,170
25.56667,162
25.57500,154
25.58333,147
25.59167,141
25.60000,136
25.60833,131
25.61667,127
25.62500,122
25.63333,119
25.64167,115
25.65000,112
25.65833,109
25.66667,107
25.67500,105
25.68333,103
25.69167,102
25.70000,100
25.70833,99
25.71667,99
25.72500,98
25.73333,98
25.74167,97
25.75000,97
25.75833,97
25.76667,97
25.77500,96
25.78333,96
25.79167,97
25.80000,97
25.80833,97
25.81667,97
25.82500,97
25.83333,98
25.84167,98
25.85000,99
25.85833,99
25.86667,99
25.87500,99
25.88333,99
25.89167,99
25.90000,99
25.90833,100
25.91667,99
25.92500,99
25.93333,99
25.94167,99
25.95000,98
25.95833,98
25.96667,98
25.97500,98
25.98333,98
25.99167,98
26.00000,97
26.00833,97
26.01667,96
26.02500,96
26.03333,95
26.04167,94
26.05000,94
26.05833,93
26.06667,93
26.07500,93
26.08333,92
26.09167,91
26.10000,91
26.10833,90
26.11667,89
26.12500,88
26.13333,88
26.14167,87
26.15000,86
26.15833,86
26.16667,85
26.17500,85
26.18333,85
26.19167,84
26.20000,84
26.20833,83
26.21667,83
26.22500,82
26.23333,81
26.24167,81
26.25000,81
26.25833,80
26.26667,80
26.27500,79
26.28333,79
26.29167,79
26.30000,79
26.30833,79
26.31667,79
26.32500,78
26.33333,78
26.34167,78
26.35000,78
26.35833,78
26.36667,78
26.37500,78
26.38333,78
26.39167,78
26.40000,78
26.40833,78
26.41667,78
26.42500,78
26.43333,78
26.44167,78
26.45000,78
26.45833,78
26.46667,78
26.47500,78
26.48333,79
26.49167,79
26.50000,79
26.50833,79
26.51667,79
26.52500,79
26.53333,79
26.54167,79
26.55000,79
26.55833,79
26.56667,80
26.57500,80
26.58333,81
26.59167,81
26.60000,81
26.60833,81
26.61667,81
26.62500,81
26.63333,81
26.64167,81
26.65000,81
26.65833,82
26.66667,82
26.67500,82
26.68333,82
26.69167,81
26.70000,81
26.70833,81
26.71667,81
26.72500,81
26.73333,81
26.74167,80
26.75000,80
26.75833,80
26.76667,80
26.77500,80
26.78333,80
26.79167,80
26.80000,79
26.80833,79
26.81667,78
26.82500,78
26.83333,77
26.84167,77
26.85000,76
26.85833,76
26.86667,76
26.87500,75
26.88333,75
26.89167,74
26.90000,73
26.90833,73
26.91667,72
26.92500,72
26.93333,71
26.94167,71
26.95000,71
26.95833,70
26.96667,69
26.97500,68
26.98333,67
26.99167,66
27.00000,65
27.00833,64
27.01667,64
27.02500,63
27.03333,62
27.04167,62
27.05000,61
27.05833,60
27.06667,60
27.07500,59
27.08333,59
27.09167,58
27.10000,58
27.10833,58
27.11667,57
27.12500,57
27.13333,56
27.14167,56
27.15000,56
27.15833,56
27.16667,56
27.17500,56
27.18333,56
27.19167,55
27.20000,55
27.20833,55
27.21667,55
27.22500,55
27.23333,55
27.24167,55
27.25000,55
27.25833,55
27.26667,55
27.27500,55
27.28333,56
27.29167,56
27.30000,56
27.30833,56
27.31667,57
27.32500,57
27.33333,58
27.34167,58
27.35000,58
27.35833,59
27.36667,59
27.37500,59
27.38333,60
27.39167,60
27.40000,61
27.40833,61
27.41667,62
27.42500,62
27.43333,63
27.44167,63
27.45000,63
27.45833,64
27.46667,64
27.47500,65
27.48333,65
27.49167,66
27.50000,67
27.50833,67
27.51667,67
27.52500,68
27.53333,68
27.54167,68
27.55000,68
27.55833,68
27.56667,68
27.57500,69
27.58333,69
27.59167,69
27.60000,69
27.60833,69
27.61667,69
27.62500,70
27.63333,70
27.64167,70
27.65000,70
27.65833,70
27.66667,70
27.67500,70
27.68333,70
27.69167,70
27.70000,70
27.70833,70
27.71667,70
27.72500,69
27.73333,68
27.74167,68
27.75000,68
27.75833,68
27.76667,67
27.77500,67
27.78333,66
27.79167,66
27.80000,65
27.80833,65
27.81667,65
27.82500,64
27.83333,64
27.84167,63
27.85000,63
27.85833,62
27.86667,61
27.87500,60
27.88333,58
27.89167,57
27.90000,56
27.90833,55
27.91667,54
27.92500,53
27.93333,51
27.94167,50
27.95000,49
27.95833,47
27.96667,46
27.97500,44
27.98333,42
27.99167,40
28.00000,38
28.00833,36
28.01667,34
28.02500,32
28.03333,29
28.04167,27
28.05000,25
28.05833,23
28.06667,21
28.07500,18
28.08333,16
28.09167,13
28.10000,10
28.10833,7
28.11667,4
28.12500,0
28.13333,-3
28.14167,-6
28.15000,-9
28.15833,-12
28.16667,-15
28.17500,-19
28.18333,-22
28.19167,-25
28.20000,-28
28.20833,-32
28.21667,-35
28.22500,-38
28.23333,-40
28.24167,-43
28.25000,-45
28.25833,-48
28.26667,-51
28.27500,-53
28.28333,-56
28.29167,-58
28.30000,-60
28.30833,-62
28.31667,-63
28.32500,-65
28.33333,-67
28.34167,-69
28.35000,-70
28.35833,-72
28.36667,-73
28.37500,-74
28.38333,-75
28.39167,-76
28.40000,-76
28.40833,-76
28.41667,-76
28.42500,-76
28.43333,-75
28.44167,-75
28.45000,-74
28.45833,-73
28.46667,-72
28.47500,-71
28.48333,-70
28.49167,-69
28.50000,-67
28.50833,-65
28.51667,-63
28.52500,-60
28.53333,-58
28.54167,-56
28.55000,-54
28.55833,-52
28.56667,-50
28.57500,-47
28.58333,-44
28.59167,-41
28.60000,-38
28.60833,-35
28.61667,-32
28.62500,-29
28.63333,-27
28.64167,-24
28.65000,-21
28.65833,-18
28.66667,-15
28.67500,-13
28.68333,-10
28.69167,-7
28.70000,-3
28.70833,-0
28.71667,3
28.72500,6
28.73333,8
28.74167,11
28.75000,14
28.75833,17
28.76667,20
28.77500,23
28.78333,25
28.79167,27
28.80000,29
28.80833,32
28.81667,34
28.82500,36
28.83333,38
28.84167,40
28.85000,42
28.85833,44
28.86667,46
28.87500,48
28.88333,49
28.89167,50
28.90000,52
28.90833,53
28.91667,55
28.92500,57
28.93333,58
28.94167,59
28.95000,61
28.95833,62
28.96667,63
28.97500,64
28.98333,65
28.99167,66
29.00000,67
29.00833,67
29.01667,68
29.02500,69
29.03333,70
29.04167,70
29.05000,71
29.05833,72
29.06667,72
29.07500,73
29.08333,73
29.09167,74
29.10000,75
29.10833,75
29.11667,76
29.12500,76
29.13333,76
29.14167,76
29.15000,76
29.15833,76
29.16667,76
29.17500,76
29.18333,76
29.19167,75
29.20000,75
29.20833,75
29.21667,75
29.22500,74
29.23333,74
29.24167,73
29.25000,73
29.25833,72
29.26667,72
29.27500,71
29.28333,71
29.29167,71
29.30000,70
29.30833,69
29.31667,69
29.32500,68
29.33333,68
29.34167,67
29.35000,66
29.35833,65
29.36667,65
29.37500,64
29.38333,63
29.39167,62
29.40000,62
29.40833,61
29.41667,61
29.42500,60
29.43333,59
29.44167,58
29.45000,57
29.45833,56
29.46667,55
29.47500,55
29.48333,54
29.49167,53
29.50000,53
29.50833,52
29.51667,51
29.52500,50
29.53333,50
29.54167,49
29.55000,48
29.55833,48
29.56667,47
29.57500,47
29.58333,46
29.59167,46
29.60000,45
29.60833,45
29.61667,44
29.62500,44
29.63333,43
29.64167,43
29.65000,42
29.65833,42
29.66667,41
29.67500,41
29.68333,40
29.69167,40
29.70000,40
29.70833,39
29.71667,39
29.72500,38
29.73333,38
29.74167,37
29.75000,37
29.75833,36
29.76667,35
29.77500,35
29.78333,34
29.79167,33
29.80000,32
29.80833,31
29.81667,30
29.82500,30
29.83333,29
29.84167,28
29.85000,27
29.85833,26
29.86667,25
29.87500,24
29.88333,23
29.89167,22
29.90000,21
29.90833,21
29.91667,20
29.92500,20
29.93333,19
29.94167,17
29.95000,16
29.95833,15
29.96667,14
29.97500,13
29.98333,12
29.99167,11
30.00000,10
30.00833,9
30.01667,8
30.02500,7
30.03333,7
30.04167,6
30.05000,5
30.05833,4
30.06667,4
30.07500,3
30.08333,2
30.09167,2
30.10000,2
30.10833,1
30.11667,1
30.12500,1
30.13333,1
30.14167,1
30.15000,2
30.15833,2
30.16667,2
30.17500,2
30.18333,3
30.19167,3
30.20000,4
30.20833,4
30.21667,5
30.22500,6
30.23333,6
30.24167,7
30.25000,8
30.25833,8
30.26667,10
30.27500,11
30.28333,12
30.29167,13
30.30000,14
30.30833,15
30.31667,17
30.32500,18
30.33333,19
30.34167,21
30.35000,23
30.35833,25
30.36667,26
30.37500,28
30.38333,30
30.39167,31
30.40000,33
30.40833,34
30.41667,35
30.42500,37
30.43333,39
30.44167,40
30.45000,41
30.45833,43
30.46667,45
30.47500,46
30.48333,48
30.49167,49
30.50000,50
30.50833,51
30.51667,52
30.52500,53
30.53333,54
30.54167,55
30.55000,56
30.55833,57
30.56667,57
30.57500,58
30.58333,59
30.59167,60
30.60000,60
30.60833,61
30.61667,62
30.62500,62
30.63333,63
30.64167,63
30.65000,63
30.65833,64
30.66667,64
30.67500,64
30.68333,65
30.69167,65
30.70000,65
30.70833,65
30.71667,66
30.72500,66
30.73333,66
30.74167,67
30.75000,67
30.75833,67
30.76667,67
30.77500,67
30.78333,67
30.79167,67
30.80000,68
30.80833,68
30.81667,68
30.82500,68
30.83333,69
30.84167,69
30.85000,69
30.85833,69
30.86667,69
30.87500,69
30.88333,69
30.89167,69
30.90000,69
30.90833,70
30.91667,70
30.92500,70
30.93333,70
30.94167,70
30.95000,70
30.95833,71
30.96667,71
30.97500,71
30.98333,71
30.99167,70
31.00000,70
31.00833,70
31.01667,70
31.02500,70
31.03333,70
31.04167,69
31.05000,69
31.05833,68
31.06667,68
31.07500,68
31.08333,68
31.09167,68
31.10000,68
31.10833,67
31.11667,67
31.12500,67
31.13333,67
31.14167,67
31.15000,66
31.15833,66
31.16667,66
31.17500,65
31.18333,65
31.19167,65
31.20000,65
31.20833,65
31.21667,65
31.22500,65
31.23333,65
31.24167,65
31.25000,65
31.25833,65
31.26667,65
31.27500,65
31.28333,65
31.29167,65
31.30000,65
31.30833,64
31.31667,65
31.32500,65
31.33333,65
31.34167,65
31.35000,64
31.35833,64
31.36667,64
31.37500,64
31.38333,63
31.39167,63
31.40000,64
31.40833,64
31.41667,64
31.42500,64
31.43333,64
31.44167,64
31.45000,65
31.45833,65
31.46667,65
31.47500,65
31.48333,66
31.49167,66
31.50000,66
31.50833,66
31.51667,66
31.52500,66
31.53333,66
31.54167,66
31.55000,65
31.55833,65
31.56667,65
31.57500,64
31.58333,64
31.59167,64
31.60000,64
31.60833,64
31.61667,64
31.62500,64
31.63333,64
31.64167,64
31.65000,63
31.65833,63
31.66667,62
31.67500,62
31.68333,61
31.69167,61
31.70000,61
31.70833,60
31.71667,60
31.72500,60
31.73333,60
31.74167,59
31.75000,58
31.75833,58
31.76667,58
31.77500,58
31.78333,58
31.79167,58
31.80000,58
31.80833,58
31.81667,58
31.82500,57
31.83333,57
31.84167,57
31.85000,57
31.85833,57
31.86667,57
31.87500,57
31.88333,57
31.89167,57
31.90000,57
31.90833,57
31.91667,57
31.92500,57
31.93333,57
31.94167,57
31.95000,57
31.95833,58
31.96667,58
31.97500,59
31.98333,59
31.99167,60
32.00000,61
32.00833,61
32.01667,62
32.02500,62
32.03333,62
32.04167,63
32.05000,63
32.05833,63
32.06667,63
32.07500,64
32.08333,64
32.09167,65
32.10000,65
32.10833,65
32.11667,65
32.12500,66
32.13333,66
32.14167,66
32.15000,66
32.15833,66
32.16667,66
32.17500,67
32.18333,67
32.19167,67
32.20000,67
32.20833,68
32.21667,68
32.22500,68
32.23333,68
32.24167,68
32.25000,68
32.25833,68
32.26667,68
32.27500,67
32.28333,67
32.29167,67
32.30000,67
32.30833,67
32.31667,66
32.32500,66
32.33333,66
32.34167,65
32.35000,64
32.35833,64
32.36667,64
32.37500,64
32.38333,63
32.39167,63
32.40000,63
32.40833,62
32.41667,62
32.42500,62
32.43333,62
32.44167,62
32.45000,62
32.45833,62
32.46667,62
32.47500,61
32.48333,61
32.49167,61
32.50000,61
32.50833,61
32.51667,61
32.52500,61
32.53333,62
32.54167,62
32.55000,62
32.55833,62
32.56667,62
32.57500,62
32.58333,62
32.59167,62
32.60000,62
32.60833,62
32.61667,62
32.62500,62
32.63333,62
32.64167,62
32.65000,62
32.65833,63
32.66667,63
32.67500,63
32.68333,63
32.69167,63
32.70000,63
32.70833,62
32.71667,63
32.72500,62
32.73333,62
32.74167,62
32.75000,62
32.75833,62
32.76667,62
32.77500,62
32.78333,61
32.79167,61
32.80000,61
32.80833,60
32.81667,60
32.82500,59
32.83333,59
32.84167,58
32.85000,58
32.85833,58
32.86667,57
32.87500,57
32.88333,56
32.89167,56
32.90000,56
32.90833,56
32.91667,56
32.92500,55
32.93333,54
32.94167,53
32.95000,53
32.95833,52
32.96667,52
32.97500,51
32.98333,51
32.99167,51
33.00000,51
33.00833,51
33.01667,50
33.02500,50
33.03333,50
33.04167,49
33.05000,49
33.05833,48
33.06667,48
33.07500,48
33.08333,48
33.09167,47
33.10000,47
33.10833,47
33.11667,47
33.12500,47
33.13333,47
33.14167,47
33.15000,47
33.15833,47
33.16667,47
33.17500,48
33.18333,48
33.19167,48
33.20000,49
33.20833,49
33.21667,49
33.22500,49
33.23333,49
33.24167,49
33.25000,49
33.25833,49
33.26667,49
33.27500,49
33.28333,49
33.29167,50
33.30000,50
33.30833,50
33.31667,51
33.32500,51
33.33333,52
33.34167,52
33.35000,53
33.35833,53
33.36667,53
33.37500,53
33.38333,54
33.39167,54
33.40000,54
33.40833,55
33.41667,55
33.42500,56
33.43333,56
33.44167,57
33.45000,58
33.45833,58
33.46667,59
33.47500,60
33.48333,60
33.49167,60
33.50000,60
33.50833,60
33.51667,60
33.52500,61
33.53333,61
33.54167,61
33.55000,61
33.55833,61
33.56667,61
33.57500,62
33.58333,62
33.59167,63
33.60000,63
33.60833,63
33.61667,63
33.62500,63
33.63333,63
33.64167,63
33.65000,63
33.65833,63
33.66667,63
33.67500,63
33.68333,63
33.69167,63
33.70000,63
33.70833,63
33.71667,63
33.72500,63
33.73333,63
33.74167,63
33.75000,63
33.75833,63
33.76667,62
33.77500,62
33.78333,62
33.79167,62
33.80000,61
33.80833,61
33.81667,62
33.82500,62
33.83333,62
33.84167,63
33.85000,63
33.85833,63
33.86667,63
33.87500,63
33.88333,63
33.89167,63
33.90000,64
33.90833,64
33.91667,64
33.92500,65
33.93333,65
33.94167,65
33.95000,65
33.95833,66
33.96667,66
33.97500,66
33.98333,66
33.99167,66
34.00000,66
34.00833,66
34.01667,66
34.02500,67
34.03333,67
34.04167,67
34.05000,67
34.05833,67
34.06667,67
34.07500,67
34.08333,68
34.09167,68
34.10000,68
34.10833,68
34.11667,68
34.12500,68
34.13333,68
34.14167,68
34.15000,69
34.15833,69
34.16667,69
34.17500,69
34.18333,69
34.19167,69
34.20000,68
34.20833,68
34.21667,68
34.22500,68
34.23333,67
34.24167,67
34.25000,67
34.25833,67
34.26667,67
34.27500,67
34.28333,66
34.29167,66
34.30000,66
34.30833,66
34.31667,66
34.32500,66
34.33333,66
34.34167,65
34.35000,65
34.35833,66
34.36667,66
34.37500,65
34.38333,65
34.39167,65
34.40000,65
34.40833,65
34.41667,65
34.42500,65
34.43333,64
34.44167,64
34.45000,64
34.45833,64
34.46667,64
34.47500,63
34.48333,63
34.49167,63
34.50000,62
34.50833,62
34.51667,62
34.52500,62
34.53333,62
34.54167,62
34.55000,62
34.55833,61
34.56667,62
34.57500,62
34.58333,62
34.59167,61
34.60000,61
34.60833,61
34.61667,61
34.62500,61
34.63333,60
34.64167,60
34.65000,60
34.65833,60
34.66667,60
34.67500,61
34.68333,61
34.69167,61
34.70000,61
34.70833,61
34.71667,61
34.72500,61
34.73333,61
34.74167,62
34.75000,62
34.75833,62
34.76667,62
34.77500,63
34.78333,63
34.79167,64
34.80000,64
34.80833,64
34.81667,64
34.82500,64
34.83333,64
34.84167,64
34.85000,64
34.85833,64
34.86667,65
34.87500,65
34.88333,65
34.89167,65
34.90000,66
34.90833,66
34.91667,66
34.92500,67
34.93333,67
34.94167,67
34.95000,67
34.95833,67
34.96667,67
34.97500,67
34.98333,67
34.99167,68
35.00000,68
35.00833,68
35.01667,69
35.02500,69
35.03333,70
35.04167,70
35.05000,70
35.05833,70
35.06667,69
35.07500,69
35.08333,69
35.09167,69
35.10000,69
35.10833,69
35.11667,69
35.12500,68
35.13333,68
35.14167,68
35.15000,68
35.15833,67
35.16667,67
35.17500,66
35.18333,66
35.19167,65
35.20000,65
35.20833,64
35.21667,64
35.22500,63
35.23333,62
35.24167,62
35.25000,61
35.25833,61
35.26667,60
35.27500,60
35.28333,60
35.29167,59
35.30000,58
35.30833,58
35.31667,57
35.32500,57
35.33333,57
35.34167,57
35.35000,56
35.35833,56
35.36667,56
35.37500,56
35.38333,55
35.39167,55
35.40000,55
35.40833,55
35.41667,55
35.42500,55
35.43333,54
35.44167,54
35.45000,54
35.45833,54
35.46667,54
35.47500,54
35.48333,54
35.49167,54
35.50000,54
35.50833,54
35.51667,54
35.52500,54
35.53333,55
35.54167,55
35.55000,55
35.55833,55
35.56667,56
35.57500,57
35.58333,57
35.59167,58
35.60000,58
35.60833,58
35.61667,59
35.62500,59
35.63333,59
35.64167,59
35.65000,59
35.65833,60
35.66667,60
35.67500,61
35.68333,62
35.69167,62
35.70000,62
35.70833,63
35.71667,64
35.72500,64
35.73333,64
35.74167,64
35.75000,64
35.75833,64
35.76667,64
35.77500,65
35.78333,65
35.79167,65
35.80000,66
35.80833,66
35.81667,66
35.82500,67
35.83333,67
35.84167,68
35.85000,68
35.85833,68
35.86667,68
35.87500,68
35.88333,69
35.89167,69
35.90000,69
35.90833,69
35.91667,69
35.92500,70
35.93333,70
35.94167,70
35.95000,71
35.95833,71
35.96667,72
35.97500,72
35.98333,73
35.99167,73
36.00000,73
36.00833,73
36.01667,73
36.02500,74
36.03333,74
36.04167,74
36.05000,74
36.05833,75
36.06667,76
36.07500,76
36.08333,76
36.09167,76
36.10000,76
36.10833,76
36.11667,75
36.12500,75
36.13333,75
36.14167,75
36.15000,75
36.15833,74
36.16667,74
36.17500,74
36.18333,74
36.19167,74
36.20000,74
36.20833,74
36.21667,73
36.22500,73
36.23333,72
36.24167,72
36.25000,72
36.25833,72
36.26667,71
36.27500,71
36.28333,70
36.29167,69
36.30000,68
36.30833,67
36.31667,66
36.32500,65
36.33333,65
36.34167,64
36.35000,64
36.35833,63
36.36667,62
36.37500,62
36.38333,61
36.39167,61
36.40000,60
36.40833,59
36.41667,58
36.42500,58
36.43333,57
36.44167,57
36.45000,56
36.45833,56
36.46667,56
36.47500,55
36.48333,55
36.49167,55
36.50000,55
36.50833,54
36.51667,54
36.52500,54
36.53333,55
36.54167,55
36.55000,55
36.55833,55
36.56667,55
36.57500,55
36.58333,55
36.59167,55
36.60000,55
36.60833,56
36.61667,56
36.62500,57
36.63333,57
36.64167,58
36.65000,58
36.65833,58
36.66667,59
36.67500,60
36.68333,61
36.69167,61
36.70000,62
36.70833,62
36.71667,63
36.72500,63
36.73333,63
36.74167,63
36.75000,63
36.75833,64
36.76667,65
36.77500,65
36.78333,66
36.79167,66
36.80000,67
36.80833,67
36.81667,68
36.82500,68
36.83333,68
36.84167,69
36.85000,70
36.85833,70
36.86667,70
36.87500,71
36.88333,71
36.89167,71
36.90000,71
36.90833,71
36.91667,72
36.92500,72
36.93333,73
36.94167,73
36.95000,74
36.95833,74
36.96667,75
36.97500,75
36.98333,76
36.99167,76
37.00000,76
37.00833,76
37.01667,77
37.02500,77
37.03333,78
37.04167,78
37.05000,78
37.05833,79
37.06667,79
37.07500,79
37.08333,79
37.09167,80
37.10000,80
37.10833,80
37.11667,80
37.12500,80
37.13333,80
37.14167,80
37.15000,80
37.15833,81
37.16667,81
37.17500,81
37.18333,81
37.19167,81
37.20000,81
37.20833,81
37.21667,81
37.22500,81
37.23333,81
37.24167,80
37.25000,80
37.25833,79
37.26667,79
37.27500,79
37.28333,78
37.29167,78
37.30000,78
37.30833,77
37.31667,77
37.32500,76
37.33333,76
37.34167,75
37.35000,75
37.35833,74
37.36667,73
37.37500,73
37.38333,72
37.39167,72
37.40000,71
37.40833,71
37.41667,71
37.42500,71
37.43333,70
37.44167,70
37.45000,69
37.45833,69
37.46667,69
37.47500,69
37.48333,68
37.49167,68
37.50000,68
37.50833,68
37.51667,67
37.52500,67
37.53333,67
37.54167,67
37.55000,67
37.55833,67
37.56667,67
37.57500,66
37.58333,67
37.59167,67
37.60000,67
37.60833,68
37.61667,68
37.62500,68
37.63333,68
37.64167,68
37.65000,68
37.65833,68
37.66667,69
37.67500,69
37.68333,69
37.69167,68
37.70000,69
37.70833,69
37.71667,69
37.72500,69
37.73333,69
37.74167,69
37.75000,69
37.75833,69
37.76667,69
37.77500,69
37.78333,69
37.79167,69
37.80000,70
37.80833,70
37.81667,70
37.82500,70
37.83333,70
37.84167,70
37.85000,69
37.85833,69
37.86667,69
37.87500,69
37.88333,69
37.89167,69
37.90000,68
37.90833,68
37.91667,68
37.92500,68
37.93333,67
37.94167,67
37.95000,67
37.95833,66
37.96667,66
37.97500,66
37.98333,65
37.99167,65
38.00000,64
38.00833,64
38.01667,64
38.02500,63
38.03333,63
38.04167,63
38.05000,62
38.05833,62
38.06667,61
38.07500,61
38.08333,61
38.09167,61
38.10000,60
38.10833,60
38.11667,60
38.12500,59
38.13333,59
38.14167,59
38.15000,60
38.15833,60
38.16667,60
38.17500,60
38.18333,60
38.19167,60
38.20000,61
38.20833,61
38.21667,61
38.22500,62
38.23333,61
38.24167,62
38.25000,62
38.25833,63
38.26667,63
38.27500,64
38.28333,65
38.29167,65
38.30000,66
38.30833,67
38.31667,67
38.32500,67
38.33333,68
38.34167,68
38.35000,69
38.35833,70
38.36667,70
38.37500,71
38.38333,71
38.39167,71
38.40000,72
38.40833,72
38.41667,73
38.42500,73
38.43333,74
38.44167,74
38.45000,75
38.45833,76
38.46667,76
38.47500,77
38.48333,77
38.49167,77
38.50000,77
38.50833,78
38.51667,78
38.52500,78
38.53333,78
38.54167,78
38.55000,78
38.55833,78
38.56667,79
38.57500,79
38.58333,79
38.59167,79
38.60000,79
38.60833,79
38.61667,78
38.62500,78
38.63333,79
38.64167,78
38.65000,78
38.65833,78
38.66667,77
38.67500,77
38.68333,76
38.69167,76
38.70000,76
38.70833,76
38.71667,76
38.72500,75
38.73333,74
38.74167,73
38.75000,72
38.75833,72
38.76667,71
38.77500,71
38.78333,70
38.79167,69
38.80000,69
38.80833,68
38.81667,67
38.82500,67
38.83333,66
38.84167,65
38.85000,64
38.85833,63
38.86667,62
38.87500,61
38.88333,60
38.89167,59
38.90000,58
38.90833,57
38.91667,57
38.92500,56
38.93333,55
38.94167,55
38.95000,54
38.95833,53
38.96667,53
38.97500,52
38.98333,51
38.99167,51
39.00000,50
39.00833,50
39.01667,50
39.02500,49
39.03333,49
39.04167,48
39.05000,48
39.05833,47
39.06667,47
39.07500,47
39.08333,47
39.09167,47
39.10000,47
39.10833,46
39.11667,46
39.12500,46
39.13333,46
39.14167,46
39.15000,47
39.15833,47
39.16667,47
39.17500,48
39.18333,48
39.19167,49
39.20000,49
39.20833,50
39.21667,50
39.22500,51
39.23333,52
39.24167,53
39.25000,54
39.25833,54
39.26667,55
39.27500,56
39.28333,57
39.29167,58
39.30000,59
39.30833,60
39.31667,61
39.32500,62
39.33333,64
39.34167,65
39.35000,66
39.35833,67
39.36667,68
39.37500,69
39.38333,70
39.39167,72
39.40000,73
39.40833,73
39.41667,74
39.42500,75
39.43333,76
39.44167,77
39.45000,78
39.45833,79
39.46667,80
39.47500,80
39.48333,81
39.49167,83
39.50000,84
39.50833,85
39.51667,86
39.52500,87
39.53333,87
39.54167,88
39.55000,88
39.55833,89
39.56667,89
39.57500,90
39.58333,90
39.59167,90
39.60000,91
39.60833,91
39.61667,92
39.62500,92
39.63333,92
39.64167,92
39.65000,91
39.65833,91
39.66667,91
39.67500,91
39.68333,91
39.69167,91
39.70000,91
39.70833,90
39.71667,90
39.72500,89
39.73333,89
39.74167,89
39.75000,88
39.75833,87
39.76667,86
39.77500,86
39.78333,85
39.79167,84
39.80000,83
39.80833,82
39.81667,81
39.82500,80
39.83333,79
39.84167,78
39.85000,76
39.85833,75
39.86667,74
39.87500,72
39.88333,71
39.89167,70
39.90000,69
39.90833,68
39.91667,66
39.92500,65
39.93333,63
39.94167,62
39.95000,60
39.95833,59
39.96667,57
39.97500,56
39.98333,55
39.99167,54
40.00000,53

