[Header]
Application Name,LabSolutions
Version,5.97 SP1
Data File Name,C:\Users\cremerlab\Desktop\griffin\2021-04-05_NC_DM_calibration\2021-04-05_NC_DM_2.5mM_calibration_452021_003_003.lcd
Output Date,4/5/2021
Output Time,7:05:59 PM

[File Information]
Type,Data File
Generated,4/5/2021 6:25:39 PM
Generated by,System Administrator
Modified,4/5/2021 7:05:59 PM
Modified by,System Administrator

[Sample Information]
Operator Name,System Administrator
Acquired,4/5/2021 6:25:57 PM
Sample Type,1:Standard
Level,3
Sample Name,2021-04-05_NC_glucose_glycerol_acetate_20mM
Sample ID,003
ISTD Amount1,1
ISTD Amount2,1
ISTD Amount3,1
ISTD Amount4,1
ISTD Amount5,1
ISTD Amount6,1
ISTD Amount7,1
ISTD Amount8,1
ISTD Amount9,1
ISTD Amount10,1
ISTD Amount11,1
ISTD Amount12,1
ISTD Amount13,1
ISTD Amount14,1
ISTD Amount15,1
ISTD Amount16,1
ISTD Amount17,1
ISTD Amount18,1
ISTD Amount19,1
ISTD Amount20,1
ISTD Amount21,1
ISTD Amount22,1
ISTD Amount23,1
ISTD Amount24,1
ISTD Amount25,1
ISTD Amount26,1
ISTD Amount27,1
ISTD Amount28,1
ISTD Amount29,1
ISTD Amount30,1
ISTD Amount31,1
ISTD Amount32,1
Sample Amount,1
Dilution Factor,1
Vial#,3
Injection Volume,20

[Original Files]
Data File,C:\Users\cremerlab\Desktop\griffin\2021-04-05_NC_DM_calibration\2021-04-05_NC_DM_2.5mM_calibration_452021_003_003.lcd
Method File,C:\Users\cremerlab\Desktop\griffin\2021-04-05_NC_DM_calibration\2021-04-05_2.5mM_mobile.lcm
Batch File,C:\Users\cremerlab\Desktop\griffin\2021-04-05_NC_DM_calibration\2021-04-05_NC_DM_2.5mM_calibration.lcb
Report Format File,c:\LabSolutions\System\DEFAULT.lsr

[File Description]


[Configuration]
Instrument Name,HPLC-PC-Instrument1
Instrument #,1
Line #,1
# of Detectors,2
Detector ID,Detector A,Detector B
Detector Name,Detector A,Detector B
# of Channels,1,1

[Peak Table(Detector A)]
# of Peaks,0

[Peak Table(Detector B)]
# of Peaks,5
Peak#,R.Time,I.Time,F.Time,Area,Height,A/H,Conc.,Mark,ID#,Name,k',Plate #,Plate Ht.,Tailing,Resolution,Sep.Factor,Area Ratio,Height Ratio,Conc. %,Norm Conc.
1,10.999,10.600,11.967,1364538,80487,16.953,0.000,   ,,,0.000,9486,15.813,0.951,0.000,0.000,0,0,0.000,0.000
2,14.347,12.633,15.083,3552808,80943,43.892,0.000,   ,,,0.304,2867,52.327,0.620,4.395,0.000,0,0,0.000,0.000
3,15.660,15.083,18.458,1888391,76558,24.666,0.000, V ,,,0.424,9570,15.673,1.151,1.534,1.392,0,0,0.000,0.000
4,22.057,21.333,23.342,551179,20082,27.447,0.000,   ,,,1.005,14869,10.088,1.093,9.381,2.372,0,0,0.000,0.000
5,25.015,24.292,26.075,237629,8024,29.614,0.000,   ,,,1.274,16286,9.210,1.071,3.924,1.267,0,0,0.000,0.000

[LC Chromatogram(Detector B-Ch1)]
Interval(msec),500
# of Points,4801
Start Time(min),0.000
End Time(min),40.000
Intensity Units,mV
Intensity Multiplier,0.001
R.Time (min),Intensity
0.00000,-8
0.00833,-8
0.01667,-0
0.02500,-0
0.03333,-0
0.04167,-0
0.05000,-1
0.05833,-1
0.06667,-1
0.07500,-1
0.08333,-1
0.09167,-1
0.10000,-1
0.10833,-1
0.11667,-1
0.12500,-0
0.13333,-0
0.14167,-0
0.15000,-0
0.15833,0
0.16667,0
0.17500,0
0.18333,0
0.19167,1
0.20000,1
0.20833,1
0.21667,1
0.22500,2
0.23333,3
0.24167,3
0.25000,4
0.25833,4
0.26667,3
0.27500,4
0.28333,4
0.29167,4
0.30000,4
0.30833,5
0.31667,5
0.32500,6
0.33333,6
0.34167,7
0.35000,7
0.35833,8
0.36667,8
0.37500,9
0.38333,9
0.39167,9
0.40000,10
0.40833,10
0.41667,10
0.42500,10
0.43333,10
0.44167,10
0.45000,10
0.45833,11
0.46667,11
0.47500,11
0.48333,11
0.49167,12
0.50000,12
0.50833,12
0.51667,12
0.52500,12
0.53333,13
0.54167,13
0.55000,14
0.55833,14
0.56667,14
0.57500,14
0.58333,14
0.59167,14
0.60000,14
0.60833,13
0.61667,13
0.62500,13
0.63333,13
0.64167,12
0.65000,12
0.65833,12
0.66667,11
0.67500,11
0.68333,11
0.69167,11
0.70000,11
0.70833,11
0.71667,11
0.72500,11
0.73333,11
0.74167,11
0.75000,11
0.75833,10
0.76667,10
0.77500,10
0.78333,10
0.79167,10
0.80000,10
0.80833,11
0.81667,11
0.82500,11
0.83333,11
0.84167,11
0.85000,11
0.85833,11
0.86667,10
0.87500,10
0.88333,10
0.89167,10
0.90000,10
0.90833,9
0.91667,9
0.92500,9
0.93333,9
0.94167,9
0.95000,8
0.95833,8
0.96667,8
0.97500,8
0.98333,8
0.99167,8
1.00000,8
1.00833,8
1.01667,9
1.02500,9
1.03333,9
1.04167,9
1.05000,9
1.05833,8
1.06667,8
1.07500,8
1.08333,8
1.09167,8
1.10000,7
1.10833,6
1.11667,6
1.12500,6
1.13333,6
1.14167,6
1.15000,6
1.15833,7
1.16667,7
1.17500,6
1.18333,7
1.19167,7
1.20000,7
1.20833,7
1.21667,7
1.22500,7
1.23333,6
1.24167,6
1.25000,6
1.25833,6
1.26667,6
1.27500,6
1.28333,6
1.29167,6
1.30000,7
1.30833,6
1.31667,6
1.32500,6
1.33333,5
1.34167,5
1.35000,5
1.35833,4
1.36667,4
1.37500,4
1.38333,5
1.39167,5
1.40000,5
1.40833,5
1.41667,6
1.42500,6
1.43333,6
1.44167,6
1.45000,5
1.45833,5
1.46667,5
1.47500,6
1.48333,6
1.49167,6
1.50000,5
1.50833,5
1.51667,5
1.52500,5
1.53333,5
1.54167,5
1.55000,5
1.55833,5
1.56667,5
1.57500,5
1.58333,5
1.59167,5
1.60000,5
1.60833,5
1.61667,6
1.62500,6
1.63333,6
1.64167,6
1.65000,5
1.65833,5
1.66667,6
1.67500,6
1.68333,6
1.69167,6
1.70000,5
1.70833,5
1.71667,5
1.72500,5
1.73333,5
1.74167,6
1.75000,6
1.75833,6
1.76667,6
1.77500,6
1.78333,6
1.79167,6
1.80000,5
1.80833,5
1.81667,5
1.82500,5
1.83333,5
1.84167,5
1.85000,6
1.85833,6
1.86667,6
1.87500,7
1.88333,7
1.89167,7
1.90000,7
1.90833,8
1.91667,8
1.92500,9
1.93333,9
1.94167,9
1.95000,9
1.95833,10
1.96667,10
1.97500,10
1.98333,10
1.99167,10
2.00000,10
2.00833,10
2.01667,11
2.02500,11
2.03333,11
2.04167,12
2.05000,12
2.05833,12
2.06667,12
2.07500,13
2.08333,13
2.09167,13
2.10000,13
2.10833,13
2.11667,13
2.12500,13
2.13333,13
2.14167,13
2.15000,12
2.15833,12
2.16667,12
2.17500,12
2.18333,12
2.19167,13
2.20000,13
2.20833,13
2.21667,13
2.22500,13
2.23333,13
2.24167,13
2.25000,13
2.25833,13
2.26667,13
2.27500,13
2.28333,13
2.29167,12
2.30000,12
2.30833,12
2.31667,11
2.32500,11
2.33333,10
2.34167,10
2.35000,10
2.35833,9
2.36667,9
2.37500,8
2.38333,8
2.39167,7
2.40000,7
2.40833,7
2.41667,7
2.42500,7
2.43333,7
2.44167,7
2.45000,7
2.45833,7
2.46667,6
2.47500,6
2.48333,5
2.49167,5
2.50000,5
2.50833,5
2.51667,5
2.52500,4
2.53333,4
2.54167,4
2.55000,4
2.55833,4
2.56667,4
2.57500,3
2.58333,3
2.59167,3
2.60000,3
2.60833,3
2.61667,3
2.62500,3
2.63333,3
2.64167,3
2.65000,3
2.65833,3
2.66667,3
2.67500,3
2.68333,3
2.69167,3
2.70000,3
2.70833,3
2.71667,3
2.72500,3
2.73333,3
2.74167,3
2.75000,3
2.75833,3
2.76667,2
2.77500,2
2.78333,2
2.79167,2
2.80000,2
2.80833,2
2.81667,3
2.82500,3
2.83333,3
2.84167,3
2.85000,3
2.85833,3
2.86667,3
2.87500,4
2.88333,4
2.89167,4
2.90000,4
2.90833,4
2.91667,4
2.92500,5
2.93333,5
2.94167,5
2.95000,5
2.95833,5
2.96667,6
2.97500,6
2.98333,5
2.99167,6
3.00000,6
3.00833,6
3.01667,6
3.02500,6
3.03333,6
3.04167,7
3.05000,7
3.05833,7
3.06667,7
3.07500,7
3.08333,7
3.09167,8
3.10000,8
3.10833,8
3.11667,9
3.12500,9
3.13333,9
3.14167,10
3.15000,10
3.15833,10
3.16667,10
3.17500,10
3.18333,10
3.19167,10
3.20000,10
3.20833,10
3.21667,10
3.22500,10
3.23333,10
3.24167,10
3.25000,10
3.25833,10
3.26667,11
3.27500,11
3.28333,11
3.29167,11
3.30000,10
3.30833,10
3.31667,10
3.32500,10
3.33333,10
3.34167,10
3.35000,10
3.35833,10
3.36667,10
3.37500,10
3.38333,9
3.39167,9
3.40000,9
3.40833,8
3.41667,8
3.42500,8
3.43333,7
3.44167,7
3.45000,7
3.45833,7
3.46667,7
3.47500,7
3.48333,7
3.49167,7
3.50000,7
3.50833,6
3.51667,6
3.52500,6
3.53333,5
3.54167,5
3.55000,5
3.55833,6
3.56667,6
3.57500,6
3.58333,6
3.59167,6
3.60000,7
3.60833,7
3.61667,7
3.62500,7
3.63333,8
3.64167,8
3.65000,8
3.65833,8
3.66667,8
3.67500,8
3.68333,8
3.69167,8
3.70000,8
3.70833,9
3.71667,9
3.72500,9
3.73333,10
3.74167,10
3.75000,10
3.75833,10
3.76667,11
3.77500,11
3.78333,11
3.79167,11
3.80000,11
3.80833,11
3.81667,12
3.82500,12
3.83333,12
3.84167,13
3.85000,13
3.85833,14
3.86667,14
3.87500,14
3.88333,14
3.89167,14
3.90000,14
3.90833,14
3.91667,14
3.92500,14
3.93333,14
3.94167,15
3.95000,15
3.95833,15
3.96667,14
3.97500,14
3.98333,14
3.99167,15
4.00000,15
4.00833,15
4.01667,15
4.02500,15
4.03333,15
4.04167,15
4.05000,15
4.05833,15
4.06667,14
4.07500,14
4.08333,14
4.09167,14
4.10000,14
4.10833,14
4.11667,13
4.12500,13
4.13333,12
4.14167,13
4.15000,12
4.15833,12
4.16667,12
4.17500,12
4.18333,13
4.19167,13
4.20000,13
4.20833,13
4.21667,12
4.22500,12
4.23333,11
4.24167,11
4.25000,11
4.25833,11
4.26667,11
4.27500,11
4.28333,11
4.29167,11
4.30000,12
4.30833,12
4.31667,12
4.32500,11
4.33333,11
4.34167,11
4.35000,11
4.35833,11
4.36667,11
4.37500,11
4.38333,11
4.39167,12
4.40000,12
4.40833,12
4.41667,12
4.42500,12
4.43333,12
4.44167,12
4.45000,12
4.45833,12
4.46667,12
4.47500,12
4.48333,13
4.49167,13
4.50000,13
4.50833,13
4.51667,14
4.52500,14
4.53333,14
4.54167,14
4.55000,14
4.55833,15
4.56667,15
4.57500,16
4.58333,16
4.59167,16
4.60000,16
4.60833,17
4.61667,17
4.62500,17
4.63333,17
4.64167,16
4.65000,16
4.65833,16
4.66667,16
4.67500,16
4.68333,16
4.69167,16
4.70000,16
4.70833,16
4.71667,16
4.72500,16
4.73333,16
4.74167,16
4.75000,16
4.75833,16
4.76667,16
4.77500,16
4.78333,16
4.79167,16
4.80000,16
4.80833,16
4.81667,16
4.82500,15
4.83333,15
4.84167,15
4.85000,15
4.85833,15
4.86667,15
4.87500,15
4.88333,15
4.89167,15
4.90000,14
4.90833,14
4.91667,14
4.92500,13
4.93333,13
4.94167,13
4.95000,13
4.95833,13
4.96667,13
4.97500,12
4.98333,12
4.99167,12
5.00000,12
5.00833,12
5.01667,11
5.02500,12
5.03333,12
5.04167,12
5.05000,12
5.05833,12
5.06667,12
5.07500,11
5.08333,11
5.09167,11
5.10000,11
5.10833,11
5.11667,11
5.12500,10
5.13333,10
5.14167,10
5.15000,10
5.15833,10
5.16667,10
5.17500,11
5.18333,11
5.19167,11
5.20000,11
5.20833,11
5.21667,11
5.22500,11
5.23333,11
5.24167,11
5.25000,11
5.25833,12
5.26667,12
5.27500,12
5.28333,12
5.29167,12
5.30000,13
5.30833,13
5.31667,13
5.32500,14
5.33333,14
5.34167,14
5.35000,15
5.35833,16
5.36667,16
5.37500,17
5.38333,17
5.39167,17
5.40000,18
5.40833,18
5.41667,18
5.42500,18
5.43333,18
5.44167,18
5.45000,19
5.45833,19
5.46667,20
5.47500,20
5.48333,21
5.49167,21
5.50000,21
5.50833,21
5.51667,21
5.52500,22
5.53333,22
5.54167,22
5.55000,22
5.55833,22
5.56667,23
5.57500,23
5.58333,24
5.59167,24
5.60000,24
5.60833,25
5.61667,25
5.62500,25
5.63333,25
5.64167,25
5.65000,25
5.65833,25
5.66667,25
5.67500,25
5.68333,26
5.69167,26
5.70000,26
5.70833,26
5.71667,26
5.72500,26
5.73333,26
5.74167,26
5.75000,26
5.75833,26
5.76667,25
5.77500,25
5.78333,25
5.79167,25
5.80000,25
5.80833,24
5.81667,24
5.82500,24
5.83333,24
5.84167,24
5.85000,23
5.85833,23
5.86667,22
5.87500,22
5.88333,21
5.89167,21
5.90000,21
5.90833,21
5.91667,21
5.92500,20
5.93333,20
5.94167,19
5.95000,19
5.95833,19
5.96667,18
5.97500,18
5.98333,18
5.99167,17
6.00000,17
6.00833,16
6.01667,16
6.02500,15
6.03333,15
6.04167,14
6.05000,14
6.05833,13
6.06667,13
6.07500,12
6.08333,12
6.09167,12
6.10000,12
6.10833,12
6.11667,12
6.12500,12
6.13333,11
6.14167,11
6.15000,10
6.15833,10
6.16667,10
6.17500,9
6.18333,9
6.19167,9
6.20000,9
6.20833,8
6.21667,8
6.22500,8
6.23333,8
6.24167,7
6.25000,7
6.25833,7
6.26667,6
6.27500,6
6.28333,6
6.29167,6
6.30000,5
6.30833,6
6.31667,5
6.32500,5
6.33333,5
6.34167,5
6.35000,4
6.35833,4
6.36667,4
6.37500,4
6.38333,4
6.39167,3
6.40000,3
6.40833,3
6.41667,3
6.42500,3
6.43333,3
6.44167,3
6.45000,3
6.45833,3
6.46667,4
6.47500,4
6.48333,3
6.49167,3
6.50000,3
6.50833,3
6.51667,3
6.52500,3
6.53333,3
6.54167,4
6.55000,4
6.55833,4
6.56667,4
6.57500,5
6.58333,5
6.59167,4
6.60000,4
6.60833,4
6.61667,4
6.62500,5
6.63333,5
6.64167,5
6.65000,6
6.65833,6
6.66667,6
6.67500,6
6.68333,6
6.69167,7
6.70000,7
6.70833,7
6.71667,8
6.72500,8
6.73333,9
6.74167,9
6.75000,9
6.75833,9
6.76667,9
6.77500,9
6.78333,9
6.79167,10
6.80000,10
6.80833,10
6.81667,11
6.82500,11
6.83333,12
6.84167,12
6.85000,13
6.85833,13
6.86667,13
6.87500,13
6.88333,13
6.89167,13
6.90000,13
6.90833,13
6.91667,14
6.92500,14
6.93333,15
6.94167,15
6.95000,16
6.95833,16
6.96667,17
6.97500,17
6.98333,17
6.99167,17
7.00000,17
7.00833,17
7.01667,17
7.02500,18
7.03333,18
7.04167,18
7.05000,19
7.05833,19
7.06667,19
7.07500,20
7.08333,20
7.09167,20
7.10000,20
7.10833,21
7.11667,21
7.12500,21
7.13333,22
7.14167,22
7.15000,22
7.15833,22
7.16667,22
7.17500,22
7.18333,22
7.19167,23
7.20000,23
7.20833,23
7.21667,23
7.22500,23
7.23333,23
7.24167,23
7.25000,23
7.25833,23
7.26667,23
7.27500,23
7.28333,23
7.29167,23
7.30000,23
7.30833,23
7.31667,23
7.32500,23
7.33333,22
7.34167,22
7.35000,22
7.35833,22
7.36667,21
7.37500,21
7.38333,20
7.39167,20
7.40000,19
7.40833,19
7.41667,19
7.42500,19
7.43333,18
7.44167,18
7.45000,17
7.45833,17
7.46667,17
7.47500,16
7.48333,16
7.49167,15
7.50000,15
7.50833,14
7.51667,14
7.52500,13
7.53333,13
7.54167,12
7.55000,12
7.55833,11
7.56667,11
7.57500,11
7.58333,10
7.59167,10
7.60000,10
7.60833,9
7.61667,9
7.62500,8
7.63333,8
7.64167,8
7.65000,7
7.65833,7
7.66667,7
7.67500,6
7.68333,6
7.69167,5
7.70000,5
7.70833,6
7.71667,6
7.72500,6
7.73333,5
7.74167,5
7.75000,5
7.75833,5
7.76667,5
7.77500,5
7.78333,4
7.79167,4
7.80000,4
7.80833,4
7.81667,4
7.82500,4
7.83333,4
7.84167,4
7.85000,5
7.85833,5
7.86667,5
7.87500,5
7.88333,6
7.89167,6
7.90000,6
7.90833,7
7.91667,7
7.92500,7
7.93333,7
7.94167,7
7.95000,8
7.95833,8
7.96667,8
7.97500,8
7.98333,9
7.99167,9
8.00000,9
8.00833,10
8.01667,10
8.02500,11
8.03333,12
8.04167,12
8.05000,12
8.05833,13
8.06667,13
8.07500,13
8.08333,13
8.09167,14
8.10000,15
8.10833,16
8.11667,16
8.12500,17
8.13333,17
8.14167,17
8.15000,18
8.15833,18
8.16667,18
8.17500,18
8.18333,19
8.19167,19
8.20000,19
8.20833,19
8.21667,19
8.22500,20
8.23333,20
8.24167,21
8.25000,21
8.25833,21
8.26667,22
8.27500,22
8.28333,22
8.29167,23
8.30000,23
8.30833,23
8.31667,23
8.32500,24
8.33333,24
8.34167,24
8.35000,24
8.35833,25
8.36667,25
8.37500,25
8.38333,25
8.39167,25
8.40000,25
8.40833,25
8.41667,25
8.42500,25
8.43333,25
8.44167,25
8.45000,25
8.45833,25
8.46667,25
8.47500,26
8.48333,26
8.49167,26
8.50000,25
8.50833,25
8.51667,25
8.52500,25
8.53333,25
8.54167,25
8.55000,26
8.55833,26
8.56667,26
8.57500,26
8.58333,25
8.59167,25
8.60000,25
8.60833,24
8.61667,24
8.62500,24
8.63333,24
8.64167,24
8.65000,24
8.65833,24
8.66667,24
8.67500,23
8.68333,23
8.69167,23
8.70000,23
8.70833,22
8.71667,22
8.72500,21
8.73333,21
8.74167,21
8.75000,20
8.75833,20
8.76667,19
8.77500,19
8.78333,19
8.79167,18
8.80000,18
8.80833,18
8.81667,18
8.82500,19
8.83333,19
8.84167,18
8.85000,18
8.85833,17
8.86667,17
8.87500,17
8.88333,16
8.89167,16
8.90000,15
8.90833,15
8.91667,14
8.92500,14
8.93333,14
8.94167,14
8.95000,13
8.95833,13
8.96667,13
8.97500,13
8.98333,13
8.99167,13
9.00000,14
9.00833,13
9.01667,13
9.02500,12
9.03333,12
9.04167,11
9.05000,11
9.05833,11
9.06667,11
9.07500,11
9.08333,12
9.09167,12
9.10000,12
9.10833,12
9.11667,12
9.12500,12
9.13333,12
9.14167,12
9.15000,12
9.15833,11
9.16667,11
9.17500,11
9.18333,12
9.19167,12
9.20000,12
9.20833,12
9.21667,13
9.22500,13
9.23333,13
9.24167,14
9.25000,14
9.25833,14
9.26667,14
9.27500,14
9.28333,14
9.29167,14
9.30000,15
9.30833,15
9.31667,15
9.32500,16
9.33333,16
9.34167,16
9.35000,16
9.35833,16
9.36667,17
9.37500,17
9.38333,17
9.39167,17
9.40000,18
9.40833,19
9.41667,19
9.42500,19
9.43333,19
9.44167,19
9.45000,19
9.45833,19
9.46667,19
9.47500,20
9.48333,20
9.49167,20
9.50000,21
9.50833,21
9.51667,21
9.52500,21
9.53333,21
9.54167,21
9.55000,21
9.55833,21
9.56667,21
9.57500,21
9.58333,21
9.59167,20
9.60000,21
9.60833,21
9.61667,21
9.62500,21
9.63333,21
9.64167,21
9.65000,21
9.65833,21
9.66667,22
9.67500,22
9.68333,23
9.69167,23
9.70000,22
9.70833,22
9.71667,22
9.72500,22
9.73333,22
9.74167,22
9.75000,22
9.75833,22
9.76667,23
9.77500,23
9.78333,23
9.79167,23
9.80000,23
9.80833,23
9.81667,23
9.82500,23
9.83333,23
9.84167,23
9.85000,23
9.85833,23
9.86667,23
9.87500,22
9.88333,22
9.89167,23
9.90000,23
9.90833,23
9.91667,23
9.92500,24
9.93333,24
9.94167,24
9.95000,25
9.95833,25
9.96667,26
9.97500,26
9.98333,26
9.99167,26
10.00000,26
10.00833,26
10.01667,26
10.02500,26
10.03333,26
10.04167,26
10.05000,26
10.05833,25
10.06667,25
10.07500,25
10.08333,25
10.09167,25
10.10000,25
10.10833,24
10.11667,24
10.12500,23
10.13333,23
10.14167,23
10.15000,23
10.15833,23
10.16667,23
10.17500,23
10.18333,23
10.19167,22
10.20000,22
10.20833,22
10.21667,22
10.22500,21
10.23333,21
10.24167,20
10.25000,20
10.25833,19
10.26667,19
10.27500,20
10.28333,20
10.29167,19
10.30000,19
10.30833,19
10.31667,19
10.32500,19
10.33333,19
10.34167,19
10.35000,19
10.35833,19
10.36667,19
10.37500,18
10.38333,18
10.39167,17
10.40000,16
10.40833,14
10.41667,11
10.42500,6
10.43333,-1
10.44167,-10
10.45000,-23
10.45833,-39
10.46667,-59
10.47500,-85
10.48333,-118
10.49167,-158
10.50000,-205
10.50833,-261
10.51667,-325
10.52500,-397
10.53333,-475
10.54167,-560
10.55000,-647
10.55833,-734
10.56667,-817
10.57500,-890
10.58333,-949
10.59167,-988
10.60000,-998
10.60833,-974
10.61667,-907
10.62500,-790
10.63333,-617
10.64167,-378
10.65000,-66
10.65833,324
10.66667,800
10.67500,1366
10.68333,2028
10.69167,2790
10.70000,3657
10.70833,4630
10.71667,5713
10.72500,6907
10.73333,8213
10.74167,9632
10.75000,11164
10.75833,12808
10.76667,14564
10.77500,16431
10.78333,18406
10.79167,20487
10.80000,22673
10.80833,24959
10.81667,27342
10.82500,29818
10.83333,32382
10.84167,35029
10.85000,37754
10.85833,40548
10.86667,43403
10.87500,46310
10.88333,49258
10.89167,52232
10.90000,55218
10.90833,58194
10.91667,61139
10.92500,64023
10.93333,66812
10.94167,69466
10.95000,71940
10.95833,74180
10.96667,76130
10.97500,77728
10.98333,78912
10.99167,79626
11.00000,79819
11.00833,79452
11.01667,78502
11.02500,76967
11.03333,74864
11.04167,72230
11.05000,69123
11.05833,65615
11.06667,61790
11.07500,57737
11.08333,53549
11.09167,49312
11.10000,45106
11.10833,41001
11.11667,37054
11.12500,33310
11.13333,29802
11.14167,26550
11.15000,23564
11.15833,20847
11.16667,18393
11.17500,16192
11.18333,14230
11.19167,12490
11.20000,10953
11.20833,9602
11.21667,8418
11.22500,7383
11.23333,6482
11.24167,5697
11.25000,5016
11.25833,4425
11.26667,3913
11.27500,3469
11.28333,3084
11.29167,2751
11.30000,2462
11.30833,2211
11.31667,1993
11.32500,1803
11.33333,1638
11.34167,1493
11.35000,1367
11.35833,1256
11.36667,1158
11.37500,1071
11.38333,995
11.39167,926
11.40000,865
11.40833,810
11.41667,761
11.42500,716
11.43333,675
11.44167,638
11.45000,604
11.45833,573
11.46667,544
11.47500,518
11.48333,493
11.49167,471
11.50000,449
11.50833,430
11.51667,411
11.52500,393
11.53333,377
11.54167,362
11.55000,347
11.55833,334
11.56667,321
11.57500,309
11.58333,297
11.59167,286
11.60000,275
11.60833,266
11.61667,256
11.62500,247
11.63333,239
11.64167,231
11.65000,224
11.65833,218
11.66667,212
11.67500,206
11.68333,201
11.69167,196
11.70000,190
11.70833,186
11.71667,181
11.72500,177
11.73333,173
11.74167,169
11.75000,166
11.75833,163
11.76667,160
11.77500,157
11.78333,155
11.79167,152
11.80000,150
11.80833,149
11.81667,147
11.82500,145
11.83333,143
11.84167,142
11.85000,141
11.85833,140
11.86667,139
11.87500,138
11.88333,138
11.89167,137
11.90000,136
11.90833,136
11.91667,135
11.92500,134
11.93333,133
11.94167,133
11.95000,132
11.95833,132
11.96667,132
11.97500,132
11.98333,131
11.99167,130
12.00000,129
12.00833,129
12.01667,128
12.02500,127
12.03333,127
12.04167,126
12.05000,125
12.05833,125
12.06667,124
12.07500,123
12.08333,123
12.09167,122
12.10000,122
12.10833,121
12.11667,121
12.12500,120
12.13333,120
12.14167,120
12.15000,119
12.15833,119
12.16667,118
12.17500,118
12.18333,118
12.19167,118
12.20000,117
12.20833,117
12.21667,117
12.22500,116
12.23333,116
12.24167,115
12.25000,115
12.25833,115
12.26667,114
12.27500,114
12.28333,114
12.29167,114
12.30000,114
12.30833,113
12.31667,113
12.32500,112
12.33333,112
12.34167,112
12.35000,111
12.35833,111
12.36667,111
12.37500,110
12.38333,110
12.39167,110
12.40000,109
12.40833,109
12.41667,109
12.42500,108
12.43333,108
12.44167,107
12.45000,107
12.45833,106
12.46667,105
12.47500,105
12.48333,104
12.49167,104
12.50000,103
12.50833,103
12.51667,103
12.52500,102
12.53333,102
12.54167,101
12.55000,101
12.55833,100
12.56667,100
12.57500,99
12.58333,99
12.59167,98
12.60000,98
12.60833,98
12.61667,97
12.62500,97
12.63333,97
12.64167,98
12.65000,98
12.65833,99
12.66667,101
12.67500,103
12.68333,105
12.69167,108
12.70000,113
12.70833,119
12.71667,126
12.72500,135
12.73333,145
12.74167,158
12.75000,174
12.75833,192
12.76667,214
12.77500,239
12.78333,269
12.79167,303
12.80000,343
12.80833,386
12.81667,436
12.82500,491
12.83333,552
12.84167,619
12.85000,694
12.85833,774
12.86667,861
12.87500,956
12.88333,1057
12.89167,1166
12.90000,1281
12.90833,1404
12.91667,1534
12.92500,1671
12.93333,1815
12.94167,1965
12.95000,2123
12.95833,2287
12.96667,2457
12.97500,2633
12.98333,2816
12.99167,3004
13.00000,3198
13.00833,3398
13.01667,3603
13.02500,3813
13.03333,4028
13.04167,4248
13.05000,4473
13.05833,4702
13.06667,4936
13.07500,5175
13.08333,5417
13.09167,5663
13.10000,5914
13.10833,6168
13.11667,6425
13.12500,6686
13.13333,6951
13.14167,7220
13.15000,7492
13.15833,7767
13.16667,8046
13.17500,8327
13.18333,8612
13.19167,8899
13.20000,9190
13.20833,9483
13.21667,9780
13.22500,10079
13.23333,10381
13.24167,10686
13.25000,10994
13.25833,11305
13.26667,11618
13.27500,11934
13.28333,12254
13.29167,12575
13.30000,12900
13.30833,13227
13.31667,13557
13.32500,13889
13.33333,14224
13.34167,14562
13.35000,14903
13.35833,15246
13.36667,15592
13.37500,15940
13.38333,16291
13.39167,16644
13.40000,17000
13.40833,17360
13.41667,17723
13.42500,18089
13.43333,18458
13.44167,18829
13.45000,19204
13.45833,19581
13.46667,19961
13.47500,20344
13.48333,20730
13.49167,21119
13.50000,21511
13.50833,21907
13.51667,22305
13.52500,22706
13.53333,23110
13.54167,23518
13.55000,23929
13.55833,24343
13.56667,24760
13.57500,25180
13.58333,25604
13.59167,26031
13.60000,26461
13.60833,26895
13.61667,27332
13.62500,27773
13.63333,28217
13.64167,28664
13.65000,29116
13.65833,29570
13.66667,30029
13.67500,30491
13.68333,30957
13.69167,31426
13.70000,31900
13.70833,32377
13.71667,32857
13.72500,33342
13.73333,33830
13.74167,34322
13.75000,34818
13.75833,35318
13.76667,35822
13.77500,36330
13.78333,36842
13.79167,37359
13.80000,37880
13.80833,38405
13.81667,38934
13.82500,39468
13.83333,40005
13.84167,40547
13.85000,41094
13.85833,41644
13.86667,42200
13.87500,42760
13.88333,43324
13.89167,43894
13.90000,44468
13.90833,45046
13.91667,45630
13.92500,46218
13.93333,46812
13.94167,47410
13.95000,48014
13.95833,48623
13.96667,49236
13.97500,49855
13.98333,50479
13.99167,51109
14.00000,51744
14.00833,52384
14.01667,53029
14.02500,53680
14.03333,54336
14.04167,54998
14.05000,55665
14.05833,56339
14.06667,57018
14.07500,57704
14.08333,58395
14.09167,59093
14.10000,59796
14.10833,60505
14.11667,61221
14.12500,61943
14.13333,62671
14.14167,63406
14.15000,64147
14.15833,64895
14.16667,65650
14.17500,66412
14.18333,67180
14.19167,67955
14.20000,68737
14.20833,69526
14.21667,70321
14.22500,71124
14.23333,71933
14.24167,72749
14.25000,73571
14.25833,74398
14.26667,75227
14.27500,76055
14.28333,76874
14.29167,77676
14.30000,78447
14.30833,79169
14.31667,79819
14.32500,80368
14.33333,80783
14.34167,81025
14.35000,81056
14.35833,80836
14.36667,80326
14.37500,79493
14.38333,78312
14.39167,76764
14.40000,74843
14.40833,72554
14.41667,69916
14.42500,66957
14.43333,63717
14.44167,60246
14.45000,56597
14.45833,52831
14.46667,49010
14.47500,45192
14.48333,41433
14.49167,37784
14.50000,34286
14.50833,30972
14.51667,27869
14.52500,24991
14.53333,22348
14.54167,19940
14.55000,17764
14.55833,15808
14.56667,14062
14.57500,12510
14.58333,11136
14.59167,9924
14.60000,8857
14.60833,7921
14.61667,7099
14.62500,6378
14.63333,5747
14.64167,5193
14.65000,4708
14.65833,4282
14.66667,3907
14.67500,3577
14.68333,3286
14.69167,3028
14.70000,2800
14.70833,2597
14.71667,2417
14.72500,2256
14.73333,2111
14.74167,1981
14.75000,1865
14.75833,1759
14.76667,1664
14.77500,1577
14.78333,1498
14.79167,1427
14.80000,1361
14.80833,1300
14.81667,1244
14.82500,1193
14.83333,1145
14.84167,1101
14.85000,1060
14.85833,1022
14.86667,987
14.87500,954
14.88333,923
14.89167,894
14.90000,866
14.90833,841
14.91667,817
14.92500,796
14.93333,775
14.94167,756
14.95000,738
14.95833,721
14.96667,705
14.97500,690
14.98333,676
14.99167,664
15.00000,652
15.00833,641
15.01667,631
15.02500,622
15.03333,614
15.04167,607
15.05000,601
15.05833,597
15.06667,593
15.07500,590
15.08333,589
15.09167,589
15.10000,591
15.10833,595
15.11667,601
15.12500,609
15.13333,621
15.14167,636
15.15000,655
15.15833,680
15.16667,710
15.17500,748
15.18333,794
15.19167,851
15.20000,919
15.20833,1001
15.21667,1099
15.22500,1217
15.23333,1357
15.24167,1522
15.25000,1715
15.25833,1942
15.26667,2206
15.27500,2513
15.28333,2867
15.29167,3274
15.30000,3740
15.30833,4270
15.31667,4872
15.32500,5550
15.33333,6312
15.34167,7164
15.35000,8110
15.35833,9158
15.36667,10311
15.37500,11575
15.38333,12953
15.39167,14447
15.40000,16060
15.40833,17792
15.41667,19643
15.42500,21610
15.43333,23689
15.44167,25876
15.45000,28163
15.45833,30542
15.46667,33003
15.47500,35534
15.48333,38124
15.49167,40757
15.50000,43419
15.50833,46091
15.51667,48758
15.52500,51400
15.53333,53999
15.54167,56536
15.55000,58992
15.55833,61349
15.56667,63590
15.57500,65697
15.58333,67655
15.59167,69449
15.60000,71066
15.60833,72494
15.61667,73723
15.62500,74745
15.63333,75555
15.64167,76149
15.65000,76524
15.65833,76682
15.66667,76623
15.67500,76353
15.68333,75875
15.69167,75198
15.70000,74331
15.70833,73282
15.71667,72064
15.72500,70688
15.73333,69168
15.74167,67517
15.75000,65749
15.75833,63878
15.76667,61918
15.77500,59884
15.78333,57790
15.79167,55648
15.80000,53473
15.80833,51278
15.81667,49073
15.82500,46872
15.83333,44683
15.84167,42517
15.85000,40382
15.85833,38286
15.86667,36236
15.87500,34238
15.88333,32297
15.89167,30419
15.90000,28607
15.90833,26864
15.91667,25192
15.92500,23592
15.93333,22066
15.94167,20612
15.95000,19233
15.95833,17926
15.96667,16691
15.97500,15526
15.98333,14431
15.99167,13402
16.00000,12437
16.00833,11535
16.01667,10692
16.02500,9907
16.03333,9175
16.04167,8495
16.05000,7864
16.05833,7279
16.06667,6738
16.07500,6237
16.08333,5775
16.09167,5349
16.10000,4957
16.10833,4595
16.11667,4263
16.12500,3958
16.13333,3678
16.14167,3420
16.15000,3184
16.15833,2968
16.16667,2770
16.17500,2588
16.18333,2422
16.19167,2270
16.20000,2131
16.20833,2003
16.21667,1886
16.22500,1779
16.23333,1682
16.24167,1592
16.25000,1510
16.25833,1434
16.26667,1365
16.27500,1301
16.28333,1243
16.29167,1189
16.30000,1140
16.30833,1094
16.31667,1052
16.32500,1013
16.33333,977
16.34167,944
16.35000,913
16.35833,885
16.36667,858
16.37500,833
16.38333,809
16.39167,788
16.40000,768
16.40833,750
16.41667,733
16.42500,716
16.43333,700
16.44167,686
16.45000,673
16.45833,660
16.46667,648
16.47500,636
16.48333,626
16.49167,616
16.50000,606
16.50833,597
16.51667,588
16.52500,579
16.53333,571
16.54167,564
16.55000,557
16.55833,550
16.56667,543
16.57500,537
16.58333,531
16.59167,525
16.60000,519
16.60833,514
16.61667,508
16.62500,503
16.63333,498
16.64167,493
16.65000,488
16.65833,484
16.66667,479
16.67500,475
16.68333,471
16.69167,467
16.70000,463
16.70833,459
16.71667,455
16.72500,452
16.73333,448
16.74167,445
16.75000,441
16.75833,438
16.76667,434
16.77500,431
16.78333,427
16.79167,424
16.80000,421
16.80833,417
16.81667,414
16.82500,411
16.83333,408
16.84167,405
16.85000,401
16.85833,398
16.86667,395
16.87500,392
16.88333,390
16.89167,387
16.90000,384
16.90833,381
16.91667,378
16.92500,375
16.93333,373
16.94167,370
16.95000,367
16.95833,365
16.96667,362
16.97500,359
16.98333,356
16.99167,354
17.00000,351
17.00833,349
17.01667,346
17.02500,344
17.03333,341
17.04167,339
17.05000,336
17.05833,333
17.06667,330
17.07500,328
17.08333,325
17.09167,322
17.10000,320
17.10833,318
17.11667,315
17.12500,313
17.13333,310
17.14167,308
17.15000,305
17.15833,303
17.16667,301
17.17500,298
17.18333,296
17.19167,294
17.20000,291
17.20833,289
17.21667,287
17.22500,285
17.23333,283
17.24167,281
17.25000,279
17.25833,277
17.26667,275
17.27500,273
17.28333,271
17.29167,269
17.30000,268
17.30833,266
17.31667,264
17.32500,262
17.33333,261
17.34167,259
17.35000,257
17.35833,256
17.36667,254
17.37500,253
17.38333,252
17.39167,250
17.40000,249
17.40833,248
17.41667,247
17.42500,246
17.43333,245
17.44167,244
17.45000,243
17.45833,242
17.46667,241
17.47500,240
17.48333,239
17.49167,238
17.50000,237
17.50833,236
17.51667,235
17.52500,235
17.53333,234
17.54167,234
17.55000,233
17.55833,232
17.56667,232
17.57500,231
17.58333,230
17.59167,230
17.60000,229
17.60833,228
17.61667,228
17.62500,227
17.63333,226
17.64167,225
17.65000,224
17.65833,223
17.66667,222
17.67500,221
17.68333,221
17.69167,220
17.70000,220
17.70833,219
17.71667,218
17.72500,218
17.73333,217
17.74167,216
17.75000,215
17.75833,215
17.76667,215
17.77500,214
17.78333,213
17.79167,212
17.80000,212
17.80833,211
17.81667,210
17.82500,209
17.83333,208
17.84167,207
17.85000,206
17.85833,205
17.86667,204
17.87500,203
17.88333,203
17.89167,202
17.90000,202
17.90833,201
17.91667,200
17.92500,200
17.93333,199
17.94167,198
17.95000,197
17.95833,196
17.96667,196
17.97500,195
17.98333,194
17.99167,193
18.00000,192
18.00833,191
18.01667,190
18.02500,189
18.03333,188
18.04167,187
18.05000,186
18.05833,185
18.06667,185
18.07500,184
18.08333,182
18.09167,181
18.10000,180
18.10833,179
18.11667,179
18.12500,178
18.13333,177
18.14167,176
18.15000,176
18.15833,175
18.16667,174
18.17500,173
18.18333,173
18.19167,172
18.20000,170
18.20833,170
18.21667,169
18.22500,168
18.23333,167
18.24167,166
18.25000,165
18.25833,164
18.26667,163
18.27500,163
18.28333,163
18.29167,162
18.30000,161
18.30833,160
18.31667,159
18.32500,159
18.33333,158
18.34167,158
18.35000,157
18.35833,157
18.36667,156
18.37500,156
18.38333,155
18.39167,154
18.40000,153
18.40833,153
18.41667,152
18.42500,151
18.43333,151
18.44167,150
18.45000,150
18.45833,150
18.46667,149
18.47500,149
18.48333,149
18.49167,149
18.50000,149
18.50833,148
18.51667,148
18.52500,147
18.53333,146
18.54167,146
18.55000,146
18.55833,145
18.56667,145
18.57500,145
18.58333,144
18.59167,144
18.60000,144
18.60833,143
18.61667,143
18.62500,143
18.63333,142
18.64167,142
18.65000,141
18.65833,141
18.66667,141
18.67500,140
18.68333,140
18.69167,140
18.70000,140
18.70833,140
18.71667,140
18.72500,140
18.73333,140
18.74167,140
18.75000,140
18.75833,140
18.76667,139
18.77500,140
18.78333,140
18.79167,140
18.80000,141
18.80833,141
18.81667,142
18.82500,143
18.83333,143
18.84167,144
18.85000,144
18.85833,145
18.86667,145
18.87500,145
18.88333,145
18.89167,146
18.90000,147
18.90833,148
18.91667,148
18.92500,149
18.93333,149
18.94167,150
18.95000,151
18.95833,152
18.96667,153
18.97500,153
18.98333,153
18.99167,153
19.00000,153
19.00833,154
19.01667,153
19.02500,153
19.03333,153
19.04167,153
19.05000,152
19.05833,152
19.06667,151
19.07500,150
19.08333,150
19.09167,149
19.10000,148
19.10833,147
19.11667,146
19.12500,145
19.13333,143
19.14167,142
19.15000,141
19.15833,140
19.16667,138
19.17500,137
19.18333,136
19.19167,134
19.20000,132
19.20833,131
19.21667,129
19.22500,128
19.23333,126
19.24167,125
19.25000,123
19.25833,122
19.26667,121
19.27500,119
19.28333,117
19.29167,116
19.30000,114
19.30833,113
19.31667,112
19.32500,111
19.33333,110
19.34167,109
19.35000,107
19.35833,106
19.36667,105
19.37500,104
19.38333,103
19.39167,102
19.40000,101
19.40833,100
19.41667,100
19.42500,99
19.43333,98
19.44167,97
19.45000,96
19.45833,96
19.46667,95
19.47500,94
19.48333,94
19.49167,93
19.50000,93
19.50833,93
19.51667,93
19.52500,93
19.53333,93
19.54167,93
19.55000,92
19.55833,92
19.56667,91
19.57500,91
19.58333,91
19.59167,91
19.60000,91
19.60833,91
19.61667,91
19.62500,91
19.63333,92
19.64167,92
19.65000,92
19.65833,92
19.66667,92
19.67500,92
19.68333,92
19.69167,92
19.70000,91
19.70833,91
19.71667,91
19.72500,90
19.73333,90
19.74167,90
19.75000,90
19.75833,90
19.76667,90
19.77500,90
19.78333,90
19.79167,91
19.80000,91
19.80833,91
19.81667,91
19.82500,91
19.83333,91
19.84167,91
19.85000,91
19.85833,91
19.86667,91
19.87500,91
19.88333,91
19.89167,92
19.90000,92
19.90833,93
19.91667,93
19.92500,93
19.93333,93
19.94167,93
19.95000,93
19.95833,93
19.96667,93
19.97500,93
19.98333,93
19.99167,93
20.00000,93
20.00833,93
20.01667,93
20.02500,93
20.03333,93
20.04167,93
20.05000,92
20.05833,92
20.06667,92
20.07500,92
20.08333,93
20.09167,93
20.10000,93
20.10833,93
20.11667,93
20.12500,93
20.13333,93
20.14167,93
20.15000,92
20.15833,92
20.16667,91
20.17500,90
20.18333,90
20.19167,90
20.20000,90
20.20833,90
20.21667,89
20.22500,89
20.23333,88
20.24167,88
20.25000,88
20.25833,88
20.26667,87
20.27500,87
20.28333,87
20.29167,86
20.30000,86
20.30833,85
20.31667,85
20.32500,84
20.33333,84
20.34167,84
20.35000,83
20.35833,83
20.36667,82
20.37500,82
20.38333,81
20.39167,81
20.40000,80
20.40833,80
20.41667,79
20.42500,79
20.43333,78
20.44167,78
20.45000,78
20.45833,77
20.46667,77
20.47500,76
20.48333,76
20.49167,75
20.50000,74
20.50833,74
20.51667,73
20.52500,73
20.53333,72
20.54167,71
20.55000,71
20.55833,71
20.56667,70
20.57500,69
20.58333,68
20.59167,68
20.60000,67
20.60833,67
20.61667,66
20.62500,66
20.63333,65
20.64167,65
20.65000,64
20.65833,64
20.66667,64
20.67500,64
20.68333,63
20.69167,63
20.70000,62
20.70833,62
20.71667,61
20.72500,61
20.73333,61
20.74167,60
20.75000,60
20.75833,60
20.76667,60
20.77500,60
20.78333,60
20.79167,60
20.80000,59
20.80833,59
20.81667,59
20.82500,59
20.83333,59
20.84167,59
20.85000,59
20.85833,59
20.86667,59
20.87500,59
20.88333,59
20.89167,60
20.90000,60
20.90833,60
20.91667,61
20.92500,61
20.93333,61
20.94167,61
20.95000,61
20.95833,61
20.96667,62
20.97500,62
20.98333,63
20.99167,63
21.00000,63
21.00833,64
21.01667,64
21.02500,64
21.03333,64
21.04167,65
21.05000,65
21.05833,65
21.06667,66
21.07500,66
21.08333,66
21.09167,67
21.10000,67
21.10833,68
21.11667,68
21.12500,68
21.13333,68
21.14167,68
21.15000,68
21.15833,69
21.16667,69
21.17500,70
21.18333,70
21.19167,71
21.20000,71
21.20833,71
21.21667,71
21.22500,72
21.23333,72
21.24167,72
21.25000,73
21.25833,73
21.26667,73
21.27500,74
21.28333,74
21.29167,74
21.30000,75
21.30833,75
21.31667,76
21.32500,78
21.33333,79
21.34167,80
21.35000,81
21.35833,82
21.36667,84
21.37500,86
21.38333,88
21.39167,91
21.40000,94
21.40833,97
21.41667,101
21.42500,105
21.43333,110
21.44167,116
21.45000,123
21.45833,131
21.46667,139
21.47500,149
21.48333,161
21.49167,175
21.50000,190
21.50833,207
21.51667,227
21.52500,249
21.53333,275
21.54167,304
21.55000,337
21.55833,375
21.56667,417
21.57500,465
21.58333,519
21.59167,580
21.60000,648
21.60833,724
21.61667,810
21.62500,904
21.63333,1010
21.64167,1127
21.65000,1256
21.65833,1399
21.66667,1556
21.67500,1728
21.68333,1917
21.69167,2123
21.70000,2347
21.70833,2590
21.71667,2852
21.72500,3135
21.73333,3439
21.74167,3764
21.75000,4111
21.75833,4479
21.76667,4870
21.77500,5283
21.78333,5718
21.79167,6174
21.80000,6651
21.80833,7148
21.81667,7663
21.82500,8195
21.83333,8743
21.84167,9305
21.85000,9879
21.85833,10462
21.86667,11053
21.87500,11648
21.88333,12246
21.89167,12843
21.90000,13435
21.90833,14022
21.91667,14598
21.92500,15161
21.93333,15708
21.94167,16235
21.95000,16740
21.95833,17219
21.96667,17671
21.97500,18092
21.98333,18480
21.99167,18832
22.00000,19147
22.00833,19421
22.01667,19655
22.02500,19847
22.03333,19995
22.04167,20100
22.05000,20161
22.05833,20178
22.06667,20151
22.07500,20081
22.08333,19968
22.09167,19814
22.10000,19620
22.10833,19387
22.11667,19118
22.12500,18814
22.13333,18478
22.14167,18111
22.15000,17717
22.15833,17298
22.16667,16856
22.17500,16394
22.18333,15915
22.19167,15422
22.20000,14916
22.20833,14402
22.21667,13880
22.22500,13354
22.23333,12826
22.24167,12298
22.25000,11772
22.25833,11249
22.26667,10733
22.27500,10224
22.28333,9724
22.29167,9235
22.30000,8758
22.30833,8293
22.31667,7842
22.32500,7405
22.33333,6983
22.34167,6577
22.35000,6187
22.35833,5813
22.36667,5456
22.37500,5115
22.38333,4790
22.39167,4481
22.40000,4188
22.40833,3911
22.41667,3650
22.42500,3403
22.43333,3171
22.44167,2953
22.45000,2749
22.45833,2557
22.46667,2378
22.47500,2211
22.48333,2055
22.49167,1909
22.50000,1774
22.50833,1648
22.51667,1532
22.52500,1424
22.53333,1324
22.54167,1232
22.55000,1147
22.55833,1069
22.56667,997
22.57500,930
22.58333,869
22.59167,813
22.60000,761
22.60833,713
22.61667,670
22.62500,629
22.63333,592
22.64167,559
22.65000,527
22.65833,498
22.66667,472
22.67500,448
22.68333,426
22.69167,405
22.70000,387
22.70833,370
22.71667,354
22.72500,339
22.73333,326
22.74167,313
22.75000,302
22.75833,292
22.76667,282
22.77500,273
22.78333,264
22.79167,257
22.80000,249
22.80833,242
22.81667,236
22.82500,230
22.83333,224
22.84167,219
22.85000,214
22.85833,209
22.86667,205
22.87500,201
22.88333,198
22.89167,195
22.90000,191
22.90833,188
22.91667,185
22.92500,183
22.93333,180
22.94167,178
22.95000,176
22.95833,174
22.96667,171
22.97500,169
22.98333,166
22.99167,165
23.00000,163
23.00833,162
23.01667,160
23.02500,159
23.03333,157
23.04167,156
23.05000,154
23.05833,152
23.06667,151
23.07500,150
23.08333,148
23.09167,147
23.10000,147
23.10833,146
23.11667,145
23.12500,144
23.13333,143
23.14167,142
23.15000,141
23.15833,140
23.16667,139
23.17500,138
23.18333,138
23.19167,137
23.20000,136
23.20833,136
23.21667,135
23.22500,135
23.23333,134
23.24167,134
23.25000,133
23.25833,133
23.26667,132
23.27500,131
23.28333,131
23.29167,131
23.30000,130
23.30833,129
23.31667,129
23.32500,128
23.33333,128
23.34167,128
23.35000,128
23.35833,128
23.36667,128
23.37500,127
23.38333,127
23.39167,126
23.40000,126
23.40833,125
23.41667,125
23.42500,125
23.43333,124
23.44167,124
23.45000,124
23.45833,124
23.46667,124
23.47500,124
23.48333,124
23.49167,124
23.50000,124
23.50833,124
23.51667,124
23.52500,124
23.53333,124
23.54167,124
23.55000,124
23.55833,123
23.56667,123
23.57500,123
23.58333,122
23.59167,122
23.60000,122
23.60833,122
23.61667,122
23.62500,121
23.63333,121
23.64167,121
23.65000,121
23.65833,121
23.66667,120
23.67500,120
23.68333,120
23.69167,120
23.70000,120
23.70833,120
23.71667,120
23.72500,120
23.73333,119
23.74167,119
23.75000,118
23.75833,117
23.76667,117
23.77500,116
23.78333,115
23.79167,114
23.80000,114
23.80833,114
23.81667,113
23.82500,113
23.83333,113
23.84167,112
23.85000,111
23.85833,111
23.86667,110
23.87500,110
23.88333,110
23.89167,109
23.90000,109
23.90833,108
23.91667,108
23.92500,107
23.93333,106
23.94167,106
23.95000,105
23.95833,105
23.96667,105
23.97500,105
23.98333,104
23.99167,104
24.00000,103
24.00833,103
24.01667,103
24.02500,103
24.03333,103
24.04167,103
24.05000,102
24.05833,102
24.06667,101
24.07500,101
24.08333,100
24.09167,100
24.10000,100
24.10833,100
24.11667,100
24.12500,100
24.13333,100
24.14167,100
24.15000,100
24.15833,100
24.16667,100
24.17500,100
24.18333,100
24.19167,100
24.20000,100
24.20833,100
24.21667,100
24.22500,100
24.23333,100
24.24167,100
24.25000,101
24.25833,102
24.26667,103
24.27500,103
24.28333,104
24.29167,105
24.30000,106
24.30833,107
24.31667,109
24.32500,110
24.33333,112
24.34167,114
24.35000,116
24.35833,119
24.36667,122
24.37500,126
24.38333,130
24.39167,135
24.40000,141
24.40833,147
24.41667,154
24.42500,162
24.43333,170
24.44167,180
24.45000,191
24.45833,203
24.46667,216
24.47500,232
24.48333,248
24.49167,267
24.50000,288
24.50833,312
24.51667,338
24.52500,367
24.53333,399
24.54167,434
24.55000,472
24.55833,515
24.56667,561
24.57500,612
24.58333,667
24.59167,727
24.60000,792
24.60833,863
24.61667,939
24.62500,1021
24.63333,1109
24.64167,1204
24.65000,1306
24.65833,1414
24.66667,1529
24.67500,1651
24.68333,1781
24.69167,1918
24.70000,2062
24.70833,2214
24.71667,2373
24.72500,2538
24.73333,2711
24.74167,2890
24.75000,3076
24.75833,3267
24.76667,3465
24.77500,3667
24.78333,3873
24.79167,4083
24.80000,4296
24.80833,4512
24.81667,4729
24.82500,4947
24.83333,5164
24.84167,5380
24.85000,5595
24.85833,5807
24.86667,6015
24.87500,6219
24.88333,6416
24.89167,6607
24.90000,6790
24.90833,6965
24.91667,7130
24.92500,7285
24.93333,7429
24.94167,7560
24.95000,7680
24.95833,7786
24.96667,7878
24.97500,7957
24.98333,8021
24.99167,8071
25.00000,8107
25.00833,8127
25.01667,8132
25.02500,8123
25.03333,8099
25.04167,8060
25.05000,8007
25.05833,7940
25.06667,7861
25.07500,7768
25.08333,7663
25.09167,7547
25.10000,7419
25.10833,7281
25.11667,7135
25.12500,6979
25.13333,6816
25.14167,6645
25.15000,6469
25.15833,6287
25.16667,6101
25.17500,5911
25.18333,5719
25.19167,5524
25.20000,5328
25.20833,5131
25.21667,4933
25.22500,4737
25.23333,4542
25.24167,4349
25.25000,4158
25.25833,3971
25.26667,3786
25.27500,3606
25.28333,3430
25.29167,3259
25.30000,3092
25.30833,2930
25.31667,2774
25.32500,2623
25.33333,2477
25.34167,2338
25.35000,2204
25.35833,2075
25.36667,1953
25.37500,1836
25.38333,1725
25.39167,1619
25.40000,1519
25.40833,1425
25.41667,1335
25.42500,1250
25.43333,1171
25.44167,1096
25.45000,1026
25.45833,959
25.46667,898
25.47500,840
25.48333,786
25.49167,736
25.50000,689
25.50833,645
25.51667,604
25.52500,567
25.53333,532
25.54167,500
25.55000,470
25.55833,443
25.56667,417
25.57500,393
25.58333,371
25.59167,351
25.60000,333
25.60833,316
25.61667,300
25.62500,286
25.63333,272
25.64167,260
25.65000,249
25.65833,239
25.66667,230
25.67500,221
25.68333,214
25.69167,206
25.70000,200
25.70833,193
25.71667,187
25.72500,182
25.73333,176
25.74167,172
25.75000,168
25.75833,164
25.76667,161
25.77500,158
25.78333,155
25.79167,153
25.80000,150
25.80833,148
25.81667,146
25.82500,144
25.83333,141
25.84167,139
25.85000,137
25.85833,135
25.86667,133
25.87500,131
25.88333,129
25.89167,128
25.90000,127
25.90833,126
25.91667,125
25.92500,124
25.93333,123
25.94167,122
25.95000,121
25.95833,120
25.96667,119
25.97500,119
25.98333,118
25.99167,118
26.00000,117
26.00833,116
26.01667,115
26.02500,115
26.03333,114
26.04167,114
26.05000,113
26.05833,113
26.06667,112
26.07500,112
26.08333,112
26.09167,111
26.10000,110
26.10833,110
26.11667,109
26.12500,109
26.13333,109
26.14167,109
26.15000,109
26.15833,109
26.16667,109
26.17500,109
26.18333,108
26.19167,108
26.20000,108
26.20833,108
26.21667,108
26.22500,108
26.23333,108
26.24167,108
26.25000,108
26.25833,107
26.26667,107
26.27500,107
26.28333,107
26.29167,107
26.30000,107
26.30833,106
26.31667,106
26.32500,106
26.33333,106
26.34167,106
26.35000,106
26.35833,106
26.36667,106
26.37500,106
26.38333,106
26.39167,105
26.40000,105
26.40833,105
26.41667,105
26.42500,104
26.43333,104
26.44167,104
26.45000,104
26.45833,104
26.46667,104
26.47500,104
26.48333,104
26.49167,104
26.50000,104
26.50833,104
26.51667,103
26.52500,103
26.53333,103
26.54167,102
26.55000,102
26.55833,101
26.56667,101
26.57500,100
26.58333,100
26.59167,99
26.60000,98
26.60833,98
26.61667,98
26.62500,97
26.63333,97
26.64167,97
26.65000,96
26.65833,96
26.66667,95
26.67500,95
26.68333,94
26.69167,93
26.70000,93
26.70833,93
26.71667,92
26.72500,91
26.73333,90
26.74167,89
26.75000,88
26.75833,88
26.76667,87
26.77500,87
26.78333,86
26.79167,86
26.80000,85
26.80833,85
26.81667,84
26.82500,84
26.83333,83
26.84167,82
26.85000,82
26.85833,81
26.86667,81
26.87500,80
26.88333,79
26.89167,79
26.90000,78
26.90833,78
26.91667,78
26.92500,78
26.93333,77
26.94167,77
26.95000,77
26.95833,76
26.96667,77
26.97500,77
26.98333,76
26.99167,76
27.00000,76
27.00833,76
27.01667,75
27.02500,75
27.03333,75
27.04167,75
27.05000,76
27.05833,76
27.06667,76
27.07500,77
27.08333,78
27.09167,78
27.10000,79
27.10833,80
27.11667,80
27.12500,80
27.13333,80
27.14167,80
27.15000,81
27.15833,81
27.16667,82
27.17500,82
27.18333,83
27.19167,84
27.20000,84
27.20833,85
27.21667,85
27.22500,86
27.23333,87
27.24167,87
27.25000,88
27.25833,88
27.26667,89
27.27500,89
27.28333,90
27.29167,90
27.30000,90
27.30833,90
27.31667,91
27.32500,91
27.33333,92
27.34167,92
27.35000,92
27.35833,92
27.36667,93
27.37500,93
27.38333,93
27.39167,93
27.40000,93
27.40833,93
27.41667,93
27.42500,93
27.43333,94
27.44167,94
27.45000,94
27.45833,93
27.46667,93
27.47500,93
27.48333,93
27.49167,92
27.50000,92
27.50833,91
27.51667,91
27.52500,90
27.53333,90
27.54167,90
27.55000,90
27.55833,89
27.56667,89
27.57500,89
27.58333,89
27.59167,89
27.60000,89
27.60833,88
27.61667,88
27.62500,88
27.63333,87
27.64167,86
27.65000,86
27.65833,85
27.66667,85
27.67500,85
27.68333,85
27.69167,85
27.70000,85
27.70833,85
27.71667,84
27.72500,84
27.73333,84
27.74167,84
27.75000,83
27.75833,83
27.76667,83
27.77500,82
27.78333,82
27.79167,81
27.80000,80
27.80833,79
27.81667,78
27.82500,77
27.83333,76
27.84167,75
27.85000,74
27.85833,73
27.86667,71
27.87500,70
27.88333,69
27.89167,67
27.90000,65
27.90833,64
27.91667,61
27.92500,59
27.93333,58
27.94167,56
27.95000,53
27.95833,51
27.96667,48
27.97500,45
27.98333,42
27.99167,39
28.00000,36
28.00833,32
28.01667,29
28.02500,25
28.03333,22
28.04167,18
28.05000,14
28.05833,10
28.06667,6
28.07500,2
28.08333,-2
28.09167,-6
28.10000,-10
28.10833,-14
28.11667,-19
28.12500,-23
28.13333,-27
28.14167,-31
28.15000,-35
28.15833,-40
28.16667,-44
28.17500,-48
28.18333,-52
28.19167,-56
28.20000,-60
28.20833,-64
28.21667,-67
28.22500,-71
28.23333,-74
28.24167,-78
28.25000,-81
28.25833,-84
28.26667,-87
28.27500,-91
28.28333,-93
28.29167,-96
28.30000,-98
28.30833,-100
28.31667,-102
28.32500,-104
28.33333,-105
28.34167,-105
28.35000,-106
28.35833,-107
28.36667,-107
28.37500,-108
28.38333,-108
28.39167,-108
28.40000,-108
28.40833,-108
28.41667,-107
28.42500,-106
28.43333,-104
28.44167,-103
28.45000,-101
28.45833,-99
28.46667,-97
28.47500,-95
28.48333,-92
28.49167,-90
28.50000,-87
28.50833,-84
28.51667,-81
28.52500,-78
28.53333,-75
28.54167,-72
28.55000,-69
28.55833,-65
28.56667,-62
28.57500,-58
28.58333,-55
28.59167,-51
28.60000,-47
28.60833,-44
28.61667,-40
28.62500,-37
28.63333,-33
28.64167,-30
28.65000,-26
28.65833,-23
28.66667,-19
28.67500,-16
28.68333,-12
28.69167,-9
28.70000,-6
28.70833,-3
28.71667,0
28.72500,3
28.73333,7
28.74167,10
28.75000,12
28.75833,15
28.76667,17
28.77500,20
28.78333,22
28.79167,24
28.80000,27
28.80833,29
28.81667,31
28.82500,33
28.83333,35
28.84167,37
28.85000,38
28.85833,40
28.86667,41
28.87500,42
28.88333,44
28.89167,45
28.90000,47
28.90833,48
28.91667,50
28.92500,51
28.93333,52
28.94167,53
28.95000,54
28.95833,54
28.96667,55
28.97500,56
28.98333,56
28.99167,57
29.00000,57
29.00833,58
29.01667,58
29.02500,59
29.03333,59
29.04167,60
29.05000,60
29.05833,60
29.06667,60
29.07500,60
29.08333,60
29.09167,60
29.10000,60
29.10833,61
29.11667,61
29.12500,61
29.13333,62
29.14167,62
29.15000,62
29.15833,62
29.16667,62
29.17500,62
29.18333,62
29.19167,62
29.20000,62
29.20833,61
29.21667,61
29.22500,61
29.23333,60
29.24167,60
29.25000,60
29.25833,60
29.26667,60
29.27500,60
29.28333,60
29.29167,60
29.30000,59
29.30833,59
29.31667,59
29.32500,58
29.33333,58
29.34167,59
29.35000,59
29.35833,59
29.36667,59
29.37500,60
29.38333,60
29.39167,60
29.40000,59
29.40833,59
29.41667,59
29.42500,59
29.43333,59
29.44167,59
29.45000,58
29.45833,58
29.46667,58
29.47500,58
29.48333,58
29.49167,58
29.50000,58
29.50833,58
29.51667,57
29.52500,57
29.53333,56
29.54167,56
29.55000,56
29.55833,56
29.56667,55
29.57500,55
29.58333,54
29.59167,54
29.60000,53
29.60833,53
29.61667,52
29.62500,51
29.63333,50
29.64167,49
29.65000,49
29.65833,48
29.66667,48
29.67500,47
29.68333,46
29.69167,45
29.70000,45
29.70833,44
29.71667,43
29.72500,43
29.73333,42
29.74167,41
29.75000,39
29.75833,38
29.76667,37
29.77500,36
29.78333,35
29.79167,34
29.80000,33
29.80833,32
29.81667,31
29.82500,30
29.83333,28
29.84167,27
29.85000,26
29.85833,25
29.86667,24
29.87500,23
29.88333,22
29.89167,21
29.90000,20
29.90833,19
29.91667,18
29.92500,18
29.93333,16
29.94167,15
29.95000,14
29.95833,13
29.96667,13
29.97500,12
29.98333,12
29.99167,11
30.00000,11
30.00833,11
30.01667,10
30.02500,10
30.03333,9
30.04167,9
30.05000,8
30.05833,8
30.06667,8
30.07500,8
30.08333,8
30.09167,7
30.10000,7
30.10833,7
30.11667,7
30.12500,7
30.13333,7
30.14167,7
30.15000,7
30.15833,7
30.16667,8
30.17500,8
30.18333,8
30.19167,8
30.20000,9
30.20833,9
30.21667,9
30.22500,9
30.23333,9
30.24167,10
30.25000,10
30.25833,11
30.26667,12
30.27500,12
30.28333,13
30.29167,14
30.30000,15
30.30833,15
30.31667,16
30.32500,17
30.33333,18
30.34167,18
30.35000,19
30.35833,20
30.36667,21
30.37500,22
30.38333,23
30.39167,23
30.40000,24
30.40833,25
30.41667,26
30.42500,27
30.43333,28
30.44167,29
30.45000,30
30.45833,30
30.46667,31
30.47500,32
30.48333,33
30.49167,34
30.50000,34
30.50833,35
30.51667,36
30.52500,37
30.53333,38
30.54167,39
30.55000,40
30.55833,40
30.56667,41
30.57500,42
30.58333,42
30.59167,43
30.60000,44
30.60833,45
30.61667,46
30.62500,46
30.63333,47
30.64167,47
30.65000,48
30.65833,48
30.66667,49
30.67500,49
30.68333,49
30.69167,50
30.70000,50
30.70833,50
30.71667,51
30.72500,51
30.73333,52
30.74167,52
30.75000,52
30.75833,52
30.76667,52
30.77500,52
30.78333,52
30.79167,52
30.80000,52
30.80833,53
30.81667,53
30.82500,53
30.83333,53
30.84167,54
30.85000,54
30.85833,54
30.86667,54
30.87500,54
30.88333,54
30.89167,54
30.90000,54
30.90833,55
30.91667,55
30.92500,55
30.93333,55
30.94167,55
30.95000,56
30.95833,56
30.96667,57
30.97500,57
30.98333,57
30.99167,58
31.00000,58
31.00833,58
31.01667,59
31.02500,59
31.03333,60
31.04167,60
31.05000,61
31.05833,61
31.06667,61
31.07500,62
31.08333,62
31.09167,63
31.10000,63
31.10833,63
31.11667,63
31.12500,63
31.13333,64
31.14167,64
31.15000,64
31.15833,64
31.16667,64
31.17500,64
31.18333,64
31.19167,64
31.20000,64
31.20833,65
31.21667,65
31.22500,65
31.23333,66
31.24167,66
31.25000,66
31.25833,66
31.26667,67
31.27500,67
31.28333,66
31.29167,67
31.30000,67
31.30833,67
31.31667,67
31.32500,68
31.33333,68
31.34167,68
31.35000,68
31.35833,68
31.36667,68
31.37500,68
31.38333,68
31.39167,68
31.40000,68
31.40833,68
31.41667,68
31.42500,68
31.43333,68
31.44167,69
31.45000,69
31.45833,69
31.46667,69
31.47500,69
31.48333,69
31.49167,69
31.50000,69
31.50833,70
31.51667,70
31.52500,70
31.53333,70
31.54167,70
31.55000,70
31.55833,70
31.56667,70
31.57500,70
31.58333,70
31.59167,70
31.60000,70
31.60833,71
31.61667,71
31.62500,71
31.63333,71
31.64167,71
31.65000,71
31.65833,71
31.66667,71
31.67500,71
31.68333,71
31.69167,71
31.70000,71
31.70833,71
31.71667,72
31.72500,72
31.73333,72
31.74167,72
31.75000,72
31.75833,71
31.76667,71
31.77500,71
31.78333,70
31.79167,70
31.80000,69
31.80833,69
31.81667,69
31.82500,69
31.83333,69
31.84167,69
31.85000,69
31.85833,69
31.86667,69
31.87500,69
31.88333,69
31.89167,69
31.90000,68
31.90833,68
31.91667,68
31.92500,68
31.93333,68
31.94167,68
31.95000,68
31.95833,67
31.96667,67
31.97500,67
31.98333,66
31.99167,66
32.00000,66
32.00833,66
32.01667,66
32.02500,66
32.03333,66
32.04167,66
32.05000,66
32.05833,66
32.06667,66
32.07500,66
32.08333,66
32.09167,67
32.10000,67
32.10833,67
32.11667,67
32.12500,67
32.13333,67
32.14167,67
32.15000,67
32.15833,67
32.16667,67
32.17500,67
32.18333,67
32.19167,67
32.20000,67
32.20833,68
32.21667,68
32.22500,69
32.23333,69
32.24167,70
32.25000,70
32.25833,70
32.26667,70
32.27500,70
32.28333,70
32.29167,71
32.30000,71
32.30833,72
32.31667,72
32.32500,72
32.33333,72
32.34167,73
32.35000,73
32.35833,73
32.36667,73
32.37500,72
32.38333,72
32.39167,72
32.40000,72
32.40833,72
32.41667,72
32.42500,72
32.43333,72
32.44167,72
32.45000,73
32.45833,73
32.46667,73
32.47500,73
32.48333,73
32.49167,73
32.50000,73
32.50833,73
32.51667,73
32.52500,73
32.53333,73
32.54167,73
32.55000,73
32.55833,73
32.56667,73
32.57500,72
32.58333,72
32.59167,72
32.60000,72
32.60833,72
32.61667,72
32.62500,72
32.63333,71
32.64167,71
32.65000,71
32.65833,71
32.66667,71
32.67500,70
32.68333,70
32.69167,70
32.70000,69
32.70833,69
32.71667,70
32.72500,70
32.73333,70
32.74167,70
32.75000,70
32.75833,70
32.76667,70
32.77500,71
32.78333,70
32.79167,70
32.80000,70
32.80833,69
32.81667,69
32.82500,69
32.83333,69
32.84167,69
32.85000,69
32.85833,69
32.86667,69
32.87500,70
32.88333,70
32.89167,70
32.90000,69
32.90833,69
32.91667,69
32.92500,69
32.93333,69
32.94167,69
32.95000,69
32.95833,68
32.96667,68
32.97500,68
32.98333,68
32.99167,67
33.00000,67
33.00833,67
33.01667,67
33.02500,67
33.03333,67
33.04167,67
33.05000,67
33.05833,67
33.06667,67
33.07500,68
33.08333,68
33.09167,68
33.10000,68
33.10833,68
33.11667,68
33.12500,68
33.13333,67
33.14167,67
33.15000,67
33.15833,67
33.16667,67
33.17500,67
33.18333,67
33.19167,67
33.20000,67
33.20833,67
33.21667,67
33.22500,67
33.23333,67
33.24167,68
33.25000,68
33.25833,68
33.26667,69
33.27500,69
33.28333,69
33.29167,69
33.30000,69
33.30833,69
33.31667,68
33.32500,68
33.33333,68
33.34167,68
33.35000,68
33.35833,68
33.36667,68
33.37500,68
33.38333,68
33.39167,68
33.40000,68
33.40833,68
33.41667,68
33.42500,68
33.43333,68
33.44167,67
33.45000,67
33.45833,67
33.46667,67
33.47500,67
33.48333,67
33.49167,67
33.50000,66
33.50833,66
33.51667,66
33.52500,65
33.53333,65
33.54167,65
33.55000,65
33.55833,64
33.56667,64
33.57500,64
33.58333,64
33.59167,64
33.60000,64
33.60833,64
33.61667,64
33.62500,64
33.63333,64
33.64167,63
33.65000,63
33.65833,63
33.66667,63
33.67500,63
33.68333,63
33.69167,63
33.70000,64
33.70833,64
33.71667,64
33.72500,64
33.73333,64
33.74167,64
33.75000,64
33.75833,64
33.76667,64
33.77500,64
33.78333,64
33.79167,64
33.80000,64
33.80833,64
33.81667,64
33.82500,64
33.83333,64
33.84167,64
33.85000,64
33.85833,64
33.86667,64
33.87500,64
33.88333,64
33.89167,64
33.90000,64
33.90833,64
33.91667,64
33.92500,65
33.93333,65
33.94167,65
33.95000,65
33.95833,65
33.96667,65
33.97500,66
33.98333,65
33.99167,65
34.00000,65
34.00833,65
34.01667,65
34.02500,65
34.03333,66
34.04167,66
34.05000,66
34.05833,66
34.06667,66
34.07500,66
34.08333,65
34.09167,65
34.10000,65
34.10833,65
34.11667,65
34.12500,65
34.13333,65
34.14167,65
34.15000,64
34.15833,64
34.16667,64
34.17500,64
34.18333,64
34.19167,64
34.20000,65
34.20833,65
34.21667,65
34.22500,65
34.23333,65
34.24167,65
34.25000,65
34.25833,65
34.26667,65
34.27500,65
34.28333,65
34.29167,65
34.30000,65
34.30833,65
34.31667,65
34.32500,65
34.33333,65
34.34167,65
34.35000,65
34.35833,65
34.36667,66
34.37500,66
34.38333,66
34.39167,66
34.40000,67
34.40833,67
34.41667,68
34.42500,68
34.43333,68
34.44167,68
34.45000,68
34.45833,68
34.46667,68
34.47500,69
34.48333,69
34.49167,69
34.50000,70
34.50833,70
34.51667,71
34.52500,71
34.53333,72
34.54167,73
34.55000,73
34.55833,74
34.56667,74
34.57500,74
34.58333,75
34.59167,75
34.60000,76
34.60833,76
34.61667,77
34.62500,77
34.63333,78
34.64167,78
34.65000,79
34.65833,79
34.66667,79
34.67500,79
34.68333,80
34.69167,80
34.70000,80
34.70833,81
34.71667,81
34.72500,81
34.73333,81
34.74167,82
34.75000,82
34.75833,82
34.76667,82
34.77500,82
34.78333,82
34.79167,82
34.80000,82
34.80833,82
34.81667,82
34.82500,82
34.83333,82
34.84167,82
34.85000,81
34.85833,81
34.86667,81
34.87500,81
34.88333,80
34.89167,80
34.90000,80
34.90833,80
34.91667,79
34.92500,79
34.93333,78
34.94167,78
34.95000,78
34.95833,78
34.96667,77
34.97500,77
34.98333,76
34.99167,76
35.00000,76
35.00833,75
35.01667,75
35.02500,75
35.03333,75
35.04167,75
35.05000,74
35.05833,74
35.06667,73
35.07500,73
35.08333,72
35.09167,72
35.10000,72
35.10833,72
35.11667,71
35.12500,70
35.13333,69
35.14167,68
35.15000,68
35.15833,68
35.16667,68
35.17500,68
35.18333,67
35.19167,67
35.20000,67
35.20833,66
35.21667,66
35.22500,66
35.23333,66
35.24167,66
35.25000,65
35.25833,65
35.26667,65
35.27500,64
35.28333,64
35.29167,63
35.30000,63
35.30833,63
35.31667,62
35.32500,62
35.33333,62
35.34167,62
35.35000,62
35.35833,61
35.36667,61
35.37500,61
35.38333,62
35.39167,62
35.40000,62
35.40833,62
35.41667,62
35.42500,62
35.43333,62
35.44167,62
35.45000,62
35.45833,62
35.46667,62
35.47500,63
35.48333,63
35.49167,64
35.50000,64
35.50833,64
35.51667,64
35.52500,65
35.53333,65
35.54167,65
35.55000,65
35.55833,65
35.56667,65
35.57500,65
35.58333,65
35.59167,66
35.60000,66
35.60833,67
35.61667,67
35.62500,68
35.63333,68
35.64167,68
35.65000,69
35.65833,69
35.66667,69
35.67500,69
35.68333,69
35.69167,70
35.70000,70
35.70833,71
35.71667,71
35.72500,72
35.73333,72
35.74167,73
35.75000,73
35.75833,73
35.76667,73
35.77500,74
35.78333,74
35.79167,74
35.80000,74
35.80833,74
35.81667,74
35.82500,74
35.83333,74
35.84167,74
35.85000,75
35.85833,75
35.86667,75
35.87500,75
35.88333,75
35.89167,75
35.90000,75
35.90833,75
35.91667,75
35.92500,75
35.93333,75
35.94167,75
35.95000,75
35.95833,75
35.96667,76
35.97500,76
35.98333,76
35.99167,76
36.00000,76
36.00833,76
36.01667,76
36.02500,77
36.03333,77
36.04167,77
36.05000,77
36.05833,77
36.06667,77
36.07500,77
36.08333,77
36.09167,76
36.10000,76
36.10833,76
36.11667,76
36.12500,76
36.13333,76
36.14167,76
36.15000,76
36.15833,76
36.16667,76
36.17500,76
36.18333,76
36.19167,76
36.20000,77
36.20833,77
36.21667,77
36.22500,77
36.23333,77
36.24167,78
36.25000,78
36.25833,78
36.26667,78
36.27500,78
36.28333,78
36.29167,77
36.30000,78
36.30833,78
36.31667,77
36.32500,77
36.33333,77
36.34167,77
36.35000,76
36.35833,76
36.36667,76
36.37500,76
36.38333,76
36.39167,75
36.40000,75
36.40833,75
36.41667,75
36.42500,75
36.43333,75
36.44167,74
36.45000,74
36.45833,73
36.46667,73
36.47500,73
36.48333,73
36.49167,73
36.50000,72
36.50833,72
36.51667,72
36.52500,72
36.53333,72
36.54167,71
36.55000,71
36.55833,71
36.56667,71
36.57500,70
36.58333,70
36.59167,70
36.60000,69
36.60833,69
36.61667,69
36.62500,68
36.63333,68
36.64167,68
36.65000,68
36.65833,67
36.66667,67
36.67500,67
36.68333,67
36.69167,67
36.70000,67
36.70833,67
36.71667,67
36.72500,68
36.73333,68
36.74167,68
36.75000,68
36.75833,68
36.76667,68
36.77500,68
36.78333,68
36.79167,68
36.80000,69
36.80833,69
36.81667,69
36.82500,69
36.83333,69
36.84167,69
36.85000,69
36.85833,70
36.86667,70
36.87500,70
36.88333,70
36.89167,70
36.90000,70
36.90833,70
36.91667,70
36.92500,70
36.93333,71
36.94167,71
36.95000,71
36.95833,71
36.96667,71
36.97500,71
36.98333,71
36.99167,71
37.00000,72
37.00833,72
37.01667,72
37.02500,72
37.03333,71
37.04167,72
37.05000,72
37.05833,72
37.06667,72
37.07500,72
37.08333,72
37.09167,72
37.10000,71
37.10833,71
37.11667,71
37.12500,71
37.13333,71
37.14167,70
37.15000,70
37.15833,70
37.16667,70
37.17500,69
37.18333,69
37.19167,69
37.20000,68
37.20833,68
37.21667,69
37.22500,69
37.23333,69
37.24167,69
37.25000,69
37.25833,69
37.26667,69
37.27500,69
37.28333,68
37.29167,68
37.30000,68
37.30833,67
37.31667,67
37.32500,67
37.33333,67
37.34167,67
37.35000,67
37.35833,67
37.36667,67
37.37500,67
37.38333,66
37.39167,66
37.40000,67
37.40833,67
37.41667,67
37.42500,67
37.43333,66
37.44167,66
37.45000,66
37.45833,65
37.46667,65
37.47500,65
37.48333,65
37.49167,65
37.50000,65
37.50833,65
37.51667,65
37.52500,65
37.53333,65
37.54167,65
37.55000,64
37.55833,64
37.56667,64
37.57500,64
37.58333,64
37.59167,64
37.60000,65
37.60833,65
37.61667,65
37.62500,64
37.63333,64
37.64167,64
37.65000,64
37.65833,64
37.66667,64
37.67500,64
37.68333,64
37.69167,64
37.70000,65
37.70833,65
37.71667,65
37.72500,65
37.73333,65
37.74167,66
37.75000,66
37.75833,66
37.76667,66
37.77500,66
37.78333,67
37.79167,67
37.80000,67
37.80833,67
37.81667,67
37.82500,67
37.83333,67
37.84167,68
37.85000,68
37.85833,68
37.86667,68
37.87500,68
37.88333,68
37.89167,68
37.90000,68
37.90833,68
37.91667,68
37.92500,68
37.93333,69
37.94167,69
37.95000,69
37.95833,69
37.96667,69
37.97500,70
37.98333,70
37.99167,70
38.00000,70
38.00833,70
38.01667,70
38.02500,70
38.03333,70
38.04167,70
38.05000,70
38.05833,70
38.06667,70
38.07500,70
38.08333,70
38.09167,70
38.10000,70
38.10833,71
38.11667,71
38.12500,72
38.13333,72
38.14167,72
38.15000,72
38.15833,72
38.16667,72
38.17500,73
38.18333,73
38.19167,73
38.20000,73
38.20833,73
38.21667,73
38.22500,73
38.23333,73
38.24167,73
38.25000,73
38.25833,74
38.26667,74
38.27500,73
38.28333,74
38.29167,74
38.30000,73
38.30833,74
38.31667,74
38.32500,74
38.33333,74
38.34167,74
38.35000,74
38.35833,74
38.36667,73
38.37500,73
38.38333,74
38.39167,74
38.40000,74
38.40833,74
38.41667,75
38.42500,75
38.43333,75
38.44167,75
38.45000,75
38.45833,75
38.46667,75
38.47500,75
38.48333,75
38.49167,75
38.50000,75
38.50833,76
38.51667,76
38.52500,76
38.53333,76
38.54167,76
38.55000,77
38.55833,77
38.56667,77
38.57500,77
38.58333,77
38.59167,77
38.60000,77
38.60833,77
38.61667,77
38.62500,77
38.63333,77
38.64167,77
38.65000,78
38.65833,78
38.66667,78
38.67500,79
38.68333,79
38.69167,79
38.70000,78
38.70833,78
38.71667,78
38.72500,78
38.73333,78
38.74167,79
38.75000,78
38.75833,78
38.76667,78
38.77500,78
38.78333,78
38.79167,78
38.80000,78
38.80833,78
38.81667,78
38.82500,79
38.83333,79
38.84167,79
38.85000,78
38.85833,78
38.86667,78
38.87500,78
38.88333,78
38.89167,78
38.90000,78
38.90833,78
38.91667,78
38.92500,78
38.93333,78
38.94167,78
38.95000,78
38.95833,78
38.96667,78
38.97500,78
38.98333,78
38.99167,78
39.00000,78
39.00833,78
39.01667,78
39.02500,77
39.03333,77
39.04167,77
39.05000,78
39.05833,78
39.06667,78
39.07500,79
39.08333,79
39.09167,79
39.10000,80
39.10833,80
39.11667,80
39.12500,80
39.13333,80
39.14167,80
39.15000,81
39.15833,81
39.16667,81
39.17500,81
39.18333,81
39.19167,80
39.20000,80
39.20833,80
39.21667,80
39.22500,80
39.23333,81
39.24167,81
39.25000,81
39.25833,81
39.26667,81
39.27500,81
39.28333,80
39.29167,80
39.30000,80
39.30833,80
39.31667,81
39.32500,81
39.33333,80
39.34167,80
39.35000,80
39.35833,80
39.36667,80
39.37500,80
39.38333,79
39.39167,79
39.40000,79
39.40833,79
39.41667,78
39.42500,78
39.43333,77
39.44167,77
39.45000,76
39.45833,76
39.46667,76
39.47500,76
39.48333,75
39.49167,75
39.50000,75
39.50833,75
39.51667,75
39.52500,75
39.53333,75
39.54167,74
39.55000,74
39.55833,74
39.56667,74
39.57500,74
39.58333,74
39.59167,74
39.60000,74
39.60833,74
39.61667,73
39.62500,73
39.63333,73
39.64167,73
39.65000,74
39.65833,74
39.66667,74
39.67500,74
39.68333,74
39.69167,74
39.70000,75
39.70833,75
39.71667,75
39.72500,75
39.73333,75
39.74167,76
39.75000,76
39.75833,76
39.76667,76
39.77500,76
39.78333,76
39.79167,77
39.80000,77
39.80833,77
39.81667,78
39.82500,77
39.83333,77
39.84167,78
39.85000,78
39.85833,78
39.86667,79
39.87500,79
39.88333,79
39.89167,79
39.90000,79
39.90833,79
39.91667,79
39.92500,79
39.93333,79
39.94167,79
39.95000,79
39.95833,79
39.96667,79
39.97500,79
39.98333,79
39.99167,79
40.00000,79

