[Header]
Application Name,LabSolutions
Version,5.97 SP1
Data File Name,C:\Users\cremerlab\Desktop\griffin\2021-04-05_NC_DM_calibration\2021-04-05_NC_DM_2.5mM_calibration_452021_004_004.lcd
Output Date,4/5/2021
Output Time,7:46:19 PM

[File Information]
Type,Data File
Generated,4/5/2021 7:06:00 PM
Generated by,System Administrator
Modified,4/5/2021 7:46:19 PM
Modified by,System Administrator

[Sample Information]
Operator Name,System Administrator
Acquired,4/5/2021 7:06:18 PM
Sample Type,1:Standard
Level,4
Sample Name,2021-04-05_NC_glucose_glycerol_acetate_15mM
Sample ID,004
ISTD Amount1,1
ISTD Amount2,1
ISTD Amount3,1
ISTD Amount4,1
ISTD Amount5,1
ISTD Amount6,1
ISTD Amount7,1
ISTD Amount8,1
ISTD Amount9,1
ISTD Amount10,1
ISTD Amount11,1
ISTD Amount12,1
ISTD Amount13,1
ISTD Amount14,1
ISTD Amount15,1
ISTD Amount16,1
ISTD Amount17,1
ISTD Amount18,1
ISTD Amount19,1
ISTD Amount20,1
ISTD Amount21,1
ISTD Amount22,1
ISTD Amount23,1
ISTD Amount24,1
ISTD Amount25,1
ISTD Amount26,1
ISTD Amount27,1
ISTD Amount28,1
ISTD Amount29,1
ISTD Amount30,1
ISTD Amount31,1
ISTD Amount32,1
Sample Amount,1
Dilution Factor,1
Vial#,4
Injection Volume,20

[Original Files]
Data File,C:\Users\cremerlab\Desktop\griffin\2021-04-05_NC_DM_calibration\2021-04-05_NC_DM_2.5mM_calibration_452021_004_004.lcd
Method File,C:\Users\cremerlab\Desktop\griffin\2021-04-05_NC_DM_calibration\2021-04-05_2.5mM_mobile.lcm
Batch File,C:\Users\cremerlab\Desktop\griffin\2021-04-05_NC_DM_calibration\2021-04-05_NC_DM_2.5mM_calibration.lcb
Report Format File,c:\LabSolutions\System\DEFAULT.lsr

[File Description]


[Configuration]
Instrument Name,HPLC-PC-Instrument1
Instrument #,1
Line #,1
# of Detectors,2
Detector ID,Detector A,Detector B
Detector Name,Detector A,Detector B
# of Channels,1,1

[Peak Table(Detector A)]
# of Peaks,0

[Peak Table(Detector B)]
# of Peaks,5
Peak#,R.Time,I.Time,F.Time,Area,Height,A/H,Conc.,Mark,ID#,Name,k',Plate #,Plate Ht.,Tailing,Resolution,Sep.Factor,Area Ratio,Height Ratio,Conc. %,Norm Conc.
1,11.001,10.600,12.592,1435011,80692,17.784,0.000,   ,,,0.000,9408,15.944,0.966,0.000,0.000,0,0,0.000,0.000
2,14.351,12.592,15.100,3643147,81523,44.688,0.000, V ,,,0.304,2832,52.963,0.621,4.372,0.000,0,0,0.000,0.000
3,15.664,15.100,17.992,1456259,57820,25.186,0.000, V ,,,0.424,9453,15.868,1.149,1.524,1.392,0,0,0.000,0.000
4,22.061,21.350,23.167,413599,15090,27.408,0.000,   ,,,1.005,14885,10.077,1.092,9.353,2.372,0,0,0.000,0.000
5,25.020,24.308,26.233,179832,6036,29.792,0.000,   ,,,1.274,16259,9.226,1.075,3.924,1.268,0,0,0.000,0.000

[LC Chromatogram(Detector B-Ch1)]
Interval(msec),500
# of Points,4801
Start Time(min),0.000
End Time(min),40.000
Intensity Units,mV
Intensity Multiplier,0.001
R.Time (min),Intensity
0.00000,-3
0.00833,-3
0.01667,0
0.02500,-0
0.03333,-0
0.04167,-0
0.05000,-1
0.05833,-1
0.06667,-2
0.07500,-2
0.08333,-2
0.09167,-2
0.10000,-3
0.10833,-3
0.11667,-3
0.12500,-3
0.13333,-3
0.14167,-3
0.15000,-3
0.15833,-3
0.16667,-3
0.17500,-3
0.18333,-4
0.19167,-4
0.20000,-5
0.20833,-5
0.21667,-5
0.22500,-5
0.23333,-5
0.24167,-5
0.25000,-5
0.25833,-6
0.26667,-6
0.27500,-6
0.28333,-6
0.29167,-6
0.30000,-7
0.30833,-7
0.31667,-7
0.32500,-7
0.33333,-7
0.34167,-7
0.35000,-6
0.35833,-6
0.36667,-6
0.37500,-7
0.38333,-7
0.39167,-6
0.40000,-6
0.40833,-7
0.41667,-7
0.42500,-7
0.43333,-6
0.44167,-6
0.45000,-6
0.45833,-6
0.46667,-5
0.47500,-5
0.48333,-5
0.49167,-5
0.50000,-5
0.50833,-5
0.51667,-5
0.52500,-5
0.53333,-5
0.54167,-5
0.55000,-5
0.55833,-5
0.56667,-4
0.57500,-4
0.58333,-4
0.59167,-4
0.60000,-4
0.60833,-4
0.61667,-4
0.62500,-3
0.63333,-3
0.64167,-2
0.65000,-2
0.65833,-2
0.66667,-2
0.67500,-2
0.68333,-2
0.69167,-2
0.70000,-2
0.70833,-1
0.71667,-1
0.72500,-1
0.73333,-1
0.74167,-1
0.75000,-1
0.75833,-1
0.76667,-1
0.77500,-1
0.78333,-0
0.79167,0
0.80000,0
0.80833,0
0.81667,0
0.82500,0
0.83333,0
0.84167,0
0.85000,0
0.85833,1
0.86667,1
0.87500,1
0.88333,1
0.89167,1
0.90000,1
0.90833,1
0.91667,1
0.92500,1
0.93333,1
0.94167,1
0.95000,1
0.95833,1
0.96667,1
0.97500,1
0.98333,2
0.99167,2
1.00000,2
1.00833,1
1.01667,1
1.02500,1
1.03333,1
1.04167,1
1.05000,1
1.05833,1
1.06667,1
1.07500,0
1.08333,-0
1.09167,-0
1.10000,-1
1.10833,-1
1.11667,-1
1.12500,-2
1.13333,-2
1.14167,-2
1.15000,-2
1.15833,-2
1.16667,-2
1.17500,-2
1.18333,-2
1.19167,-2
1.20000,-2
1.20833,-3
1.21667,-3
1.22500,-3
1.23333,-3
1.24167,-2
1.25000,-2
1.25833,-2
1.26667,-3
1.27500,-3
1.28333,-3
1.29167,-3
1.30000,-4
1.30833,-4
1.31667,-4
1.32500,-4
1.33333,-4
1.34167,-4
1.35000,-4
1.35833,-4
1.36667,-4
1.37500,-4
1.38333,-4
1.39167,-4
1.40000,-3
1.40833,-3
1.41667,-3
1.42500,-3
1.43333,-3
1.44167,-3
1.45000,-3
1.45833,-3
1.46667,-3
1.47500,-3
1.48333,-2
1.49167,-2
1.50000,-2
1.50833,-1
1.51667,-1
1.52500,-1
1.53333,-0
1.54167,0
1.55000,0
1.55833,-0
1.56667,0
1.57500,0
1.58333,1
1.59167,1
1.60000,1
1.60833,2
1.61667,2
1.62500,2
1.63333,3
1.64167,3
1.65000,3
1.65833,3
1.66667,3
1.67500,3
1.68333,3
1.69167,3
1.70000,4
1.70833,4
1.71667,4
1.72500,4
1.73333,4
1.74167,3
1.75000,3
1.75833,3
1.76667,2
1.77500,2
1.78333,2
1.79167,2
1.80000,2
1.80833,1
1.81667,1
1.82500,1
1.83333,1
1.84167,1
1.85000,1
1.85833,0
1.86667,-0
1.87500,-0
1.88333,-0
1.89167,-1
1.90000,-1
1.90833,-1
1.91667,-1
1.92500,-2
1.93333,-2
1.94167,-3
1.95000,-3
1.95833,-3
1.96667,-4
1.97500,-4
1.98333,-4
1.99167,-5
2.00000,-5
2.00833,-5
2.01667,-5
2.02500,-5
2.03333,-5
2.04167,-5
2.05000,-5
2.05833,-5
2.06667,-6
2.07500,-6
2.08333,-6
2.09167,-6
2.10000,-6
2.10833,-6
2.11667,-6
2.12500,-5
2.13333,-5
2.14167,-5
2.15000,-5
2.15833,-4
2.16667,-4
2.17500,-4
2.18333,-3
2.19167,-3
2.20000,-2
2.20833,-2
2.21667,-2
2.22500,-1
2.23333,-0
2.24167,0
2.25000,1
2.25833,2
2.26667,3
2.27500,3
2.28333,4
2.29167,4
2.30000,4
2.30833,5
2.31667,5
2.32500,6
2.33333,6
2.34167,7
2.35000,7
2.35833,8
2.36667,9
2.37500,10
2.38333,10
2.39167,11
2.40000,11
2.40833,12
2.41667,12
2.42500,12
2.43333,12
2.44167,13
2.45000,13
2.45833,13
2.46667,14
2.47500,14
2.48333,14
2.49167,15
2.50000,15
2.50833,15
2.51667,16
2.52500,16
2.53333,16
2.54167,16
2.55000,16
2.55833,16
2.56667,16
2.57500,16
2.58333,16
2.59167,16
2.60000,17
2.60833,17
2.61667,17
2.62500,16
2.63333,15
2.64167,15
2.65000,15
2.65833,15
2.66667,14
2.67500,14
2.68333,13
2.69167,13
2.70000,13
2.70833,12
2.71667,12
2.72500,11
2.73333,11
2.74167,10
2.75000,10
2.75833,9
2.76667,9
2.77500,8
2.78333,7
2.79167,7
2.80000,6
2.80833,6
2.81667,6
2.82500,5
2.83333,5
2.84167,4
2.85000,4
2.85833,3
2.86667,3
2.87500,2
2.88333,1
2.89167,0
2.90000,-1
2.90833,-2
2.91667,-2
2.92500,-2
2.93333,-3
2.94167,-3
2.95000,-4
2.95833,-4
2.96667,-4
2.97500,-5
2.98333,-5
2.99167,-6
3.00000,-6
3.00833,-7
3.01667,-7
3.02500,-8
3.03333,-8
3.04167,-8
3.05000,-9
3.05833,-9
3.06667,-9
3.07500,-9
3.08333,-9
3.09167,-9
3.10000,-9
3.10833,-9
3.11667,-9
3.12500,-9
3.13333,-9
3.14167,-10
3.15000,-10
3.15833,-10
3.16667,-10
3.17500,-10
3.18333,-10
3.19167,-10
3.20000,-10
3.20833,-10
3.21667,-10
3.22500,-10
3.23333,-9
3.24167,-9
3.25000,-9
3.25833,-8
3.26667,-8
3.27500,-7
3.28333,-7
3.29167,-7
3.30000,-6
3.30833,-6
3.31667,-6
3.32500,-5
3.33333,-5
3.34167,-5
3.35000,-5
3.35833,-5
3.36667,-4
3.37500,-4
3.38333,-3
3.39167,-3
3.40000,-3
3.40833,-3
3.41667,-3
3.42500,-3
3.43333,-3
3.44167,-2
3.45000,-2
3.45833,-2
3.46667,-2
3.47500,-2
3.48333,-1
3.49167,-2
3.50000,-2
3.50833,-2
3.51667,-2
3.52500,-1
3.53333,-1
3.54167,-1
3.55000,-1
3.55833,-1
3.56667,-0
3.57500,-0
3.58333,0
3.59167,0
3.60000,0
3.60833,0
3.61667,0
3.62500,1
3.63333,1
3.64167,1
3.65000,2
3.65833,2
3.66667,2
3.67500,2
3.68333,2
3.69167,2
3.70000,2
3.70833,2
3.71667,1
3.72500,1
3.73333,1
3.74167,1
3.75000,1
3.75833,2
3.76667,2
3.77500,2
3.78333,2
3.79167,2
3.80000,2
3.80833,2
3.81667,2
3.82500,3
3.83333,3
3.84167,3
3.85000,2
3.85833,2
3.86667,1
3.87500,1
3.88333,1
3.89167,1
3.90000,1
3.90833,1
3.91667,1
3.92500,0
3.93333,0
3.94167,-0
3.95000,-1
3.95833,-1
3.96667,-1
3.97500,-2
3.98333,-2
3.99167,-3
4.00000,-3
4.00833,-3
4.01667,-3
4.02500,-4
4.03333,-4
4.04167,-4
4.05000,-4
4.05833,-4
4.06667,-4
4.07500,-4
4.08333,-4
4.09167,-4
4.10000,-5
4.10833,-5
4.11667,-5
4.12500,-6
4.13333,-6
4.14167,-6
4.15000,-6
4.15833,-6
4.16667,-7
4.17500,-7
4.18333,-7
4.19167,-7
4.20000,-7
4.20833,-7
4.21667,-7
4.22500,-7
4.23333,-7
4.24167,-7
4.25000,-7
4.25833,-7
4.26667,-7
4.27500,-6
4.28333,-6
4.29167,-6
4.30000,-6
4.30833,-6
4.31667,-5
4.32500,-5
4.33333,-5
4.34167,-5
4.35000,-4
4.35833,-4
4.36667,-4
4.37500,-3
4.38333,-3
4.39167,-2
4.40000,-2
4.40833,-1
4.41667,-1
4.42500,-0
4.43333,0
4.44167,0
4.45000,0
4.45833,0
4.46667,0
4.47500,0
4.48333,0
4.49167,0
4.50000,0
4.50833,1
4.51667,1
4.52500,2
4.53333,2
4.54167,3
4.55000,3
4.55833,3
4.56667,3
4.57500,4
4.58333,4
4.59167,4
4.60000,4
4.60833,4
4.61667,4
4.62500,4
4.63333,5
4.64167,5
4.65000,5
4.65833,6
4.66667,6
4.67500,7
4.68333,7
4.69167,7
4.70000,7
4.70833,8
4.71667,8
4.72500,8
4.73333,9
4.74167,9
4.75000,9
4.75833,10
4.76667,10
4.77500,11
4.78333,11
4.79167,11
4.80000,11
4.80833,11
4.81667,11
4.82500,11
4.83333,11
4.84167,12
4.85000,12
4.85833,12
4.86667,12
4.87500,13
4.88333,12
4.89167,12
4.90000,12
4.90833,12
4.91667,12
4.92500,12
4.93333,12
4.94167,12
4.95000,12
4.95833,12
4.96667,12
4.97500,12
4.98333,12
4.99167,12
5.00000,12
5.00833,12
5.01667,12
5.02500,12
5.03333,12
5.04167,12
5.05000,12
5.05833,12
5.06667,11
5.07500,11
5.08333,11
5.09167,11
5.10000,11
5.10833,10
5.11667,9
5.12500,9
5.13333,9
5.14167,9
5.15000,8
5.15833,8
5.16667,8
5.17500,8
5.18333,7
5.19167,7
5.20000,7
5.20833,6
5.21667,5
5.22500,5
5.23333,5
5.24167,5
5.25000,4
5.25833,4
5.26667,4
5.27500,3
5.28333,3
5.29167,2
5.30000,2
5.30833,1
5.31667,1
5.32500,0
5.33333,-0
5.34167,-0
5.35000,-0
5.35833,-0
5.36667,-0
5.37500,-1
5.38333,-1
5.39167,-1
5.40000,-1
5.40833,-1
5.41667,-1
5.42500,-1
5.43333,-2
5.44167,-2
5.45000,-2
5.45833,-2
5.46667,-2
5.47500,-2
5.48333,-2
5.49167,-2
5.50000,-2
5.50833,-2
5.51667,-1
5.52500,-1
5.53333,-1
5.54167,-0
5.55000,-0
5.55833,0
5.56667,0
5.57500,0
5.58333,1
5.59167,1
5.60000,2
5.60833,2
5.61667,2
5.62500,3
5.63333,3
5.64167,4
5.65000,4
5.65833,5
5.66667,5
5.67500,5
5.68333,5
5.69167,6
5.70000,6
5.70833,7
5.71667,8
5.72500,8
5.73333,8
5.74167,8
5.75000,8
5.75833,9
5.76667,9
5.77500,9
5.78333,10
5.79167,10
5.80000,10
5.80833,11
5.81667,11
5.82500,11
5.83333,10
5.84167,10
5.85000,10
5.85833,10
5.86667,10
5.87500,10
5.88333,10
5.89167,9
5.90000,9
5.90833,9
5.91667,9
5.92500,8
5.93333,8
5.94167,8
5.95000,8
5.95833,8
5.96667,7
5.97500,7
5.98333,7
5.99167,6
6.00000,6
6.00833,5
6.01667,5
6.02500,4
6.03333,3
6.04167,3
6.05000,3
6.05833,2
6.06667,2
6.07500,2
6.08333,1
6.09167,1
6.10000,1
6.10833,0
6.11667,0
6.12500,-0
6.13333,-1
6.14167,-1
6.15000,-1
6.15833,-1
6.16667,-1
6.17500,-1
6.18333,-2
6.19167,-2
6.20000,-2
6.20833,-2
6.21667,-3
6.22500,-3
6.23333,-3
6.24167,-3
6.25000,-2
6.25833,-2
6.26667,-2
6.27500,-2
6.28333,-2
6.29167,-2
6.30000,-2
6.30833,-1
6.31667,-1
6.32500,-1
6.33333,-1
6.34167,-1
6.35000,-1
6.35833,-1
6.36667,-0
6.37500,-0
6.38333,0
6.39167,0
6.40000,0
6.40833,1
6.41667,1
6.42500,0
6.43333,0
6.44167,0
6.45000,0
6.45833,1
6.46667,1
6.47500,1
6.48333,2
6.49167,2
6.50000,1
6.50833,1
6.51667,1
6.52500,1
6.53333,2
6.54167,2
6.55000,2
6.55833,2
6.56667,2
6.57500,2
6.58333,3
6.59167,3
6.60000,3
6.60833,3
6.61667,3
6.62500,4
6.63333,4
6.64167,4
6.65000,4
6.65833,4
6.66667,5
6.67500,5
6.68333,5
6.69167,5
6.70000,5
6.70833,6
6.71667,6
6.72500,6
6.73333,6
6.74167,6
6.75000,6
6.75833,6
6.76667,7
6.77500,7
6.78333,7
6.79167,8
6.80000,8
6.80833,9
6.81667,9
6.82500,10
6.83333,10
6.84167,11
6.85000,11
6.85833,11
6.86667,11
6.87500,12
6.88333,12
6.89167,12
6.90000,13
6.90833,13
6.91667,13
6.92500,13
6.93333,14
6.94167,14
6.95000,15
6.95833,15
6.96667,15
6.97500,15
6.98333,15
6.99167,15
7.00000,15
7.00833,15
7.01667,15
7.02500,16
7.03333,16
7.04167,16
7.05000,16
7.05833,16
7.06667,16
7.07500,16
7.08333,16
7.09167,15
7.10000,15
7.10833,15
7.11667,15
7.12500,15
7.13333,15
7.14167,15
7.15000,15
7.15833,15
7.16667,15
7.17500,15
7.18333,15
7.19167,14
7.20000,14
7.20833,14
7.21667,14
7.22500,14
7.23333,14
7.24167,14
7.25000,14
7.25833,14
7.26667,13
7.27500,13
7.28333,12
7.29167,12
7.30000,11
7.30833,11
7.31667,11
7.32500,10
7.33333,10
7.34167,10
7.35000,10
7.35833,10
7.36667,10
7.37500,9
7.38333,9
7.39167,9
7.40000,8
7.40833,8
7.41667,7
7.42500,7
7.43333,7
7.44167,7
7.45000,6
7.45833,6
7.46667,6
7.47500,6
7.48333,5
7.49167,5
7.50000,5
7.50833,4
7.51667,4
7.52500,4
7.53333,4
7.54167,4
7.55000,3
7.55833,3
7.56667,2
7.57500,2
7.58333,2
7.59167,2
7.60000,1
7.60833,1
7.61667,1
7.62500,1
7.63333,1
7.64167,1
7.65000,1
7.65833,1
7.66667,1
7.67500,1
7.68333,0
7.69167,0
7.70000,1
7.70833,0
7.71667,0
7.72500,0
7.73333,0
7.74167,0
7.75000,1
7.75833,1
7.76667,1
7.77500,1
7.78333,1
7.79167,2
7.80000,2
7.80833,3
7.81667,3
7.82500,3
7.83333,3
7.84167,3
7.85000,3
7.85833,3
7.86667,4
7.87500,4
7.88333,4
7.89167,4
7.90000,4
7.90833,5
7.91667,5
7.92500,5
7.93333,5
7.94167,6
7.95000,6
7.95833,6
7.96667,6
7.97500,7
7.98333,7
7.99167,8
8.00000,8
8.00833,9
8.01667,9
8.02500,8
8.03333,8
8.04167,8
8.05000,8
8.05833,8
8.06667,9
8.07500,9
8.08333,9
8.09167,10
8.10000,10
8.10833,11
8.11667,11
8.12500,11
8.13333,11
8.14167,11
8.15000,11
8.15833,11
8.16667,11
8.17500,12
8.18333,12
8.19167,13
8.20000,13
8.20833,13
8.21667,14
8.22500,14
8.23333,14
8.24167,15
8.25000,15
8.25833,15
8.26667,16
8.27500,16
8.28333,16
8.29167,16
8.30000,16
8.30833,16
8.31667,16
8.32500,16
8.33333,16
8.34167,17
8.35000,17
8.35833,17
8.36667,17
8.37500,18
8.38333,18
8.39167,18
8.40000,18
8.40833,18
8.41667,18
8.42500,18
8.43333,18
8.44167,18
8.45000,18
8.45833,18
8.46667,18
8.47500,18
8.48333,18
8.49167,17
8.50000,16
8.50833,16
8.51667,15
8.52500,15
8.53333,15
8.54167,15
8.55000,15
8.55833,14
8.56667,14
8.57500,14
8.58333,14
8.59167,14
8.60000,14
8.60833,13
8.61667,14
8.62500,13
8.63333,13
8.64167,13
8.65000,12
8.65833,12
8.66667,11
8.67500,11
8.68333,10
8.69167,10
8.70000,9
8.70833,8
8.71667,8
8.72500,7
8.73333,7
8.74167,7
8.75000,6
8.75833,6
8.76667,6
8.77500,6
8.78333,6
8.79167,6
8.80000,6
8.80833,6
8.81667,5
8.82500,5
8.83333,5
8.84167,4
8.85000,4
8.85833,4
8.86667,4
8.87500,3
8.88333,3
8.89167,3
8.90000,3
8.90833,3
8.91667,3
8.92500,3
8.93333,3
8.94167,2
8.95000,2
8.95833,1
8.96667,1
8.97500,1
8.98333,1
8.99167,1
9.00000,1
9.00833,1
9.01667,1
9.02500,1
9.03333,1
9.04167,1
9.05000,1
9.05833,1
9.06667,2
9.07500,1
9.08333,1
9.09167,1
9.10000,2
9.10833,2
9.11667,2
9.12500,2
9.13333,2
9.14167,2
9.15000,3
9.15833,3
9.16667,3
9.17500,4
9.18333,4
9.19167,4
9.20000,5
9.20833,5
9.21667,5
9.22500,5
9.23333,5
9.24167,5
9.25000,6
9.25833,5
9.26667,6
9.27500,6
9.28333,6
9.29167,6
9.30000,7
9.30833,7
9.31667,7
9.32500,8
9.33333,8
9.34167,9
9.35000,9
9.35833,9
9.36667,10
9.37500,10
9.38333,10
9.39167,11
9.40000,11
9.40833,11
9.41667,11
9.42500,11
9.43333,11
9.44167,11
9.45000,11
9.45833,12
9.46667,12
9.47500,13
9.48333,13
9.49167,13
9.50000,13
9.50833,13
9.51667,13
9.52500,13
9.53333,14
9.54167,14
9.55000,14
9.55833,15
9.56667,15
9.57500,15
9.58333,15
9.59167,16
9.60000,16
9.60833,16
9.61667,16
9.62500,16
9.63333,16
9.64167,16
9.65000,16
9.65833,16
9.66667,17
9.67500,17
9.68333,17
9.69167,17
9.70000,17
9.70833,17
9.71667,17
9.72500,17
9.73333,17
9.74167,17
9.75000,17
9.75833,17
9.76667,17
9.77500,17
9.78333,18
9.79167,18
9.80000,18
9.80833,18
9.81667,18
9.82500,18
9.83333,18
9.84167,18
9.85000,18
9.85833,18
9.86667,18
9.87500,18
9.88333,18
9.89167,18
9.90000,18
9.90833,18
9.91667,18
9.92500,17
9.93333,17
9.94167,17
9.95000,17
9.95833,17
9.96667,17
9.97500,17
9.98333,17
9.99167,17
10.00000,16
10.00833,16
10.01667,16
10.02500,16
10.03333,16
10.04167,16
10.05000,16
10.05833,16
10.06667,16
10.07500,16
10.08333,15
10.09167,15
10.10000,15
10.10833,15
10.11667,14
10.12500,14
10.13333,14
10.14167,14
10.15000,14
10.15833,14
10.16667,14
10.17500,14
10.18333,14
10.19167,13
10.20000,13
10.20833,13
10.21667,13
10.22500,13
10.23333,12
10.24167,12
10.25000,11
10.25833,11
10.26667,12
10.27500,11
10.28333,11
10.29167,11
10.30000,12
10.30833,12
10.31667,12
10.32500,12
10.33333,12
10.34167,12
10.35000,12
10.35833,12
10.36667,12
10.37500,12
10.38333,12
10.39167,11
10.40000,10
10.40833,8
10.41667,5
10.42500,-0
10.43333,-6
10.44167,-15
10.45000,-26
10.45833,-41
10.46667,-60
10.47500,-85
10.48333,-116
10.49167,-154
10.50000,-199
10.50833,-253
10.51667,-315
10.52500,-386
10.53333,-463
10.54167,-547
10.55000,-634
10.55833,-722
10.56667,-807
10.57500,-884
10.58333,-949
10.59167,-995
10.60000,-1016
10.60833,-1004
10.61667,-951
10.62500,-851
10.63333,-696
10.64167,-478
10.65000,-190
10.65833,175
10.66667,623
10.67500,1160
10.68333,1791
10.69167,2521
10.70000,3353
10.70833,4292
10.71667,5339
10.72500,6496
10.73333,7765
10.74167,9147
10.75000,10642
10.75833,12250
10.76667,13969
10.77500,15799
10.78333,17738
10.79167,19784
10.80000,21935
10.80833,24187
10.81667,26537
10.82500,28981
10.83333,31516
10.84167,34134
10.85000,36832
10.85833,39600
10.86667,42433
10.87500,45322
10.88333,48254
10.89167,51218
10.90000,54199
10.90833,57177
10.91667,60131
10.92500,63034
10.93333,65854
10.94167,68553
10.95000,71087
10.95833,73406
10.96667,75454
10.97500,77171
10.98333,78496
10.99167,79370
11.00000,79739
11.00833,79562
11.01667,78809
11.02500,77472
11.03333,75559
11.04167,73103
11.05000,70155
11.05833,66782
11.06667,63064
11.07500,59088
11.08333,54947
11.09167,50727
11.10000,46512
11.10833,42375
11.11667,38376
11.12500,34565
11.13333,30979
11.14167,27642
11.15000,24568
11.15833,21761
11.16667,19219
11.17500,16934
11.18333,14891
11.19167,13076
11.20000,11472
11.20833,10059
11.21667,8819
11.22500,7734
11.23333,6787
11.24167,5963
11.25000,5247
11.25833,4625
11.26667,4086
11.27500,3618
11.28333,3213
11.29167,2862
11.30000,2558
11.30833,2294
11.31667,2065
11.32500,1865
11.33333,1691
11.34167,1540
11.35000,1407
11.35833,1290
11.36667,1188
11.37500,1097
11.38333,1017
11.39167,946
11.40000,882
11.40833,825
11.41667,774
11.42500,727
11.43333,686
11.44167,647
11.45000,612
11.45833,580
11.46667,551
11.47500,524
11.48333,498
11.49167,475
11.50000,453
11.50833,432
11.51667,413
11.52500,396
11.53333,379
11.54167,364
11.55000,349
11.55833,335
11.56667,322
11.57500,309
11.58333,297
11.59167,286
11.60000,276
11.60833,266
11.61667,256
11.62500,247
11.63333,239
11.64167,231
11.65000,224
11.65833,217
11.66667,211
11.67500,205
11.68333,199
11.69167,194
11.70000,189
11.70833,184
11.71667,180
11.72500,177
11.73333,173
11.74167,170
11.75000,167
11.75833,164
11.76667,162
11.77500,160
11.78333,158
11.79167,156
11.80000,154
11.80833,153
11.81667,151
11.82500,150
11.83333,149
11.84167,148
11.85000,146
11.85833,145
11.86667,145
11.87500,144
11.88333,143
11.89167,143
11.90000,142
11.90833,142
11.91667,141
11.92500,141
11.93333,140
11.94167,139
11.95000,138
11.95833,137
11.96667,137
11.97500,136
11.98333,135
11.99167,134
12.00000,134
12.00833,133
12.01667,133
12.02500,132
12.03333,131
12.04167,130
12.05000,130
12.05833,129
12.06667,128
12.07500,126
12.08333,125
12.09167,124
12.10000,124
12.10833,123
12.11667,122
12.12500,121
12.13333,120
12.14167,119
12.15000,118
12.15833,117
12.16667,117
12.17500,116
12.18333,116
12.19167,115
12.20000,114
12.20833,114
12.21667,113
12.22500,112
12.23333,111
12.24167,110
12.25000,109
12.25833,109
12.26667,108
12.27500,107
12.28333,106
12.29167,106
12.30000,105
12.30833,104
12.31667,103
12.32500,102
12.33333,101
12.34167,101
12.35000,100
12.35833,99
12.36667,98
12.37500,98
12.38333,97
12.39167,96
12.40000,95
12.40833,94
12.41667,94
12.42500,93
12.43333,92
12.44167,91
12.45000,91
12.45833,90
12.46667,89
12.47500,89
12.48333,88
12.49167,88
12.50000,87
12.50833,87
12.51667,86
12.52500,86
12.53333,85
12.54167,84
12.55000,83
12.55833,83
12.56667,82
12.57500,82
12.58333,81
12.59167,81
12.60000,81
12.60833,81
12.61667,81
12.62500,81
12.63333,81
12.64167,82
12.65000,82
12.65833,83
12.66667,85
12.67500,87
12.68333,89
12.69167,93
12.70000,97
12.70833,103
12.71667,110
12.72500,118
12.73333,129
12.74167,141
12.75000,156
12.75833,174
12.76667,194
12.77500,219
12.78333,247
12.79167,279
12.80000,316
12.80833,358
12.81667,406
12.82500,459
12.83333,517
12.84167,582
12.85000,653
12.85833,731
12.86667,816
12.87500,908
12.88333,1007
12.89167,1112
12.90000,1225
12.90833,1345
12.91667,1471
12.92500,1605
12.93333,1745
12.94167,1893
12.95000,2047
12.95833,2208
12.96667,2375
12.97500,2549
12.98333,2728
12.99167,2913
13.00000,3104
13.00833,3301
13.01667,3503
13.02500,3710
13.03333,3923
13.04167,4140
13.05000,4362
13.05833,4589
13.06667,4821
13.07500,5057
13.08333,5297
13.09167,5542
13.10000,5790
13.10833,6042
13.11667,6298
13.12500,6558
13.13333,6821
13.14167,7087
13.15000,7356
13.15833,7629
13.16667,7906
13.17500,8185
13.18333,8468
13.19167,8754
13.20000,9044
13.20833,9336
13.21667,9630
13.22500,9928
13.23333,10228
13.24167,10532
13.25000,10838
13.25833,11147
13.26667,11459
13.27500,11774
13.28333,12091
13.29167,12412
13.30000,12735
13.30833,13060
13.31667,13388
13.32500,13720
13.33333,14054
13.34167,14391
13.35000,14730
13.35833,15072
13.36667,15417
13.37500,15764
13.38333,16114
13.39167,16467
13.40000,16823
13.40833,17181
13.41667,17543
13.42500,17907
13.43333,18274
13.44167,18644
13.45000,19017
13.45833,19393
13.46667,19771
13.47500,20153
13.48333,20538
13.49167,20926
13.50000,21317
13.50833,21710
13.51667,22107
13.52500,22507
13.53333,22910
13.54167,23316
13.55000,23725
13.55833,24137
13.56667,24553
13.57500,24972
13.58333,25395
13.59167,25821
13.60000,26250
13.60833,26682
13.61667,27118
13.62500,27557
13.63333,28000
13.64167,28446
13.65000,28895
13.65833,29348
13.66667,29805
13.67500,30266
13.68333,30730
13.69167,31198
13.70000,31669
13.70833,32144
13.71667,32622
13.72500,33105
13.73333,33592
13.74167,34083
13.75000,34578
13.75833,35077
13.76667,35579
13.77500,36085
13.78333,36596
13.79167,37110
13.80000,37629
13.80833,38151
13.81667,38678
13.82500,39209
13.83333,39745
13.84167,40285
13.85000,40830
13.85833,41378
13.86667,41932
13.87500,42489
13.88333,43052
13.89167,43619
13.90000,44190
13.90833,44766
13.91667,45347
13.92500,45933
13.93333,46524
13.94167,47120
13.95000,47721
13.95833,48327
13.96667,48937
13.97500,49553
13.98333,50175
13.99167,50801
14.00000,51433
14.00833,52070
14.01667,52713
14.02500,53362
14.03333,54016
14.04167,54675
14.05000,55340
14.05833,56010
14.06667,56687
14.07500,57369
14.08333,58057
14.09167,58751
14.10000,59452
14.10833,60158
14.11667,60871
14.12500,61589
14.13333,62314
14.14167,63045
14.15000,63783
14.15833,64528
14.16667,65279
14.17500,66037
14.18333,66802
14.19167,67573
14.20000,68351
14.20833,69136
14.21667,69928
14.22500,70726
14.23333,71532
14.24167,72344
14.25000,73164
14.25833,73988
14.26667,74816
14.27500,75646
14.28333,76471
14.29167,77284
14.30000,78074
14.30833,78825
14.31667,79517
14.32500,80124
14.33333,80615
14.34167,80953
14.35000,81101
14.35833,81017
14.36667,80661
14.37500,79996
14.38333,78992
14.39167,77627
14.40000,75887
14.40833,73773
14.41667,71295
14.42500,68477
14.43333,65355
14.44167,61974
14.45000,58387
14.45833,54655
14.46667,50838
14.47500,46997
14.48333,43192
14.49167,39474
14.50000,35891
14.50833,32480
14.51667,29270
14.52500,26280
14.53333,23524
14.54167,21004
14.55000,18719
14.55833,16661
14.56667,14818
14.57500,13177
14.58333,11722
14.59167,10436
14.60000,9302
14.60833,8306
14.61667,7431
14.62500,6663
14.63333,5991
14.64167,5402
14.65000,4885
14.65833,4431
14.66667,4033
14.67500,3682
14.68333,3374
14.69167,3101
14.70000,2859
14.70833,2645
14.71667,2454
14.72500,2284
14.73333,2132
14.74167,1996
14.75000,1874
14.75833,1764
14.76667,1664
14.77500,1574
14.78333,1492
14.79167,1417
14.80000,1349
14.80833,1286
14.81667,1228
14.82500,1175
14.83333,1126
14.84167,1081
14.85000,1039
14.85833,1000
14.86667,964
14.87500,930
14.88333,899
14.89167,870
14.90000,843
14.90833,818
14.91667,794
14.92500,771
14.93333,750
14.94167,730
14.95000,712
14.95833,695
14.96667,678
14.97500,663
14.98333,649
14.99167,636
15.00000,624
15.00833,614
15.01667,604
15.02500,595
15.03333,586
15.04167,579
15.05000,572
15.05833,566
15.06667,562
15.07500,558
15.08333,555
15.09167,553
15.10000,553
15.10833,553
15.11667,556
15.12500,560
15.13333,567
15.14167,576
15.15000,588
15.15833,604
15.16667,624
15.17500,649
15.18333,679
15.19167,717
15.20000,763
15.20833,819
15.21667,886
15.22500,966
15.23333,1061
15.24167,1174
15.25000,1308
15.25833,1465
15.26667,1648
15.27500,1862
15.28333,2109
15.29167,2394
15.30000,2722
15.30833,3096
15.31667,3520
15.32500,4001
15.33333,4541
15.34167,5147
15.35000,5823
15.35833,6572
15.36667,7399
15.37500,8307
15.38333,9299
15.39167,10379
15.40000,11547
15.40833,12804
15.41667,14150
15.42500,15584
15.43333,17104
15.44167,18706
15.45000,20386
15.45833,22139
15.46667,23957
15.47500,25831
15.48333,27754
15.49167,29715
15.50000,31702
15.50833,33703
15.51667,35706
15.52500,37697
15.53333,39663
15.54167,41588
15.55000,43460
15.55833,45264
15.56667,46988
15.57500,48617
15.58333,50140
15.59167,51545
15.60000,52822
15.60833,53961
15.61667,54956
15.62500,55798
15.63333,56484
15.64167,57009
15.65000,57371
15.65833,57570
15.66667,57606
15.67500,57482
15.68333,57200
15.69167,56767
15.70000,56188
15.70833,55469
15.71667,54620
15.72500,53647
15.73333,52562
15.74167,51373
15.75000,50091
15.75833,48727
15.76667,47291
15.77500,45794
15.78333,44245
15.79167,42657
15.80000,41040
15.80833,39401
15.81667,37751
15.82500,36098
15.83333,34451
15.84167,32818
15.85000,31204
15.85833,29617
15.86667,28062
15.87500,26543
15.88333,25066
15.89167,23633
15.90000,22249
15.90833,20915
15.91667,19633
15.92500,18405
15.93333,17231
15.94167,16113
15.95000,15050
15.95833,14041
15.96667,13087
15.97500,12186
15.98333,11337
15.99167,10539
16.00000,9790
16.00833,9088
16.01667,8432
16.02500,7820
16.03333,7250
16.04167,6719
16.05000,6227
16.05833,5769
16.06667,5345
16.07500,4953
16.08333,4590
16.09167,4255
16.10000,3947
16.10833,3662
16.11667,3400
16.12500,3159
16.13333,2938
16.14167,2735
16.15000,2549
16.15833,2378
16.16667,2220
16.17500,2076
16.18333,1944
16.19167,1823
16.20000,1713
16.20833,1611
16.21667,1518
16.22500,1432
16.23333,1354
16.24167,1282
16.25000,1216
16.25833,1155
16.26667,1099
16.27500,1049
16.28333,1002
16.29167,959
16.30000,919
16.30833,882
16.31667,849
16.32500,818
16.33333,789
16.34167,763
16.35000,738
16.35833,715
16.36667,694
16.37500,674
16.38333,655
16.39167,638
16.40000,622
16.40833,607
16.41667,593
16.42500,580
16.43333,567
16.44167,555
16.45000,545
16.45833,534
16.46667,525
16.47500,516
16.48333,507
16.49167,499
16.50000,492
16.50833,484
16.51667,477
16.52500,471
16.53333,464
16.54167,458
16.55000,453
16.55833,447
16.56667,441
16.57500,436
16.58333,432
16.59167,427
16.60000,423
16.60833,419
16.61667,415
16.62500,411
16.63333,407
16.64167,403
16.65000,399
16.65833,396
16.66667,393
16.67500,389
16.68333,386
16.69167,383
16.70000,379
16.70833,376
16.71667,373
16.72500,371
16.73333,368
16.74167,366
16.75000,363
16.75833,361
16.76667,358
16.77500,355
16.78333,353
16.79167,350
16.80000,348
16.80833,345
16.81667,343
16.82500,341
16.83333,339
16.84167,337
16.85000,335
16.85833,333
16.86667,331
16.87500,329
16.88333,327
16.89167,325
16.90000,324
16.90833,322
16.91667,320
16.92500,318
16.93333,317
16.94167,315
16.95000,313
16.95833,311
16.96667,309
16.97500,307
16.98333,306
16.99167,304
17.00000,302
17.00833,301
17.01667,299
17.02500,297
17.03333,296
17.04167,294
17.05000,292
17.05833,291
17.06667,290
17.07500,289
17.08333,288
17.09167,286
17.10000,285
17.10833,284
17.11667,282
17.12500,281
17.13333,280
17.14167,279
17.15000,278
17.15833,276
17.16667,275
17.17500,274
17.18333,272
17.19167,271
17.20000,269
17.20833,268
17.21667,266
17.22500,264
17.23333,263
17.24167,261
17.25000,260
17.25833,258
17.26667,257
17.27500,255
17.28333,253
17.29167,251
17.30000,249
17.30833,248
17.31667,246
17.32500,244
17.33333,243
17.34167,241
17.35000,239
17.35833,238
17.36667,237
17.37500,235
17.38333,233
17.39167,231
17.40000,230
17.40833,228
17.41667,226
17.42500,225
17.43333,223
17.44167,221
17.45000,220
17.45833,218
17.46667,216
17.47500,214
17.48333,212
17.49167,210
17.50000,208
17.50833,206
17.51667,205
17.52500,204
17.53333,202
17.54167,201
17.55000,200
17.55833,198
17.56667,197
17.57500,195
17.58333,194
17.59167,192
17.60000,191
17.60833,190
17.61667,188
17.62500,187
17.63333,185
17.64167,184
17.65000,183
17.65833,181
17.66667,180
17.67500,179
17.68333,178
17.69167,177
17.70000,176
17.70833,174
17.71667,173
17.72500,173
17.73333,172
17.74167,172
17.75000,171
17.75833,170
17.76667,169
17.77500,169
17.78333,168
17.79167,168
17.80000,167
17.80833,166
17.81667,165
17.82500,164
17.83333,164
17.84167,163
17.85000,163
17.85833,162
17.86667,162
17.87500,162
17.88333,161
17.89167,160
17.90000,160
17.90833,159
17.91667,159
17.92500,158
17.93333,157
17.94167,157
17.95000,156
17.95833,156
17.96667,156
17.97500,155
17.98333,154
17.99167,154
18.00000,154
18.00833,154
18.01667,153
18.02500,153
18.03333,152
18.04167,152
18.05000,151
18.05833,151
18.06667,150
18.07500,150
18.08333,149
18.09167,149
18.10000,148
18.10833,147
18.11667,147
18.12500,146
18.13333,146
18.14167,145
18.15000,145
18.15833,144
18.16667,144
18.17500,144
18.18333,143
18.19167,143
18.20000,142
18.20833,142
18.21667,142
18.22500,141
18.23333,140
18.24167,140
18.25000,140
18.25833,139
18.26667,139
18.27500,139
18.28333,139
18.29167,138
18.30000,138
18.30833,137
18.31667,136
18.32500,136
18.33333,136
18.34167,135
18.35000,134
18.35833,134
18.36667,134
18.37500,133
18.38333,133
18.39167,133
18.40000,132
18.40833,132
18.41667,132
18.42500,132
18.43333,132
18.44167,131
18.45000,130
18.45833,130
18.46667,130
18.47500,129
18.48333,129
18.49167,129
18.50000,129
18.50833,128
18.51667,128
18.52500,127
18.53333,126
18.54167,126
18.55000,126
18.55833,125
18.56667,124
18.57500,124
18.58333,124
18.59167,123
18.60000,123
18.60833,122
18.61667,121
18.62500,120
18.63333,120
18.64167,119
18.65000,119
18.65833,119
18.66667,119
18.67500,118
18.68333,118
18.69167,117
18.70000,117
18.70833,117
18.71667,116
18.72500,116
18.73333,116
18.74167,116
18.75000,116
18.75833,116
18.76667,116
18.77500,116
18.78333,116
18.79167,116
18.80000,117
18.80833,117
18.81667,117
18.82500,117
18.83333,117
18.84167,118
18.85000,119
18.85833,119
18.86667,120
18.87500,121
18.88333,122
18.89167,123
18.90000,124
18.90833,125
18.91667,126
18.92500,127
18.93333,128
18.94167,129
18.95000,130
18.95833,131
18.96667,132
18.97500,133
18.98333,134
18.99167,135
19.00000,136
19.00833,136
19.01667,137
19.02500,137
19.03333,138
19.04167,138
19.05000,138
19.05833,138
19.06667,138
19.07500,138
19.08333,138
19.09167,138
19.10000,137
19.10833,137
19.11667,136
19.12500,135
19.13333,135
19.14167,134
19.15000,133
19.15833,133
19.16667,132
19.17500,131
19.18333,129
19.19167,128
19.20000,127
19.20833,125
19.21667,124
19.22500,123
19.23333,122
19.24167,120
19.25000,119
19.25833,118
19.26667,117
19.27500,116
19.28333,115
19.29167,114
19.30000,113
19.30833,111
19.31667,110
19.32500,109
19.33333,108
19.34167,107
19.35000,106
19.35833,105
19.36667,104
19.37500,103
19.38333,102
19.39167,101
19.40000,100
19.40833,99
19.41667,98
19.42500,97
19.43333,97
19.44167,96
19.45000,95
19.45833,94
19.46667,93
19.47500,93
19.48333,92
19.49167,91
19.50000,91
19.50833,90
19.51667,90
19.52500,89
19.53333,87
19.54167,86
19.55000,86
19.55833,85
19.56667,84
19.57500,84
19.58333,84
19.59167,84
19.60000,83
19.60833,82
19.61667,81
19.62500,81
19.63333,80
19.64167,80
19.65000,79
19.65833,79
19.66667,78
19.67500,77
19.68333,77
19.69167,76
19.70000,76
19.70833,75
19.71667,75
19.72500,75
19.73333,75
19.74167,75
19.75000,75
19.75833,74
19.76667,74
19.77500,74
19.78333,73
19.79167,73
19.80000,72
19.80833,72
19.81667,71
19.82500,71
19.83333,71
19.84167,71
19.85000,71
19.85833,70
19.86667,70
19.87500,70
19.88333,69
19.89167,69
19.90000,69
19.90833,69
19.91667,68
19.92500,68
19.93333,68
19.94167,68
19.95000,68
19.95833,68
19.96667,67
19.97500,67
19.98333,67
19.99167,66
20.00000,65
20.00833,65
20.01667,65
20.02500,65
20.03333,65
20.04167,64
20.05000,64
20.05833,64
20.06667,64
20.07500,64
20.08333,64
20.09167,64
20.10000,63
20.10833,63
20.11667,62
20.12500,62
20.13333,62
20.14167,62
20.15000,62
20.15833,62
20.16667,62
20.17500,62
20.18333,62
20.19167,62
20.20000,62
20.20833,63
20.21667,63
20.22500,63
20.23333,63
20.24167,63
20.25000,63
20.25833,63
20.26667,63
20.27500,63
20.28333,63
20.29167,63
20.30000,63
20.30833,64
20.31667,64
20.32500,64
20.33333,64
20.34167,64
20.35000,64
20.35833,64
20.36667,65
20.37500,65
20.38333,65
20.39167,65
20.40000,66
20.40833,66
20.41667,67
20.42500,67
20.43333,67
20.44167,67
20.45000,68
20.45833,68
20.46667,68
20.47500,68
20.48333,69
20.49167,69
20.50000,69
20.50833,69
20.51667,70
20.52500,70
20.53333,70
20.54167,70
20.55000,71
20.55833,71
20.56667,71
20.57500,71
20.58333,71
20.59167,71
20.60000,71
20.60833,70
20.61667,70
20.62500,70
20.63333,70
20.64167,70
20.65000,71
20.65833,71
20.66667,71
20.67500,70
20.68333,70
20.69167,70
20.70000,69
20.70833,69
20.71667,68
20.72500,68
20.73333,68
20.74167,67
20.75000,67
20.75833,66
20.76667,66
20.77500,66
20.78333,66
20.79167,66
20.80000,66
20.80833,65
20.81667,65
20.82500,64
20.83333,64
20.84167,64
20.85000,63
20.85833,63
20.86667,63
20.87500,63
20.88333,63
20.89167,62
20.90000,62
20.90833,62
20.91667,62
20.92500,61
20.93333,61
20.94167,61
20.95000,61
20.95833,61
20.96667,61
20.97500,61
20.98333,61
20.99167,61
21.00000,61
21.00833,61
21.01667,61
21.02500,61
21.03333,61
21.04167,61
21.05000,61
21.05833,61
21.06667,61
21.07500,61
21.08333,61
21.09167,61
21.10000,61
21.10833,61
21.11667,61
21.12500,61
21.13333,60
21.14167,60
21.15000,60
21.15833,60
21.16667,60
21.17500,60
21.18333,59
21.19167,59
21.20000,59
21.20833,59
21.21667,59
21.22500,59
21.23333,59
21.24167,58
21.25000,58
21.25833,59
21.26667,59
21.27500,59
21.28333,59
21.29167,59
21.30000,59
21.30833,59
21.31667,59
21.32500,59
21.33333,60
21.34167,61
21.35000,61
21.35833,62
21.36667,63
21.37500,64
21.38333,66
21.39167,68
21.40000,70
21.40833,72
21.41667,75
21.42500,78
21.43333,82
21.44167,87
21.45000,91
21.45833,96
21.46667,102
21.47500,110
21.48333,118
21.49167,128
21.50000,139
21.50833,151
21.51667,165
21.52500,181
21.53333,200
21.54167,221
21.55000,244
21.55833,271
21.56667,302
21.57500,337
21.58333,375
21.59167,418
21.60000,467
21.60833,522
21.61667,583
21.62500,651
21.63333,727
21.64167,811
21.65000,905
21.65833,1008
21.66667,1122
21.67500,1247
21.68333,1384
21.69167,1534
21.70000,1697
21.70833,1873
21.71667,2064
21.72500,2270
21.73333,2492
21.74167,2729
21.75000,2983
21.75833,3254
21.76667,3541
21.77500,3845
21.78333,4165
21.79167,4501
21.80000,4854
21.80833,5221
21.81667,5602
21.82500,5997
21.83333,6404
21.84167,6822
21.85000,7250
21.85833,7685
21.86667,8127
21.87500,8574
21.88333,9023
21.89167,9472
21.90000,9919
21.90833,10362
21.91667,10798
21.92500,11226
21.93333,11642
21.94167,12045
21.95000,12432
21.95833,12802
21.96667,13151
21.97500,13477
21.98333,13779
21.99167,14055
22.00000,14304
22.00833,14523
22.01667,14712
22.02500,14870
22.03333,14995
22.04167,15088
22.05000,15148
22.05833,15175
22.06667,15169
22.07500,15129
22.08333,15058
22.09167,14955
22.10000,14822
22.10833,14660
22.11667,14469
22.12500,14252
22.13333,14010
22.14167,13744
22.15000,13457
22.15833,13150
22.16667,12825
22.17500,12485
22.18333,12131
22.19167,11764
22.20000,11388
22.20833,11004
22.21667,10614
22.22500,10220
22.23333,9824
22.24167,9427
22.25000,9031
22.25833,8637
22.26667,8247
22.27500,7862
22.28333,7483
22.29167,7112
22.30000,6749
22.30833,6395
22.31667,6051
22.32500,5718
22.33333,5396
22.34167,5086
22.35000,4787
22.35833,4501
22.36667,4227
22.37500,3965
22.38333,3715
22.39167,3478
22.40000,3252
22.40833,3039
22.41667,2837
22.42500,2646
22.43333,2467
22.44167,2298
22.45000,2140
22.45833,1992
22.46667,1853
22.47500,1723
22.48333,1602
22.49167,1489
22.50000,1384
22.50833,1286
22.51667,1196
22.52500,1112
22.53333,1035
22.54167,963
22.55000,897
22.55833,836
22.56667,780
22.57500,728
22.58333,681
22.59167,636
22.60000,596
22.60833,559
22.61667,524
22.62500,493
22.63333,464
22.64167,438
22.65000,414
22.65833,392
22.66667,372
22.67500,353
22.68333,336
22.69167,320
22.70000,306
22.70833,293
22.71667,281
22.72500,270
22.73333,260
22.74167,251
22.75000,242
22.75833,234
22.76667,226
22.77500,219
22.78333,213
22.79167,207
22.80000,202
22.80833,196
22.81667,192
22.82500,187
22.83333,183
22.84167,179
22.85000,176
22.85833,172
22.86667,169
22.87500,166
22.88333,163
22.89167,161
22.90000,158
22.90833,156
22.91667,154
22.92500,152
22.93333,150
22.94167,148
22.95000,147
22.95833,145
22.96667,144
22.97500,142
22.98333,140
22.99167,139
23.00000,137
23.00833,135
23.01667,134
23.02500,133
23.03333,132
23.04167,131
23.05000,130
23.05833,129
23.06667,128
23.07500,127
23.08333,127
23.09167,126
23.10000,125
23.10833,125
23.11667,124
23.12500,123
23.13333,122
23.14167,122
23.15000,122
23.15833,121
23.16667,121
23.17500,120
23.18333,120
23.19167,119
23.20000,118
23.20833,118
23.21667,117
23.22500,116
23.23333,116
23.24167,116
23.25000,115
23.25833,115
23.26667,115
23.27500,114
23.28333,114
23.29167,113
23.30000,113
23.30833,112
23.31667,112
23.32500,111
23.33333,111
23.34167,111
23.35000,111
23.35833,110
23.36667,110
23.37500,110
23.38333,110
23.39167,109
23.40000,109
23.40833,109
23.41667,108
23.42500,108
23.43333,107
23.44167,107
23.45000,106
23.45833,106
23.46667,105
23.47500,105
23.48333,105
23.49167,104
23.50000,103
23.50833,103
23.51667,102
23.52500,102
23.53333,101
23.54167,101
23.55000,101
23.55833,100
23.56667,100
23.57500,99
23.58333,98
23.59167,98
23.60000,97
23.60833,97
23.61667,96
23.62500,96
23.63333,95
23.64167,95
23.65000,95
23.65833,94
23.66667,94
23.67500,93
23.68333,93
23.69167,92
23.70000,91
23.70833,90
23.71667,89
23.72500,88
23.73333,88
23.74167,87
23.75000,87
23.75833,86
23.76667,85
23.77500,84
23.78333,84
23.79167,83
23.80000,83
23.80833,82
23.81667,82
23.82500,82
23.83333,81
23.84167,80
23.85000,80
23.85833,79
23.86667,79
23.87500,79
23.88333,79
23.89167,79
23.90000,78
23.90833,78
23.91667,78
23.92500,78
23.93333,77
23.94167,77
23.95000,77
23.95833,77
23.96667,76
23.97500,76
23.98333,76
23.99167,76
24.00000,76
24.00833,75
24.01667,75
24.02500,75
24.03333,75
24.04167,74
24.05000,74
24.05833,74
24.06667,74
24.07500,74
24.08333,74
24.09167,74
24.10000,74
24.10833,75
24.11667,75
24.12500,75
24.13333,75
24.14167,75
24.15000,75
24.15833,74
24.16667,74
24.17500,73
24.18333,73
24.19167,73
24.20000,74
24.20833,74
24.21667,74
24.22500,75
24.23333,75
24.24167,76
24.25000,76
24.25833,77
24.26667,78
24.27500,78
24.28333,79
24.29167,80
24.30000,81
24.30833,82
24.31667,83
24.32500,84
24.33333,86
24.34167,87
24.35000,89
24.35833,91
24.36667,94
24.37500,97
24.38333,100
24.39167,104
24.40000,108
24.40833,112
24.41667,118
24.42500,123
24.43333,129
24.44167,136
24.45000,144
24.45833,154
24.46667,164
24.47500,176
24.48333,189
24.49167,203
24.50000,218
24.50833,235
24.51667,254
24.52500,274
24.53333,297
24.54167,322
24.55000,350
24.55833,380
24.56667,414
24.57500,451
24.58333,491
24.59167,534
24.60000,582
24.60833,633
24.61667,689
24.62500,749
24.63333,813
24.64167,882
24.65000,956
24.65833,1035
24.66667,1119
24.67500,1209
24.68333,1304
24.69167,1404
24.70000,1510
24.70833,1620
24.71667,1736
24.72500,1858
24.73333,1985
24.74167,2117
24.75000,2254
24.75833,2396
24.76667,2542
24.77500,2692
24.78333,2845
24.79167,3001
24.80000,3160
24.80833,3321
24.81667,3483
24.82500,3646
24.83333,3810
24.84167,3973
24.85000,4134
24.85833,4295
24.86667,4452
24.87500,4606
24.88333,4756
24.89167,4902
24.90000,5042
24.90833,5176
24.91667,5303
24.92500,5424
24.93333,5536
24.94167,5639
24.95000,5734
24.95833,5819
24.96667,5894
24.97500,5959
24.98333,6012
24.99167,6055
25.00000,6088
25.00833,6109
25.01667,6118
25.02500,6117
25.03333,6105
25.04167,6081
25.05000,6048
25.05833,6003
25.06667,5948
25.07500,5884
25.08333,5809
25.09167,5726
25.10000,5635
25.10833,5536
25.11667,5430
25.12500,5316
25.13333,5196
25.14167,5070
25.15000,4940
25.15833,4805
25.16667,4667
25.17500,4526
25.18333,4382
25.19167,4236
25.20000,4089
25.20833,3941
25.21667,3792
25.22500,3644
25.23333,3497
25.24167,3351
25.25000,3207
25.25833,3065
25.26667,2925
25.27500,2788
25.28333,2654
25.29167,2523
25.30000,2396
25.30833,2273
25.31667,2154
25.32500,2039
25.33333,1928
25.34167,1821
25.35000,1718
25.35833,1620
25.36667,1526
25.37500,1436
25.38333,1351
25.39167,1270
25.40000,1193
25.40833,1119
25.41667,1051
25.42500,986
25.43333,924
25.44167,867
25.45000,812
25.45833,761
25.46667,713
25.47500,668
25.48333,626
25.49167,587
25.50000,551
25.50833,517
25.51667,485
25.52500,456
25.53333,430
25.54167,405
25.55000,381
25.55833,360
25.56667,340
25.57500,322
25.58333,305
25.59167,289
25.60000,275
25.60833,261
25.61667,249
25.62500,238
25.63333,227
25.64167,218
25.65000,210
25.65833,201
25.66667,194
25.67500,186
25.68333,180
25.69167,174
25.70000,169
25.70833,164
25.71667,159
25.72500,155
25.73333,152
25.74167,148
25.75000,145
25.75833,142
25.76667,139
25.77500,136
25.78333,133
25.79167,131
25.80000,129
25.80833,127
25.81667,125
25.82500,123
25.83333,122
25.84167,120
25.85000,119
25.85833,118
25.86667,116
25.87500,115
25.88333,114
25.89167,113
25.90000,112
25.90833,111
25.91667,110
25.92500,109
25.93333,108
25.94167,106
25.95000,105
25.95833,104
25.96667,103
25.97500,103
25.98333,102
25.99167,101
26.00000,100
26.00833,99
26.01667,98
26.02500,98
26.03333,98
26.04167,97
26.05000,97
26.05833,96
26.06667,95
26.07500,94
26.08333,93
26.09167,92
26.10000,91
26.10833,91
26.11667,90
26.12500,89
26.13333,88
26.14167,87
26.15000,87
26.15833,86
26.16667,86
26.17500,85
26.18333,85
26.19167,84
26.20000,83
26.20833,83
26.21667,82
26.22500,82
26.23333,82
26.24167,81
26.25000,81
26.25833,80
26.26667,80
26.27500,79
26.28333,79
26.29167,78
26.30000,78
26.30833,77
26.31667,77
26.32500,76
26.33333,76
26.34167,75
26.35000,75
26.35833,74
26.36667,74
26.37500,74
26.38333,74
26.39167,74
26.40000,74
26.40833,74
26.41667,73
26.42500,73
26.43333,74
26.44167,74
26.45000,74
26.45833,74
26.46667,74
26.47500,74
26.48333,74
26.49167,74
26.50000,74
26.50833,74
26.51667,74
26.52500,74
26.53333,75
26.54167,75
26.55000,76
26.55833,76
26.56667,76
26.57500,77
26.58333,77
26.59167,77
26.60000,77
26.60833,78
26.61667,78
26.62500,79
26.63333,79
26.64167,80
26.65000,80
26.65833,81
26.66667,82
26.67500,82
26.68333,83
26.69167,83
26.70000,84
26.70833,84
26.71667,85
26.72500,86
26.73333,86
26.74167,86
26.75000,86
26.75833,87
26.76667,87
26.77500,87
26.78333,88
26.79167,88
26.80000,88
26.80833,88
26.81667,89
26.82500,89
26.83333,89
26.84167,89
26.85000,89
26.85833,90
26.86667,90
26.87500,90
26.88333,90
26.89167,90
26.90000,91
26.90833,91
26.91667,91
26.92500,91
26.93333,90
26.94167,90
26.95000,89
26.95833,89
26.96667,88
26.97500,88
26.98333,88
26.99167,88
27.00000,88
27.00833,88
27.01667,87
27.02500,87
27.03333,87
27.04167,86
27.05000,86
27.05833,85
27.06667,85
27.07500,84
27.08333,84
27.09167,84
27.10000,84
27.10833,83
27.11667,83
27.12500,82
27.13333,81
27.14167,81
27.15000,80
27.15833,80
27.16667,80
27.17500,79
27.18333,79
27.19167,78
27.20000,78
27.20833,78
27.21667,78
27.22500,77
27.23333,77
27.24167,77
27.25000,77
27.25833,77
27.26667,77
27.27500,78
27.28333,78
27.29167,78
27.30000,78
27.30833,79
27.31667,79
27.32500,79
27.33333,79
27.34167,80
27.35000,80
27.35833,80
27.36667,80
27.37500,80
27.38333,80
27.39167,81
27.40000,81
27.40833,81
27.41667,82
27.42500,82
27.43333,82
27.44167,82
27.45000,83
27.45833,83
27.46667,83
27.47500,84
27.48333,84
27.49167,84
27.50000,85
27.50833,85
27.51667,85
27.52500,84
27.53333,84
27.54167,84
27.55000,84
27.55833,84
27.56667,83
27.57500,83
27.58333,83
27.59167,82
27.60000,82
27.60833,82
27.61667,82
27.62500,82
27.63333,81
27.64167,81
27.65000,80
27.65833,79
27.66667,78
27.67500,77
27.68333,76
27.69167,75
27.70000,74
27.70833,73
27.71667,72
27.72500,71
27.73333,71
27.74167,69
27.75000,69
27.75833,68
27.76667,67
27.77500,66
27.78333,64
27.79167,63
27.80000,62
27.80833,60
27.81667,59
27.82500,57
27.83333,56
27.84167,55
27.85000,53
27.85833,52
27.86667,50
27.87500,48
27.88333,46
27.89167,44
27.90000,42
27.90833,40
27.91667,38
27.92500,35
27.93333,33
27.94167,30
27.95000,28
27.95833,25
27.96667,23
27.97500,20
27.98333,17
27.99167,14
28.00000,11
28.00833,8
28.01667,5
28.02500,2
28.03333,-1
28.04167,-5
28.05000,-8
28.05833,-12
28.06667,-16
28.07500,-20
28.08333,-23
28.09167,-27
28.10000,-31
28.10833,-35
28.11667,-39
28.12500,-44
28.13333,-48
28.14167,-52
28.15000,-56
28.15833,-60
28.16667,-64
28.17500,-68
28.18333,-72
28.19167,-76
28.20000,-79
28.20833,-83
28.21667,-86
28.22500,-90
28.23333,-93
28.24167,-96
28.25000,-99
28.25833,-102
28.26667,-105
28.27500,-108
28.28333,-110
28.29167,-113
28.30000,-115
28.30833,-117
28.31667,-118
28.32500,-120
28.33333,-121
28.34167,-122
28.35000,-122
28.35833,-123
28.36667,-123
28.37500,-123
28.38333,-124
28.39167,-123
28.40000,-123
28.40833,-122
28.41667,-121
28.42500,-120
28.43333,-118
28.44167,-116
28.45000,-114
28.45833,-112
28.46667,-109
28.47500,-107
28.48333,-105
28.49167,-102
28.50000,-99
28.50833,-97
28.51667,-94
28.52500,-91
28.53333,-88
28.54167,-84
28.55000,-81
28.55833,-77
28.56667,-73
28.57500,-69
28.58333,-65
28.59167,-62
28.60000,-58
28.60833,-54
28.61667,-50
28.62500,-47
28.63333,-43
28.64167,-39
28.65000,-35
28.65833,-31
28.66667,-28
28.67500,-24
28.68333,-20
28.69167,-17
28.70000,-14
28.70833,-10
28.71667,-7
28.72500,-4
28.73333,-1
28.74167,2
28.75000,5
28.75833,8
28.76667,10
28.77500,13
28.78333,15
28.79167,18
28.80000,20
28.80833,22
28.81667,24
28.82500,26
28.83333,27
28.84167,29
28.85000,31
28.85833,33
28.86667,35
28.87500,36
28.88333,37
28.89167,39
28.90000,40
28.90833,41
28.91667,42
28.92500,42
28.93333,43
28.94167,44
28.95000,45
28.95833,45
28.96667,46
28.97500,46
28.98333,46
28.99167,47
29.00000,48
29.00833,49
29.01667,49
29.02500,50
29.03333,50
29.04167,51
29.05000,51
29.05833,51
29.06667,51
29.07500,51
29.08333,51
29.09167,51
29.10000,52
29.10833,52
29.11667,52
29.12500,53
29.13333,53
29.14167,54
29.15000,54
29.15833,54
29.16667,54
29.17500,55
29.18333,55
29.19167,56
29.20000,56
29.20833,56
29.21667,57
29.22500,57
29.23333,57
29.24167,57
29.25000,58
29.25833,58
29.26667,58
29.27500,58
29.28333,59
29.29167,59
29.30000,59
29.30833,59
29.31667,60
29.32500,60
29.33333,60
29.34167,59
29.35000,59
29.35833,59
29.36667,59
29.37500,59
29.38333,59
29.39167,59
29.40000,59
29.40833,60
29.41667,59
29.42500,59
29.43333,59
29.44167,59
29.45000,58
29.45833,58
29.46667,57
29.47500,57
29.48333,57
29.49167,57
29.50000,56
29.50833,56
29.51667,56
29.52500,55
29.53333,55
29.54167,54
29.55000,54
29.55833,53
29.56667,53
29.57500,52
29.58333,52
29.59167,51
29.60000,50
29.60833,49
29.61667,49
29.62500,48
29.63333,47
29.64167,47
29.65000,46
29.65833,46
29.66667,45
29.67500,44
29.68333,43
29.69167,41
29.70000,40
29.70833,39
29.71667,38
29.72500,37
29.73333,36
29.74167,35
29.75000,34
29.75833,33
29.76667,31
29.77500,30
29.78333,29
29.79167,28
29.80000,27
29.80833,26
29.81667,25
29.82500,25
29.83333,24
29.84167,23
29.85000,22
29.85833,21
29.86667,19
29.87500,18
29.88333,16
29.89167,15
29.90000,13
29.90833,12
29.91667,11
29.92500,10
29.93333,9
29.94167,8
29.95000,7
29.95833,6
29.96667,4
29.97500,3
29.98333,2
29.99167,1
30.00000,1
30.00833,-0
30.01667,-1
30.02500,-1
30.03333,-2
30.04167,-3
30.05000,-4
30.05833,-4
30.06667,-5
30.07500,-5
30.08333,-6
30.09167,-6
30.10000,-7
30.10833,-7
30.11667,-7
30.12500,-7
30.13333,-8
30.14167,-8
30.15000,-9
30.15833,-9
30.16667,-8
30.17500,-8
30.18333,-8
30.19167,-8
30.20000,-7
30.20833,-7
30.21667,-6
30.22500,-5
30.23333,-5
30.24167,-4
30.25000,-3
30.25833,-2
30.26667,-1
30.27500,0
30.28333,1
30.29167,2
30.30000,3
30.30833,5
30.31667,6
30.32500,7
30.33333,9
30.34167,11
30.35000,12
30.35833,14
30.36667,15
30.37500,16
30.38333,18
30.39167,19
30.40000,21
30.40833,23
30.41667,25
30.42500,27
30.43333,29
30.44167,31
30.45000,33
30.45833,34
30.46667,36
30.47500,38
30.48333,39
30.49167,41
30.50000,43
30.50833,44
30.51667,46
30.52500,47
30.53333,49
30.54167,50
30.55000,52
30.55833,53
30.56667,55
30.57500,56
30.58333,58
30.59167,59
30.60000,60
30.60833,61
30.61667,62
30.62500,63
30.63333,64
30.64167,64
30.65000,65
30.65833,65
30.66667,66
30.67500,66
30.68333,66
30.69167,67
30.70000,67
30.70833,67
30.71667,67
30.72500,67
30.73333,67
30.74167,67
30.75000,67
30.75833,67
30.76667,67
30.77500,67
30.78333,66
30.79167,66
30.80000,66
30.80833,65
30.81667,64
30.82500,63
30.83333,63
30.84167,62
30.85000,62
30.85833,62
30.86667,62
30.87500,61
30.88333,60
30.89167,59
30.90000,59
30.90833,58
30.91667,57
30.92500,57
30.93333,57
30.94167,56
30.95000,56
30.95833,55
30.96667,55
30.97500,54
30.98333,54
30.99167,54
31.00000,53
31.00833,53
31.01667,53
31.02500,53
31.03333,53
31.04167,53
31.05000,53
31.05833,53
31.06667,53
31.07500,53
31.08333,54
31.09167,54
31.10000,54
31.10833,54
31.11667,54
31.12500,55
31.13333,54
31.14167,54
31.15000,55
31.15833,55
31.16667,55
31.17500,55
31.18333,55
31.19167,55
31.20000,56
31.20833,56
31.21667,57
31.22500,57
31.23333,57
31.24167,57
31.25000,58
31.25833,58
31.26667,58
31.27500,58
31.28333,58
31.29167,58
31.30000,58
31.30833,58
31.31667,58
31.32500,58
31.33333,58
31.34167,58
31.35000,58
31.35833,58
31.36667,57
31.37500,57
31.38333,57
31.39167,56
31.40000,56
31.40833,56
31.41667,56
31.42500,55
31.43333,55
31.44167,55
31.45000,55
31.45833,54
31.46667,54
31.47500,53
31.48333,53
31.49167,52
31.50000,52
31.50833,52
31.51667,52
31.52500,52
31.53333,52
31.54167,52
31.55000,52
31.55833,51
31.56667,51
31.57500,51
31.58333,51
31.59167,51
31.60000,51
31.60833,50
31.61667,50
31.62500,50
31.63333,50
31.64167,50
31.65000,51
31.65833,51
31.66667,51
31.67500,52
31.68333,52
31.69167,53
31.70000,53
31.70833,54
31.71667,55
31.72500,55
31.73333,56
31.74167,56
31.75000,57
31.75833,57
31.76667,58
31.77500,58
31.78333,59
31.79167,59
31.80000,59
31.80833,60
31.81667,61
31.82500,62
31.83333,62
31.84167,63
31.85000,63
31.85833,63
31.86667,64
31.87500,65
31.88333,65
31.89167,66
31.90000,66
31.90833,67
31.91667,67
31.92500,68
31.93333,68
31.94167,69
31.95000,69
31.95833,69
31.96667,70
31.97500,70
31.98333,70
31.99167,70
32.00000,70
32.00833,71
32.01667,71
32.02500,71
32.03333,71
32.04167,71
32.05000,71
32.05833,71
32.06667,70
32.07500,70
32.08333,70
32.09167,70
32.10000,70
32.10833,69
32.11667,69
32.12500,69
32.13333,69
32.14167,69
32.15000,69
32.15833,69
32.16667,69
32.17500,69
32.18333,69
32.19167,69
32.20000,69
32.20833,69
32.21667,69
32.22500,68
32.23333,68
32.24167,68
32.25000,68
32.25833,68
32.26667,68
32.27500,68
32.28333,68
32.29167,69
32.30000,69
32.30833,69
32.31667,69
32.32500,69
32.33333,69
32.34167,69
32.35000,70
32.35833,70
32.36667,70
32.37500,70
32.38333,70
32.39167,70
32.40000,70
32.40833,70
32.41667,69
32.42500,69
32.43333,69
32.44167,70
32.45000,70
32.45833,70
32.46667,69
32.47500,69
32.48333,69
32.49167,68
32.50000,68
32.50833,68
32.51667,67
32.52500,67
32.53333,67
32.54167,67
32.55000,67
32.55833,67
32.56667,66
32.57500,66
32.58333,65
32.59167,65
32.60000,65
32.60833,65
32.61667,64
32.62500,64
32.63333,63
32.64167,62
32.65000,62
32.65833,62
32.66667,62
32.67500,61
32.68333,61
32.69167,61
32.70000,60
32.70833,60
32.71667,60
32.72500,60
32.73333,59
32.74167,59
32.75000,59
32.75833,58
32.76667,58
32.77500,58
32.78333,58
32.79167,58
32.80000,58
32.80833,58
32.81667,59
32.82500,59
32.83333,59
32.84167,59
32.85000,59
32.85833,59
32.86667,59
32.87500,60
32.88333,60
32.89167,60
32.90000,61
32.90833,61
32.91667,62
32.92500,62
32.93333,63
32.94167,63
32.95000,63
32.95833,64
32.96667,64
32.97500,64
32.98333,65
32.99167,65
33.00000,65
33.00833,65
33.01667,66
33.02500,66
33.03333,67
33.04167,67
33.05000,68
33.05833,68
33.06667,69
33.07500,69
33.08333,69
33.09167,70
33.10000,70
33.10833,70
33.11667,71
33.12500,71
33.13333,71
33.14167,71
33.15000,71
33.15833,72
33.16667,72
33.17500,72
33.18333,72
33.19167,72
33.20000,72
33.20833,72
33.21667,72
33.22500,72
33.23333,72
33.24167,72
33.25000,72
33.25833,71
33.26667,71
33.27500,71
33.28333,71
33.29167,71
33.30000,70
33.30833,70
33.31667,70
33.32500,70
33.33333,70
33.34167,70
33.35000,69
33.35833,69
33.36667,69
33.37500,69
33.38333,69
33.39167,69
33.40000,69
33.40833,69
33.41667,69
33.42500,68
33.43333,68
33.44167,68
33.45000,68
33.45833,68
33.46667,68
33.47500,67
33.48333,67
33.49167,67
33.50000,67
33.50833,67
33.51667,67
33.52500,66
33.53333,66
33.54167,67
33.55000,67
33.55833,67
33.56667,66
33.57500,66
33.58333,66
33.59167,66
33.60000,66
33.60833,66
33.61667,65
33.62500,65
33.63333,65
33.64167,65
33.65000,65
33.65833,65
33.66667,65
33.67500,65
33.68333,64
33.69167,64
33.70000,65
33.70833,65
33.71667,65
33.72500,65
33.73333,64
33.74167,64
33.75000,64
33.75833,64
33.76667,63
33.77500,63
33.78333,62
33.79167,62
33.80000,62
33.80833,62
33.81667,62
33.82500,62
33.83333,62
33.84167,63
33.85000,62
33.85833,62
33.86667,62
33.87500,62
33.88333,62
33.89167,62
33.90000,61
33.90833,61
33.91667,61
33.92500,61
33.93333,62
33.94167,61
33.95000,61
33.95833,61
33.96667,61
33.97500,60
33.98333,60
33.99167,60
34.00000,60
34.00833,60
34.01667,61
34.02500,61
34.03333,61
34.04167,61
34.05000,60
34.05833,60
34.06667,60
34.07500,60
34.08333,60
34.09167,60
34.10000,60
34.10833,60
34.11667,60
34.12500,60
34.13333,61
34.14167,61
34.15000,62
34.15833,62
34.16667,62
34.17500,63
34.18333,63
34.19167,63
34.20000,64
34.20833,64
34.21667,64
34.22500,65
34.23333,65
34.24167,66
34.25000,66
34.25833,66
34.26667,67
34.27500,67
34.28333,68
34.29167,68
34.30000,68
34.30833,69
34.31667,69
34.32500,70
34.33333,70
34.34167,71
34.35000,72
34.35833,72
34.36667,73
34.37500,73
34.38333,74
34.39167,74
34.40000,74
34.40833,74
34.41667,75
34.42500,75
34.43333,76
34.44167,76
34.45000,77
34.45833,77
34.46667,77
34.47500,77
34.48333,78
34.49167,78
34.50000,79
34.50833,79
34.51667,80
34.52500,80
34.53333,80
34.54167,81
34.55000,81
34.55833,81
34.56667,81
34.57500,82
34.58333,82
34.59167,83
34.60000,83
34.60833,84
34.61667,84
34.62500,84
34.63333,84
34.64167,84
34.65000,84
34.65833,84
34.66667,84
34.67500,84
34.68333,85
34.69167,85
34.70000,85
34.70833,86
34.71667,86
34.72500,86
34.73333,86
34.74167,86
34.75000,86
34.75833,86
34.76667,86
34.77500,86
34.78333,86
34.79167,86
34.80000,86
34.80833,86
34.81667,86
34.82500,87
34.83333,86
34.84167,86
34.85000,85
34.85833,85
34.86667,84
34.87500,84
34.88333,84
34.89167,83
34.90000,83
34.90833,82
34.91667,82
34.92500,82
34.93333,82
34.94167,81
34.95000,81
34.95833,80
34.96667,79
34.97500,79
34.98333,78
34.99167,78
35.00000,77
35.00833,76
35.01667,76
35.02500,75
35.03333,75
35.04167,75
35.05000,74
35.05833,74
35.06667,73
35.07500,72
35.08333,71
35.09167,70
35.10000,70
35.10833,69
35.11667,68
35.12500,67
35.13333,67
35.14167,66
35.15000,66
35.15833,65
35.16667,65
35.17500,65
35.18333,64
35.19167,64
35.20000,62
35.20833,62
35.21667,61
35.22500,61
35.23333,60
35.24167,60
35.25000,60
35.25833,60
35.26667,60
35.27500,60
35.28333,60
35.29167,60
35.30000,60
35.30833,60
35.31667,59
35.32500,60
35.33333,60
35.34167,60
35.35000,60
35.35833,60
35.36667,60
35.37500,61
35.38333,61
35.39167,61
35.40000,61
35.40833,61
35.41667,61
35.42500,61
35.43333,61
35.44167,61
35.45000,61
35.45833,61
35.46667,62
35.47500,62
35.48333,62
35.49167,63
35.50000,63
35.50833,63
35.51667,63
35.52500,63
35.53333,63
35.54167,64
35.55000,64
35.55833,64
35.56667,64
35.57500,65
35.58333,65
35.59167,65
35.60000,65
35.60833,65
35.61667,65
35.62500,65
35.63333,66
35.64167,66
35.65000,66
35.65833,66
35.66667,66
35.67500,67
35.68333,67
35.69167,67
35.70000,68
35.70833,68
35.71667,69
35.72500,69
35.73333,69
35.74167,70
35.75000,70
35.75833,70
35.76667,70
35.77500,71
35.78333,72
35.79167,72
35.80000,72
35.80833,72
35.81667,72
35.82500,72
35.83333,73
35.84167,73
35.85000,74
35.85833,74
35.86667,74
35.87500,75
35.88333,75
35.89167,75
35.90000,75
35.90833,75
35.91667,75
35.92500,75
35.93333,75
35.94167,75
35.95000,76
35.95833,76
35.96667,76
35.97500,76
35.98333,76
35.99167,77
36.00000,76
36.00833,76
36.01667,76
36.02500,76
36.03333,76
36.04167,76
36.05000,76
36.05833,76
36.06667,76
36.07500,76
36.08333,76
36.09167,76
36.10000,76
36.10833,76
36.11667,76
36.12500,75
36.13333,75
36.14167,75
36.15000,75
36.15833,75
36.16667,75
36.17500,74
36.18333,74
36.19167,74
36.20000,74
36.20833,73
36.21667,73
36.22500,73
36.23333,72
36.24167,72
36.25000,72
36.25833,72
36.26667,72
36.27500,71
36.28333,71
36.29167,71
36.30000,71
36.30833,71
36.31667,70
36.32500,70
36.33333,70
36.34167,69
36.35000,69
36.35833,69
36.36667,69
36.37500,69
36.38333,68
36.39167,68
36.40000,68
36.40833,68
36.41667,67
36.42500,67
36.43333,67
36.44167,66
36.45000,66
36.45833,65
36.46667,65
36.47500,64
36.48333,64
36.49167,64
36.50000,64
36.50833,64
36.51667,63
36.52500,63
36.53333,63
36.54167,62
36.55000,62
36.55833,61
36.56667,61
36.57500,61
36.58333,61
36.59167,60
36.60000,60
36.60833,60
36.61667,60
36.62500,60
36.63333,59
36.64167,59
36.65000,60
36.65833,60
36.66667,60
36.67500,60
36.68333,61
36.69167,61
36.70000,61
36.70833,61
36.71667,61
36.72500,61
36.73333,61
36.74167,62
36.75000,62
36.75833,62
36.76667,62
36.77500,62
36.78333,63
36.79167,63
36.80000,63
36.80833,64
36.81667,64
36.82500,64
36.83333,65
36.84167,65
36.85000,65
36.85833,65
36.86667,66
36.87500,66
36.88333,67
36.89167,67
36.90000,67
36.90833,67
36.91667,68
36.92500,68
36.93333,69
36.94167,69
36.95000,69
36.95833,70
36.96667,70
36.97500,70
36.98333,70
36.99167,71
37.00000,71
37.00833,71
37.01667,71
37.02500,71
37.03333,71
37.04167,71
37.05000,71
37.05833,71
37.06667,71
37.07500,71
37.08333,72
37.09167,71
37.10000,71
37.10833,71
37.11667,71
37.12500,71
37.13333,72
37.14167,72
37.15000,72
37.15833,72
37.16667,72
37.17500,72
37.18333,72
37.19167,72
37.20000,72
37.20833,72
37.21667,72
37.22500,73
37.23333,73
37.24167,74
37.25000,74
37.25833,74
37.26667,74
37.27500,74
37.28333,74
37.29167,74
37.30000,74
37.30833,74
37.31667,75
37.32500,75
37.33333,75
37.34167,76
37.35000,76
37.35833,76
37.36667,76
37.37500,76
37.38333,76
37.39167,76
37.40000,77
37.40833,77
37.41667,77
37.42500,77
37.43333,77
37.44167,77
37.45000,77
37.45833,77
37.46667,77
37.47500,77
37.48333,78
37.49167,78
37.50000,77
37.50833,77
37.51667,77
37.52500,77
37.53333,77
37.54167,77
37.55000,77
37.55833,77
37.56667,77
37.57500,76
37.58333,76
37.59167,75
37.60000,75
37.60833,74
37.61667,74
37.62500,73
37.63333,73
37.64167,73
37.65000,73
37.65833,73
37.66667,73
37.67500,72
37.68333,72
37.69167,72
37.70000,71
37.70833,71
37.71667,70
37.72500,70
37.73333,69
37.74167,69
37.75000,68
37.75833,68
37.76667,68
37.77500,67
37.78333,67
37.79167,67
37.80000,67
37.80833,67
37.81667,67
37.82500,66
37.83333,66
37.84167,65
37.85000,65
37.85833,66
37.86667,66
37.87500,66
37.88333,66
37.89167,66
37.90000,66
37.90833,65
37.91667,65
37.92500,65
37.93333,65
37.94167,65
37.95000,65
37.95833,65
37.96667,65
37.97500,65
37.98333,65
37.99167,65
38.00000,65
38.00833,65
38.01667,66
38.02500,66
38.03333,67
38.04167,67
38.05000,67
38.05833,67
38.06667,68
38.07500,68
38.08333,68
38.09167,68
38.10000,68
38.10833,68
38.11667,68
38.12500,68
38.13333,68
38.14167,69
38.15000,69
38.15833,69
38.16667,69
38.17500,70
38.18333,70
38.19167,71
38.20000,71
38.20833,71
38.21667,71
38.22500,71
38.23333,71
38.24167,71
38.25000,71
38.25833,71
38.26667,72
38.27500,72
38.28333,72
38.29167,73
38.30000,73
38.30833,73
38.31667,73
38.32500,73
38.33333,73
38.34167,73
38.35000,73
38.35833,73
38.36667,73
38.37500,74
38.38333,74
38.39167,74
38.40000,75
38.40833,76
38.41667,76
38.42500,77
38.43333,77
38.44167,78
38.45000,79
38.45833,79
38.46667,80
38.47500,80
38.48333,81
38.49167,81
38.50000,82
38.50833,83
38.51667,83
38.52500,84
38.53333,84
38.54167,84
38.55000,85
38.55833,85
38.56667,86
38.57500,87
38.58333,88
38.59167,89
38.60000,89
38.60833,89
38.61667,89
38.62500,90
38.63333,90
38.64167,90
38.65000,91
38.65833,90
38.66667,90
38.67500,90
38.68333,91
38.69167,91
38.70000,91
38.70833,91
38.71667,91
38.72500,92
38.73333,92
38.74167,91
38.75000,91
38.75833,91
38.76667,91
38.77500,91
38.78333,91
38.79167,91
38.80000,90
38.80833,90
38.81667,90
38.82500,89
38.83333,89
38.84167,89
38.85000,88
38.85833,87
38.86667,87
38.87500,86
38.88333,86
38.89167,86
38.90000,86
38.90833,85
38.91667,85
38.92500,85
38.93333,84
38.94167,84
38.95000,83
38.95833,83
38.96667,82
38.97500,82
38.98333,81
38.99167,81
39.00000,81
39.00833,80
39.01667,80
39.02500,79
39.03333,79
39.04167,79
39.05000,79
39.05833,78
39.06667,78
39.07500,78
39.08333,78
39.09167,77
39.10000,76
39.10833,76
39.11667,75
39.12500,75
39.13333,75
39.14167,74
39.15000,74
39.15833,74
39.16667,74
39.17500,73
39.18333,73
39.19167,72
39.20000,72
39.20833,72
39.21667,71
39.22500,71
39.23333,72
39.24167,72
39.25000,72
39.25833,72
39.26667,72
39.27500,72
39.28333,72
39.29167,72
39.30000,72
39.30833,72
39.31667,73
39.32500,73
39.33333,73
39.34167,73
39.35000,73
39.35833,74
39.36667,74
39.37500,74
39.38333,74
39.39167,74
39.40000,74
39.40833,75
39.41667,75
39.42500,75
39.43333,76
39.44167,76
39.45000,77
39.45833,77
39.46667,78
39.47500,78
39.48333,78
39.49167,78
39.50000,79
39.50833,79
39.51667,79
39.52500,80
39.53333,80
39.54167,80
39.55000,80
39.55833,81
39.56667,81
39.57500,81
39.58333,82
39.59167,82
39.60000,82
39.60833,82
39.61667,82
39.62500,82
39.63333,82
39.64167,82
39.65000,82
39.65833,82
39.66667,82
39.67500,83
39.68333,83
39.69167,84
39.70000,84
39.70833,84
39.71667,84
39.72500,84
39.73333,83
39.74167,83
39.75000,83
39.75833,83
39.76667,83
39.77500,83
39.78333,83
39.79167,83
39.80000,83
39.80833,83
39.81667,83
39.82500,83
39.83333,83
39.84167,83
39.85000,82
39.85833,82
39.86667,82
39.87500,82
39.88333,82
39.89167,82
39.90000,82
39.90833,82
39.91667,81
39.92500,81
39.93333,81
39.94167,81
39.95000,80
39.95833,80
39.96667,79
39.97500,79
39.98333,78
39.99167,78
40.00000,77

