[Header]
Application Name,LabSolutions
Version,5.97 SP1
Data File Name,C:\Users\cremerlab\Desktop\griffin\2021-04-05_NC_DM_calibration\2021-04-05_NC_DM_2.5mM_calibration_452021_008_008.lcd
Output Date,4/5/2021
Output Time,10:27:39 PM

[File Information]
Type,Data File
Generated,4/5/2021 9:47:19 PM
Generated by,System Administrator
Modified,4/5/2021 10:27:39 PM
Modified by,System Administrator

[Sample Information]
Operator Name,System Administrator
Acquired,4/5/2021 9:47:39 PM
Sample Type,1:Standard
Level,8
Sample Name,2021-04-05_NC_glucose_glycerol_acetate_02mM
Sample ID,008
ISTD Amount1,1
ISTD Amount2,1
ISTD Amount3,1
ISTD Amount4,1
ISTD Amount5,1
ISTD Amount6,1
ISTD Amount7,1
ISTD Amount8,1
ISTD Amount9,1
ISTD Amount10,1
ISTD Amount11,1
ISTD Amount12,1
ISTD Amount13,1
ISTD Amount14,1
ISTD Amount15,1
ISTD Amount16,1
ISTD Amount17,1
ISTD Amount18,1
ISTD Amount19,1
ISTD Amount20,1
ISTD Amount21,1
ISTD Amount22,1
ISTD Amount23,1
ISTD Amount24,1
ISTD Amount25,1
ISTD Amount26,1
ISTD Amount27,1
ISTD Amount28,1
ISTD Amount29,1
ISTD Amount30,1
ISTD Amount31,1
ISTD Amount32,1
Sample Amount,1
Dilution Factor,1
Vial#,8
Injection Volume,20

[Original Files]
Data File,C:\Users\cremerlab\Desktop\griffin\2021-04-05_NC_DM_calibration\2021-04-05_NC_DM_2.5mM_calibration_452021_008_008.lcd
Method File,C:\Users\cremerlab\Desktop\griffin\2021-04-05_NC_DM_calibration\2021-04-05_2.5mM_mobile.lcm
Batch File,C:\Users\cremerlab\Desktop\griffin\2021-04-05_NC_DM_calibration\2021-04-05_NC_DM_2.5mM_calibration.lcb
Report Format File,c:\LabSolutions\System\DEFAULT.lsr

[File Description]


[Configuration]
Instrument Name,HPLC-PC-Instrument1
Instrument #,1
Line #,1
# of Detectors,2
Detector ID,Detector A,Detector B
Detector Name,Detector A,Detector B
# of Channels,1,1

[Peak Table(Detector A)]
# of Peaks,0

[Peak Table(Detector B)]
# of Peaks,5
Peak#,R.Time,I.Time,F.Time,Area,Height,A/H,Conc.,Mark,ID#,Name,k',Plate #,Plate Ht.,Tailing,Resolution,Sep.Factor,Area Ratio,Height Ratio,Conc. %,Norm Conc.
1,11.010,10.592,12.200,1578035,92022,17.148,22.766,   ,,,0.000,9295,16.137,0.927,0.000,0.000,0,0,0.000,0.000
2,14.539,12.633,15.217,4938522,105786,46.684,71.248,   ,,,0.321,2820,53.190,0.610,4.549,0.000,0,0,0.000,0.000
3,15.661,15.217,17.375,307515,11922,25.794,4.437, V ,,,0.423,9178,16.343,0.000,1.283,1.318,0,0,0.000,0.000
4,22.053,21.458,22.883,76771,2822,27.208,1.108,   ,,,1.003,14931,10.046,1.100,9.291,2.374,0,0,0.000,0.000
5,25.019,24.425,25.775,30600,1048,29.204,0.441,   ,,,1.272,16544,9.067,1.062,3.955,1.269,0,0,0.000,0.000

[LC Chromatogram(Detector B-Ch1)]
Interval(msec),500
# of Points,4801
Start Time(min),0.000
End Time(min),40.000
Intensity Units,mV
Intensity Multiplier,0.001
R.Time (min),Intensity
0.00000,-3
0.00833,-3
0.01667,-0
0.02500,-1
0.03333,-1
0.04167,-1
0.05000,-1
0.05833,-1
0.06667,-1
0.07500,-1
0.08333,-2
0.09167,-2
0.10000,-2
0.10833,-2
0.11667,-2
0.12500,-2
0.13333,-2
0.14167,-2
0.15000,-3
0.15833,-3
0.16667,-3
0.17500,-2
0.18333,-3
0.19167,-2
0.20000,-2
0.20833,-2
0.21667,-2
0.22500,-2
0.23333,-2
0.24167,-1
0.25000,-2
0.25833,-2
0.26667,-2
0.27500,-2
0.28333,-2
0.29167,-1
0.30000,-1
0.30833,-1
0.31667,-1
0.32500,-0
0.33333,-0
0.34167,-0
0.35000,-0
0.35833,-0
0.36667,0
0.37500,0
0.38333,1
0.39167,1
0.40000,1
0.40833,1
0.41667,1
0.42500,1
0.43333,1
0.44167,1
0.45000,1
0.45833,1
0.46667,1
0.47500,1
0.48333,0
0.49167,0
0.50000,-0
0.50833,-0
0.51667,-0
0.52500,-0
0.53333,-0
0.54167,-0
0.55000,-0
0.55833,-1
0.56667,-2
0.57500,-3
0.58333,-3
0.59167,-3
0.60000,-3
0.60833,-4
0.61667,-5
0.62500,-6
0.63333,-6
0.64167,-7
0.65000,-8
0.65833,-9
0.66667,-10
0.67500,-10
0.68333,-11
0.69167,-12
0.70000,-13
0.70833,-13
0.71667,-14
0.72500,-14
0.73333,-15
0.74167,-15
0.75000,-16
0.75833,-17
0.76667,-18
0.77500,-19
0.78333,-19
0.79167,-20
0.80000,-21
0.80833,-21
0.81667,-21
0.82500,-22
0.83333,-22
0.84167,-22
0.85000,-23
0.85833,-23
0.86667,-23
0.87500,-24
0.88333,-24
0.89167,-24
0.90000,-24
0.90833,-24
0.91667,-24
0.92500,-24
0.93333,-24
0.94167,-24
0.95000,-24
0.95833,-24
0.96667,-25
0.97500,-25
0.98333,-25
0.99167,-25
1.00000,-25
1.00833,-25
1.01667,-24
1.02500,-24
1.03333,-24
1.04167,-24
1.05000,-24
1.05833,-24
1.06667,-24
1.07500,-24
1.08333,-24
1.09167,-24
1.10000,-24
1.10833,-24
1.11667,-24
1.12500,-24
1.13333,-23
1.14167,-23
1.15000,-22
1.15833,-22
1.16667,-21
1.17500,-21
1.18333,-20
1.19167,-19
1.20000,-18
1.20833,-18
1.21667,-17
1.22500,-17
1.23333,-16
1.24167,-15
1.25000,-14
1.25833,-14
1.26667,-13
1.27500,-12
1.28333,-12
1.29167,-11
1.30000,-10
1.30833,-9
1.31667,-9
1.32500,-8
1.33333,-7
1.34167,-6
1.35000,-5
1.35833,-5
1.36667,-4
1.37500,-3
1.38333,-2
1.39167,-2
1.40000,-1
1.40833,0
1.41667,1
1.42500,2
1.43333,2
1.44167,2
1.45000,3
1.45833,3
1.46667,4
1.47500,4
1.48333,4
1.49167,4
1.50000,4
1.50833,5
1.51667,5
1.52500,5
1.53333,5
1.54167,5
1.55000,6
1.55833,6
1.56667,6
1.57500,6
1.58333,6
1.59167,6
1.60000,6
1.60833,5
1.61667,5
1.62500,4
1.63333,4
1.64167,3
1.65000,3
1.65833,3
1.66667,2
1.67500,2
1.68333,1
1.69167,0
1.70000,-0
1.70833,-1
1.71667,-2
1.72500,-3
1.73333,-4
1.74167,-5
1.75000,-6
1.75833,-7
1.76667,-8
1.77500,-9
1.78333,-10
1.79167,-11
1.80000,-12
1.80833,-12
1.81667,-13
1.82500,-14
1.83333,-14
1.84167,-15
1.85000,-16
1.85833,-17
1.86667,-17
1.87500,-18
1.88333,-19
1.89167,-19
1.90000,-20
1.90833,-20
1.91667,-20
1.92500,-21
1.93333,-21
1.94167,-22
1.95000,-22
1.95833,-22
1.96667,-22
1.97500,-22
1.98333,-23
1.99167,-23
2.00000,-23
2.00833,-22
2.01667,-22
2.02500,-22
2.03333,-21
2.04167,-21
2.05000,-20
2.05833,-20
2.06667,-19
2.07500,-19
2.08333,-19
2.09167,-19
2.10000,-18
2.10833,-17
2.11667,-16
2.12500,-15
2.13333,-14
2.14167,-14
2.15000,-13
2.15833,-12
2.16667,-11
2.17500,-11
2.18333,-10
2.19167,-10
2.20000,-9
2.20833,-9
2.21667,-8
2.22500,-7
2.23333,-6
2.24167,-6
2.25000,-5
2.25833,-4
2.26667,-4
2.27500,-3
2.28333,-2
2.29167,-2
2.30000,-1
2.30833,-1
2.31667,-1
2.32500,-0
2.33333,0
2.34167,1
2.35000,1
2.35833,2
2.36667,2
2.37500,3
2.38333,3
2.39167,3
2.40000,4
2.40833,4
2.41667,4
2.42500,4
2.43333,4
2.44167,5
2.45000,5
2.45833,5
2.46667,5
2.47500,5
2.48333,5
2.49167,5
2.50000,5
2.50833,5
2.51667,6
2.52500,6
2.53333,6
2.54167,6
2.55000,6
2.55833,6
2.56667,6
2.57500,5
2.58333,5
2.59167,5
2.60000,5
2.60833,5
2.61667,6
2.62500,6
2.63333,5
2.64167,5
2.65000,5
2.65833,6
2.66667,6
2.67500,6
2.68333,6
2.69167,6
2.70000,5
2.70833,5
2.71667,5
2.72500,5
2.73333,5
2.74167,5
2.75000,5
2.75833,5
2.76667,5
2.77500,5
2.78333,5
2.79167,5
2.80000,5
2.80833,5
2.81667,5
2.82500,5
2.83333,5
2.84167,5
2.85000,5
2.85833,5
2.86667,5
2.87500,4
2.88333,4
2.89167,4
2.90000,4
2.90833,4
2.91667,4
2.92500,4
2.93333,4
2.94167,4
2.95000,4
2.95833,4
2.96667,4
2.97500,3
2.98333,3
2.99167,3
3.00000,2
3.00833,2
3.01667,2
3.02500,2
3.03333,1
3.04167,1
3.05000,1
3.05833,1
3.06667,0
3.07500,0
3.08333,-1
3.09167,-1
3.10000,-2
3.10833,-2
3.11667,-2
3.12500,-3
3.13333,-3
3.14167,-3
3.15000,-3
3.15833,-3
3.16667,-3
3.17500,-3
3.18333,-3
3.19167,-3
3.20000,-3
3.20833,-3
3.21667,-4
3.22500,-4
3.23333,-3
3.24167,-2
3.25000,-2
3.25833,-2
3.26667,-1
3.27500,-1
3.28333,-1
3.29167,-0
3.30000,-0
3.30833,0
3.31667,1
3.32500,1
3.33333,1
3.34167,1
3.35000,1
3.35833,1
3.36667,2
3.37500,2
3.38333,2
3.39167,3
3.40000,3
3.40833,4
3.41667,5
3.42500,5
3.43333,6
3.44167,6
3.45000,6
3.45833,7
3.46667,7
3.47500,8
3.48333,8
3.49167,9
3.50000,9
3.50833,9
3.51667,10
3.52500,10
3.53333,11
3.54167,12
3.55000,12
3.55833,13
3.56667,14
3.57500,14
3.58333,15
3.59167,15
3.60000,15
3.60833,15
3.61667,16
3.62500,17
3.63333,17
3.64167,18
3.65000,18
3.65833,18
3.66667,18
3.67500,18
3.68333,19
3.69167,19
3.70000,19
3.70833,19
3.71667,19
3.72500,19
3.73333,19
3.74167,19
3.75000,19
3.75833,19
3.76667,19
3.77500,20
3.78333,20
3.79167,20
3.80000,20
3.80833,20
3.81667,19
3.82500,19
3.83333,19
3.84167,19
3.85000,19
3.85833,18
3.86667,19
3.87500,19
3.88333,19
3.89167,18
3.90000,18
3.90833,18
3.91667,18
3.92500,17
3.93333,17
3.94167,16
3.95000,16
3.95833,16
3.96667,16
3.97500,16
3.98333,16
3.99167,16
4.00000,16
4.00833,16
4.01667,15
4.02500,15
4.03333,15
4.04167,15
4.05000,16
4.05833,16
4.06667,15
4.07500,15
4.08333,15
4.09167,14
4.10000,14
4.10833,14
4.11667,14
4.12500,15
4.13333,15
4.14167,14
4.15000,14
4.15833,14
4.16667,13
4.17500,13
4.18333,12
4.19167,12
4.20000,11
4.20833,11
4.21667,10
4.22500,10
4.23333,9
4.24167,9
4.25000,9
4.25833,8
4.26667,8
4.27500,8
4.28333,7
4.29167,7
4.30000,6
4.30833,6
4.31667,5
4.32500,5
4.33333,4
4.34167,3
4.35000,2
4.35833,1
4.36667,0
4.37500,-0
4.38333,-1
4.39167,-2
4.40000,-3
4.40833,-3
4.41667,-4
4.42500,-5
4.43333,-5
4.44167,-6
4.45000,-7
4.45833,-8
4.46667,-9
4.47500,-9
4.48333,-10
4.49167,-10
4.50000,-11
4.50833,-12
4.51667,-12
4.52500,-12
4.53333,-13
4.54167,-13
4.55000,-14
4.55833,-14
4.56667,-15
4.57500,-15
4.58333,-15
4.59167,-15
4.60000,-15
4.60833,-15
4.61667,-15
4.62500,-16
4.63333,-15
4.64167,-15
4.65000,-15
4.65833,-15
4.66667,-15
4.67500,-14
4.68333,-14
4.69167,-14
4.70000,-13
4.70833,-13
4.71667,-13
4.72500,-13
4.73333,-12
4.74167,-12
4.75000,-12
4.75833,-12
4.76667,-12
4.77500,-11
4.78333,-11
4.79167,-10
4.80000,-10
4.80833,-9
4.81667,-8
4.82500,-8
4.83333,-7
4.84167,-7
4.85000,-6
4.85833,-5
4.86667,-5
4.87500,-4
4.88333,-4
4.89167,-4
4.90000,-3
4.90833,-3
4.91667,-2
4.92500,-1
4.93333,-1
4.94167,0
4.95000,1
4.95833,2
4.96667,2
4.97500,3
4.98333,3
4.99167,4
5.00000,5
5.00833,6
5.01667,6
5.02500,7
5.03333,7
5.04167,8
5.05000,8
5.05833,9
5.06667,9
5.07500,10
5.08333,10
5.09167,10
5.10000,11
5.10833,11
5.11667,12
5.12500,12
5.13333,13
5.14167,14
5.15000,14
5.15833,14
5.16667,14
5.17500,14
5.18333,14
5.19167,15
5.20000,15
5.20833,14
5.21667,14
5.22500,14
5.23333,14
5.24167,14
5.25000,14
5.25833,13
5.26667,13
5.27500,13
5.28333,13
5.29167,12
5.30000,11
5.30833,11
5.31667,10
5.32500,10
5.33333,10
5.34167,9
5.35000,9
5.35833,9
5.36667,8
5.37500,7
5.38333,7
5.39167,6
5.40000,6
5.40833,5
5.41667,5
5.42500,4
5.43333,4
5.44167,3
5.45000,3
5.45833,3
5.46667,3
5.47500,2
5.48333,2
5.49167,1
5.50000,1
5.50833,1
5.51667,1
5.52500,1
5.53333,1
5.54167,0
5.55000,0
5.55833,0
5.56667,0
5.57500,-0
5.58333,-0
5.59167,-0
5.60000,0
5.60833,1
5.61667,1
5.62500,1
5.63333,2
5.64167,2
5.65000,2
5.65833,2
5.66667,2
5.67500,2
5.68333,3
5.69167,3
5.70000,3
5.70833,4
5.71667,4
5.72500,4
5.73333,5
5.74167,5
5.75000,6
5.75833,6
5.76667,7
5.77500,7
5.78333,8
5.79167,8
5.80000,8
5.80833,8
5.81667,8
5.82500,8
5.83333,8
5.84167,8
5.85000,8
5.85833,9
5.86667,9
5.87500,9
5.88333,9
5.89167,9
5.90000,9
5.90833,9
5.91667,9
5.92500,9
5.93333,9
5.94167,8
5.95000,8
5.95833,8
5.96667,8
5.97500,8
5.98333,7
5.99167,7
6.00000,7
6.00833,6
6.01667,6
6.02500,6
6.03333,6
6.04167,6
6.05000,5
6.05833,4
6.06667,4
6.07500,4
6.08333,3
6.09167,3
6.10000,3
6.10833,3
6.11667,2
6.12500,2
6.13333,1
6.14167,1
6.15000,1
6.15833,0
6.16667,0
6.17500,-0
6.18333,-0
6.19167,-0
6.20000,0
6.20833,0
6.21667,0
6.22500,1
6.23333,1
6.24167,1
6.25000,1
6.25833,1
6.26667,1
6.27500,2
6.28333,2
6.29167,3
6.30000,3
6.30833,3
6.31667,3
6.32500,4
6.33333,5
6.34167,5
6.35000,6
6.35833,6
6.36667,6
6.37500,7
6.38333,8
6.39167,8
6.40000,8
6.40833,9
6.41667,10
6.42500,10
6.43333,11
6.44167,11
6.45000,11
6.45833,12
6.46667,12
6.47500,12
6.48333,12
6.49167,12
6.50000,12
6.50833,13
6.51667,13
6.52500,13
6.53333,13
6.54167,13
6.55000,13
6.55833,13
6.56667,13
6.57500,12
6.58333,12
6.59167,12
6.60000,12
6.60833,12
6.61667,12
6.62500,11
6.63333,11
6.64167,11
6.65000,11
6.65833,10
6.66667,10
6.67500,9
6.68333,9
6.69167,8
6.70000,8
6.70833,7
6.71667,7
6.72500,6
6.73333,6
6.74167,5
6.75000,4
6.75833,3
6.76667,3
6.77500,2
6.78333,1
6.79167,0
6.80000,-0
6.80833,-1
6.81667,-1
6.82500,-2
6.83333,-3
6.84167,-3
6.85000,-4
6.85833,-5
6.86667,-5
6.87500,-6
6.88333,-7
6.89167,-7
6.90000,-8
6.90833,-8
6.91667,-8
6.92500,-8
6.93333,-9
6.94167,-9
6.95000,-9
6.95833,-9
6.96667,-9
6.97500,-9
6.98333,-9
6.99167,-10
7.00000,-10
7.00833,-10
7.01667,-10
7.02500,-10
7.03333,-10
7.04167,-10
7.05000,-10
7.05833,-10
7.06667,-10
7.07500,-10
7.08333,-10
7.09167,-10
7.10000,-10
7.10833,-9
7.11667,-9
7.12500,-9
7.13333,-8
7.14167,-8
7.15000,-7
7.15833,-7
7.16667,-7
7.17500,-7
7.18333,-7
7.19167,-7
7.20000,-7
7.20833,-7
7.21667,-6
7.22500,-6
7.23333,-6
7.24167,-7
7.25000,-7
7.25833,-6
7.26667,-6
7.27500,-6
7.28333,-6
7.29167,-6
7.30000,-6
7.30833,-6
7.31667,-6
7.32500,-6
7.33333,-6
7.34167,-7
7.35000,-7
7.35833,-6
7.36667,-6
7.37500,-6
7.38333,-6
7.39167,-6
7.40000,-6
7.40833,-6
7.41667,-6
7.42500,-6
7.43333,-6
7.44167,-5
7.45000,-5
7.45833,-4
7.46667,-3
7.47500,-3
7.48333,-3
7.49167,-3
7.50000,-2
7.50833,-1
7.51667,-1
7.52500,0
7.53333,1
7.54167,2
7.55000,2
7.55833,2
7.56667,3
7.57500,4
7.58333,5
7.59167,6
7.60000,6
7.60833,8
7.61667,9
7.62500,10
7.63333,11
7.64167,12
7.65000,14
7.65833,15
7.66667,16
7.67500,17
7.68333,18
7.69167,19
7.70000,20
7.70833,21
7.71667,22
7.72500,23
7.73333,23
7.74167,24
7.75000,25
7.75833,26
7.76667,27
7.77500,29
7.78333,29
7.79167,30
7.80000,31
7.80833,31
7.81667,32
7.82500,32
7.83333,33
7.84167,33
7.85000,34
7.85833,34
7.86667,35
7.87500,35
7.88333,35
7.89167,35
7.90000,35
7.90833,35
7.91667,35
7.92500,35
7.93333,35
7.94167,35
7.95000,36
7.95833,36
7.96667,36
7.97500,36
7.98333,36
7.99167,35
8.00000,34
8.00833,34
8.01667,34
8.02500,33
8.03333,33
8.04167,33
8.05000,32
8.05833,31
8.06667,31
8.07500,31
8.08333,30
8.09167,30
8.10000,29
8.10833,29
8.11667,28
8.12500,28
8.13333,27
8.14167,27
8.15000,26
8.15833,26
8.16667,25
8.17500,25
8.18333,25
8.19167,24
8.20000,24
8.20833,24
8.21667,23
8.22500,22
8.23333,22
8.24167,21
8.25000,21
8.25833,21
8.26667,20
8.27500,20
8.28333,19
8.29167,18
8.30000,18
8.30833,17
8.31667,16
8.32500,16
8.33333,15
8.34167,15
8.35000,14
8.35833,14
8.36667,14
8.37500,13
8.38333,12
8.39167,11
8.40000,10
8.40833,9
8.41667,9
8.42500,8
8.43333,7
8.44167,7
8.45000,6
8.45833,5
8.46667,4
8.47500,4
8.48333,3
8.49167,2
8.50000,2
8.50833,1
8.51667,1
8.52500,0
8.53333,-0
8.54167,-0
8.55000,-1
8.55833,-1
8.56667,-2
8.57500,-2
8.58333,-2
8.59167,-1
8.60000,-1
8.60833,-2
8.61667,-2
8.62500,-3
8.63333,-3
8.64167,-3
8.65000,-4
8.65833,-4
8.66667,-4
8.67500,-4
8.68333,-3
8.69167,-3
8.70000,-3
8.70833,-3
8.71667,-2
8.72500,-2
8.73333,-2
8.74167,-2
8.75000,-2
8.75833,-2
8.76667,-2
8.77500,-2
8.78333,-1
8.79167,-1
8.80000,-1
8.80833,-1
8.81667,-1
8.82500,-1
8.83333,-1
8.84167,-1
8.85000,-1
8.85833,-0
8.86667,-0
8.87500,-0
8.88333,-0
8.89167,-1
8.90000,-1
8.90833,-1
8.91667,-1
8.92500,-1
8.93333,-1
8.94167,-1
8.95000,-1
8.95833,-1
8.96667,-1
8.97500,-2
8.98333,-2
8.99167,-3
9.00000,-3
9.00833,-3
9.01667,-3
9.02500,-2
9.03333,-2
9.04167,-3
9.05000,-3
9.05833,-3
9.06667,-3
9.07500,-4
9.08333,-4
9.09167,-4
9.10000,-4
9.10833,-5
9.11667,-5
9.12500,-5
9.13333,-5
9.14167,-6
9.15000,-6
9.15833,-6
9.16667,-7
9.17500,-7
9.18333,-7
9.19167,-7
9.20000,-7
9.20833,-7
9.21667,-7
9.22500,-7
9.23333,-7
9.24167,-7
9.25000,-7
9.25833,-7
9.26667,-7
9.27500,-8
9.28333,-8
9.29167,-8
9.30000,-9
9.30833,-9
9.31667,-9
9.32500,-9
9.33333,-9
9.34167,-8
9.35000,-8
9.35833,-8
9.36667,-8
9.37500,-8
9.38333,-8
9.39167,-8
9.40000,-8
9.40833,-8
9.41667,-8
9.42500,-7
9.43333,-7
9.44167,-7
9.45000,-6
9.45833,-5
9.46667,-4
9.47500,-4
9.48333,-4
9.49167,-3
9.50000,-2
9.50833,-2
9.51667,-2
9.52500,-1
9.53333,-0
9.54167,1
9.55000,1
9.55833,2
9.56667,3
9.57500,4
9.58333,5
9.59167,5
9.60000,6
9.60833,7
9.61667,8
9.62500,8
9.63333,9
9.64167,10
9.65000,11
9.65833,12
9.66667,13
9.67500,14
9.68333,15
9.69167,16
9.70000,17
9.70833,18
9.71667,19
9.72500,20
9.73333,21
9.74167,21
9.75000,22
9.75833,23
9.76667,24
9.77500,25
9.78333,26
9.79167,26
9.80000,26
9.80833,27
9.81667,27
9.82500,27
9.83333,28
9.84167,28
9.85000,29
9.85833,29
9.86667,30
9.87500,31
9.88333,31
9.89167,31
9.90000,32
9.90833,32
9.91667,32
9.92500,32
9.93333,32
9.94167,32
9.95000,32
9.95833,32
9.96667,32
9.97500,31
9.98333,32
9.99167,31
10.00000,31
10.00833,31
10.01667,31
10.02500,30
10.03333,30
10.04167,30
10.05000,30
10.05833,30
10.06667,30
10.07500,29
10.08333,29
10.09167,29
10.10000,28
10.10833,28
10.11667,28
10.12500,27
10.13333,27
10.14167,27
10.15000,27
10.15833,27
10.16667,26
10.17500,26
10.18333,26
10.19167,26
10.20000,26
10.20833,26
10.21667,26
10.22500,26
10.23333,26
10.24167,26
10.25000,26
10.25833,26
10.26667,26
10.27500,26
10.28333,27
10.29167,27
10.30000,27
10.30833,27
10.31667,27
10.32500,27
10.33333,27
10.34167,27
10.35000,27
10.35833,27
10.36667,27
10.37500,27
10.38333,26
10.39167,25
10.40000,23
10.40833,20
10.41667,17
10.42500,13
10.43333,6
10.44167,-3
10.45000,-16
10.45833,-33
10.46667,-54
10.47500,-82
10.48333,-115
10.49167,-156
10.50000,-206
10.50833,-263
10.51667,-328
10.52500,-400
10.53333,-479
10.54167,-561
10.55000,-646
10.55833,-728
10.56667,-803
10.57500,-867
10.58333,-913
10.59167,-935
10.60000,-926
10.60833,-878
10.61667,-783
10.62500,-633
10.63333,-421
10.64167,-139
10.65000,221
10.65833,664
10.66667,1198
10.67500,1827
10.68333,2558
10.69167,3394
10.70000,4339
10.70833,5396
10.71667,6567
10.72500,7854
10.73333,9259
10.74167,10781
10.75000,12422
10.75833,14180
10.76667,16055
10.77500,18045
10.78333,20148
10.79167,22364
10.80000,24689
10.80833,27120
10.81667,29655
10.82500,32289
10.83333,35019
10.84167,37840
10.85000,40747
10.85833,43734
10.86667,46794
10.87500,49919
10.88333,53102
10.89167,56331
10.90000,59593
10.90833,62873
10.91667,66153
10.92500,69411
10.93333,72619
10.94167,75744
10.95000,78744
10.95833,81573
10.96667,84173
10.97500,86480
10.98333,88424
10.99167,89932
11.00000,90932
11.00833,91356
11.01667,91149
11.02500,90274
11.03333,88715
11.04167,86478
11.05000,83601
11.05833,80141
11.06667,76181
11.07500,71815
11.08333,67151
11.09167,62299
11.10000,57365
11.10833,52449
11.11667,47638
11.12500,43004
11.13333,38605
11.14167,34480
11.15000,30659
11.15833,27153
11.16667,23967
11.17500,21094
11.18333,18522
11.19167,16234
11.20000,14210
11.20833,12428
11.21667,10864
11.22500,9498
11.23333,8308
11.24167,7273
11.25000,6375
11.25833,5598
11.26667,4925
11.27500,4344
11.28333,3842
11.29167,3408
11.30000,3033
11.30833,2709
11.31667,2428
11.32500,2184
11.33333,1973
11.34167,1789
11.35000,1629
11.35833,1489
11.36667,1366
11.37500,1258
11.38333,1163
11.39167,1079
11.40000,1004
11.40833,937
11.41667,877
11.42500,823
11.43333,774
11.44167,730
11.45000,690
11.45833,653
11.46667,619
11.47500,588
11.48333,559
11.49167,533
11.50000,508
11.50833,485
11.51667,464
11.52500,444
11.53333,425
11.54167,407
11.55000,391
11.55833,375
11.56667,360
11.57500,346
11.58333,332
11.59167,319
11.60000,308
11.60833,296
11.61667,285
11.62500,275
11.63333,265
11.64167,256
11.65000,248
11.65833,239
11.66667,231
11.67500,223
11.68333,216
11.69167,209
11.70000,203
11.70833,198
11.71667,192
11.72500,187
11.73333,182
11.74167,177
11.75000,172
11.75833,167
11.76667,163
11.77500,159
11.78333,155
11.79167,152
11.80000,149
11.80833,146
11.81667,143
11.82500,140
11.83333,138
11.84167,136
11.85000,134
11.85833,132
11.86667,130
11.87500,129
11.88333,127
11.89167,126
11.90000,125
11.90833,124
11.91667,122
11.92500,122
11.93333,121
11.94167,120
11.95000,119
11.95833,118
11.96667,117
11.97500,116
11.98333,115
11.99167,114
12.00000,113
12.00833,112
12.01667,112
12.02500,111
12.03333,111
12.04167,110
12.05000,109
12.05833,109
12.06667,108
12.07500,107
12.08333,107
12.09167,107
12.10000,106
12.10833,106
12.11667,105
12.12500,104
12.13333,104
12.14167,103
12.15000,102
12.15833,102
12.16667,101
12.17500,100
12.18333,100
12.19167,100
12.20000,99
12.20833,99
12.21667,99
12.22500,99
12.23333,98
12.24167,98
12.25000,97
12.25833,97
12.26667,96
12.27500,95
12.28333,95
12.29167,94
12.30000,94
12.30833,93
12.31667,93
12.32500,92
12.33333,91
12.34167,91
12.35000,90
12.35833,90
12.36667,89
12.37500,88
12.38333,87
12.39167,86
12.40000,85
12.40833,84
12.41667,83
12.42500,82
12.43333,81
12.44167,80
12.45000,78
12.45833,77
12.46667,76
12.47500,75
12.48333,74
12.49167,73
12.50000,72
12.50833,71
12.51667,70
12.52500,69
12.53333,68
12.54167,67
12.55000,66
12.55833,65
12.56667,64
12.57500,63
12.58333,62
12.59167,62
12.60000,61
12.60833,60
12.61667,60
12.62500,60
12.63333,60
12.64167,60
12.65000,61
12.65833,61
12.66667,62
12.67500,64
12.68333,67
12.69167,70
12.70000,73
12.70833,78
12.71667,85
12.72500,93
12.73333,103
12.74167,115
12.75000,129
12.75833,146
12.76667,166
12.77500,190
12.78333,217
12.79167,249
12.80000,285
12.80833,326
12.81667,373
12.82500,425
12.83333,483
12.84167,547
12.85000,618
12.85833,696
12.86667,780
12.87500,872
12.88333,970
12.89167,1076
12.90000,1189
12.90833,1309
12.91667,1436
12.92500,1570
12.93333,1712
12.94167,1860
12.95000,2015
12.95833,2176
12.96667,2344
12.97500,2519
12.98333,2700
12.99167,2887
13.00000,3080
13.00833,3278
13.01667,3482
13.02500,3692
13.03333,3906
13.04167,4126
13.05000,4350
13.05833,4579
13.06667,4813
13.07500,5051
13.08333,5294
13.09167,5540
13.10000,5791
13.10833,6045
13.11667,6303
13.12500,6565
13.13333,6830
13.14167,7099
13.15000,7372
13.15833,7648
13.16667,7927
13.17500,8209
13.18333,8494
13.19167,8783
13.20000,9074
13.20833,9369
13.21667,9666
13.22500,9967
13.23333,10270
13.24167,10577
13.25000,10886
13.25833,11198
13.26667,11513
13.27500,11831
13.28333,12152
13.29167,12475
13.30000,12802
13.30833,13131
13.31667,13462
13.32500,13797
13.33333,14135
13.34167,14475
13.35000,14818
13.35833,15163
13.36667,15511
13.37500,15863
13.38333,16217
13.39167,16575
13.40000,16935
13.40833,17298
13.41667,17664
13.42500,18032
13.43333,18404
13.44167,18779
13.45000,19156
13.45833,19537
13.46667,19920
13.47500,20307
13.48333,20696
13.49167,21089
13.50000,21485
13.50833,21884
13.51667,22286
13.52500,22691
13.53333,23099
13.54167,23511
13.55000,23926
13.55833,24344
13.56667,24765
13.57500,25190
13.58333,25618
13.59167,26050
13.60000,26486
13.60833,26924
13.61667,27367
13.62500,27812
13.63333,28261
13.64167,28714
13.65000,29170
13.65833,29630
13.66667,30093
13.67500,30560
13.68333,31031
13.69167,31506
13.70000,31985
13.70833,32467
13.71667,32954
13.72500,33444
13.73333,33939
13.74167,34437
13.75000,34939
13.75833,35445
13.76667,35956
13.77500,36470
13.78333,36989
13.79167,37513
13.80000,38040
13.80833,38572
13.81667,39108
13.82500,39648
13.83333,40193
13.84167,40742
13.85000,41295
13.85833,41854
13.86667,42417
13.87500,42985
13.88333,43557
13.89167,44134
13.90000,44716
13.90833,45304
13.91667,45896
13.92500,46493
13.93333,47095
13.94167,47703
13.95000,48315
13.95833,48933
13.96667,49555
13.97500,50184
13.98333,50817
13.99167,51456
14.00000,52101
14.00833,52752
14.01667,53408
14.02500,54070
14.03333,54738
14.04167,55412
14.05000,56092
14.05833,56778
14.06667,57470
14.07500,58167
14.08333,58871
14.09167,59581
14.10000,60298
14.10833,61022
14.11667,61752
14.12500,62489
14.13333,63232
14.14167,63982
14.15000,64739
14.15833,65503
14.16667,66274
14.17500,67051
14.18333,67836
14.19167,68629
14.20000,69430
14.20833,70237
14.21667,71052
14.22500,71875
14.23333,72705
14.24167,73543
14.25000,74389
14.25833,75243
14.26667,76105
14.27500,76975
14.28333,77854
14.29167,78741
14.30000,79636
14.30833,80541
14.31667,81453
14.32500,82375
14.33333,83306
14.34167,84246
14.35000,85195
14.35833,86153
14.36667,87120
14.37500,88097
14.38333,89083
14.39167,90079
14.40000,91084
14.40833,92099
14.41667,93125
14.42500,94160
14.43333,95204
14.44167,96257
14.45000,97317
14.45833,98380
14.46667,99441
14.47500,100491
14.48333,101518
14.49167,102506
14.50000,103430
14.50833,104262
14.51667,104967
14.52500,105505
14.53333,105830
14.54167,105897
14.55000,105658
14.55833,105068
14.56667,104089
14.57500,102688
14.58333,100844
14.59167,98545
14.60000,95795
14.60833,92609
14.61667,89017
14.62500,85060
14.63333,80790
14.64167,76269
14.65000,71564
14.65833,66746
14.66667,61885
14.67500,57050
14.68333,52305
14.69167,47708
14.70000,43307
14.70833,39140
14.71667,35237
14.72500,31617
14.73333,28288
14.74167,25253
14.75000,22506
14.75833,20036
14.76667,17828
14.77500,15864
14.78333,14124
14.79167,12588
14.80000,11235
14.80833,10047
14.81667,9004
14.82500,8091
14.83333,7290
14.84167,6589
14.85000,5974
14.85833,5435
14.86667,4961
14.87500,4544
14.88333,4177
14.89167,3853
14.90000,3567
14.90833,3313
14.91667,3087
14.92500,2886
14.93333,2707
14.94167,2546
14.95000,2402
14.95833,2272
14.96667,2154
14.97500,2048
14.98333,1951
14.99167,1863
15.00000,1784
15.00833,1710
15.01667,1643
15.02500,1581
15.03333,1525
15.04167,1473
15.05000,1424
15.05833,1380
15.06667,1338
15.07500,1299
15.08333,1263
15.09167,1229
15.10000,1197
15.10833,1168
15.11667,1140
15.12500,1115
15.13333,1091
15.14167,1069
15.15000,1048
15.15833,1029
15.16667,1012
15.17500,998
15.18333,985
15.19167,974
15.20000,966
15.20833,960
15.21667,958
15.22500,958
15.23333,962
15.24167,971
15.25000,984
15.25833,1003
15.26667,1027
15.27500,1058
15.28333,1096
15.29167,1142
15.30000,1198
15.30833,1264
15.31667,1340
15.32500,1428
15.33333,1530
15.34167,1645
15.35000,1775
15.35833,1920
15.36667,2082
15.37500,2261
15.38333,2459
15.39167,2674
15.40000,2907
15.40833,3159
15.41667,3430
15.42500,3719
15.43333,4026
15.44167,4349
15.45000,4689
15.45833,5043
15.46667,5410
15.47500,5789
15.48333,6178
15.49167,6573
15.50000,6974
15.50833,7376
15.51667,7779
15.52500,8178
15.53333,8571
15.54167,8956
15.55000,9329
15.55833,9688
15.56667,10030
15.57500,10352
15.58333,10651
15.59167,10927
15.60000,11176
15.60833,11397
15.61667,11588
15.62500,11748
15.63333,11876
15.64167,11971
15.65000,12033
15.65833,12062
15.66667,12058
15.67500,12021
15.68333,11954
15.69167,11855
15.70000,11727
15.70833,11572
15.71667,11390
15.72500,11183
15.73333,10955
15.74167,10706
15.75000,10439
15.75833,10155
15.76667,9858
15.77500,9548
15.78333,9230
15.79167,8903
15.80000,8571
15.80833,8236
15.81667,7899
15.82500,7562
15.83333,7227
15.84167,6894
15.85000,6567
15.85833,6244
15.86667,5929
15.87500,5622
15.88333,5323
15.89167,5034
15.90000,4754
15.90833,4484
15.91667,4225
15.92500,3978
15.93333,3741
15.94167,3516
15.95000,3302
15.95833,3099
15.96667,2907
15.97500,2725
15.98333,2555
15.99167,2394
16.00000,2243
16.00833,2102
16.01667,1970
16.02500,1847
16.03333,1732
16.04167,1625
16.05000,1525
16.05833,1433
16.06667,1347
16.07500,1268
16.08333,1194
16.09167,1126
16.10000,1064
16.10833,1006
16.11667,953
16.12500,904
16.13333,859
16.14167,817
16.15000,779
16.15833,743
16.16667,711
16.17500,681
16.18333,654
16.19167,629
16.20000,606
16.20833,585
16.21667,565
16.22500,548
16.23333,532
16.24167,516
16.25000,502
16.25833,489
16.26667,477
16.27500,466
16.28333,456
16.29167,447
16.30000,438
16.30833,430
16.31667,423
16.32500,416
16.33333,410
16.34167,403
16.35000,398
16.35833,393
16.36667,388
16.37500,384
16.38333,379
16.39167,375
16.40000,371
16.40833,368
16.41667,365
16.42500,362
16.43333,359
16.44167,356
16.45000,353
16.45833,351
16.46667,348
16.47500,346
16.48333,344
16.49167,342
16.50000,340
16.50833,338
16.51667,336
16.52500,334
16.53333,331
16.54167,329
16.55000,327
16.55833,326
16.56667,324
16.57500,322
16.58333,320
16.59167,318
16.60000,317
16.60833,315
16.61667,313
16.62500,311
16.63333,309
16.64167,308
16.65000,306
16.65833,304
16.66667,301
16.67500,299
16.68333,297
16.69167,295
16.70000,294
16.70833,292
16.71667,290
16.72500,288
16.73333,286
16.74167,284
16.75000,282
16.75833,280
16.76667,278
16.77500,276
16.78333,274
16.79167,272
16.80000,269
16.80833,267
16.81667,265
16.82500,263
16.83333,261
16.84167,259
16.85000,257
16.85833,255
16.86667,253
16.87500,251
16.88333,249
16.89167,247
16.90000,245
16.90833,243
16.91667,241
16.92500,239
16.93333,237
16.94167,236
16.95000,234
16.95833,232
16.96667,231
16.97500,229
16.98333,227
16.99167,226
17.00000,224
17.00833,223
17.01667,221
17.02500,220
17.03333,219
17.04167,218
17.05000,217
17.05833,215
17.06667,213
17.07500,212
17.08333,210
17.09167,209
17.10000,208
17.10833,207
17.11667,206
17.12500,206
17.13333,205
17.14167,204
17.15000,203
17.15833,202
17.16667,202
17.17500,201
17.18333,200
17.19167,199
17.20000,199
17.20833,198
17.21667,197
17.22500,197
17.23333,196
17.24167,195
17.25000,195
17.25833,194
17.26667,193
17.27500,193
17.28333,192
17.29167,192
17.30000,191
17.30833,190
17.31667,189
17.32500,189
17.33333,188
17.34167,187
17.35000,187
17.35833,186
17.36667,186
17.37500,186
17.38333,186
17.39167,185
17.40000,184
17.40833,183
17.41667,183
17.42500,183
17.43333,182
17.44167,182
17.45000,181
17.45833,181
17.46667,180
17.47500,179
17.48333,179
17.49167,178
17.50000,177
17.50833,176
17.51667,175
17.52500,175
17.53333,174
17.54167,173
17.55000,173
17.55833,173
17.56667,173
17.57500,172
17.58333,172
17.59167,171
17.60000,170
17.60833,169
17.61667,168
17.62500,168
17.63333,167
17.64167,166
17.65000,165
17.65833,164
17.66667,163
17.67500,162
17.68333,161
17.69167,160
17.70000,159
17.70833,158
17.71667,157
17.72500,156
17.73333,155
17.74167,155
17.75000,154
17.75833,154
17.76667,153
17.77500,153
17.78333,152
17.79167,151
17.80000,150
17.80833,149
17.81667,148
17.82500,148
17.83333,147
17.84167,146
17.85000,145
17.85833,144
17.86667,144
17.87500,143
17.88333,143
17.89167,142
17.90000,141
17.90833,141
17.91667,140
17.92500,140
17.93333,140
17.94167,139
17.95000,139
17.95833,138
17.96667,138
17.97500,138
17.98333,137
17.99167,137
18.00000,136
18.00833,136
18.01667,135
18.02500,135
18.03333,134
18.04167,133
18.05000,133
18.05833,132
18.06667,131
18.07500,131
18.08333,130
18.09167,130
18.10000,130
18.10833,129
18.11667,129
18.12500,128
18.13333,127
18.14167,127
18.15000,126
18.15833,126
18.16667,125
18.17500,124
18.18333,124
18.19167,123
18.20000,122
18.20833,122
18.21667,122
18.22500,121
18.23333,121
18.24167,120
18.25000,119
18.25833,118
18.26667,118
18.27500,117
18.28333,116
18.29167,116
18.30000,115
18.30833,114
18.31667,113
18.32500,112
18.33333,111
18.34167,110
18.35000,109
18.35833,108
18.36667,107
18.37500,107
18.38333,106
18.39167,105
18.40000,104
18.40833,103
18.41667,102
18.42500,101
18.43333,101
18.44167,100
18.45000,100
18.45833,99
18.46667,99
18.47500,98
18.48333,98
18.49167,97
18.50000,96
18.50833,95
18.51667,95
18.52500,94
18.53333,93
18.54167,92
18.55000,92
18.55833,91
18.56667,91
18.57500,90
18.58333,90
18.59167,89
18.60000,89
18.60833,88
18.61667,88
18.62500,88
18.63333,88
18.64167,87
18.65000,87
18.65833,87
18.66667,87
18.67500,86
18.68333,87
18.69167,87
18.70000,87
18.70833,88
18.71667,88
18.72500,88
18.73333,88
18.74167,88
18.75000,88
18.75833,89
18.76667,89
18.77500,90
18.78333,91
18.79167,92
18.80000,93
18.80833,94
18.81667,95
18.82500,96
18.83333,97
18.84167,99
18.85000,100
18.85833,102
18.86667,103
18.87500,105
18.88333,106
18.89167,108
18.90000,110
18.90833,112
18.91667,114
18.92500,116
18.93333,118
18.94167,120
18.95000,121
18.95833,122
18.96667,123
18.97500,125
18.98333,126
18.99167,128
19.00000,129
19.00833,130
19.01667,131
19.02500,131
19.03333,132
19.04167,131
19.05000,131
19.05833,131
19.06667,131
19.07500,131
19.08333,131
19.09167,131
19.10000,130
19.10833,130
19.11667,129
19.12500,127
19.13333,126
19.14167,125
19.15000,123
19.15833,121
19.16667,119
19.17500,117
19.18333,116
19.19167,114
19.20000,113
19.20833,112
19.21667,110
19.22500,108
19.23333,106
19.24167,104
19.25000,102
19.25833,101
19.26667,99
19.27500,97
19.28333,96
19.29167,94
19.30000,93
19.30833,91
19.31667,90
19.32500,88
19.33333,87
19.34167,85
19.35000,84
19.35833,83
19.36667,82
19.37500,81
19.38333,80
19.39167,79
19.40000,77
19.40833,76
19.41667,76
19.42500,75
19.43333,74
19.44167,74
19.45000,73
19.45833,73
19.46667,73
19.47500,73
19.48333,72
19.49167,72
19.50000,72
19.50833,72
19.51667,72
19.52500,72
19.53333,73
19.54167,73
19.55000,73
19.55833,73
19.56667,73
19.57500,73
19.58333,72
19.59167,72
19.60000,72
19.60833,72
19.61667,72
19.62500,73
19.63333,72
19.64167,72
19.65000,72
19.65833,72
19.66667,73
19.67500,73
19.68333,73
19.69167,73
19.70000,72
19.70833,72
19.71667,72
19.72500,72
19.73333,72
19.74167,72
19.75000,71
19.75833,71
19.76667,71
19.77500,71
19.78333,70
19.79167,70
19.80000,70
19.80833,69
19.81667,69
19.82500,69
19.83333,68
19.84167,68
19.85000,67
19.85833,67
19.86667,67
19.87500,67
19.88333,67
19.89167,66
19.90000,66
19.90833,66
19.91667,65
19.92500,65
19.93333,64
19.94167,64
19.95000,64
19.95833,63
19.96667,63
19.97500,62
19.98333,62
19.99167,62
20.00000,62
20.00833,62
20.01667,62
20.02500,62
20.03333,62
20.04167,62
20.05000,62
20.05833,62
20.06667,61
20.07500,61
20.08333,61
20.09167,62
20.10000,62
20.10833,62
20.11667,62
20.12500,62
20.13333,62
20.14167,61
20.15000,61
20.15833,61
20.16667,62
20.17500,62
20.18333,62
20.19167,62
20.20000,62
20.20833,62
20.21667,62
20.22500,62
20.23333,62
20.24167,62
20.25000,62
20.25833,62
20.26667,63
20.27500,62
20.28333,62
20.29167,62
20.30000,62
20.30833,62
20.31667,62
20.32500,61
20.33333,61
20.34167,61
20.35000,60
20.35833,60
20.36667,60
20.37500,60
20.38333,60
20.39167,60
20.40000,60
20.40833,59
20.41667,59
20.42500,58
20.43333,57
20.44167,56
20.45000,55
20.45833,55
20.46667,54
20.47500,54
20.48333,53
20.49167,53
20.50000,52
20.50833,51
20.51667,50
20.52500,50
20.53333,49
20.54167,48
20.55000,47
20.55833,47
20.56667,46
20.57500,46
20.58333,45
20.59167,45
20.60000,45
20.60833,45
20.61667,44
20.62500,44
20.63333,43
20.64167,43
20.65000,43
20.65833,42
20.66667,42
20.67500,42
20.68333,42
20.69167,42
20.70000,42
20.70833,42
20.71667,42
20.72500,42
20.73333,42
20.74167,42
20.75000,42
20.75833,43
20.76667,43
20.77500,44
20.78333,44
20.79167,44
20.80000,45
20.80833,45
20.81667,46
20.82500,47
20.83333,47
20.84167,48
20.85000,49
20.85833,49
20.86667,50
20.87500,51
20.88333,51
20.89167,52
20.90000,53
20.90833,53
20.91667,53
20.92500,54
20.93333,54
20.94167,55
20.95000,55
20.95833,56
20.96667,57
20.97500,58
20.98333,58
20.99167,59
21.00000,60
21.00833,60
21.01667,60
21.02500,60
21.03333,61
21.04167,61
21.05000,61
21.05833,61
21.06667,62
21.07500,62
21.08333,62
21.09167,62
21.10000,63
21.10833,63
21.11667,63
21.12500,63
21.13333,63
21.14167,63
21.15000,63
21.15833,63
21.16667,63
21.17500,63
21.18333,63
21.19167,63
21.20000,63
21.20833,62
21.21667,62
21.22500,62
21.23333,63
21.24167,63
21.25000,63
21.25833,62
21.26667,62
21.27500,62
21.28333,62
21.29167,61
21.30000,61
21.30833,60
21.31667,60
21.32500,60
21.33333,60
21.34167,60
21.35000,59
21.35833,59
21.36667,59
21.37500,59
21.38333,59
21.39167,59
21.40000,59
21.40833,59
21.41667,59
21.42500,59
21.43333,59
21.44167,60
21.45000,60
21.45833,61
21.46667,62
21.47500,63
21.48333,64
21.49167,66
21.50000,68
21.50833,70
21.51667,72
21.52500,75
21.53333,78
21.54167,82
21.55000,87
21.55833,92
21.56667,98
21.57500,105
21.58333,113
21.59167,122
21.60000,131
21.60833,142
21.61667,154
21.62500,168
21.63333,183
21.64167,200
21.65000,219
21.65833,240
21.66667,264
21.67500,289
21.68333,317
21.69167,347
21.70000,380
21.70833,415
21.71667,454
21.72500,496
21.73333,540
21.74167,588
21.75000,638
21.75833,691
21.76667,749
21.77500,809
21.78333,872
21.79167,939
21.80000,1008
21.80833,1080
21.81667,1154
21.82500,1231
21.83333,1309
21.84167,1390
21.85000,1471
21.85833,1554
21.86667,1638
21.87500,1722
21.88333,1806
21.89167,1891
21.90000,1974
21.90833,2056
21.91667,2137
21.92500,2215
21.93333,2290
21.94167,2364
21.95000,2433
21.95833,2499
21.96667,2560
21.97500,2617
21.98333,2669
21.99167,2715
22.00000,2757
22.00833,2792
22.01667,2822
22.02500,2846
22.03333,2865
22.04167,2876
22.05000,2882
22.05833,2881
22.06667,2874
22.07500,2861
22.08333,2842
22.09167,2817
22.10000,2787
22.10833,2752
22.11667,2711
22.12500,2666
22.13333,2616
22.14167,2563
22.15000,2506
22.15833,2446
22.16667,2382
22.17500,2316
22.18333,2248
22.19167,2178
22.20000,2106
22.20833,2033
22.21667,1959
22.22500,1885
22.23333,1811
22.24167,1737
22.25000,1663
22.25833,1590
22.26667,1518
22.27500,1447
22.28333,1378
22.29167,1310
22.30000,1244
22.30833,1180
22.31667,1117
22.32500,1056
22.33333,997
22.34167,941
22.35000,887
22.35833,836
22.36667,786
22.37500,739
22.38333,695
22.39167,653
22.40000,613
22.40833,575
22.41667,539
22.42500,505
22.43333,473
22.44167,443
22.45000,416
22.45833,389
22.46667,365
22.47500,342
22.48333,320
22.49167,300
22.50000,282
22.50833,264
22.51667,248
22.52500,233
22.53333,218
22.54167,205
22.55000,194
22.55833,183
22.56667,173
22.57500,163
22.58333,154
22.59167,146
22.60000,138
22.60833,131
22.61667,125
22.62500,119
22.63333,114
22.64167,109
22.65000,104
22.65833,99
22.66667,96
22.67500,92
22.68333,89
22.69167,86
22.70000,84
22.70833,81
22.71667,79
22.72500,77
22.73333,75
22.74167,73
22.75000,72
22.75833,70
22.76667,69
22.77500,68
22.78333,67
22.79167,65
22.80000,64
22.80833,63
22.81667,62
22.82500,62
22.83333,61
22.84167,61
22.85000,60
22.85833,60
22.86667,59
22.87500,59
22.88333,59
22.89167,59
22.90000,58
22.90833,58
22.91667,57
22.92500,57
22.93333,57
22.94167,57
22.95000,57
22.95833,57
22.96667,57
22.97500,57
22.98333,57
22.99167,57
23.00000,57
23.00833,57
23.01667,57
23.02500,57
23.03333,58
23.04167,58
23.05000,58
23.05833,58
23.06667,58
23.07500,58
23.08333,58
23.09167,58
23.10000,58
23.10833,59
23.11667,59
23.12500,59
23.13333,59
23.14167,59
23.15000,60
23.15833,60
23.16667,61
23.17500,61
23.18333,61
23.19167,61
23.20000,61
23.20833,62
23.21667,62
23.22500,62
23.23333,62
23.24167,62
23.25000,62
23.25833,63
23.26667,63
23.27500,63
23.28333,64
23.29167,64
23.30000,64
23.30833,64
23.31667,64
23.32500,64
23.33333,63
23.34167,63
23.35000,63
23.35833,63
23.36667,63
23.37500,63
23.38333,63
23.39167,63
23.40000,62
23.40833,62
23.41667,62
23.42500,61
23.43333,61
23.44167,60
23.45000,60
23.45833,59
23.46667,59
23.47500,59
23.48333,58
23.49167,58
23.50000,57
23.50833,57
23.51667,56
23.52500,56
23.53333,55
23.54167,55
23.55000,54
23.55833,54
23.56667,54
23.57500,54
23.58333,53
23.59167,53
23.60000,52
23.60833,52
23.61667,52
23.62500,51
23.63333,51
23.64167,50
23.65000,50
23.65833,50
23.66667,49
23.67500,49
23.68333,49
23.69167,49
23.70000,48
23.70833,48
23.71667,48
23.72500,48
23.73333,47
23.74167,47
23.75000,47
23.75833,47
23.76667,47
23.77500,47
23.78333,46
23.79167,46
23.80000,46
23.80833,47
23.81667,47
23.82500,47
23.83333,47
23.84167,47
23.85000,47
23.85833,47
23.86667,47
23.87500,47
23.88333,47
23.89167,48
23.90000,48
23.90833,49
23.91667,49
23.92500,50
23.93333,50
23.94167,50
23.95000,51
23.95833,51
23.96667,51
23.97500,51
23.98333,51
23.99167,51
24.00000,52
24.00833,52
24.01667,52
24.02500,52
24.03333,53
24.04167,53
24.05000,54
24.05833,54
24.06667,54
24.07500,55
24.08333,55
24.09167,55
24.10000,56
24.10833,56
24.11667,57
24.12500,57
24.13333,58
24.14167,58
24.15000,58
24.15833,58
24.16667,58
24.17500,59
24.18333,60
24.19167,60
24.20000,60
24.20833,60
24.21667,60
24.22500,59
24.23333,59
24.24167,59
24.25000,59
24.25833,60
24.26667,60
24.27500,60
24.28333,60
24.29167,60
24.30000,60
24.30833,61
24.31667,61
24.32500,61
24.33333,61
24.34167,61
24.35000,61
24.35833,61
24.36667,61
24.37500,62
24.38333,62
24.39167,63
24.40000,63
24.40833,64
24.41667,64
24.42500,66
24.43333,67
24.44167,68
24.45000,69
24.45833,71
24.46667,73
24.47500,74
24.48333,77
24.49167,79
24.50000,81
24.50833,84
24.51667,88
24.52500,91
24.53333,96
24.54167,101
24.55000,106
24.55833,111
24.56667,117
24.57500,124
24.58333,131
24.59167,139
24.60000,148
24.60833,157
24.61667,167
24.62500,177
24.63333,189
24.64167,201
24.65000,215
24.65833,229
24.66667,244
24.67500,261
24.68333,278
24.69167,296
24.70000,314
24.70833,334
24.71667,355
24.72500,376
24.73333,398
24.74167,422
24.75000,445
24.75833,470
24.76667,495
24.77500,521
24.78333,548
24.79167,575
24.80000,603
24.80833,631
24.81667,659
24.82500,688
24.83333,717
24.84167,745
24.85000,774
24.85833,801
24.86667,828
24.87500,855
24.88333,881
24.89167,906
24.90000,930
24.90833,953
24.91667,975
24.92500,996
24.93333,1015
24.94167,1032
24.95000,1048
24.95833,1063
24.96667,1076
24.97500,1087
24.98333,1096
24.99167,1103
25.00000,1108
25.00833,1112
25.01667,1113
25.02500,1113
25.03333,1110
25.04167,1106
25.05000,1099
25.05833,1091
25.06667,1081
25.07500,1070
25.08333,1057
25.09167,1042
25.10000,1026
25.10833,1008
25.11667,989
25.12500,968
25.13333,947
25.14167,925
25.15000,902
25.15833,878
25.16667,853
25.17500,828
25.18333,803
25.19167,777
25.20000,751
25.20833,725
25.21667,699
25.22500,673
25.23333,647
25.24167,621
25.25000,596
25.25833,571
25.26667,547
25.27500,523
25.28333,499
25.29167,476
25.30000,454
25.30833,432
25.31667,411
25.32500,390
25.33333,371
25.34167,353
25.35000,335
25.35833,318
25.36667,302
25.37500,286
25.38333,272
25.39167,258
25.40000,244
25.40833,232
25.41667,220
25.42500,209
25.43333,198
25.44167,188
25.45000,179
25.45833,170
25.46667,162
25.47500,155
25.48333,147
25.49167,140
25.50000,134
25.50833,129
25.51667,123
25.52500,118
25.53333,114
25.54167,110
25.55000,106
25.55833,102
25.56667,99
25.57500,96
25.58333,93
25.59167,91
25.60000,88
25.60833,86
25.61667,84
25.62500,82
25.63333,80
25.64167,79
25.65000,77
25.65833,76
25.66667,74
25.67500,73
25.68333,72
25.69167,72
25.70000,71
25.70833,70
25.71667,69
25.72500,68
25.73333,68
25.74167,67
25.75000,67
25.75833,66
25.76667,66
25.77500,65
25.78333,66
25.79167,66
25.80000,66
25.80833,66
25.81667,65
25.82500,65
25.83333,65
25.84167,65
25.85000,64
25.85833,64
25.86667,64
25.87500,64
25.88333,64
25.89167,64
25.90000,65
25.90833,65
25.91667,65
25.92500,65
25.93333,65
25.94167,65
25.95000,65
25.95833,65
25.96667,65
25.97500,65
25.98333,65
25.99167,65
26.00000,65
26.00833,66
26.01667,65
26.02500,65
26.03333,65
26.04167,65
26.05000,64
26.05833,64
26.06667,64
26.07500,63
26.08333,63
26.09167,63
26.10000,63
26.10833,62
26.11667,62
26.12500,61
26.13333,61
26.14167,61
26.15000,60
26.15833,60
26.16667,59
26.17500,59
26.18333,59
26.19167,58
26.20000,57
26.20833,57
26.21667,57
26.22500,56
26.23333,55
26.24167,55
26.25000,55
26.25833,54
26.26667,53
26.27500,53
26.28333,52
26.29167,52
26.30000,51
26.30833,50
26.31667,50
26.32500,50
26.33333,49
26.34167,49
26.35000,48
26.35833,48
26.36667,47
26.37500,46
26.38333,46
26.39167,45
26.40000,45
26.40833,44
26.41667,44
26.42500,43
26.43333,43
26.44167,42
26.45000,42
26.45833,42
26.46667,42
26.47500,41
26.48333,41
26.49167,41
26.50000,41
26.50833,41
26.51667,41
26.52500,41
26.53333,41
26.54167,41
26.55000,41
26.55833,40
26.56667,40
26.57500,41
26.58333,41
26.59167,41
26.60000,40
26.60833,40
26.61667,40
26.62500,41
26.63333,41
26.64167,42
26.65000,42
26.65833,42
26.66667,43
26.67500,43
26.68333,44
26.69167,45
26.70000,46
26.70833,47
26.71667,48
26.72500,49
26.73333,50
26.74167,50
26.75000,51
26.75833,52
26.76667,54
26.77500,55
26.78333,56
26.79167,57
26.80000,58
26.80833,59
26.81667,60
26.82500,62
26.83333,63
26.84167,64
26.85000,65
26.85833,67
26.86667,68
26.87500,69
26.88333,70
26.89167,71
26.90000,72
26.90833,73
26.91667,73
26.92500,74
26.93333,75
26.94167,76
26.95000,76
26.95833,77
26.96667,78
26.97500,79
26.98333,79
26.99167,80
27.00000,80
27.00833,81
27.01667,81
27.02500,82
27.03333,82
27.04167,82
27.05000,83
27.05833,83
27.06667,83
27.07500,84
27.08333,84
27.09167,83
27.10000,83
27.10833,83
27.11667,83
27.12500,83
27.13333,82
27.14167,82
27.15000,82
27.15833,82
27.16667,82
27.17500,82
27.18333,81
27.19167,81
27.20000,81
27.20833,81
27.21667,80
27.22500,79
27.23333,79
27.24167,79
27.25000,79
27.25833,78
27.26667,78
27.27500,77
27.28333,77
27.29167,76
27.30000,75
27.30833,75
27.31667,74
27.32500,74
27.33333,73
27.34167,72
27.35000,72
27.35833,71
27.36667,71
27.37500,71
27.38333,70
27.39167,70
27.40000,69
27.40833,68
27.41667,67
27.42500,67
27.43333,66
27.44167,66
27.45000,65
27.45833,65
27.46667,64
27.47500,64
27.48333,64
27.49167,63
27.50000,63
27.50833,63
27.51667,62
27.52500,62
27.53333,62
27.54167,62
27.55000,62
27.55833,61
27.56667,61
27.57500,61
27.58333,61
27.59167,60
27.60000,60
27.60833,61
27.61667,61
27.62500,61
27.63333,61
27.64167,61
27.65000,61
27.65833,61
27.66667,61
27.67500,61
27.68333,61
27.69167,61
27.70000,61
27.70833,61
27.71667,61
27.72500,61
27.73333,60
27.74167,60
27.75000,60
27.75833,59
27.76667,59
27.77500,58
27.78333,58
27.79167,57
27.80000,57
27.80833,57
27.81667,56
27.82500,56
27.83333,55
27.84167,54
27.85000,54
27.85833,54
27.86667,53
27.87500,52
27.88333,51
27.89167,50
27.90000,49
27.90833,47
27.91667,46
27.92500,45
27.93333,44
27.94167,42
27.95000,41
27.95833,39
27.96667,37
27.97500,35
27.98333,33
27.99167,31
28.00000,30
28.00833,28
28.01667,25
28.02500,23
28.03333,21
28.04167,19
28.05000,16
28.05833,14
28.06667,11
28.07500,9
28.08333,6
28.09167,3
28.10000,1
28.10833,-1
28.11667,-4
28.12500,-7
28.13333,-9
28.14167,-12
28.15000,-15
28.15833,-18
28.16667,-20
28.17500,-22
28.18333,-24
28.19167,-26
28.20000,-29
28.20833,-31
28.21667,-33
28.22500,-35
28.23333,-38
28.24167,-40
28.25000,-41
28.25833,-43
28.26667,-45
28.27500,-47
28.28333,-49
28.29167,-50
28.30000,-52
28.30833,-53
28.31667,-54
28.32500,-54
28.33333,-55
28.34167,-56
28.35000,-56
28.35833,-57
28.36667,-57
28.37500,-57
28.38333,-57
28.39167,-57
28.40000,-57
28.40833,-57
28.41667,-57
28.42500,-57
28.43333,-56
28.44167,-55
28.45000,-55
28.45833,-54
28.46667,-53
28.47500,-51
28.48333,-50
28.49167,-49
28.50000,-48
28.50833,-47
28.51667,-46
28.52500,-45
28.53333,-44
28.54167,-42
28.55000,-41
28.55833,-39
28.56667,-38
28.57500,-36
28.58333,-34
28.59167,-33
28.60000,-31
28.60833,-30
28.61667,-28
28.62500,-27
28.63333,-26
28.64167,-24
28.65000,-23
28.65833,-22
28.66667,-20
28.67500,-18
28.68333,-17
28.69167,-15
28.70000,-14
28.70833,-13
28.71667,-12
28.72500,-10
28.73333,-9
28.74167,-8
28.75000,-7
28.75833,-6
28.76667,-5
28.77500,-4
28.78333,-3
28.79167,-1
28.80000,-0
28.80833,0
28.81667,1
28.82500,2
28.83333,3
28.84167,4
28.85000,6
28.85833,7
28.86667,8
28.87500,9
28.88333,10
28.89167,11
28.90000,12
28.90833,14
28.91667,15
28.92500,16
28.93333,18
28.94167,19
28.95000,20
28.95833,22
28.96667,23
28.97500,25
28.98333,26
28.99167,28
29.00000,29
29.00833,31
29.01667,32
29.02500,33
29.03333,34
29.04167,35
29.05000,37
29.05833,38
29.06667,40
29.07500,42
29.08333,44
29.09167,45
29.10000,46
29.10833,47
29.11667,48
29.12500,49
29.13333,50
29.14167,51
29.15000,52
29.15833,54
29.16667,55
29.17500,56
29.18333,58
29.19167,59
29.20000,60
29.20833,61
29.21667,62
29.22500,63
29.23333,64
29.24167,65
29.25000,66
29.25833,66
29.26667,66
29.27500,66
29.28333,67
29.29167,67
29.30000,68
29.30833,68
29.31667,68
29.32500,68
29.33333,69
29.34167,69
29.35000,69
29.35833,69
29.36667,69
29.37500,68
29.38333,68
29.39167,68
29.40000,67
29.40833,67
29.41667,67
29.42500,67
29.43333,67
29.44167,66
29.45000,65
29.45833,65
29.46667,64
29.47500,64
29.48333,63
29.49167,62
29.50000,62
29.50833,61
29.51667,61
29.52500,60
29.53333,59
29.54167,58
29.55000,57
29.55833,56
29.56667,56
29.57500,55
29.58333,54
29.59167,54
29.60000,53
29.60833,52
29.61667,51
29.62500,51
29.63333,50
29.64167,49
29.65000,49
29.65833,48
29.66667,47
29.67500,47
29.68333,46
29.69167,45
29.70000,44
29.70833,43
29.71667,42
29.72500,42
29.73333,41
29.74167,40
29.75000,39
29.75833,38
29.76667,37
29.77500,36
29.78333,35
29.79167,34
29.80000,33
29.80833,32
29.81667,31
29.82500,30
29.83333,30
29.84167,29
29.85000,29
29.85833,28
29.86667,27
29.87500,26
29.88333,25
29.89167,25
29.90000,24
29.90833,23
29.91667,23
29.92500,22
29.93333,21
29.94167,20
29.95000,20
29.95833,19
29.96667,18
29.97500,18
29.98333,17
29.99167,16
30.00000,16
30.00833,15
30.01667,15
30.02500,15
30.03333,15
30.04167,15
30.05000,16
30.05833,16
30.06667,16
30.07500,16
30.08333,16
30.09167,16
30.10000,16
30.10833,16
30.11667,16
30.12500,16
30.13333,16
30.14167,17
30.15000,17
30.15833,17
30.16667,18
30.17500,19
30.18333,19
30.19167,20
30.20000,20
30.20833,21
30.21667,21
30.22500,22
30.23333,22
30.24167,23
30.25000,23
30.25833,23
30.26667,23
30.27500,24
30.28333,24
30.29167,25
30.30000,25
30.30833,25
30.31667,25
30.32500,26
30.33333,26
30.34167,27
30.35000,28
30.35833,28
30.36667,28
30.37500,29
30.38333,29
30.39167,30
30.40000,30
30.40833,30
30.41667,31
30.42500,31
30.43333,31
30.44167,31
30.45000,31
30.45833,31
30.46667,31
30.47500,31
30.48333,31
30.49167,31
30.50000,31
30.50833,32
30.51667,32
30.52500,32
30.53333,32
30.54167,32
30.55000,32
30.55833,32
30.56667,32
30.57500,33
30.58333,33
30.59167,33
30.60000,33
30.60833,33
30.61667,33
30.62500,34
30.63333,34
30.64167,34
30.65000,34
30.65833,34
30.66667,35
30.67500,35
30.68333,35
30.69167,35
30.70000,35
30.70833,36
30.71667,36
30.72500,36
30.73333,37
30.74167,37
30.75000,38
30.75833,39
30.76667,39
30.77500,40
30.78333,41
30.79167,41
30.80000,42
30.80833,42
30.81667,43
30.82500,43
30.83333,44
30.84167,44
30.85000,45
30.85833,45
30.86667,46
30.87500,47
30.88333,48
30.89167,48
30.90000,49
30.90833,49
30.91667,49
30.92500,50
30.93333,50
30.94167,50
30.95000,51
30.95833,51
30.96667,51
30.97500,51
30.98333,52
30.99167,53
31.00000,53
31.00833,54
31.01667,54
31.02500,54
31.03333,54
31.04167,54
31.05000,55
31.05833,55
31.06667,56
31.07500,56
31.08333,56
31.09167,56
31.10000,56
31.10833,57
31.11667,57
31.12500,57
31.13333,57
31.14167,57
31.15000,57
31.15833,57
31.16667,57
31.17500,57
31.18333,56
31.19167,56
31.20000,56
31.20833,56
31.21667,56
31.22500,56
31.23333,55
31.24167,56
31.25000,56
31.25833,56
31.26667,56
31.27500,56
31.28333,56
31.29167,55
31.30000,55
31.30833,55
31.31667,55
31.32500,55
31.33333,55
31.34167,54
31.35000,54
31.35833,54
31.36667,54
31.37500,53
31.38333,53
31.39167,52
31.40000,51
31.40833,51
31.41667,51
31.42500,50
31.43333,50
31.44167,50
31.45000,50
31.45833,49
31.46667,49
31.47500,48
31.48333,47
31.49167,47
31.50000,47
31.50833,47
31.51667,47
31.52500,47
31.53333,47
31.54167,46
31.55000,46
31.55833,45
31.56667,45
31.57500,45
31.58333,45
31.59167,45
31.60000,45
31.60833,45
31.61667,44
31.62500,44
31.63333,44
31.64167,44
31.65000,45
31.65833,45
31.66667,45
31.67500,46
31.68333,46
31.69167,46
31.70000,46
31.70833,46
31.71667,46
31.72500,46
31.73333,46
31.74167,47
31.75000,47
31.75833,48
31.76667,48
31.77500,48
31.78333,49
31.79167,49
31.80000,50
31.80833,51
31.81667,51
31.82500,53
31.83333,53
31.84167,54
31.85000,55
31.85833,56
31.86667,56
31.87500,57
31.88333,58
31.89167,58
31.90000,59
31.90833,60
31.91667,60
31.92500,61
31.93333,61
31.94167,61
31.95000,62
31.95833,62
31.96667,63
31.97500,63
31.98333,63
31.99167,64
32.00000,64
32.00833,65
32.01667,65
32.02500,65
32.03333,66
32.04167,66
32.05000,66
32.05833,66
32.06667,66
32.07500,66
32.08333,67
32.09167,67
32.10000,67
32.10833,67
32.11667,66
32.12500,66
32.13333,66
32.14167,66
32.15000,66
32.15833,66
32.16667,65
32.17500,65
32.18333,65
32.19167,65
32.20000,64
32.20833,64
32.21667,64
32.22500,64
32.23333,64
32.24167,63
32.25000,63
32.25833,63
32.26667,62
32.27500,62
32.28333,62
32.29167,62
32.30000,61
32.30833,61
32.31667,60
32.32500,60
32.33333,60
32.34167,59
32.35000,59
32.35833,59
32.36667,59
32.37500,60
32.38333,60
32.39167,60
32.40000,60
32.40833,60
32.41667,61
32.42500,61
32.43333,62
32.44167,62
32.45000,62
32.45833,62
32.46667,62
32.47500,62
32.48333,62
32.49167,62
32.50000,62
32.50833,63
32.51667,63
32.52500,63
32.53333,63
32.54167,64
32.55000,64
32.55833,64
32.56667,64
32.57500,64
32.58333,64
32.59167,65
32.60000,65
32.60833,65
32.61667,65
32.62500,65
32.63333,65
32.64167,65
32.65000,64
32.65833,65
32.66667,65
32.67500,65
32.68333,65
32.69167,64
32.70000,64
32.70833,64
32.71667,64
32.72500,63
32.73333,63
32.74167,63
32.75000,63
32.75833,63
32.76667,63
32.77500,62
32.78333,62
32.79167,61
32.80000,61
32.80833,60
32.81667,60
32.82500,60
32.83333,60
32.84167,59
32.85000,58
32.85833,58
32.86667,57
32.87500,57
32.88333,56
32.89167,56
32.90000,55
32.90833,55
32.91667,55
32.92500,55
32.93333,55
32.94167,55
32.95000,56
32.95833,55
32.96667,55
32.97500,55
32.98333,55
32.99167,55
33.00000,55
33.00833,55
33.01667,55
33.02500,55
33.03333,55
33.04167,55
33.05000,55
33.05833,55
33.06667,55
33.07500,55
33.08333,55
33.09167,55
33.10000,55
33.10833,56
33.11667,56
33.12500,56
33.13333,56
33.14167,57
33.15000,57
33.15833,56
33.16667,57
33.17500,57
33.18333,57
33.19167,57
33.20000,58
33.20833,58
33.21667,58
33.22500,59
33.23333,59
33.24167,59
33.25000,60
33.25833,60
33.26667,60
33.27500,60
33.28333,60
33.29167,61
33.30000,61
33.30833,61
33.31667,61
33.32500,62
33.33333,62
33.34167,62
33.35000,62
33.35833,62
33.36667,62
33.37500,61
33.38333,61
33.39167,61
33.40000,61
33.40833,61
33.41667,61
33.42500,61
33.43333,61
33.44167,61
33.45000,62
33.45833,61
33.46667,61
33.47500,61
33.48333,61
33.49167,60
33.50000,60
33.50833,60
33.51667,59
33.52500,59
33.53333,59
33.54167,58
33.55000,58
33.55833,57
33.56667,57
33.57500,56
33.58333,56
33.59167,55
33.60000,55
33.60833,54
33.61667,54
33.62500,53
33.63333,53
33.64167,53
33.65000,53
33.65833,52
33.66667,52
33.67500,52
33.68333,51
33.69167,51
33.70000,50
33.70833,49
33.71667,49
33.72500,48
33.73333,48
33.74167,47
33.75000,47
33.75833,46
33.76667,46
33.77500,45
33.78333,45
33.79167,45
33.80000,45
33.80833,45
33.81667,45
33.82500,45
33.83333,44
33.84167,44
33.85000,44
33.85833,44
33.86667,43
33.87500,43
33.88333,43
33.89167,43
33.90000,43
33.90833,44
33.91667,44
33.92500,44
33.93333,44
33.94167,44
33.95000,44
33.95833,44
33.96667,44
33.97500,45
33.98333,44
33.99167,44
34.00000,44
34.00833,45
34.01667,45
34.02500,45
34.03333,46
34.04167,46
34.05000,46
34.05833,46
34.06667,45
34.07500,45
34.08333,45
34.09167,45
34.10000,45
34.10833,45
34.11667,46
34.12500,46
34.13333,46
34.14167,46
34.15000,46
34.15833,46
34.16667,46
34.17500,47
34.18333,47
34.19167,47
34.20000,47
34.20833,47
34.21667,47
34.22500,48
34.23333,48
34.24167,48
34.25000,48
34.25833,48
34.26667,48
34.27500,48
34.28333,48
34.29167,48
34.30000,48
34.30833,48
34.31667,48
34.32500,49
34.33333,49
34.34167,49
34.35000,50
34.35833,50
34.36667,50
34.37500,50
34.38333,51
34.39167,51
34.40000,52
34.40833,52
34.41667,52
34.42500,53
34.43333,54
34.44167,54
34.45000,55
34.45833,56
34.46667,57
34.47500,57
34.48333,57
34.49167,58
34.50000,58
34.50833,59
34.51667,59
34.52500,60
34.53333,60
34.54167,60
34.55000,61
34.55833,61
34.56667,62
34.57500,62
34.58333,62
34.59167,63
34.60000,63
34.60833,63
34.61667,63
34.62500,64
34.63333,64
34.64167,63
34.65000,63
34.65833,63
34.66667,64
34.67500,64
34.68333,64
34.69167,64
34.70000,65
34.70833,64
34.71667,64
34.72500,64
34.73333,64
34.74167,64
34.75000,64
34.75833,63
34.76667,63
34.77500,63
34.78333,63
34.79167,63
34.80000,63
34.80833,63
34.81667,63
34.82500,63
34.83333,63
34.84167,62
34.85000,62
34.85833,62
34.86667,61
34.87500,61
34.88333,60
34.89167,60
34.90000,60
34.90833,60
34.91667,60
34.92500,60
34.93333,60
34.94167,60
34.95000,60
34.95833,60
34.96667,60
34.97500,60
34.98333,60
34.99167,60
35.00000,60
35.00833,60
35.01667,60
35.02500,61
35.03333,61
35.04167,61
35.05000,61
35.05833,61
35.06667,61
35.07500,61
35.08333,62
35.09167,62
35.10000,62
35.10833,62
35.11667,62
35.12500,63
35.13333,63
35.14167,63
35.15000,64
35.15833,64
35.16667,64
35.17500,64
35.18333,64
35.19167,64
35.20000,63
35.20833,63
35.21667,63
35.22500,63
35.23333,63
35.24167,64
35.25000,64
35.25833,64
35.26667,64
35.27500,63
35.28333,63
35.29167,63
35.30000,63
35.30833,63
35.31667,63
35.32500,63
35.33333,63
35.34167,63
35.35000,63
35.35833,62
35.36667,62
35.37500,62
35.38333,62
35.39167,62
35.40000,62
35.40833,61
35.41667,61
35.42500,61
35.43333,60
35.44167,60
35.45000,60
35.45833,60
35.46667,60
35.47500,59
35.48333,58
35.49167,58
35.50000,57
35.50833,57
35.51667,56
35.52500,55
35.53333,55
35.54167,54
35.55000,53
35.55833,53
35.56667,52
35.57500,52
35.58333,51
35.59167,50
35.60000,50
35.60833,50
35.61667,50
35.62500,50
35.63333,49
35.64167,49
35.65000,48
35.65833,48
35.66667,48
35.67500,48
35.68333,47
35.69167,46
35.70000,45
35.70833,45
35.71667,45
35.72500,44
35.73333,44
35.74167,44
35.75000,43
35.75833,43
35.76667,43
35.77500,43
35.78333,43
35.79167,43
35.80000,44
35.80833,44
35.81667,44
35.82500,44
35.83333,44
35.84167,44
35.85000,44
35.85833,44
35.86667,44
35.87500,44
35.88333,44
35.89167,44
35.90000,45
35.90833,45
35.91667,45
35.92500,46
35.93333,46
35.94167,46
35.95000,46
35.95833,47
35.96667,48
35.97500,48
35.98333,48
35.99167,49
36.00000,49
36.00833,49
36.01667,50
36.02500,51
36.03333,51
36.04167,51
36.05000,52
36.05833,52
36.06667,53
36.07500,53
36.08333,54
36.09167,54
36.10000,55
36.10833,55
36.11667,56
36.12500,56
36.13333,57
36.14167,57
36.15000,58
36.15833,59
36.16667,60
36.17500,60
36.18333,60
36.19167,61
36.20000,61
36.20833,61
36.21667,61
36.22500,62
36.23333,62
36.24167,62
36.25000,62
36.25833,62
36.26667,62
36.27500,63
36.28333,63
36.29167,63
36.30000,63
36.30833,64
36.31667,63
36.32500,63
36.33333,64
36.34167,64
36.35000,64
36.35833,64
36.36667,64
36.37500,63
36.38333,63
36.39167,63
36.40000,63
36.40833,63
36.41667,63
36.42500,62
36.43333,62
36.44167,62
36.45000,62
36.45833,61
36.46667,61
36.47500,61
36.48333,61
36.49167,61
36.50000,60
36.50833,60
36.51667,61
36.52500,61
36.53333,61
36.54167,61
36.55000,62
36.55833,61
36.56667,61
36.57500,60
36.58333,60
36.59167,60
36.60000,59
36.60833,59
36.61667,59
36.62500,59
36.63333,59
36.64167,59
36.65000,59
36.65833,59
36.66667,59
36.67500,59
36.68333,58
36.69167,58
36.70000,58
36.70833,57
36.71667,57
36.72500,56
36.73333,56
36.74167,56
36.75000,56
36.75833,55
36.76667,55
36.77500,55
36.78333,55
36.79167,55
36.80000,54
36.80833,54
36.81667,55
36.82500,55
36.83333,54
36.84167,54
36.85000,54
36.85833,54
36.86667,54
36.87500,54
36.88333,55
36.89167,55
36.90000,55
36.90833,55
36.91667,55
36.92500,55
36.93333,55
36.94167,55
36.95000,55
36.95833,55
36.96667,56
36.97500,56
36.98333,56
36.99167,57
37.00000,57
37.00833,57
37.01667,57
37.02500,57
37.03333,57
37.04167,57
37.05000,57
37.05833,57
37.06667,57
37.07500,57
37.08333,58
37.09167,58
37.10000,58
37.10833,59
37.11667,59
37.12500,60
37.13333,60
37.14167,61
37.15000,61
37.15833,61
37.16667,62
37.17500,61
37.18333,62
37.19167,62
37.20000,63
37.20833,63
37.21667,63
37.22500,63
37.23333,63
37.24167,63
37.25000,63
37.25833,64
37.26667,64
37.27500,64
37.28333,64
37.29167,64
37.30000,64
37.30833,64
37.31667,64
37.32500,64
37.33333,64
37.34167,65
37.35000,65
37.35833,65
37.36667,65
37.37500,65
37.38333,65
37.39167,64
37.40000,64
37.40833,64
37.41667,65
37.42500,66
37.43333,66
37.44167,66
37.45000,66
37.45833,66
37.46667,66
37.47500,65
37.48333,65
37.49167,65
37.50000,65
37.50833,65
37.51667,65
37.52500,65
37.53333,65
37.54167,65
37.55000,65
37.55833,66
37.56667,65
37.57500,65
37.58333,65
37.59167,65
37.60000,65
37.60833,65
37.61667,65
37.62500,64
37.63333,65
37.64167,65
37.65000,64
37.65833,64
37.66667,64
37.67500,64
37.68333,63
37.69167,63
37.70000,64
37.70833,64
37.71667,63
37.72500,63
37.73333,63
37.74167,63
37.75000,63
37.75833,62
37.76667,62
37.77500,61
37.78333,61
37.79167,61
37.80000,60
37.80833,60
37.81667,60
37.82500,60
37.83333,59
37.84167,59
37.85000,59
37.85833,58
37.86667,58
37.87500,58
37.88333,58
37.89167,57
37.90000,57
37.90833,57
37.91667,57
37.92500,57
37.93333,57
37.94167,56
37.95000,56
37.95833,55
37.96667,55
37.97500,55
37.98333,54
37.99167,54
38.00000,54
38.00833,53
38.01667,53
38.02500,53
38.03333,52
38.04167,51
38.05000,51
38.05833,50
38.06667,50
38.07500,49
38.08333,49
38.09167,49
38.10000,48
38.10833,48
38.11667,47
38.12500,47
38.13333,47
38.14167,46
38.15000,46
38.15833,46
38.16667,46
38.17500,46
38.18333,46
38.19167,46
38.20000,46
38.20833,45
38.21667,45
38.22500,45
38.23333,45
38.24167,45
38.25000,45
38.25833,45
38.26667,45
38.27500,45
38.28333,44
38.29167,44
38.30000,45
38.30833,45
38.31667,45
38.32500,45
38.33333,46
38.34167,46
38.35000,47
38.35833,47
38.36667,48
38.37500,49
38.38333,49
38.39167,50
38.40000,51
38.40833,52
38.41667,52
38.42500,53
38.43333,53
38.44167,53
38.45000,54
38.45833,54
38.46667,55
38.47500,56
38.48333,57
38.49167,57
38.50000,58
38.50833,58
38.51667,58
38.52500,59
38.53333,59
38.54167,59
38.55000,59
38.55833,60
38.56667,60
38.57500,60
38.58333,60
38.59167,61
38.60000,61
38.60833,61
38.61667,62
38.62500,62
38.63333,62
38.64167,62
38.65000,63
38.65833,62
38.66667,62
38.67500,61
38.68333,61
38.69167,61
38.70000,61
38.70833,61
38.71667,61
38.72500,60
38.73333,60
38.74167,60
38.75000,60
38.75833,60
38.76667,60
38.77500,60
38.78333,60
38.79167,60
38.80000,60
38.80833,60
38.81667,60
38.82500,60
38.83333,59
38.84167,59
38.85000,59
38.85833,59
38.86667,59
38.87500,58
38.88333,58
38.89167,57
38.90000,56
38.90833,56
38.91667,56
38.92500,56
38.93333,56
38.94167,56
38.95000,56
38.95833,55
38.96667,55
38.97500,55
38.98333,54
38.99167,54
39.00000,54
39.00833,53
39.01667,53
39.02500,53
39.03333,53
39.04167,52
39.05000,52
39.05833,51
39.06667,51
39.07500,50
39.08333,50
39.09167,50
39.10000,50
39.10833,50
39.11667,49
39.12500,49
39.13333,48
39.14167,48
39.15000,48
39.15833,48
39.16667,47
39.17500,46
39.18333,46
39.19167,46
39.20000,45
39.20833,45
39.21667,46
39.22500,46
39.23333,46
39.24167,46
39.25000,47
39.25833,47
39.26667,47
39.27500,47
39.28333,47
39.29167,47
39.30000,48
39.30833,48
39.31667,48
39.32500,48
39.33333,48
39.34167,49
39.35000,49
39.35833,49
39.36667,50
39.37500,50
39.38333,51
39.39167,52
39.40000,53
39.40833,53
39.41667,54
39.42500,55
39.43333,55
39.44167,56
39.45000,56
39.45833,57
39.46667,58
39.47500,58
39.48333,59
39.49167,60
39.50000,61
39.50833,62
39.51667,63
39.52500,64
39.53333,64
39.54167,65
39.55000,65
39.55833,66
39.56667,67
39.57500,68
39.58333,68
39.59167,69
39.60000,69
39.60833,70
39.61667,70
39.62500,71
39.63333,71
39.64167,71
39.65000,71
39.65833,71
39.66667,72
39.67500,72
39.68333,72
39.69167,72
39.70000,72
39.70833,72
39.71667,72
39.72500,72
39.73333,71
39.74167,71
39.75000,71
39.75833,71
39.76667,71
39.77500,71
39.78333,71
39.79167,70
39.80000,70
39.80833,69
39.81667,69
39.82500,69
39.83333,68
39.84167,67
39.85000,67
39.85833,66
39.86667,65
39.87500,64
39.88333,63
39.89167,62
39.90000,61
39.90833,61
39.91667,61
39.92500,60
39.93333,59
39.94167,58
39.95000,57
39.95833,56
39.96667,55
39.97500,54
39.98333,54
39.99167,53
40.00000,52

