[Header]
Application Name,LabSolutions
Version,5.97 SP1
Data File Name,C:\Users\cremerlab\Desktop\griffin\2021-04-05_NC_DM_calibration\2021-04-05_NC_DM_2.5mM_calibration_452021_008_021.lcd
Output Date,4/6/2021
Output Time,7:52:40 AM

[File Information]
Type,Data File
Generated,4/6/2021 7:12:20 AM
Generated by,System Administrator
Modified,4/6/2021 7:52:40 AM
Modified by,System Administrator

[Sample Information]
Operator Name,System Administrator
Acquired,4/6/2021 7:12:39 AM
Sample Type,1:Standard
Level,8
Sample Name,2021-04-05_DM_glucose_glycerol_acetate_02mM
Sample ID,008
ISTD Amount1,1
ISTD Amount2,1
ISTD Amount3,1
ISTD Amount4,1
ISTD Amount5,1
ISTD Amount6,1
ISTD Amount7,1
ISTD Amount8,1
ISTD Amount9,1
ISTD Amount10,1
ISTD Amount11,1
ISTD Amount12,1
ISTD Amount13,1
ISTD Amount14,1
ISTD Amount15,1
ISTD Amount16,1
ISTD Amount17,1
ISTD Amount18,1
ISTD Amount19,1
ISTD Amount20,1
ISTD Amount21,1
ISTD Amount22,1
ISTD Amount23,1
ISTD Amount24,1
ISTD Amount25,1
ISTD Amount26,1
ISTD Amount27,1
ISTD Amount28,1
ISTD Amount29,1
ISTD Amount30,1
ISTD Amount31,1
ISTD Amount32,1
Sample Amount,1
Dilution Factor,1
Vial#,26
Injection Volume,20

[Original Files]
Data File,C:\Users\cremerlab\Desktop\griffin\2021-04-05_NC_DM_calibration\2021-04-05_NC_DM_2.5mM_calibration_452021_008_021.lcd
Method File,C:\Users\cremerlab\Desktop\griffin\2021-04-05_NC_DM_calibration\2021-04-05_2.5mM_mobile.lcm
Batch File,C:\Users\cremerlab\Desktop\griffin\2021-04-05_NC_DM_calibration\2021-04-05_NC_DM_2.5mM_calibration.lcb
Report Format File,c:\LabSolutions\System\DEFAULT.lsr

[File Description]


[Configuration]
Instrument Name,HPLC-PC-Instrument1
Instrument #,1
Line #,1
# of Detectors,2
Detector ID,Detector A,Detector B
Detector Name,Detector A,Detector B
# of Channels,1,1

[Peak Table(Detector A)]
# of Peaks,0

[Peak Table(Detector B)]
# of Peaks,6
Peak#,R.Time,I.Time,F.Time,Area,Height,A/H,Conc.,Mark,ID#,Name,k',Plate #,Plate Ht.,Tailing,Resolution,Sep.Factor,Area Ratio,Height Ratio,Conc. %,Norm Conc.
1,10.881,10.425,11.700,224917,13392,16.796,10.063,   ,,,0.000,9476,15.829,1.045,0.000,0.000,0,0,0.000,0.000
2,13.897,12.550,14.175,1574817,42793,36.801,70.456,   ,,,0.277,3226,46.492,0.000,4.231,0.000,0,0,0.000,0.000
3,14.320,14.175,15.067,156091,8237,18.951,6.983, V ,,,0.316,7476,20.065,0.000,0.515,1.140,0,0,0.000,0.000
4,15.670,15.067,17.117,199632,7876,25.346,8.931, V ,,,0.440,9250,16.216,1.136,2.055,1.393,0,0,0.000,0.000
5,22.057,21.467,22.817,56679,2072,27.350,2.536,   ,,,1.027,14729,10.184,1.089,9.266,2.334,0,0,0.000,0.000
6,25.031,24.475,25.875,23049,787,29.293,1.031,   ,,,1.301,16510,9.085,1.099,3.949,1.266,0,0,0.000,0.000

[LC Chromatogram(Detector B-Ch1)]
Interval(msec),500
# of Points,4801
Start Time(min),0.000
End Time(min),40.000
Intensity Units,mV
Intensity Multiplier,0.001
R.Time (min),Intensity
0.00000,13
0.00833,13
0.01667,3
0.02500,1
0.03333,1
0.04167,2
0.05000,2
0.05833,2
0.06667,3
0.07500,4
0.08333,4
0.09167,5
0.10000,5
0.10833,5
0.11667,6
0.12500,7
0.13333,7
0.14167,8
0.15000,8
0.15833,9
0.16667,9
0.17500,10
0.18333,10
0.19167,10
0.20000,11
0.20833,12
0.21667,13
0.22500,13
0.23333,14
0.24167,14
0.25000,14
0.25833,15
0.26667,15
0.27500,15
0.28333,16
0.29167,16
0.30000,17
0.30833,17
0.31667,17
0.32500,17
0.33333,17
0.34167,16
0.35000,16
0.35833,16
0.36667,16
0.37500,16
0.38333,16
0.39167,16
0.40000,16
0.40833,16
0.41667,15
0.42500,15
0.43333,14
0.44167,14
0.45000,14
0.45833,13
0.46667,13
0.47500,12
0.48333,12
0.49167,12
0.50000,11
0.50833,11
0.51667,10
0.52500,10
0.53333,9
0.54167,8
0.55000,7
0.55833,6
0.56667,5
0.57500,4
0.58333,3
0.59167,2
0.60000,1
0.60833,1
0.61667,-1
0.62500,-1
0.63333,-2
0.64167,-3
0.65000,-4
0.65833,-5
0.66667,-6
0.67500,-7
0.68333,-8
0.69167,-9
0.70000,-10
0.70833,-10
0.71667,-11
0.72500,-12
0.73333,-12
0.74167,-13
0.75000,-13
0.75833,-14
0.76667,-14
0.77500,-14
0.78333,-15
0.79167,-15
0.80000,-15
0.80833,-16
0.81667,-17
0.82500,-17
0.83333,-17
0.84167,-18
0.85000,-18
0.85833,-18
0.86667,-18
0.87500,-18
0.88333,-18
0.89167,-18
0.90000,-18
0.90833,-18
0.91667,-18
0.92500,-18
0.93333,-18
0.94167,-18
0.95000,-17
0.95833,-17
0.96667,-16
0.97500,-16
0.98333,-15
0.99167,-15
1.00000,-15
1.00833,-15
1.01667,-14
1.02500,-14
1.03333,-13
1.04167,-13
1.05000,-12
1.05833,-11
1.06667,-11
1.07500,-10
1.08333,-10
1.09167,-9
1.10000,-9
1.10833,-8
1.11667,-8
1.12500,-8
1.13333,-8
1.14167,-7
1.15000,-6
1.15833,-5
1.16667,-5
1.17500,-5
1.18333,-4
1.19167,-4
1.20000,-3
1.20833,-2
1.21667,-2
1.22500,-1
1.23333,-1
1.24167,-1
1.25000,-0
1.25833,-0
1.26667,-0
1.27500,-0
1.28333,0
1.29167,0
1.30000,1
1.30833,1
1.31667,2
1.32500,2
1.33333,2
1.34167,3
1.35000,3
1.35833,3
1.36667,3
1.37500,3
1.38333,3
1.39167,4
1.40000,4
1.40833,4
1.41667,4
1.42500,5
1.43333,5
1.44167,5
1.45000,5
1.45833,5
1.46667,5
1.47500,6
1.48333,6
1.49167,7
1.50000,7
1.50833,7
1.51667,7
1.52500,7
1.53333,7
1.54167,7
1.55000,7
1.55833,6
1.56667,6
1.57500,6
1.58333,6
1.59167,6
1.60000,5
1.60833,5
1.61667,5
1.62500,5
1.63333,5
1.64167,5
1.65000,5
1.65833,4
1.66667,4
1.67500,4
1.68333,4
1.69167,3
1.70000,3
1.70833,3
1.71667,3
1.72500,3
1.73333,3
1.74167,3
1.75000,2
1.75833,2
1.76667,2
1.77500,2
1.78333,3
1.79167,3
1.80000,3
1.80833,3
1.81667,3
1.82500,3
1.83333,3
1.84167,3
1.85000,3
1.85833,4
1.86667,4
1.87500,5
1.88333,5
1.89167,5
1.90000,6
1.90833,6
1.91667,7
1.92500,7
1.93333,8
1.94167,8
1.95000,9
1.95833,9
1.96667,9
1.97500,10
1.98333,10
1.99167,11
2.00000,11
2.00833,12
2.01667,12
2.02500,13
2.03333,13
2.04167,13
2.05000,14
2.05833,14
2.06667,15
2.07500,15
2.08333,15
2.09167,16
2.10000,16
2.10833,17
2.11667,17
2.12500,18
2.13333,18
2.14167,19
2.15000,19
2.15833,20
2.16667,19
2.17500,20
2.18333,20
2.19167,20
2.20000,20
2.20833,20
2.21667,21
2.22500,21
2.23333,21
2.24167,21
2.25000,21
2.25833,21
2.26667,21
2.27500,21
2.28333,21
2.29167,20
2.30000,20
2.30833,19
2.31667,19
2.32500,18
2.33333,18
2.34167,18
2.35000,17
2.35833,17
2.36667,17
2.37500,16
2.38333,15
2.39167,15
2.40000,14
2.40833,13
2.41667,13
2.42500,12
2.43333,12
2.44167,11
2.45000,11
2.45833,10
2.46667,10
2.47500,9
2.48333,9
2.49167,8
2.50000,8
2.50833,7
2.51667,7
2.52500,7
2.53333,7
2.54167,6
2.55000,6
2.55833,6
2.56667,5
2.57500,5
2.58333,5
2.59167,5
2.60000,4
2.60833,4
2.61667,4
2.62500,4
2.63333,3
2.64167,3
2.65000,3
2.65833,3
2.66667,4
2.67500,4
2.68333,4
2.69167,4
2.70000,4
2.70833,4
2.71667,5
2.72500,5
2.73333,5
2.74167,6
2.75000,6
2.75833,6
2.76667,6
2.77500,7
2.78333,7
2.79167,8
2.80000,8
2.80833,8
2.81667,9
2.82500,9
2.83333,9
2.84167,10
2.85000,10
2.85833,11
2.86667,11
2.87500,12
2.88333,12
2.89167,13
2.90000,13
2.90833,13
2.91667,13
2.92500,14
2.93333,14
2.94167,15
2.95000,15
2.95833,16
2.96667,16
2.97500,16
2.98333,16
2.99167,17
3.00000,17
3.00833,18
3.01667,18
3.02500,18
3.03333,18
3.04167,18
3.05000,18
3.05833,19
3.06667,19
3.07500,19
3.08333,19
3.09167,19
3.10000,20
3.10833,20
3.11667,20
3.12500,19
3.13333,19
3.14167,19
3.15000,19
3.15833,19
3.16667,20
3.17500,20
3.18333,20
3.19167,20
3.20000,20
3.20833,20
3.21667,20
3.22500,20
3.23333,20
3.24167,20
3.25000,21
3.25833,21
3.26667,21
3.27500,21
3.28333,21
3.29167,21
3.30000,21
3.30833,21
3.31667,21
3.32500,21
3.33333,20
3.34167,20
3.35000,20
3.35833,19
3.36667,19
3.37500,19
3.38333,19
3.39167,19
3.40000,19
3.40833,19
3.41667,19
3.42500,19
3.43333,19
3.44167,19
3.45000,19
3.45833,19
3.46667,19
3.47500,19
3.48333,19
3.49167,19
3.50000,19
3.50833,18
3.51667,18
3.52500,17
3.53333,17
3.54167,17
3.55000,16
3.55833,16
3.56667,16
3.57500,16
3.58333,16
3.59167,16
3.60000,16
3.60833,16
3.61667,16
3.62500,16
3.63333,16
3.64167,16
3.65000,15
3.65833,15
3.66667,15
3.67500,14
3.68333,14
3.69167,14
3.70000,15
3.70833,14
3.71667,14
3.72500,14
3.73333,14
3.74167,14
3.75000,14
3.75833,14
3.76667,14
3.77500,15
3.78333,15
3.79167,15
3.80000,15
3.80833,15
3.81667,15
3.82500,15
3.83333,15
3.84167,15
3.85000,15
3.85833,15
3.86667,15
3.87500,15
3.88333,15
3.89167,16
3.90000,16
3.90833,16
3.91667,16
3.92500,16
3.93333,16
3.94167,16
3.95000,16
3.95833,16
3.96667,16
3.97500,16
3.98333,15
3.99167,15
4.00000,15
4.00833,15
4.01667,14
4.02500,14
4.03333,14
4.04167,14
4.05000,14
4.05833,14
4.06667,14
4.07500,13
4.08333,13
4.09167,12
4.10000,12
4.10833,12
4.11667,11
4.12500,11
4.13333,11
4.14167,11
4.15000,11
4.15833,10
4.16667,10
4.17500,9
4.18333,9
4.19167,9
4.20000,8
4.20833,8
4.21667,8
4.22500,8
4.23333,8
4.24167,8
4.25000,8
4.25833,7
4.26667,7
4.27500,7
4.28333,7
4.29167,7
4.30000,6
4.30833,7
4.31667,7
4.32500,7
4.33333,7
4.34167,6
4.35000,6
4.35833,6
4.36667,6
4.37500,5
4.38333,5
4.39167,6
4.40000,6
4.40833,5
4.41667,5
4.42500,5
4.43333,5
4.44167,5
4.45000,5
4.45833,6
4.46667,6
4.47500,7
4.48333,8
4.49167,8
4.50000,8
4.50833,8
4.51667,8
4.52500,8
4.53333,8
4.54167,8
4.55000,9
4.55833,9
4.56667,9
4.57500,10
4.58333,10
4.59167,10
4.60000,10
4.60833,10
4.61667,10
4.62500,10
4.63333,11
4.64167,11
4.65000,11
4.65833,11
4.66667,11
4.67500,11
4.68333,12
4.69167,12
4.70000,12
4.70833,13
4.71667,13
4.72500,13
4.73333,13
4.74167,13
4.75000,13
4.75833,13
4.76667,13
4.77500,13
4.78333,13
4.79167,13
4.80000,13
4.80833,13
4.81667,13
4.82500,13
4.83333,13
4.84167,13
4.85000,13
4.85833,13
4.86667,13
4.87500,13
4.88333,13
4.89167,13
4.90000,13
4.90833,13
4.91667,13
4.92500,13
4.93333,13
4.94167,14
4.95000,14
4.95833,14
4.96667,14
4.97500,15
4.98333,15
4.99167,14
5.00000,14
5.00833,14
5.01667,14
5.02500,14
5.03333,14
5.04167,14
5.05000,15
5.05833,14
5.06667,15
5.07500,15
5.08333,15
5.09167,15
5.10000,15
5.10833,16
5.11667,16
5.12500,16
5.13333,17
5.14167,17
5.15000,17
5.15833,17
5.16667,17
5.17500,17
5.18333,16
5.19167,16
5.20000,16
5.20833,16
5.21667,16
5.22500,16
5.23333,16
5.24167,16
5.25000,16
5.25833,16
5.26667,16
5.27500,16
5.28333,16
5.29167,16
5.30000,16
5.30833,16
5.31667,17
5.32500,17
5.33333,17
5.34167,17
5.35000,17
5.35833,17
5.36667,17
5.37500,17
5.38333,17
5.39167,18
5.40000,18
5.40833,17
5.41667,17
5.42500,17
5.43333,17
5.44167,17
5.45000,17
5.45833,18
5.46667,17
5.47500,17
5.48333,17
5.49167,17
5.50000,17
5.50833,17
5.51667,17
5.52500,17
5.53333,17
5.54167,18
5.55000,18
5.55833,18
5.56667,18
5.57500,19
5.58333,19
5.59167,19
5.60000,19
5.60833,19
5.61667,19
5.62500,19
5.63333,19
5.64167,20
5.65000,20
5.65833,20
5.66667,19
5.67500,19
5.68333,20
5.69167,20
5.70000,20
5.70833,20
5.71667,20
5.72500,21
5.73333,21
5.74167,21
5.75000,20
5.75833,20
5.76667,20
5.77500,20
5.78333,20
5.79167,20
5.80000,19
5.80833,19
5.81667,18
5.82500,18
5.83333,18
5.84167,18
5.85000,18
5.85833,17
5.86667,17
5.87500,17
5.88333,16
5.89167,16
5.90000,16
5.90833,16
5.91667,15
5.92500,15
5.93333,15
5.94167,14
5.95000,14
5.95833,14
5.96667,13
5.97500,12
5.98333,12
5.99167,12
6.00000,11
6.00833,11
6.01667,11
6.02500,10
6.03333,10
6.04167,9
6.05000,9
6.05833,8
6.06667,8
6.07500,8
6.08333,8
6.09167,8
6.10000,8
6.10833,8
6.11667,8
6.12500,8
6.13333,8
6.14167,8
6.15000,8
6.15833,8
6.16667,7
6.17500,8
6.18333,8
6.19167,9
6.20000,9
6.20833,10
6.21667,10
6.22500,10
6.23333,11
6.24167,11
6.25000,11
6.25833,11
6.26667,11
6.27500,12
6.28333,12
6.29167,13
6.30000,13
6.30833,13
6.31667,13
6.32500,14
6.33333,14
6.34167,15
6.35000,15
6.35833,15
6.36667,15
6.37500,15
6.38333,16
6.39167,16
6.40000,16
6.40833,17
6.41667,17
6.42500,17
6.43333,17
6.44167,18
6.45000,18
6.45833,19
6.46667,19
6.47500,19
6.48333,19
6.49167,19
6.50000,19
6.50833,19
6.51667,19
6.52500,19
6.53333,19
6.54167,20
6.55000,20
6.55833,20
6.56667,20
6.57500,21
6.58333,21
6.59167,21
6.60000,21
6.60833,20
6.61667,20
6.62500,20
6.63333,20
6.64167,20
6.65000,20
6.65833,20
6.66667,20
6.67500,20
6.68333,20
6.69167,20
6.70000,20
6.70833,20
6.71667,20
6.72500,20
6.73333,20
6.74167,20
6.75000,20
6.75833,20
6.76667,19
6.77500,19
6.78333,19
6.79167,19
6.80000,19
6.80833,18
6.81667,18
6.82500,17
6.83333,17
6.84167,16
6.85000,16
6.85833,16
6.86667,16
6.87500,16
6.88333,16
6.89167,16
6.90000,15
6.90833,15
6.91667,15
6.92500,15
6.93333,14
6.94167,14
6.95000,13
6.95833,13
6.96667,12
6.97500,12
6.98333,11
6.99167,10
7.00000,10
7.00833,9
7.01667,9
7.02500,8
7.03333,7
7.04167,7
7.05000,6
7.05833,6
7.06667,5
7.07500,4
7.08333,4
7.09167,3
7.10000,2
7.10833,2
7.11667,1
7.12500,0
7.13333,-1
7.14167,-2
7.15000,-3
7.15833,-4
7.16667,-4
7.17500,-5
7.18333,-5
7.19167,-6
7.20000,-6
7.20833,-7
7.21667,-8
7.22500,-9
7.23333,-9
7.24167,-9
7.25000,-9
7.25833,-10
7.26667,-10
7.27500,-11
7.28333,-11
7.29167,-11
7.30000,-12
7.30833,-12
7.31667,-12
7.32500,-12
7.33333,-12
7.34167,-12
7.35000,-12
7.35833,-11
7.36667,-11
7.37500,-11
7.38333,-11
7.39167,-11
7.40000,-11
7.40833,-11
7.41667,-11
7.42500,-11
7.43333,-10
7.44167,-10
7.45000,-9
7.45833,-9
7.46667,-8
7.47500,-7
7.48333,-7
7.49167,-7
7.50000,-6
7.50833,-6
7.51667,-5
7.52500,-4
7.53333,-3
7.54167,-3
7.55000,-2
7.55833,-1
7.56667,-1
7.57500,-0
7.58333,0
7.59167,1
7.60000,1
7.60833,1
7.61667,2
7.62500,3
7.63333,3
7.64167,3
7.65000,4
7.65833,4
7.66667,5
7.67500,5
7.68333,6
7.69167,6
7.70000,6
7.70833,6
7.71667,6
7.72500,6
7.73333,6
7.74167,6
7.75000,6
7.75833,6
7.76667,6
7.77500,5
7.78333,5
7.79167,5
7.80000,4
7.80833,4
7.81667,4
7.82500,4
7.83333,4
7.84167,4
7.85000,4
7.85833,4
7.86667,4
7.87500,4
7.88333,3
7.89167,4
7.90000,3
7.90833,4
7.91667,4
7.92500,4
7.93333,4
7.94167,4
7.95000,4
7.95833,4
7.96667,4
7.97500,4
7.98333,4
7.99167,4
8.00000,5
8.00833,5
8.01667,5
8.02500,6
8.03333,6
8.04167,6
8.05000,6
8.05833,7
8.06667,7
8.07500,7
8.08333,8
8.09167,8
8.10000,8
8.10833,8
8.11667,8
8.12500,9
8.13333,9
8.14167,10
8.15000,11
8.15833,11
8.16667,11
8.17500,12
8.18333,13
8.19167,13
8.20000,14
8.20833,15
8.21667,15
8.22500,16
8.23333,17
8.24167,18
8.25000,18
8.25833,18
8.26667,18
8.27500,19
8.28333,19
8.29167,19
8.30000,20
8.30833,20
8.31667,21
8.32500,21
8.33333,21
8.34167,21
8.35000,22
8.35833,22
8.36667,22
8.37500,22
8.38333,22
8.39167,23
8.40000,23
8.40833,23
8.41667,24
8.42500,24
8.43333,24
8.44167,24
8.45000,25
8.45833,25
8.46667,24
8.47500,24
8.48333,24
8.49167,24
8.50000,24
8.50833,24
8.51667,24
8.52500,24
8.53333,24
8.54167,24
8.55000,24
8.55833,24
8.56667,24
8.57500,24
8.58333,23
8.59167,23
8.60000,24
8.60833,23
8.61667,23
8.62500,23
8.63333,24
8.64167,24
8.65000,24
8.65833,24
8.66667,24
8.67500,25
8.68333,25
8.69167,25
8.70000,24
8.70833,24
8.71667,23
8.72500,23
8.73333,23
8.74167,23
8.75000,24
8.75833,24
8.76667,23
8.77500,23
8.78333,23
8.79167,23
8.80000,23
8.80833,23
8.81667,23
8.82500,23
8.83333,23
8.84167,23
8.85000,23
8.85833,23
8.86667,23
8.87500,23
8.88333,23
8.89167,23
8.90000,23
8.90833,22
8.91667,22
8.92500,22
8.93333,22
8.94167,22
8.95000,21
8.95833,21
8.96667,21
8.97500,20
8.98333,20
8.99167,20
9.00000,19
9.00833,19
9.01667,19
9.02500,19
9.03333,19
9.04167,19
9.05000,19
9.05833,18
9.06667,18
9.07500,17
9.08333,17
9.09167,17
9.10000,17
9.10833,17
9.11667,17
9.12500,16
9.13333,16
9.14167,15
9.15000,15
9.15833,14
9.16667,14
9.17500,13
9.18333,13
9.19167,12
9.20000,11
9.20833,11
9.21667,11
9.22500,11
9.23333,10
9.24167,10
9.25000,9
9.25833,9
9.26667,8
9.27500,7
9.28333,7
9.29167,6
9.30000,6
9.30833,6
9.31667,6
9.32500,6
9.33333,5
9.34167,5
9.35000,5
9.35833,4
9.36667,4
9.37500,3
9.38333,3
9.39167,3
9.40000,3
9.40833,3
9.41667,2
9.42500,2
9.43333,2
9.44167,2
9.45000,2
9.45833,2
9.46667,2
9.47500,2
9.48333,2
9.49167,2
9.50000,2
9.50833,2
9.51667,2
9.52500,3
9.53333,3
9.54167,3
9.55000,4
9.55833,4
9.56667,5
9.57500,5
9.58333,6
9.59167,6
9.60000,7
9.60833,8
9.61667,9
9.62500,10
9.63333,10
9.64167,11
9.65000,12
9.65833,12
9.66667,12
9.67500,13
9.68333,14
9.69167,14
9.70000,15
9.70833,16
9.71667,17
9.72500,17
9.73333,18
9.74167,19
9.75000,20
9.75833,20
9.76667,21
9.77500,22
9.78333,22
9.79167,23
9.80000,23
9.80833,24
9.81667,25
9.82500,25
9.83333,26
9.84167,27
9.85000,27
9.85833,28
9.86667,28
9.87500,29
9.88333,29
9.89167,30
9.90000,30
9.90833,30
9.91667,31
9.92500,31
9.93333,32
9.94167,32
9.95000,33
9.95833,33
9.96667,33
9.97500,33
9.98333,33
9.99167,32
10.00000,32
10.00833,32
10.01667,31
10.02500,31
10.03333,31
10.04167,31
10.05000,31
10.05833,31
10.06667,31
10.07500,30
10.08333,30
10.09167,30
10.10000,29
10.10833,29
10.11667,29
10.12500,28
10.13333,28
10.14167,27
10.15000,27
10.15833,26
10.16667,26
10.17500,26
10.18333,25
10.19167,25
10.20000,24
10.20833,23
10.21667,23
10.22500,22
10.23333,21
10.24167,21
10.25000,21
10.25833,20
10.26667,19
10.27500,18
10.28333,18
10.29167,17
10.30000,17
10.30833,17
10.31667,16
10.32500,16
10.33333,16
10.34167,15
10.35000,15
10.35833,15
10.36667,14
10.37500,14
10.38333,14
10.39167,14
10.40000,14
10.40833,14
10.41667,14
10.42500,15
10.43333,16
10.44167,16
10.45000,17
10.45833,18
10.46667,20
10.47500,23
10.48333,26
10.49167,30
10.50000,36
10.50833,44
10.51667,54
10.52500,68
10.53333,86
10.54167,108
10.55000,136
10.55833,171
10.56667,214
10.57500,267
10.58333,332
10.59167,410
10.60000,503
10.60833,614
10.61667,744
10.62500,897
10.63333,1072
10.64167,1274
10.65000,1503
10.65833,1761
10.66667,2050
10.67500,2371
10.68333,2724
10.69167,3110
10.70000,3529
10.70833,3980
10.71667,4462
10.72500,4973
10.73333,5510
10.74167,6071
10.75000,6651
10.75833,7245
10.76667,7849
10.77500,8457
10.78333,9061
10.79167,9655
10.80000,10232
10.80833,10784
10.81667,11303
10.82500,11780
10.83333,12209
10.84167,12582
10.85000,12893
10.85833,13135
10.86667,13305
10.87500,13399
10.88333,13414
10.89167,13349
10.90000,13207
10.90833,12988
10.91667,12697
10.92500,12339
10.93333,11921
10.94167,11450
10.95000,10934
10.95833,10383
10.96667,9806
10.97500,9210
10.98333,8604
10.99167,7997
11.00000,7397
11.00833,6808
11.01667,6238
11.02500,5691
11.03333,5171
11.04167,4680
11.05000,4220
11.05833,3792
11.06667,3396
11.07500,3033
11.08333,2700
11.09167,2398
11.10000,2124
11.10833,1879
11.11667,1658
11.12500,1461
11.13333,1285
11.14167,1130
11.15000,992
11.15833,871
11.16667,764
11.17500,670
11.18333,588
11.19167,516
11.20000,453
11.20833,399
11.21667,352
11.22500,312
11.23333,277
11.24167,247
11.25000,221
11.25833,199
11.26667,180
11.27500,164
11.28333,150
11.29167,139
11.30000,129
11.30833,120
11.31667,113
11.32500,107
11.33333,102
11.34167,98
11.35000,94
11.35833,91
11.36667,88
11.37500,85
11.38333,82
11.39167,80
11.40000,77
11.40833,75
11.41667,73
11.42500,71
11.43333,69
11.44167,68
11.45000,66
11.45833,65
11.46667,64
11.47500,62
11.48333,60
11.49167,58
11.50000,57
11.50833,55
11.51667,54
11.52500,53
11.53333,52
11.54167,50
11.55000,49
11.55833,48
11.56667,46
11.57500,45
11.58333,44
11.59167,43
11.60000,42
11.60833,42
11.61667,41
11.62500,41
11.63333,40
11.64167,40
11.65000,39
11.65833,38
11.66667,38
11.67500,37
11.68333,37
11.69167,36
11.70000,36
11.70833,36
11.71667,36
11.72500,35
11.73333,35
11.74167,35
11.75000,35
11.75833,34
11.76667,34
11.77500,34
11.78333,34
11.79167,34
11.80000,34
11.80833,34
11.81667,33
11.82500,33
11.83333,33
11.84167,32
11.85000,32
11.85833,32
11.86667,31
11.87500,31
11.88333,30
11.89167,30
11.90000,29
11.90833,29
11.91667,28
11.92500,28
11.93333,28
11.94167,27
11.95000,27
11.95833,26
11.96667,26
11.97500,25
11.98333,25
11.99167,24
12.00000,24
12.00833,23
12.01667,22
12.02500,22
12.03333,21
12.04167,20
12.05000,20
12.05833,19
12.06667,18
12.07500,18
12.08333,17
12.09167,16
12.10000,16
12.10833,15
12.11667,15
12.12500,14
12.13333,13
12.14167,13
12.15000,12
12.15833,11
12.16667,10
12.17500,10
12.18333,9
12.19167,9
12.20000,8
12.20833,7
12.21667,6
12.22500,6
12.23333,5
12.24167,4
12.25000,3
12.25833,2
12.26667,2
12.27500,1
12.28333,1
12.29167,0
12.30000,-0
12.30833,-1
12.31667,-1
12.32500,-1
12.33333,-1
12.34167,-1
12.35000,-1
12.35833,-1
12.36667,-1
12.37500,-2
12.38333,-2
12.39167,-2
12.40000,-1
12.40833,-1
12.41667,-1
12.42500,-1
12.43333,-0
12.44167,-0
12.45000,-0
12.45833,-0
12.46667,-0
12.47500,-0
12.48333,-0
12.49167,0
12.50000,1
12.50833,1
12.51667,1
12.52500,2
12.53333,2
12.54167,3
12.55000,4
12.55833,5
12.56667,6
12.57500,7
12.58333,9
12.59167,11
12.60000,13
12.60833,16
12.61667,19
12.62500,23
12.63333,28
12.64167,34
12.65000,42
12.65833,51
12.66667,62
12.67500,74
12.68333,90
12.69167,108
12.70000,129
12.70833,154
12.71667,183
12.72500,216
12.73333,253
12.74167,296
12.75000,343
12.75833,397
12.76667,455
12.77500,520
12.78333,592
12.79167,670
12.80000,754
12.80833,845
12.81667,943
12.82500,1047
12.83333,1158
12.84167,1275
12.85000,1400
12.85833,1531
12.86667,1668
12.87500,1812
12.88333,1962
12.89167,2118
12.90000,2280
12.90833,2448
12.91667,2621
12.92500,2800
12.93333,2984
12.94167,3173
12.95000,3367
12.95833,3566
12.96667,3769
12.97500,3977
12.98333,4189
12.99167,4405
13.00000,4625
13.00833,4849
13.01667,5077
13.02500,5309
13.03333,5543
13.04167,5782
13.05000,6023
13.05833,6267
13.06667,6515
13.07500,6765
13.08333,7019
13.09167,7276
13.10000,7535
13.10833,7797
13.11667,8062
13.12500,8330
13.13333,8600
13.14167,8873
13.15000,9148
13.15833,9426
13.16667,9706
13.17500,9989
13.18333,10274
13.19167,10562
13.20000,10852
13.20833,11145
13.21667,11440
13.22500,11738
13.23333,12038
13.24167,12340
13.25000,12644
13.25833,12950
13.26667,13259
13.27500,13570
13.28333,13884
13.29167,14200
13.30000,14518
13.30833,14839
13.31667,15162
13.32500,15488
13.33333,15815
13.34167,16146
13.35000,16478
13.35833,16813
13.36667,17150
13.37500,17490
13.38333,17833
13.39167,18177
13.40000,18525
13.40833,18874
13.41667,19226
13.42500,19581
13.43333,19938
13.44167,20298
13.45000,20660
13.45833,21025
13.46667,21393
13.47500,21763
13.48333,22135
13.49167,22510
13.50000,22888
13.50833,23268
13.51667,23651
13.52500,24036
13.53333,24425
13.54167,24816
13.55000,25210
13.55833,25607
13.56667,26007
13.57500,26409
13.58333,26814
13.59167,27222
13.60000,27633
13.60833,28046
13.61667,28462
13.62500,28881
13.63333,29303
13.64167,29729
13.65000,30157
13.65833,30588
13.66667,31022
13.67500,31459
13.68333,31899
13.69167,32343
13.70000,32789
13.70833,33238
13.71667,33691
13.72500,34146
13.73333,34605
13.74167,35066
13.75000,35531
13.75833,35999
13.76667,36471
13.77500,36946
13.78333,37423
13.79167,37904
13.80000,38387
13.80833,38872
13.81667,39359
13.82500,39844
13.83333,40324
13.84167,40796
13.85000,41251
13.85833,41679
13.86667,42066
13.87500,42395
13.88333,42647
13.89167,42797
13.90000,42820
13.90833,42690
13.91667,42385
13.92500,41883
13.93333,41168
13.94167,40233
13.95000,39075
13.95833,37702
13.96667,36130
13.97500,34382
13.98333,32489
13.99167,30488
14.00000,28414
14.00833,26308
14.01667,24209
14.02500,22150
14.03333,20165
14.04167,18278
14.05000,16512
14.05833,14880
14.06667,13393
14.07500,12055
14.08333,10868
14.09167,9829
14.10000,8932
14.10833,8170
14.11667,7535
14.12500,7018
14.13333,6610
14.14167,6300
14.15000,6080
14.15833,5940
14.16667,5870
14.17500,5862
14.18333,5908
14.19167,6000
14.20000,6129
14.20833,6288
14.21667,6470
14.22500,6668
14.23333,6874
14.24167,7083
14.25000,7289
14.25833,7486
14.26667,7669
14.27500,7834
14.28333,7977
14.29167,8094
14.30000,8183
14.30833,8243
14.31667,8271
14.32500,8267
14.33333,8231
14.34167,8163
14.35000,8064
14.35833,7937
14.36667,7782
14.37500,7601
14.38333,7398
14.39167,7175
14.40000,6934
14.40833,6679
14.41667,6413
14.42500,6137
14.43333,5856
14.44167,5572
14.45000,5287
14.45833,5003
14.46667,4723
14.47500,4448
14.48333,4180
14.49167,3920
14.50000,3668
14.50833,3427
14.51667,3197
14.52500,2978
14.53333,2771
14.54167,2575
14.55000,2391
14.55833,2219
14.56667,2058
14.57500,1908
14.58333,1768
14.59167,1639
14.60000,1519
14.60833,1409
14.61667,1307
14.62500,1214
14.63333,1128
14.64167,1049
14.65000,977
14.65833,911
14.66667,850
14.67500,795
14.68333,745
14.69167,699
14.70000,657
14.70833,619
14.71667,584
14.72500,552
14.73333,524
14.74167,497
14.75000,474
14.75833,452
14.76667,432
14.77500,413
14.78333,397
14.79167,382
14.80000,369
14.80833,356
14.81667,345
14.82500,334
14.83333,325
14.84167,316
14.85000,308
14.85833,301
14.86667,295
14.87500,289
14.88333,283
14.89167,278
14.90000,273
14.90833,268
14.91667,264
14.92500,260
14.93333,256
14.94167,253
14.95000,250
14.95833,248
14.96667,245
14.97500,243
14.98333,242
14.99167,240
15.00000,238
15.00833,237
15.01667,236
15.02500,235
15.03333,235
15.04167,234
15.05000,233
15.05833,233
15.06667,233
15.07500,233
15.08333,233
15.09167,232
15.10000,233
15.10833,233
15.11667,234
15.12500,234
15.13333,235
15.14167,235
15.15000,236
15.15833,237
15.16667,239
15.17500,241
15.18333,244
15.19167,247
15.20000,251
15.20833,257
15.21667,264
15.22500,273
15.23333,283
15.24167,296
15.25000,311
15.25833,329
15.26667,350
15.27500,375
15.28333,405
15.29167,439
15.30000,478
15.30833,524
15.31667,577
15.32500,637
15.33333,705
15.34167,783
15.35000,869
15.35833,965
15.36667,1071
15.37500,1189
15.38333,1318
15.39167,1459
15.40000,1611
15.40833,1775
15.41667,1952
15.42500,2140
15.43333,2341
15.44167,2553
15.45000,2775
15.45833,3008
15.46667,3250
15.47500,3501
15.48333,3758
15.49167,4020
15.50000,4287
15.50833,4556
15.51667,4826
15.52500,5096
15.53333,5363
15.54167,5625
15.55000,5881
15.55833,6129
15.56667,6367
15.57500,6593
15.58333,6805
15.59167,7003
15.60000,7185
15.60833,7350
15.61667,7495
15.62500,7621
15.63333,7726
15.64167,7810
15.65000,7873
15.65833,7914
15.66667,7933
15.67500,7931
15.68333,7908
15.69167,7863
15.70000,7799
15.70833,7716
15.71667,7614
15.72500,7495
15.73333,7361
15.74167,7211
15.75000,7048
15.75833,6873
15.76667,6687
15.77500,6492
15.78333,6289
15.79167,6080
15.80000,5865
15.80833,5647
15.81667,5426
15.82500,5204
15.83333,4981
15.84167,4759
15.85000,4539
15.85833,4322
15.86667,4109
15.87500,3900
15.88333,3695
15.89167,3496
15.90000,3302
15.90833,3115
15.91667,2935
15.92500,2762
15.93333,2597
15.94167,2438
15.95000,2287
15.95833,2143
15.96667,2006
15.97500,1877
15.98333,1755
15.99167,1639
16.00000,1531
16.00833,1429
16.01667,1333
16.02500,1243
16.03333,1159
16.04167,1081
16.05000,1008
16.05833,940
16.06667,877
16.07500,819
16.08333,765
16.09167,716
16.10000,670
16.10833,627
16.11667,588
16.12500,552
16.13333,518
16.14167,487
16.15000,459
16.15833,432
16.16667,408
16.17500,386
16.18333,366
16.19167,348
16.20000,331
16.20833,315
16.21667,301
16.22500,287
16.23333,275
16.24167,264
16.25000,253
16.25833,244
16.26667,235
16.27500,227
16.28333,220
16.29167,213
16.30000,207
16.30833,201
16.31667,196
16.32500,191
16.33333,187
16.34167,182
16.35000,178
16.35833,174
16.36667,170
16.37500,167
16.38333,164
16.39167,161
16.40000,158
16.40833,156
16.41667,154
16.42500,151
16.43333,149
16.44167,147
16.45000,146
16.45833,144
16.46667,142
16.47500,140
16.48333,139
16.49167,137
16.50000,135
16.50833,134
16.51667,133
16.52500,133
16.53333,132
16.54167,131
16.55000,130
16.55833,129
16.56667,128
16.57500,127
16.58333,126
16.59167,125
16.60000,124
16.60833,124
16.61667,123
16.62500,122
16.63333,121
16.64167,120
16.65000,119
16.65833,118
16.66667,117
16.67500,117
16.68333,116
16.69167,116
16.70000,115
16.70833,115
16.71667,114
16.72500,114
16.73333,113
16.74167,113
16.75000,112
16.75833,112
16.76667,111
16.77500,110
16.78333,109
16.79167,108
16.80000,107
16.80833,107
16.81667,106
16.82500,106
16.83333,105
16.84167,104
16.85000,103
16.85833,103
16.86667,102
16.87500,101
16.88333,100
16.89167,99
16.90000,98
16.90833,97
16.91667,96
16.92500,96
16.93333,95
16.94167,94
16.95000,94
16.95833,93
16.96667,92
16.97500,92
16.98333,91
16.99167,90
17.00000,90
17.00833,89
17.01667,88
17.02500,87
17.03333,87
17.04167,87
17.05000,86
17.05833,86
17.06667,85
17.07500,84
17.08333,84
17.09167,83
17.10000,83
17.10833,82
17.11667,82
17.12500,82
17.13333,81
17.14167,81
17.15000,81
17.15833,81
17.16667,80
17.17500,80
17.18333,80
17.19167,79
17.20000,78
17.20833,78
17.21667,78
17.22500,77
17.23333,77
17.24167,77
17.25000,77
17.25833,77
17.26667,77
17.27500,77
17.28333,77
17.29167,77
17.30000,77
17.30833,77
17.31667,77
17.32500,77
17.33333,77
17.34167,77
17.35000,78
17.35833,78
17.36667,78
17.37500,78
17.38333,78
17.39167,79
17.40000,79
17.40833,79
17.41667,79
17.42500,79
17.43333,80
17.44167,80
17.45000,80
17.45833,80
17.46667,80
17.47500,80
17.48333,80
17.49167,80
17.50000,80
17.50833,80
17.51667,80
17.52500,80
17.53333,80
17.54167,80
17.55000,79
17.55833,79
17.56667,79
17.57500,79
17.58333,78
17.59167,78
17.60000,78
17.60833,77
17.61667,77
17.62500,77
17.63333,76
17.64167,76
17.65000,75
17.65833,75
17.66667,75
17.67500,75
17.68333,74
17.69167,73
17.70000,73
17.70833,72
17.71667,71
17.72500,71
17.73333,70
17.74167,69
17.75000,69
17.75833,68
17.76667,68
17.77500,67
17.78333,66
17.79167,65
17.80000,65
17.80833,64
17.81667,64
17.82500,63
17.83333,62
17.84167,61
17.85000,60
17.85833,60
17.86667,59
17.87500,59
17.88333,58
17.89167,57
17.90000,56
17.90833,55
17.91667,54
17.92500,54
17.93333,53
17.94167,52
17.95000,51
17.95833,50
17.96667,50
17.97500,50
17.98333,49
17.99167,48
18.00000,48
18.00833,47
18.01667,47
18.02500,46
18.03333,46
18.04167,46
18.05000,45
18.05833,45
18.06667,45
18.07500,44
18.08333,44
18.09167,44
18.10000,44
18.10833,44
18.11667,44
18.12500,44
18.13333,43
18.14167,43
18.15000,43
18.15833,43
18.16667,43
18.17500,43
18.18333,43
18.19167,44
18.20000,44
18.20833,44
18.21667,44
18.22500,44
18.23333,44
18.24167,44
18.25000,44
18.25833,45
18.26667,45
18.27500,45
18.28333,45
18.29167,46
18.30000,46
18.30833,46
18.31667,47
18.32500,47
18.33333,47
18.34167,47
18.35000,47
18.35833,47
18.36667,48
18.37500,48
18.38333,48
18.39167,49
18.40000,49
18.40833,49
18.41667,49
18.42500,50
18.43333,50
18.44167,50
18.45000,50
18.45833,50
18.46667,49
18.47500,49
18.48333,49
18.49167,49
18.50000,49
18.50833,49
18.51667,49
18.52500,49
18.53333,49
18.54167,49
18.55000,49
18.55833,49
18.56667,49
18.57500,50
18.58333,49
18.59167,49
18.60000,49
18.60833,49
18.61667,50
18.62500,50
18.63333,50
18.64167,50
18.65000,50
18.65833,51
18.66667,51
18.67500,51
18.68333,51
18.69167,52
18.70000,52
18.70833,52
18.71667,53
18.72500,53
18.73333,54
18.74167,55
18.75000,56
18.75833,57
18.76667,57
18.77500,58
18.78333,58
18.79167,58
18.80000,59
18.80833,61
18.81667,62
18.82500,63
18.83333,64
18.84167,66
18.85000,66
18.85833,67
18.86667,68
18.87500,69
18.88333,71
18.89167,72
18.90000,73
18.90833,74
18.91667,75
18.92500,76
18.93333,77
18.94167,78
18.95000,80
18.95833,81
18.96667,82
18.97500,83
18.98333,84
18.99167,85
19.00000,86
19.00833,86
19.01667,87
19.02500,87
19.03333,87
19.04167,88
19.05000,88
19.05833,88
19.06667,87
19.07500,87
19.08333,87
19.09167,87
19.10000,86
19.10833,86
19.11667,85
19.12500,85
19.13333,84
19.14167,83
19.15000,82
19.15833,81
19.16667,80
19.17500,79
19.18333,78
19.19167,78
19.20000,77
19.20833,76
19.21667,74
19.22500,73
19.23333,72
19.24167,70
19.25000,69
19.25833,68
19.26667,67
19.27500,66
19.28333,65
19.29167,64
19.30000,63
19.30833,62
19.31667,61
19.32500,60
19.33333,59
19.34167,58
19.35000,57
19.35833,56
19.36667,55
19.37500,55
19.38333,54
19.39167,54
19.40000,53
19.40833,52
19.41667,52
19.42500,51
19.43333,50
19.44167,49
19.45000,49
19.45833,48
19.46667,47
19.47500,47
19.48333,47
19.49167,47
19.50000,46
19.50833,46
19.51667,46
19.52500,46
19.53333,45
19.54167,45
19.55000,44
19.55833,43
19.56667,43
19.57500,43
19.58333,43
19.59167,42
19.60000,41
19.60833,41
19.61667,41
19.62500,41
19.63333,41
19.64167,41
19.65000,41
19.65833,41
19.66667,40
19.67500,40
19.68333,40
19.69167,39
19.70000,38
19.70833,38
19.71667,38
19.72500,37
19.73333,37
19.74167,37
19.75000,36
19.75833,36
19.76667,36
19.77500,35
19.78333,35
19.79167,35
19.80000,34
19.80833,34
19.81667,34
19.82500,33
19.83333,33
19.84167,33
19.85000,32
19.85833,33
19.86667,33
19.87500,32
19.88333,32
19.89167,32
19.90000,32
19.90833,32
19.91667,32
19.92500,32
19.93333,32
19.94167,31
19.95000,31
19.95833,30
19.96667,31
19.97500,31
19.98333,31
19.99167,31
20.00000,32
20.00833,32
20.01667,31
20.02500,31
20.03333,31
20.04167,31
20.05000,31
20.05833,31
20.06667,31
20.07500,31
20.08333,32
20.09167,32
20.10000,32
20.10833,32
20.11667,32
20.12500,32
20.13333,32
20.14167,32
20.15000,32
20.15833,32
20.16667,32
20.17500,32
20.18333,32
20.19167,31
20.20000,31
20.20833,31
20.21667,31
20.22500,31
20.23333,31
20.24167,31
20.25000,31
20.25833,31
20.26667,31
20.27500,30
20.28333,30
20.29167,30
20.30000,29
20.30833,29
20.31667,29
20.32500,29
20.33333,28
20.34167,28
20.35000,28
20.35833,27
20.36667,27
20.37500,27
20.38333,27
20.39167,27
20.40000,27
20.40833,27
20.41667,26
20.42500,26
20.43333,26
20.44167,26
20.45000,25
20.45833,25
20.46667,25
20.47500,24
20.48333,24
20.49167,24
20.50000,25
20.50833,24
20.51667,24
20.52500,24
20.53333,24
20.54167,24
20.55000,23
20.55833,23
20.56667,23
20.57500,24
20.58333,24
20.59167,24
20.60000,24
20.60833,25
20.61667,25
20.62500,25
20.63333,25
20.64167,25
20.65000,25
20.65833,25
20.66667,25
20.67500,25
20.68333,26
20.69167,26
20.70000,26
20.70833,27
20.71667,27
20.72500,28
20.73333,29
20.74167,29
20.75000,30
20.75833,31
20.76667,31
20.77500,32
20.78333,33
20.79167,33
20.80000,34
20.80833,34
20.81667,35
20.82500,36
20.83333,36
20.84167,37
20.85000,37
20.85833,38
20.86667,39
20.87500,40
20.88333,40
20.89167,41
20.90000,42
20.90833,42
20.91667,43
20.92500,44
20.93333,45
20.94167,45
20.95000,46
20.95833,46
20.96667,47
20.97500,47
20.98333,47
20.99167,47
21.00000,47
21.00833,47
21.01667,48
21.02500,47
21.03333,47
21.04167,47
21.05000,48
21.05833,48
21.06667,48
21.07500,48
21.08333,48
21.09167,48
21.10000,48
21.10833,48
21.11667,48
21.12500,47
21.13333,47
21.14167,47
21.15000,47
21.15833,47
21.16667,46
21.17500,46
21.18333,46
21.19167,45
21.20000,45
21.20833,45
21.21667,45
21.22500,44
21.23333,44
21.24167,44
21.25000,44
21.25833,44
21.26667,44
21.27500,44
21.28333,44
21.29167,43
21.30000,43
21.30833,43
21.31667,42
21.32500,42
21.33333,42
21.34167,42
21.35000,43
21.35833,43
21.36667,43
21.37500,43
21.38333,43
21.39167,44
21.40000,44
21.40833,44
21.41667,44
21.42500,45
21.43333,45
21.44167,46
21.45000,46
21.45833,47
21.46667,48
21.47500,49
21.48333,51
21.49167,52
21.50000,53
21.50833,55
21.51667,57
21.52500,59
21.53333,62
21.54167,65
21.55000,69
21.55833,73
21.56667,77
21.57500,82
21.58333,87
21.59167,94
21.60000,101
21.60833,109
21.61667,118
21.62500,127
21.63333,138
21.64167,151
21.65000,164
21.65833,180
21.66667,196
21.67500,215
21.68333,235
21.69167,256
21.70000,279
21.70833,304
21.71667,332
21.72500,361
21.73333,393
21.74167,428
21.75000,464
21.75833,502
21.76667,542
21.77500,585
21.78333,630
21.79167,678
21.80000,727
21.80833,779
21.81667,832
21.82500,887
21.83333,944
21.84167,1002
21.85000,1061
21.85833,1121
21.86667,1182
21.87500,1243
21.88333,1305
21.89167,1367
21.90000,1428
21.90833,1488
21.91667,1547
21.92500,1605
21.93333,1661
21.94167,1715
21.95000,1767
21.95833,1817
21.96667,1863
21.97500,1906
21.98333,1945
21.99167,1982
22.00000,2014
22.00833,2042
22.01667,2066
22.02500,2086
22.03333,2102
22.04167,2113
22.05000,2119
22.05833,2121
22.06667,2118
22.07500,2111
22.08333,2100
22.09167,2085
22.10000,2066
22.10833,2043
22.11667,2016
22.12500,1985
22.13333,1951
22.14167,1914
22.15000,1875
22.15833,1832
22.16667,1787
22.17500,1740
22.18333,1691
22.19167,1641
22.20000,1589
22.20833,1537
22.21667,1483
22.22500,1429
22.23333,1375
22.24167,1321
22.25000,1266
22.25833,1213
22.26667,1159
22.27500,1107
22.28333,1055
22.29167,1004
22.30000,955
22.30833,907
22.31667,860
22.32500,815
22.33333,771
22.34167,728
22.35000,688
22.35833,649
22.36667,611
22.37500,574
22.38333,540
22.39167,507
22.40000,476
22.40833,446
22.41667,419
22.42500,392
22.43333,368
22.44167,345
22.45000,322
22.45833,302
22.46667,282
22.47500,264
22.48333,247
22.49167,232
22.50000,217
22.50833,203
22.51667,191
22.52500,179
22.53333,168
22.54167,158
22.55000,148
22.55833,139
22.56667,131
22.57500,124
22.58333,117
22.59167,111
22.60000,105
22.60833,99
22.61667,95
22.62500,90
22.63333,86
22.64167,83
22.65000,79
22.65833,76
22.66667,73
22.67500,70
22.68333,68
22.69167,66
22.70000,63
22.70833,62
22.71667,60
22.72500,59
22.73333,57
22.74167,56
22.75000,54
22.75833,53
22.76667,52
22.77500,51
22.78333,50
22.79167,50
22.80000,49
22.80833,49
22.81667,48
22.82500,48
22.83333,48
22.84167,48
22.85000,48
22.85833,48
22.86667,48
22.87500,48
22.88333,48
22.89167,48
22.90000,48
22.90833,48
22.91667,47
22.92500,47
22.93333,47
22.94167,47
22.95000,48
22.95833,48
22.96667,48
22.97500,48
22.98333,48
22.99167,48
23.00000,48
23.00833,47
23.01667,47
23.02500,47
23.03333,47
23.04167,47
23.05000,47
23.05833,47
23.06667,47
23.07500,48
23.08333,48
23.09167,48
23.10000,49
23.10833,49
23.11667,50
23.12500,50
23.13333,50
23.14167,50
23.15000,50
23.15833,50
23.16667,50
23.17500,50
23.18333,50
23.19167,50
23.20000,50
23.20833,50
23.21667,50
23.22500,51
23.23333,51
23.24167,52
23.25000,52
23.25833,52
23.26667,53
23.27500,53
23.28333,53
23.29167,53
23.30000,53
23.30833,54
23.31667,54
23.32500,54
23.33333,53
23.34167,53
23.35000,53
23.35833,53
23.36667,53
23.37500,53
23.38333,53
23.39167,53
23.40000,53
23.40833,53
23.41667,52
23.42500,52
23.43333,52
23.44167,52
23.45000,51
23.45833,51
23.46667,51
23.47500,51
23.48333,51
23.49167,51
23.50000,51
23.50833,50
23.51667,50
23.52500,49
23.53333,49
23.54167,48
23.55000,48
23.55833,47
23.56667,47
23.57500,47
23.58333,47
23.59167,47
23.60000,47
23.60833,47
23.61667,46
23.62500,46
23.63333,46
23.64167,46
23.65000,46
23.65833,45
23.66667,45
23.67500,45
23.68333,45
23.69167,45
23.70000,45
23.70833,45
23.71667,46
23.72500,46
23.73333,46
23.74167,47
23.75000,47
23.75833,47
23.76667,47
23.77500,48
23.78333,48
23.79167,48
23.80000,49
23.80833,49
23.81667,50
23.82500,51
23.83333,51
23.84167,52
23.85000,52
23.85833,53
23.86667,54
23.87500,54
23.88333,55
23.89167,55
23.90000,55
23.90833,55
23.91667,55
23.92500,56
23.93333,56
23.94167,57
23.95000,57
23.95833,58
23.96667,58
23.97500,58
23.98333,58
23.99167,58
24.00000,58
24.00833,58
24.01667,59
24.02500,59
24.03333,59
24.04167,60
24.05000,60
24.05833,60
24.06667,60
24.07500,60
24.08333,61
24.09167,61
24.10000,62
24.10833,62
24.11667,62
24.12500,61
24.13333,61
24.14167,61
24.15000,60
24.15833,60
24.16667,61
24.17500,61
24.18333,61
24.19167,61
24.20000,61
24.20833,61
24.21667,60
24.22500,60
24.23333,59
24.24167,59
24.25000,59
24.25833,59
24.26667,59
24.27500,58
24.28333,58
24.29167,58
24.30000,58
24.30833,58
24.31667,58
24.32500,58
24.33333,57
24.34167,57
24.35000,58
24.35833,58
24.36667,58
24.37500,58
24.38333,58
24.39167,58
24.40000,59
24.40833,59
24.41667,59
24.42500,60
24.43333,60
24.44167,61
24.45000,62
24.45833,63
24.46667,64
24.47500,65
24.48333,66
24.49167,67
24.50000,69
24.50833,70
24.51667,72
24.52500,74
24.53333,76
24.54167,79
24.55000,82
24.55833,85
24.56667,89
24.57500,93
24.58333,97
24.59167,102
24.60000,107
24.60833,113
24.61667,120
24.62500,127
24.63333,135
24.64167,143
24.65000,152
24.65833,162
24.66667,172
24.67500,183
24.68333,194
24.69167,207
24.70000,219
24.70833,233
24.71667,247
24.72500,262
24.73333,278
24.74167,295
24.75000,312
24.75833,330
24.76667,348
24.77500,367
24.78333,387
24.79167,407
24.80000,428
24.80833,449
24.81667,470
24.82500,491
24.83333,512
24.84167,534
24.85000,555
24.85833,577
24.86667,598
24.87500,619
24.88333,639
24.89167,659
24.90000,679
24.90833,697
24.91667,716
24.92500,733
24.93333,749
24.94167,765
24.95000,779
24.95833,792
24.96667,804
24.97500,814
24.98333,822
24.99167,829
25.00000,835
25.00833,840
25.01667,843
25.02500,844
25.03333,845
25.04167,844
25.05000,841
25.05833,837
25.06667,831
25.07500,825
25.08333,817
25.09167,808
25.10000,797
25.10833,786
25.11667,774
25.12500,760
25.13333,746
25.14167,731
25.15000,714
25.15833,697
25.16667,680
25.17500,662
25.18333,643
25.19167,624
25.20000,605
25.20833,585
25.21667,566
25.22500,546
25.23333,527
25.24167,508
25.25000,488
25.25833,469
25.26667,450
25.27500,431
25.28333,413
25.29167,395
25.30000,377
25.30833,361
25.31667,344
25.32500,328
25.33333,313
25.34167,298
25.35000,284
25.35833,270
25.36667,257
25.37500,245
25.38333,233
25.39167,221
25.40000,211
25.40833,200
25.41667,190
25.42500,181
25.43333,172
25.44167,163
25.45000,156
25.45833,148
25.46667,141
25.47500,135
25.48333,129
25.49167,123
25.50000,118
25.50833,113
25.51667,108
25.52500,104
25.53333,101
25.54167,97
25.55000,94
25.55833,90
25.56667,87
25.57500,84
25.58333,82
25.59167,79
25.60000,77
25.60833,75
25.61667,73
25.62500,71
25.63333,69
25.64167,68
25.65000,66
25.65833,65
25.66667,64
25.67500,63
25.68333,62
25.69167,61
25.70000,60
25.70833,60
25.71667,59
25.72500,58
25.73333,57
25.74167,56
25.75000,56
25.75833,55
25.76667,54
25.77500,54
25.78333,53
25.79167,53
25.80000,52
25.80833,51
25.81667,51
25.82500,51
25.83333,50
25.84167,49
25.85000,49
25.85833,48
25.86667,48
25.87500,48
25.88333,48
25.89167,47
25.90000,47
25.90833,47
25.91667,47
25.92500,47
25.93333,47
25.94167,47
25.95000,47
25.95833,46
25.96667,46
25.97500,46
25.98333,46
25.99167,46
26.00000,46
26.00833,46
26.01667,46
26.02500,46
26.03333,46
26.04167,46
26.05000,46
26.05833,46
26.06667,47
26.07500,47
26.08333,47
26.09167,48
26.10000,48
26.10833,48
26.11667,48
26.12500,48
26.13333,48
26.14167,49
26.15000,49
26.15833,49
26.16667,49
26.17500,49
26.18333,49
26.19167,49
26.20000,49
26.20833,49
26.21667,49
26.22500,50
26.23333,50
26.24167,50
26.25000,50
26.25833,50
26.26667,51
26.27500,51
26.28333,52
26.29167,52
26.30000,52
26.30833,52
26.31667,52
26.32500,53
26.33333,53
26.34167,53
26.35000,53
26.35833,53
26.36667,53
26.37500,53
26.38333,53
26.39167,53
26.40000,53
26.40833,52
26.41667,52
26.42500,52
26.43333,53
26.44167,53
26.45000,53
26.45833,52
26.46667,52
26.47500,52
26.48333,52
26.49167,52
26.50000,52
26.50833,52
26.51667,52
26.52500,52
26.53333,51
26.54167,51
26.55000,51
26.55833,51
26.56667,51
26.57500,50
26.58333,50
26.59167,50
26.60000,49
26.60833,49
26.61667,48
26.62500,48
26.63333,48
26.64167,48
26.65000,48
26.65833,48
26.66667,47
26.67500,47
26.68333,47
26.69167,47
26.70000,47
26.70833,46
26.71667,46
26.72500,46
26.73333,45
26.74167,45
26.75000,45
26.75833,44
26.76667,44
26.77500,44
26.78333,44
26.79167,44
26.80000,44
26.80833,44
26.81667,44
26.82500,44
26.83333,44
26.84167,43
26.85000,43
26.85833,43
26.86667,43
26.87500,43
26.88333,43
26.89167,43
26.90000,43
26.90833,43
26.91667,43
26.92500,43
26.93333,43
26.94167,43
26.95000,43
26.95833,43
26.96667,44
26.97500,44
26.98333,44
26.99167,44
27.00000,44
27.00833,45
27.01667,45
27.02500,46
27.03333,46
27.04167,46
27.05000,46
27.05833,46
27.06667,47
27.07500,47
27.08333,47
27.09167,47
27.10000,48
27.10833,48
27.11667,48
27.12500,48
27.13333,49
27.14167,49
27.15000,49
27.15833,49
27.16667,49
27.17500,50
27.18333,50
27.19167,50
27.20000,51
27.20833,51
27.21667,52
27.22500,52
27.23333,53
27.24167,53
27.25000,53
27.25833,53
27.26667,54
27.27500,54
27.28333,54
27.29167,55
27.30000,55
27.30833,55
27.31667,56
27.32500,55
27.33333,55
27.34167,55
27.35000,56
27.35833,56
27.36667,56
27.37500,56
27.38333,57
27.39167,57
27.40000,57
27.40833,57
27.41667,57
27.42500,57
27.43333,57
27.44167,57
27.45000,57
27.45833,58
27.46667,58
27.47500,57
27.48333,58
27.49167,58
27.50000,58
27.50833,58
27.51667,58
27.52500,59
27.53333,59
27.54167,59
27.55000,59
27.55833,59
27.56667,59
27.57500,59
27.58333,59
27.59167,59
27.60000,59
27.60833,59
27.61667,59
27.62500,59
27.63333,59
27.64167,59
27.65000,59
27.65833,58
27.66667,58
27.67500,58
27.68333,57
27.69167,57
27.70000,56
27.70833,56
27.71667,56
27.72500,55
27.73333,55
27.74167,55
27.75000,54
27.75833,53
27.76667,53
27.77500,52
27.78333,52
27.79167,51
27.80000,50
27.80833,50
27.81667,49
27.82500,48
27.83333,46
27.84167,45
27.85000,44
27.85833,42
27.86667,41
27.87500,39
27.88333,38
27.89167,36
27.90000,35
27.90833,33
27.91667,30
27.92500,28
27.93333,26
27.94167,23
27.95000,20
27.95833,18
27.96667,15
27.97500,12
27.98333,9
27.99167,5
28.00000,2
28.00833,-1
28.01667,-5
28.02500,-8
28.03333,-12
28.04167,-16
28.05000,-20
28.05833,-23
28.06667,-27
28.07500,-31
28.08333,-35
28.09167,-39
28.10000,-43
28.10833,-47
28.11667,-51
28.12500,-55
28.13333,-59
28.14167,-63
28.15000,-67
28.15833,-72
28.16667,-75
28.17500,-79
28.18333,-84
28.19167,-87
28.20000,-90
28.20833,-93
28.21667,-96
28.22500,-100
28.23333,-103
28.24167,-106
28.25000,-109
28.25833,-112
28.26667,-115
28.27500,-118
28.28333,-120
28.29167,-123
28.30000,-124
28.30833,-126
28.31667,-128
28.32500,-129
28.33333,-130
28.34167,-131
28.35000,-132
28.35833,-132
28.36667,-133
28.37500,-133
28.38333,-133
28.39167,-133
28.40000,-132
28.40833,-131
28.41667,-130
28.42500,-130
28.43333,-128
28.44167,-127
28.45000,-126
28.45833,-124
28.46667,-123
28.47500,-121
28.48333,-119
28.49167,-117
28.50000,-115
28.50833,-112
28.51667,-109
28.52500,-107
28.53333,-104
28.54167,-101
28.55000,-99
28.55833,-96
28.56667,-92
28.57500,-89
28.58333,-86
28.59167,-83
28.60000,-79
28.60833,-77
28.61667,-74
28.62500,-70
28.63333,-67
28.64167,-64
28.65000,-61
28.65833,-58
28.66667,-55
28.67500,-51
28.68333,-48
28.69167,-44
28.70000,-41
28.70833,-38
28.71667,-35
28.72500,-32
28.73333,-29
28.74167,-26
28.75000,-23
28.75833,-20
28.76667,-17
28.77500,-15
28.78333,-12
28.79167,-10
28.80000,-7
28.80833,-5
28.81667,-2
28.82500,0
28.83333,2
28.84167,4
28.85000,6
28.85833,8
28.86667,10
28.87500,12
28.88333,13
28.89167,15
28.90000,16
28.90833,18
28.91667,19
28.92500,21
28.93333,22
28.94167,24
28.95000,26
28.95833,28
28.96667,29
28.97500,30
28.98333,31
28.99167,32
29.00000,33
29.00833,33
29.01667,34
29.02500,34
29.03333,35
29.04167,35
29.05000,36
29.05833,37
29.06667,37
29.07500,38
29.08333,38
29.09167,38
29.10000,39
29.10833,39
29.11667,39
29.12500,39
29.13333,39
29.14167,39
29.15000,39
29.15833,39
29.16667,39
29.17500,39
29.18333,40
29.19167,40
29.20000,40
29.20833,40
29.21667,39
29.22500,39
29.23333,39
29.24167,39
29.25000,38
29.25833,38
29.26667,38
29.27500,38
29.28333,38
29.29167,38
29.30000,38
29.30833,38
29.31667,38
29.32500,38
29.33333,37
29.34167,37
29.35000,37
29.35833,37
29.36667,37
29.37500,36
29.38333,36
29.39167,37
29.40000,37
29.40833,36
29.41667,36
29.42500,36
29.43333,35
29.44167,35
29.45000,35
29.45833,34
29.46667,34
29.47500,34
29.48333,33
29.49167,33
29.50000,32
29.50833,32
29.51667,32
29.52500,31
29.53333,30
29.54167,29
29.55000,29
29.55833,28
29.56667,27
29.57500,26
29.58333,26
29.59167,25
29.60000,25
29.60833,24
29.61667,24
29.62500,23
29.63333,22
29.64167,21
29.65000,21
29.65833,20
29.66667,19
29.67500,18
29.68333,17
29.69167,16
29.70000,16
29.70833,15
29.71667,14
29.72500,13
29.73333,12
29.74167,11
29.75000,10
29.75833,9
29.76667,8
29.77500,7
29.78333,5
29.79167,4
29.80000,2
29.80833,1
29.81667,-0
29.82500,-1
29.83333,-2
29.84167,-3
29.85000,-4
29.85833,-6
29.86667,-7
29.87500,-8
29.88333,-9
29.89167,-10
29.90000,-12
29.90833,-13
29.91667,-14
29.92500,-15
29.93333,-16
29.94167,-17
29.95000,-18
29.95833,-19
29.96667,-20
29.97500,-21
29.98333,-22
29.99167,-23
30.00000,-23
30.00833,-24
30.01667,-24
30.02500,-24
30.03333,-25
30.04167,-26
30.05000,-26
30.05833,-27
30.06667,-27
30.07500,-27
30.08333,-28
30.09167,-28
30.10000,-28
30.10833,-28
30.11667,-27
30.12500,-27
30.13333,-27
30.14167,-27
30.15000,-27
30.15833,-26
30.16667,-26
30.17500,-25
30.18333,-24
30.19167,-24
30.20000,-23
30.20833,-22
30.21667,-22
30.22500,-21
30.23333,-20
30.24167,-19
30.25000,-18
30.25833,-18
30.26667,-16
30.27500,-15
30.28333,-13
30.29167,-12
30.30000,-10
30.30833,-9
30.31667,-7
30.32500,-6
30.33333,-4
30.34167,-3
30.35000,-2
30.35833,-1
30.36667,1
30.37500,2
30.38333,3
30.39167,5
30.40000,6
30.40833,8
30.41667,10
30.42500,12
30.43333,13
30.44167,15
30.45000,16
30.45833,17
30.46667,18
30.47500,19
30.48333,20
30.49167,21
30.50000,23
30.50833,24
30.51667,25
30.52500,27
30.53333,28
30.54167,29
30.55000,30
30.55833,31
30.56667,32
30.57500,33
30.58333,34
30.59167,34
30.60000,35
30.60833,35
30.61667,36
30.62500,37
30.63333,38
30.64167,38
30.65000,39
30.65833,39
30.66667,39
30.67500,40
30.68333,40
30.69167,40
30.70000,40
30.70833,40
30.71667,40
30.72500,40
30.73333,40
30.74167,41
30.75000,41
30.75833,41
30.76667,41
30.77500,41
30.78333,41
30.79167,41
30.80000,41
30.80833,40
30.81667,40
30.82500,41
30.83333,40
30.84167,40
30.85000,40
30.85833,40
30.86667,40
30.87500,40
30.88333,39
30.89167,40
30.90000,39
30.90833,39
30.91667,39
30.92500,39
30.93333,39
30.94167,38
30.95000,38
30.95833,37
30.96667,37
30.97500,37
30.98333,36
30.99167,36
31.00000,35
31.00833,35
31.01667,35
31.02500,35
31.03333,35
31.04167,35
31.05000,35
31.05833,35
31.06667,35
31.07500,35
31.08333,35
31.09167,35
31.10000,35
31.10833,34
31.11667,34
31.12500,34
31.13333,34
31.14167,34
31.15000,34
31.15833,34
31.16667,34
31.17500,34
31.18333,34
31.19167,34
31.20000,34
31.20833,35
31.21667,35
31.22500,35
31.23333,35
31.24167,35
31.25000,35
31.25833,36
31.26667,36
31.27500,36
31.28333,36
31.29167,36
31.30000,36
31.30833,36
31.31667,36
31.32500,36
31.33333,36
31.34167,37
31.35000,37
31.35833,38
31.36667,38
31.37500,38
31.38333,38
31.39167,38
31.40000,39
31.40833,39
31.41667,39
31.42500,39
31.43333,39
31.44167,39
31.45000,38
31.45833,38
31.46667,38
31.47500,38
31.48333,38
31.49167,38
31.50000,37
31.50833,37
31.51667,36
31.52500,36
31.53333,36
31.54167,36
31.55000,36
31.55833,36
31.56667,35
31.57500,35
31.58333,35
31.59167,35
31.60000,35
31.60833,35
31.61667,35
31.62500,34
31.63333,34
31.64167,34
31.65000,34
31.65833,34
31.66667,34
31.67500,34
31.68333,34
31.69167,34
31.70000,34
31.70833,34
31.71667,35
31.72500,35
31.73333,36
31.74167,36
31.75000,36
31.75833,37
31.76667,37
31.77500,37
31.78333,37
31.79167,37
31.80000,37
31.80833,37
31.81667,38
31.82500,38
31.83333,38
31.84167,39
31.85000,40
31.85833,40
31.86667,41
31.87500,41
31.88333,42
31.89167,42
31.90000,42
31.90833,43
31.91667,43
31.92500,44
31.93333,44
31.94167,45
31.95000,45
31.95833,45
31.96667,46
31.97500,46
31.98333,46
31.99167,46
32.00000,46
32.00833,47
32.01667,47
32.02500,47
32.03333,48
32.04167,49
32.05000,49
32.05833,50
32.06667,50
32.07500,50
32.08333,50
32.09167,49
32.10000,49
32.10833,49
32.11667,49
32.12500,49
32.13333,49
32.14167,49
32.15000,49
32.15833,48
32.16667,48
32.17500,48
32.18333,48
32.19167,48
32.20000,48
32.20833,48
32.21667,47
32.22500,47
32.23333,47
32.24167,47
32.25000,47
32.25833,47
32.26667,47
32.27500,47
32.28333,47
32.29167,47
32.30000,46
32.30833,46
32.31667,46
32.32500,46
32.33333,46
32.34167,46
32.35000,46
32.35833,46
32.36667,46
32.37500,46
32.38333,47
32.39167,47
32.40000,47
32.40833,47
32.41667,47
32.42500,47
32.43333,47
32.44167,48
32.45000,48
32.45833,48
32.46667,48
32.47500,48
32.48333,49
32.49167,49
32.50000,49
32.50833,50
32.51667,50
32.52500,50
32.53333,51
32.54167,51
32.55000,52
32.55833,52
32.56667,52
32.57500,53
32.58333,53
32.59167,53
32.60000,54
32.60833,54
32.61667,54
32.62500,54
32.63333,55
32.64167,55
32.65000,55
32.65833,55
32.66667,56
32.67500,56
32.68333,55
32.69167,56
32.70000,56
32.70833,56
32.71667,56
32.72500,56
32.73333,56
32.74167,56
32.75000,56
32.75833,56
32.76667,56
32.77500,56
32.78333,56
32.79167,56
32.80000,56
32.80833,55
32.81667,55
32.82500,55
32.83333,55
32.84167,55
32.85000,54
32.85833,54
32.86667,54
32.87500,55
32.88333,55
32.89167,55
32.90000,55
32.90833,54
32.91667,54
32.92500,54
32.93333,53
32.94167,53
32.95000,53
32.95833,53
32.96667,53
32.97500,53
32.98333,53
32.99167,53
33.00000,53
33.00833,53
33.01667,53
33.02500,53
33.03333,53
33.04167,53
33.05000,53
33.05833,52
33.06667,53
33.07500,53
33.08333,53
33.09167,53
33.10000,53
33.10833,53
33.11667,53
33.12500,53
33.13333,52
33.14167,52
33.15000,52
33.15833,52
33.16667,52
33.17500,52
33.18333,52
33.19167,52
33.20000,52
33.20833,52
33.21667,52
33.22500,51
33.23333,51
33.24167,51
33.25000,51
33.25833,51
33.26667,51
33.27500,50
33.28333,50
33.29167,50
33.30000,50
33.30833,50
33.31667,50
33.32500,50
33.33333,49
33.34167,49
33.35000,49
33.35833,49
33.36667,48
33.37500,48
33.38333,47
33.39167,47
33.40000,46
33.40833,46
33.41667,46
33.42500,45
33.43333,45
33.44167,45
33.45000,45
33.45833,44
33.46667,44
33.47500,44
33.48333,44
33.49167,44
33.50000,44
33.50833,44
33.51667,44
33.52500,44
33.53333,43
33.54167,43
33.55000,43
33.55833,43
33.56667,43
33.57500,43
33.58333,43
33.59167,43
33.60000,43
33.60833,43
33.61667,43
33.62500,43
33.63333,43
33.64167,43
33.65000,43
33.65833,43
33.66667,43
33.67500,44
33.68333,44
33.69167,45
33.70000,45
33.70833,46
33.71667,47
33.72500,47
33.73333,48
33.74167,48
33.75000,48
33.75833,49
33.76667,50
33.77500,50
33.78333,51
33.79167,52
33.80000,53
33.80833,54
33.81667,54
33.82500,55
33.83333,56
33.84167,57
33.85000,58
33.85833,59
33.86667,59
33.87500,60
33.88333,61
33.89167,62
33.90000,62
33.90833,63
33.91667,64
33.92500,64
33.93333,65
33.94167,66
33.95000,67
33.95833,68
33.96667,69
33.97500,70
33.98333,70
33.99167,71
34.00000,71
34.00833,71
34.01667,72
34.02500,72
34.03333,73
34.04167,73
34.05000,73
34.05833,73
34.06667,73
34.07500,74
34.08333,74
34.09167,74
34.10000,74
34.10833,74
34.11667,74
34.12500,74
34.13333,74
34.14167,74
34.15000,74
34.15833,74
34.16667,74
34.17500,74
34.18333,73
34.19167,73
34.20000,73
34.20833,74
34.21667,73
34.22500,73
34.23333,72
34.24167,72
34.25000,72
34.25833,71
34.26667,71
34.27500,70
34.28333,69
34.29167,68
34.30000,68
34.30833,68
34.31667,67
34.32500,67
34.33333,67
34.34167,66
34.35000,66
34.35833,65
34.36667,64
34.37500,64
34.38333,63
34.39167,63
34.40000,62
34.40833,62
34.41667,61
34.42500,61
34.43333,60
34.44167,60
34.45000,59
34.45833,59
34.46667,58
34.47500,58
34.48333,57
34.49167,57
34.50000,57
34.50833,56
34.51667,56
34.52500,56
34.53333,55
34.54167,55
34.55000,54
34.55833,54
34.56667,54
34.57500,54
34.58333,54
34.59167,54
34.60000,53
34.60833,53
34.61667,53
34.62500,53
34.63333,53
34.64167,53
34.65000,53
34.65833,53
34.66667,53
34.67500,53
34.68333,53
34.69167,53
34.70000,53
34.70833,53
34.71667,53
34.72500,53
34.73333,53
34.74167,53
34.75000,53
34.75833,52
34.76667,53
34.77500,53
34.78333,53
34.79167,53
34.80000,53
34.80833,53
34.81667,53
34.82500,53
34.83333,54
34.84167,54
34.85000,54
34.85833,54
34.86667,54
34.87500,55
34.88333,55
34.89167,55
34.90000,55
34.90833,55
34.91667,55
34.92500,55
34.93333,56
34.94167,56
34.95000,56
34.95833,56
34.96667,56
34.97500,56
34.98333,55
34.99167,55
35.00000,55
35.00833,54
35.01667,54
35.02500,54
35.03333,53
35.04167,53
35.05000,53
35.05833,53
35.06667,53
35.07500,53
35.08333,53
35.09167,53
35.10000,53
35.10833,53
35.11667,52
35.12500,52
35.13333,51
35.14167,51
35.15000,51
35.15833,51
35.16667,50
35.17500,50
35.18333,50
35.19167,50
35.20000,50
35.20833,49
35.21667,49
35.22500,49
35.23333,49
35.24167,48
35.25000,48
35.25833,48
35.26667,48
35.27500,48
35.28333,48
35.29167,48
35.30000,47
35.30833,47
35.31667,48
35.32500,48
35.33333,48
35.34167,48
35.35000,48
35.35833,47
35.36667,47
35.37500,47
35.38333,47
35.39167,47
35.40000,46
35.40833,46
35.41667,46
35.42500,46
35.43333,46
35.44167,46
35.45000,46
35.45833,46
35.46667,46
35.47500,46
35.48333,46
35.49167,46
35.50000,47
35.50833,47
35.51667,47
35.52500,47
35.53333,47
35.54167,47
35.55000,47
35.55833,47
35.56667,47
35.57500,47
35.58333,47
35.59167,46
35.60000,46
35.60833,47
35.61667,47
35.62500,47
35.63333,47
35.64167,47
35.65000,47
35.65833,46
35.66667,47
35.67500,47
35.68333,47
35.69167,47
35.70000,47
35.70833,47
35.71667,47
35.72500,47
35.73333,47
35.74167,47
35.75000,48
35.75833,47
35.76667,47
35.77500,47
35.78333,47
35.79167,47
35.80000,47
35.80833,47
35.81667,47
35.82500,47
35.83333,47
35.84167,48
35.85000,48
35.85833,49
35.86667,49
35.87500,50
35.88333,50
35.89167,50
35.90000,51
35.90833,51
35.91667,51
35.92500,51
35.93333,52
35.94167,52
35.95000,53
35.95833,53
35.96667,54
35.97500,54
35.98333,54
35.99167,55
36.00000,56
36.00833,56
36.01667,57
36.02500,58
36.03333,58
36.04167,58
36.05000,59
36.05833,59
36.06667,60
36.07500,61
36.08333,61
36.09167,61
36.10000,62
36.10833,62
36.11667,62
36.12500,62
36.13333,63
36.14167,63
36.15000,63
36.15833,64
36.16667,63
36.17500,63
36.18333,64
36.19167,64
36.20000,64
36.20833,65
36.21667,65
36.22500,65
36.23333,65
36.24167,65
36.25000,66
36.25833,66
36.26667,66
36.27500,66
36.28333,66
36.29167,67
36.30000,67
36.30833,66
36.31667,66
36.32500,66
36.33333,66
36.34167,65
36.35000,65
36.35833,64
36.36667,64
36.37500,64
36.38333,64
36.39167,64
36.40000,64
36.40833,64
36.41667,64
36.42500,64
36.43333,64
36.44167,63
36.45000,63
36.45833,63
36.46667,62
36.47500,62
36.48333,62
36.49167,62
36.50000,61
36.50833,61
36.51667,61
36.52500,61
36.53333,61
36.54167,61
36.55000,61
36.55833,60
36.56667,60
36.57500,60
36.58333,60
36.59167,59
36.60000,59
36.60833,58
36.61667,58
36.62500,57
36.63333,57
36.64167,56
36.65000,56
36.65833,56
36.66667,56
36.67500,56
36.68333,56
36.69167,56
36.70000,56
36.70833,56
36.71667,56
36.72500,56
36.73333,56
36.74167,56
36.75000,55
36.75833,55
36.76667,56
36.77500,56
36.78333,55
36.79167,55
36.80000,55
36.80833,55
36.81667,55
36.82500,55
36.83333,56
36.84167,56
36.85000,56
36.85833,56
36.86667,56
36.87500,56
36.88333,57
36.89167,57
36.90000,57
36.90833,57
36.91667,57
36.92500,57
36.93333,57
36.94167,57
36.95000,57
36.95833,58
36.96667,58
36.97500,57
36.98333,57
36.99167,57
37.00000,58
37.00833,58
37.01667,58
37.02500,58
37.03333,59
37.04167,59
37.05000,59
37.05833,59
37.06667,59
37.07500,60
37.08333,60
37.09167,61
37.10000,61
37.10833,61
37.11667,62
37.12500,62
37.13333,62
37.14167,63
37.15000,63
37.15833,63
37.16667,63
37.17500,64
37.18333,64
37.19167,64
37.20000,65
37.20833,66
37.21667,66
37.22500,67
37.23333,67
37.24167,67
37.25000,67
37.25833,67
37.26667,67
37.27500,67
37.28333,67
37.29167,67
37.30000,67
37.30833,67
37.31667,67
37.32500,68
37.33333,68
37.34167,68
37.35000,68
37.35833,68
37.36667,68
37.37500,68
37.38333,67
37.39167,67
37.40000,67
37.40833,67
37.41667,67
37.42500,66
37.43333,66
37.44167,65
37.45000,65
37.45833,65
37.46667,65
37.47500,64
37.48333,64
37.49167,63
37.50000,63
37.50833,62
37.51667,62
37.52500,61
37.53333,61
37.54167,60
37.55000,60
37.55833,59
37.56667,59
37.57500,58
37.58333,58
37.59167,58
37.60000,57
37.60833,57
37.61667,56
37.62500,56
37.63333,56
37.64167,55
37.65000,55
37.65833,54
37.66667,54
37.67500,54
37.68333,54
37.69167,54
37.70000,54
37.70833,54
37.71667,54
37.72500,54
37.73333,54
37.74167,54
37.75000,53
37.75833,54
37.76667,54
37.77500,54
37.78333,54
37.79167,54
37.80000,54
37.80833,54
37.81667,54
37.82500,54
37.83333,54
37.84167,54
37.85000,54
37.85833,55
37.86667,54
37.87500,54
37.88333,54
37.89167,54
37.90000,54
37.90833,54
37.91667,54
37.92500,54
37.93333,53
37.94167,53
37.95000,52
37.95833,52
37.96667,51
37.97500,51
37.98333,51
37.99167,50
38.00000,50
38.00833,50
38.01667,49
38.02500,49
38.03333,48
38.04167,48
38.05000,47
38.05833,47
38.06667,47
38.07500,46
38.08333,46
38.09167,46
38.10000,45
38.10833,45
38.11667,45
38.12500,44
38.13333,44
38.14167,43
38.15000,43
38.15833,42
38.16667,42
38.17500,41
38.18333,42
38.19167,42
38.20000,42
38.20833,41
38.21667,41
38.22500,41
38.23333,41
38.24167,41
38.25000,41
38.25833,41
38.26667,41
38.27500,41
38.28333,41
38.29167,41
38.30000,41
38.30833,42
38.31667,43
38.32500,43
38.33333,44
38.34167,44
38.35000,45
38.35833,45
38.36667,46
38.37500,46
38.38333,47
38.39167,48
38.40000,49
38.40833,50
38.41667,51
38.42500,52
38.43333,53
38.44167,55
38.45000,56
38.45833,57
38.46667,58
38.47500,59
38.48333,60
38.49167,61
38.50000,61
38.50833,62
38.51667,63
38.52500,64
38.53333,65
38.54167,66
38.55000,67
38.55833,68
38.56667,68
38.57500,69
38.58333,70
38.59167,71
38.60000,72
38.60833,73
38.61667,74
38.62500,74
38.63333,75
38.64167,75
38.65000,76
38.65833,77
38.66667,77
38.67500,77
38.68333,78
38.69167,79
38.70000,79
38.70833,79
38.71667,80
38.72500,80
38.73333,80
38.74167,81
38.75000,81
38.75833,81
38.76667,81
38.77500,82
38.78333,81
38.79167,81
38.80000,81
38.80833,81
38.81667,81
38.82500,80
38.83333,80
38.84167,80
38.85000,79
38.85833,79
38.86667,79
38.87500,79
38.88333,79
38.89167,78
38.90000,78
38.90833,78
38.91667,78
38.92500,78
38.93333,77
38.94167,76
38.95000,76
38.95833,75
38.96667,74
38.97500,74
38.98333,74
38.99167,74
39.00000,73
39.00833,73
39.01667,72
39.02500,72
39.03333,71
39.04167,70
39.05000,70
39.05833,69
39.06667,69
39.07500,68
39.08333,67
39.09167,66
39.10000,66
39.10833,65
39.11667,64
39.12500,64
39.13333,64
39.14167,63
39.15000,63
39.15833,62
39.16667,62
39.17500,61
39.18333,61
39.19167,60
39.20000,60
39.20833,59
39.21667,58
39.22500,58
39.23333,57
39.24167,57
39.25000,57
39.25833,57
39.26667,56
39.27500,56
39.28333,55
39.29167,54
39.30000,54
39.30833,54
39.31667,54
39.32500,53
39.33333,53
39.34167,53
39.35000,53
39.35833,52
39.36667,52
39.37500,52
39.38333,52
39.39167,52
39.40000,52
39.40833,52
39.41667,52
39.42500,52
39.43333,52
39.44167,52
39.45000,53
39.45833,53
39.46667,53
39.47500,53
39.48333,54
39.49167,54
39.50000,55
39.50833,55
39.51667,56
39.52500,56
39.53333,56
39.54167,56
39.55000,57
39.55833,57
39.56667,57
39.57500,58
39.58333,58
39.59167,59
39.60000,59
39.60833,59
39.61667,60
39.62500,60
39.63333,61
39.64167,61
39.65000,61
39.65833,62
39.66667,62
39.67500,62
39.68333,63
39.69167,63
39.70000,64
39.70833,64
39.71667,64
39.72500,65
39.73333,65
39.74167,65
39.75000,65
39.75833,65
39.76667,65
39.77500,66
39.78333,66
39.79167,66
39.80000,66
39.80833,67
39.81667,67
39.82500,67
39.83333,67
39.84167,67
39.85000,67
39.85833,67
39.86667,67
39.87500,67
39.88333,67
39.89167,68
39.90000,68
39.90833,68
39.91667,68
39.92500,68
39.93333,67
39.94167,67
39.95000,67
39.95833,67
39.96667,67
39.97500,67
39.98333,67
39.99167,66
40.00000,66

