[Header]
Application Name,LabSolutions
Version,5.97 SP1
Data File Name,C:\Users\cremerlab\Desktop\griffin\2021-04-05_NC_DM_calibration\2021-04-05_NC_DM_2.5mM_calibration_452021_003_016.lcd
Output Date,4/6/2021
Output Time,4:31:00 AM

[File Information]
Type,Data File
Generated,4/6/2021 3:50:41 AM
Generated by,System Administrator
Modified,4/6/2021 4:31:00 AM
Modified by,System Administrator

[Sample Information]
Operator Name,System Administrator
Acquired,4/6/2021 3:51:00 AM
Sample Type,1:Standard
Level,3
Sample Name,2021-04-05_DM_glucose_glycerol_acetate_20mM
Sample ID,003
ISTD Amount1,1
ISTD Amount2,1
ISTD Amount3,1
ISTD Amount4,1
ISTD Amount5,1
ISTD Amount6,1
ISTD Amount7,1
ISTD Amount8,1
ISTD Amount9,1
ISTD Amount10,1
ISTD Amount11,1
ISTD Amount12,1
ISTD Amount13,1
ISTD Amount14,1
ISTD Amount15,1
ISTD Amount16,1
ISTD Amount17,1
ISTD Amount18,1
ISTD Amount19,1
ISTD Amount20,1
ISTD Amount21,1
ISTD Amount22,1
ISTD Amount23,1
ISTD Amount24,1
ISTD Amount25,1
ISTD Amount26,1
ISTD Amount27,1
ISTD Amount28,1
ISTD Amount29,1
ISTD Amount30,1
ISTD Amount31,1
ISTD Amount32,1
Sample Amount,1
Dilution Factor,1
Vial#,21
Injection Volume,20

[Original Files]
Data File,C:\Users\cremerlab\Desktop\griffin\2021-04-05_NC_DM_calibration\2021-04-05_NC_DM_2.5mM_calibration_452021_003_016.lcd
Method File,C:\Users\cremerlab\Desktop\griffin\2021-04-05_NC_DM_calibration\2021-04-05_2.5mM_mobile.lcm
Batch File,C:\Users\cremerlab\Desktop\griffin\2021-04-05_NC_DM_calibration\2021-04-05_NC_DM_2.5mM_calibration.lcb
Report Format File,c:\LabSolutions\System\DEFAULT.lsr

[File Description]


[Configuration]
Instrument Name,HPLC-PC-Instrument1
Instrument #,1
Line #,1
# of Detectors,2
Detector ID,Detector A,Detector B
Detector Name,Detector A,Detector B
# of Channels,1,1

[Peak Table(Detector A)]
# of Peaks,0

[Peak Table(Detector B)]
# of Peaks,6
Peak#,R.Time,I.Time,F.Time,Area,Height,A/H,Conc.,Mark,ID#,Name,k',Plate #,Plate Ht.,Tailing,Resolution,Sep.Factor,Area Ratio,Height Ratio,Conc. %,Norm Conc.
1,10.887,10.417,11.750,272416,15955,17.074,0.000,   ,,,0.000,9212,16.284,1.033,0.000,0.000,0,0,0.000,0.000
2,13.996,12.550,14.258,1946133,49768,39.104,0.000,   ,,,0.285,2998,50.040,0.000,4.211,0.000,0,0,0.000,0.000
3,14.330,14.258,15.017,178711,11495,15.547,0.000, V ,,,0.316,1183,126.806,0.000,0.249,1.108,0,0,0.000,0.000
4,15.673,15.017,17.683,2537509,102832,24.676,0.000, V ,,,0.440,9420,15.924,1.152,1.161,1.390,0,0,0.000,0.000
5,22.060,21.317,23.208,693163,25110,27.605,0.000,   ,,,1.026,14671,10.225,1.093,9.294,2.335,0,0,0.000,0.000
6,25.028,24.308,26.000,270852,9082,29.823,0.000,   ,,,1.299,16061,9.339,1.076,3.908,1.266,0,0,0.000,0.000

[LC Chromatogram(Detector B-Ch1)]
Interval(msec),500
# of Points,4801
Start Time(min),0.000
End Time(min),40.000
Intensity Units,mV
Intensity Multiplier,0.001
R.Time (min),Intensity
0.00000,12
0.00833,12
0.01667,2
0.02500,0
0.03333,1
0.04167,1
0.05000,2
0.05833,3
0.06667,3
0.07500,3
0.08333,3
0.09167,4
0.10000,4
0.10833,5
0.11667,5
0.12500,5
0.13333,6
0.14167,6
0.15000,6
0.15833,7
0.16667,7
0.17500,7
0.18333,7
0.19167,8
0.20000,8
0.20833,8
0.21667,8
0.22500,8
0.23333,8
0.24167,8
0.25000,7
0.25833,7
0.26667,7
0.27500,6
0.28333,5
0.29167,5
0.30000,4
0.30833,4
0.31667,3
0.32500,3
0.33333,2
0.34167,2
0.35000,1
0.35833,1
0.36667,0
0.37500,-0
0.38333,-1
0.39167,-1
0.40000,-1
0.40833,-2
0.41667,-2
0.42500,-3
0.43333,-3
0.44167,-4
0.45000,-4
0.45833,-5
0.46667,-5
0.47500,-6
0.48333,-7
0.49167,-7
0.50000,-7
0.50833,-8
0.51667,-8
0.52500,-8
0.53333,-9
0.54167,-10
0.55000,-10
0.55833,-11
0.56667,-11
0.57500,-11
0.58333,-12
0.59167,-12
0.60000,-12
0.60833,-13
0.61667,-13
0.62500,-14
0.63333,-14
0.64167,-15
0.65000,-15
0.65833,-15
0.66667,-16
0.67500,-16
0.68333,-16
0.69167,-16
0.70000,-16
0.70833,-16
0.71667,-17
0.72500,-17
0.73333,-18
0.74167,-18
0.75000,-18
0.75833,-18
0.76667,-19
0.77500,-19
0.78333,-20
0.79167,-20
0.80000,-20
0.80833,-19
0.81667,-19
0.82500,-19
0.83333,-19
0.84167,-19
0.85000,-19
0.85833,-19
0.86667,-19
0.87500,-20
0.88333,-20
0.89167,-20
0.90000,-20
0.90833,-20
0.91667,-20
0.92500,-20
0.93333,-19
0.94167,-19
0.95000,-19
0.95833,-19
0.96667,-18
0.97500,-18
0.98333,-18
0.99167,-17
1.00000,-17
1.00833,-17
1.01667,-16
1.02500,-16
1.03333,-16
1.04167,-16
1.05000,-16
1.05833,-15
1.06667,-14
1.07500,-14
1.08333,-13
1.09167,-13
1.10000,-12
1.10833,-12
1.11667,-11
1.12500,-10
1.13333,-10
1.14167,-9
1.15000,-8
1.15833,-8
1.16667,-7
1.17500,-7
1.18333,-6
1.19167,-6
1.20000,-5
1.20833,-4
1.21667,-4
1.22500,-3
1.23333,-3
1.24167,-2
1.25000,-1
1.25833,-0
1.26667,1
1.27500,1
1.28333,2
1.29167,3
1.30000,3
1.30833,4
1.31667,4
1.32500,4
1.33333,4
1.34167,4
1.35000,5
1.35833,5
1.36667,5
1.37500,6
1.38333,6
1.39167,6
1.40000,7
1.40833,7
1.41667,7
1.42500,7
1.43333,8
1.44167,8
1.45000,9
1.45833,9
1.46667,9
1.47500,9
1.48333,9
1.49167,9
1.50000,9
1.50833,9
1.51667,9
1.52500,9
1.53333,10
1.54167,10
1.55000,9
1.55833,9
1.56667,8
1.57500,8
1.58333,8
1.59167,8
1.60000,8
1.60833,8
1.61667,8
1.62500,8
1.63333,8
1.64167,8
1.65000,8
1.65833,8
1.66667,8
1.67500,8
1.68333,8
1.69167,8
1.70000,7
1.70833,7
1.71667,7
1.72500,7
1.73333,7
1.74167,7
1.75000,7
1.75833,7
1.76667,6
1.77500,6
1.78333,6
1.79167,6
1.80000,6
1.80833,6
1.81667,6
1.82500,6
1.83333,7
1.84167,7
1.85000,7
1.85833,6
1.86667,7
1.87500,6
1.88333,6
1.89167,6
1.90000,7
1.90833,7
1.91667,7
1.92500,7
1.93333,7
1.94167,7
1.95000,7
1.95833,7
1.96667,7
1.97500,7
1.98333,7
1.99167,7
2.00000,7
2.00833,7
2.01667,7
2.02500,7
2.03333,7
2.04167,7
2.05000,8
2.05833,8
2.06667,8
2.07500,8
2.08333,8
2.09167,8
2.10000,8
2.10833,8
2.11667,8
2.12500,7
2.13333,7
2.14167,7
2.15000,7
2.15833,6
2.16667,6
2.17500,6
2.18333,6
2.19167,6
2.20000,5
2.20833,5
2.21667,5
2.22500,4
2.23333,4
2.24167,4
2.25000,3
2.25833,3
2.26667,2
2.27500,2
2.28333,2
2.29167,2
2.30000,2
2.30833,2
2.31667,2
2.32500,1
2.33333,1
2.34167,1
2.35000,1
2.35833,1
2.36667,1
2.37500,0
2.38333,0
2.39167,0
2.40000,0
2.40833,0
2.41667,0
2.42500,-0
2.43333,-0
2.44167,-0
2.45000,-0
2.45833,-0
2.46667,0
2.47500,1
2.48333,1
2.49167,1
2.50000,2
2.50833,2
2.51667,3
2.52500,3
2.53333,3
2.54167,3
2.55000,3
2.55833,4
2.56667,4
2.57500,5
2.58333,6
2.59167,6
2.60000,6
2.60833,7
2.61667,7
2.62500,8
2.63333,9
2.64167,9
2.65000,9
2.65833,10
2.66667,10
2.67500,11
2.68333,11
2.69167,11
2.70000,12
2.70833,12
2.71667,12
2.72500,13
2.73333,13
2.74167,14
2.75000,14
2.75833,14
2.76667,15
2.77500,15
2.78333,15
2.79167,15
2.80000,15
2.80833,15
2.81667,15
2.82500,15
2.83333,15
2.84167,15
2.85000,15
2.85833,15
2.86667,15
2.87500,15
2.88333,15
2.89167,15
2.90000,15
2.90833,15
2.91667,14
2.92500,14
2.93333,14
2.94167,13
2.95000,13
2.95833,13
2.96667,12
2.97500,12
2.98333,12
2.99167,11
3.00000,11
3.00833,10
3.01667,10
3.02500,9
3.03333,9
3.04167,8
3.05000,8
3.05833,7
3.06667,7
3.07500,6
3.08333,6
3.09167,6
3.10000,5
3.10833,5
3.11667,4
3.12500,4
3.13333,3
3.14167,3
3.15000,2
3.15833,2
3.16667,1
3.17500,1
3.18333,1
3.19167,0
3.20000,0
3.20833,-0
3.21667,-1
3.22500,-1
3.23333,-2
3.24167,-2
3.25000,-3
3.25833,-4
3.26667,-4
3.27500,-5
3.28333,-5
3.29167,-5
3.30000,-6
3.30833,-6
3.31667,-7
3.32500,-7
3.33333,-7
3.34167,-7
3.35000,-7
3.35833,-7
3.36667,-7
3.37500,-7
3.38333,-7
3.39167,-7
3.40000,-8
3.40833,-8
3.41667,-8
3.42500,-8
3.43333,-8
3.44167,-8
3.45000,-8
3.45833,-8
3.46667,-8
3.47500,-8
3.48333,-8
3.49167,-8
3.50000,-8
3.50833,-9
3.51667,-9
3.52500,-9
3.53333,-9
3.54167,-9
3.55000,-10
3.55833,-10
3.56667,-10
3.57500,-10
3.58333,-10
3.59167,-10
3.60000,-10
3.60833,-10
3.61667,-10
3.62500,-10
3.63333,-10
3.64167,-10
3.65000,-10
3.65833,-9
3.66667,-9
3.67500,-9
3.68333,-9
3.69167,-9
3.70000,-9
3.70833,-8
3.71667,-8
3.72500,-8
3.73333,-8
3.74167,-8
3.75000,-7
3.75833,-7
3.76667,-7
3.77500,-7
3.78333,-6
3.79167,-6
3.80000,-6
3.80833,-6
3.81667,-5
3.82500,-5
3.83333,-4
3.84167,-4
3.85000,-4
3.85833,-3
3.86667,-3
3.87500,-3
3.88333,-2
3.89167,-2
3.90000,-2
3.90833,-1
3.91667,-1
3.92500,-0
3.93333,-0
3.94167,0
3.95000,1
3.95833,1
3.96667,1
3.97500,2
3.98333,2
3.99167,3
4.00000,4
4.00833,4
4.01667,5
4.02500,5
4.03333,5
4.04167,6
4.05000,6
4.05833,6
4.06667,6
4.07500,6
4.08333,7
4.09167,7
4.10000,7
4.10833,7
4.11667,8
4.12500,9
4.13333,9
4.14167,10
4.15000,11
4.15833,11
4.16667,12
4.17500,12
4.18333,13
4.19167,13
4.20000,13
4.20833,13
4.21667,14
4.22500,14
4.23333,14
4.24167,14
4.25000,15
4.25833,15
4.26667,15
4.27500,15
4.28333,16
4.29167,16
4.30000,16
4.30833,16
4.31667,16
4.32500,16
4.33333,16
4.34167,16
4.35000,16
4.35833,16
4.36667,16
4.37500,16
4.38333,16
4.39167,16
4.40000,17
4.40833,17
4.41667,17
4.42500,17
4.43333,16
4.44167,16
4.45000,16
4.45833,16
4.46667,16
4.47500,16
4.48333,16
4.49167,16
4.50000,16
4.50833,16
4.51667,16
4.52500,16
4.53333,17
4.54167,16
4.55000,16
4.55833,16
4.56667,15
4.57500,15
4.58333,15
4.59167,14
4.60000,14
4.60833,14
4.61667,14
4.62500,14
4.63333,14
4.64167,13
4.65000,13
4.65833,13
4.66667,13
4.67500,13
4.68333,13
4.69167,13
4.70000,13
4.70833,12
4.71667,12
4.72500,11
4.73333,11
4.74167,11
4.75000,11
4.75833,11
4.76667,10
4.77500,10
4.78333,10
4.79167,9
4.80000,9
4.80833,9
4.81667,9
4.82500,8
4.83333,8
4.84167,7
4.85000,7
4.85833,7
4.86667,6
4.87500,6
4.88333,6
4.89167,6
4.90000,5
4.90833,4
4.91667,4
4.92500,3
4.93333,3
4.94167,2
4.95000,2
4.95833,1
4.96667,1
4.97500,1
4.98333,0
4.99167,-0
5.00000,-1
5.00833,-1
5.01667,-1
5.02500,-2
5.03333,-2
5.04167,-3
5.05000,-3
5.05833,-3
5.06667,-3
5.07500,-3
5.08333,-3
5.09167,-3
5.10000,-3
5.10833,-3
5.11667,-3
5.12500,-3
5.13333,-3
5.14167,-3
5.15000,-3
5.15833,-2
5.16667,-2
5.17500,-2
5.18333,-2
5.19167,-2
5.20000,-2
5.20833,-1
5.21667,-1
5.22500,-0
5.23333,0
5.24167,1
5.25000,1
5.25833,2
5.26667,2
5.27500,3
5.28333,3
5.29167,4
5.30000,5
5.30833,5
5.31667,5
5.32500,6
5.33333,6
5.34167,7
5.35000,7
5.35833,7
5.36667,7
5.37500,7
5.38333,7
5.39167,8
5.40000,8
5.40833,8
5.41667,8
5.42500,8
5.43333,9
5.44167,9
5.45000,10
5.45833,10
5.46667,10
5.47500,10
5.48333,10
5.49167,11
5.50000,11
5.50833,11
5.51667,11
5.52500,12
5.53333,12
5.54167,12
5.55000,11
5.55833,11
5.56667,11
5.57500,11
5.58333,11
5.59167,11
5.60000,11
5.60833,11
5.61667,11
5.62500,11
5.63333,10
5.64167,10
5.65000,10
5.65833,11
5.66667,11
5.67500,11
5.68333,11
5.69167,11
5.70000,11
5.70833,11
5.71667,11
5.72500,11
5.73333,11
5.74167,11
5.75000,11
5.75833,11
5.76667,11
5.77500,12
5.78333,12
5.79167,12
5.80000,12
5.80833,12
5.81667,12
5.82500,12
5.83333,12
5.84167,12
5.85000,12
5.85833,12
5.86667,12
5.87500,12
5.88333,12
5.89167,12
5.90000,12
5.90833,12
5.91667,12
5.92500,12
5.93333,11
5.94167,11
5.95000,11
5.95833,11
5.96667,11
5.97500,10
5.98333,9
5.99167,9
6.00000,9
6.00833,9
6.01667,9
6.02500,9
6.03333,9
6.04167,9
6.05000,10
6.05833,10
6.06667,9
6.07500,9
6.08333,9
6.09167,9
6.10000,9
6.10833,9
6.11667,9
6.12500,9
6.13333,10
6.14167,10
6.15000,10
6.15833,10
6.16667,10
6.17500,11
6.18333,11
6.19167,11
6.20000,11
6.20833,12
6.21667,12
6.22500,12
6.23333,12
6.24167,13
6.25000,13
6.25833,14
6.26667,15
6.27500,15
6.28333,15
6.29167,15
6.30000,16
6.30833,16
6.31667,17
6.32500,17
6.33333,17
6.34167,17
6.35000,17
6.35833,18
6.36667,18
6.37500,18
6.38333,17
6.39167,18
6.40000,18
6.40833,18
6.41667,18
6.42500,19
6.43333,19
6.44167,19
6.45000,19
6.45833,19
6.46667,19
6.47500,19
6.48333,19
6.49167,19
6.50000,19
6.50833,19
6.51667,18
6.52500,18
6.53333,18
6.54167,18
6.55000,18
6.55833,17
6.56667,17
6.57500,17
6.58333,17
6.59167,17
6.60000,17
6.60833,17
6.61667,17
6.62500,16
6.63333,16
6.64167,15
6.65000,15
6.65833,15
6.66667,15
6.67500,15
6.68333,15
6.69167,15
6.70000,15
6.70833,15
6.71667,14
6.72500,14
6.73333,13
6.74167,13
6.75000,13
6.75833,13
6.76667,12
6.77500,12
6.78333,12
6.79167,12
6.80000,12
6.80833,12
6.81667,12
6.82500,12
6.83333,12
6.84167,12
6.85000,11
6.85833,11
6.86667,11
6.87500,11
6.88333,11
6.89167,11
6.90000,10
6.90833,10
6.91667,11
6.92500,11
6.93333,11
6.94167,11
6.95000,10
6.95833,10
6.96667,10
6.97500,10
6.98333,10
6.99167,10
7.00000,11
7.00833,11
7.01667,12
7.02500,12
7.03333,12
7.04167,12
7.05000,12
7.05833,12
7.06667,13
7.07500,13
7.08333,13
7.09167,13
7.10000,13
7.10833,13
7.11667,13
7.12500,13
7.13333,12
7.14167,12
7.15000,13
7.15833,13
7.16667,13
7.17500,13
7.18333,14
7.19167,14
7.20000,14
7.20833,14
7.21667,13
7.22500,13
7.23333,13
7.24167,13
7.25000,13
7.25833,13
7.26667,13
7.27500,13
7.28333,13
7.29167,14
7.30000,14
7.30833,14
7.31667,14
7.32500,14
7.33333,14
7.34167,14
7.35000,14
7.35833,13
7.36667,13
7.37500,13
7.38333,13
7.39167,13
7.40000,12
7.40833,12
7.41667,12
7.42500,12
7.43333,12
7.44167,12
7.45000,12
7.45833,12
7.46667,12
7.47500,13
7.48333,12
7.49167,13
7.50000,13
7.50833,12
7.51667,12
7.52500,13
7.53333,13
7.54167,13
7.55000,13
7.55833,13
7.56667,13
7.57500,13
7.58333,13
7.59167,13
7.60000,13
7.60833,13
7.61667,12
7.62500,12
7.63333,12
7.64167,12
7.65000,12
7.65833,12
7.66667,12
7.67500,12
7.68333,12
7.69167,11
7.70000,11
7.70833,11
7.71667,10
7.72500,10
7.73333,10
7.74167,10
7.75000,10
7.75833,10
7.76667,9
7.77500,9
7.78333,10
7.79167,10
7.80000,9
7.80833,9
7.81667,9
7.82500,9
7.83333,9
7.84167,9
7.85000,9
7.85833,9
7.86667,9
7.87500,8
7.88333,9
7.89167,9
7.90000,9
7.90833,9
7.91667,9
7.92500,9
7.93333,9
7.94167,10
7.95000,10
7.95833,10
7.96667,10
7.97500,10
7.98333,10
7.99167,11
8.00000,11
8.00833,12
8.01667,13
8.02500,13
8.03333,14
8.04167,14
8.05000,14
8.05833,15
8.06667,15
8.07500,16
8.08333,16
8.09167,17
8.10000,17
8.10833,18
8.11667,18
8.12500,18
8.13333,18
8.14167,19
8.15000,19
8.15833,20
8.16667,20
8.17500,20
8.18333,20
8.19167,21
8.20000,21
8.20833,21
8.21667,20
8.22500,20
8.23333,20
8.24167,20
8.25000,20
8.25833,20
8.26667,20
8.27500,20
8.28333,19
8.29167,19
8.30000,19
8.30833,19
8.31667,19
8.32500,19
8.33333,18
8.34167,18
8.35000,18
8.35833,18
8.36667,18
8.37500,17
8.38333,17
8.39167,16
8.40000,16
8.40833,16
8.41667,16
8.42500,16
8.43333,16
8.44167,15
8.45000,15
8.45833,14
8.46667,14
8.47500,13
8.48333,13
8.49167,12
8.50000,12
8.50833,12
8.51667,12
8.52500,12
8.53333,12
8.54167,11
8.55000,11
8.55833,10
8.56667,10
8.57500,10
8.58333,10
8.59167,9
8.60000,9
8.60833,9
8.61667,9
8.62500,9
8.63333,8
8.64167,8
8.65000,8
8.65833,8
8.66667,8
8.67500,8
8.68333,8
8.69167,7
8.70000,7
8.70833,7
8.71667,7
8.72500,7
8.73333,7
8.74167,7
8.75000,7
8.75833,7
8.76667,7
8.77500,7
8.78333,7
8.79167,7
8.80000,7
8.80833,7
8.81667,7
8.82500,8
8.83333,8
8.84167,8
8.85000,8
8.85833,8
8.86667,8
8.87500,8
8.88333,8
8.89167,8
8.90000,9
8.90833,9
8.91667,10
8.92500,10
8.93333,10
8.94167,11
8.95000,11
8.95833,12
8.96667,12
8.97500,13
8.98333,13
8.99167,13
9.00000,13
9.00833,13
9.01667,14
9.02500,14
9.03333,15
9.04167,15
9.05000,15
9.05833,16
9.06667,16
9.07500,16
9.08333,17
9.09167,17
9.10000,17
9.10833,17
9.11667,18
9.12500,18
9.13333,19
9.14167,19
9.15000,19
9.15833,19
9.16667,19
9.17500,19
9.18333,19
9.19167,19
9.20000,19
9.20833,19
9.21667,19
9.22500,19
9.23333,19
9.24167,18
9.25000,18
9.25833,18
9.26667,18
9.27500,18
9.28333,18
9.29167,19
9.30000,18
9.30833,18
9.31667,18
9.32500,17
9.33333,17
9.34167,16
9.35000,16
9.35833,15
9.36667,15
9.37500,15
9.38333,14
9.39167,14
9.40000,13
9.40833,13
9.41667,12
9.42500,12
9.43333,12
9.44167,11
9.45000,11
9.45833,11
9.46667,11
9.47500,11
9.48333,11
9.49167,11
9.50000,11
9.50833,10
9.51667,10
9.52500,11
9.53333,11
9.54167,11
9.55000,11
9.55833,12
9.56667,12
9.57500,12
9.58333,12
9.59167,13
9.60000,13
9.60833,13
9.61667,13
9.62500,14
9.63333,14
9.64167,15
9.65000,15
9.65833,15
9.66667,16
9.67500,16
9.68333,17
9.69167,18
9.70000,19
9.70833,20
9.71667,20
9.72500,21
9.73333,21
9.74167,21
9.75000,22
9.75833,22
9.76667,23
9.77500,23
9.78333,23
9.79167,24
9.80000,24
9.80833,25
9.81667,25
9.82500,26
9.83333,26
9.84167,27
9.85000,27
9.85833,27
9.86667,27
9.87500,27
9.88333,27
9.89167,27
9.90000,27
9.90833,28
9.91667,28
9.92500,28
9.93333,28
9.94167,28
9.95000,28
9.95833,27
9.96667,27
9.97500,27
9.98333,26
9.99167,26
10.00000,26
10.00833,26
10.01667,26
10.02500,26
10.03333,26
10.04167,26
10.05000,26
10.05833,26
10.06667,26
10.07500,26
10.08333,26
10.09167,25
10.10000,25
10.10833,25
10.11667,25
10.12500,25
10.13333,25
10.14167,25
10.15000,24
10.15833,24
10.16667,24
10.17500,24
10.18333,23
10.19167,23
10.20000,23
10.20833,24
10.21667,24
10.22500,24
10.23333,24
10.24167,24
10.25000,23
10.25833,23
10.26667,23
10.27500,24
10.28333,24
10.29167,24
10.30000,24
10.30833,24
10.31667,24
10.32500,24
10.33333,24
10.34167,24
10.35000,24
10.35833,24
10.36667,24
10.37500,24
10.38333,24
10.39167,25
10.40000,25
10.40833,25
10.41667,25
10.42500,26
10.43333,27
10.44167,28
10.45000,29
10.45833,31
10.46667,33
10.47500,37
10.48333,41
10.49167,47
10.50000,54
10.50833,64
10.51667,77
10.52500,94
10.53333,116
10.54167,143
10.55000,178
10.55833,221
10.56667,274
10.57500,338
10.58333,417
10.59167,510
10.60000,622
10.60833,753
10.61667,906
10.62500,1083
10.63333,1286
10.64167,1519
10.65000,1782
10.65833,2078
10.66667,2408
10.67500,2774
10.68333,3177
10.69167,3616
10.70000,4092
10.70833,4604
10.71667,5152
10.72500,5732
10.73333,6344
10.74167,6982
10.75000,7645
10.75833,8325
10.76667,9020
10.77500,9722
10.78333,10424
10.79167,11119
10.80000,11800
10.80833,12458
10.81667,13084
10.82500,13670
10.83333,14208
10.84167,14688
10.85000,15103
10.85833,15445
10.86667,15708
10.87500,15886
10.88333,15977
10.89167,15977
10.90000,15885
10.90833,15703
10.91667,15433
10.92500,15079
10.93333,14647
10.94167,14145
10.95000,13580
10.95833,12963
10.96667,12304
10.97500,11613
10.98333,10900
10.99167,10176
11.00000,9451
11.00833,8733
11.01667,8031
11.02500,7350
11.03333,6698
11.04167,6077
11.05000,5492
11.05833,4944
11.06667,4437
11.07500,3968
11.08333,3539
11.09167,3148
11.10000,2793
11.10833,2473
11.11667,2186
11.12500,1929
11.13333,1700
11.14167,1497
11.15000,1318
11.15833,1159
11.16667,1020
11.17500,897
11.18333,789
11.19167,694
11.20000,612
11.20833,540
11.21667,477
11.22500,423
11.23333,376
11.24167,335
11.25000,299
11.25833,268
11.26667,241
11.27500,218
11.28333,198
11.29167,181
11.30000,166
11.30833,152
11.31667,141
11.32500,132
11.33333,123
11.34167,116
11.35000,110
11.35833,104
11.36667,99
11.37500,95
11.38333,91
11.39167,88
11.40000,85
11.40833,81
11.41667,78
11.42500,76
11.43333,73
11.44167,71
11.45000,68
11.45833,66
11.46667,64
11.47500,61
11.48333,59
11.49167,57
11.50000,55
11.50833,53
11.51667,51
11.52500,49
11.53333,47
11.54167,45
11.55000,43
11.55833,41
11.56667,39
11.57500,37
11.58333,35
11.59167,34
11.60000,32
11.60833,31
11.61667,29
11.62500,28
11.63333,26
11.64167,25
11.65000,23
11.65833,22
11.66667,21
11.67500,20
11.68333,20
11.69167,19
11.70000,18
11.70833,18
11.71667,17
11.72500,16
11.73333,16
11.74167,15
11.75000,15
11.75833,15
11.76667,15
11.77500,15
11.78333,16
11.79167,16
11.80000,16
11.80833,16
11.81667,16
11.82500,16
11.83333,17
11.84167,17
11.85000,18
11.85833,18
11.86667,18
11.87500,18
11.88333,19
11.89167,19
11.90000,20
11.90833,21
11.91667,21
11.92500,22
11.93333,23
11.94167,23
11.95000,24
11.95833,25
11.96667,26
11.97500,26
11.98333,27
11.99167,28
12.00000,28
12.00833,28
12.01667,28
12.02500,29
12.03333,29
12.04167,29
12.05000,29
12.05833,30
12.06667,30
12.07500,30
12.08333,30
12.09167,31
12.10000,31
12.10833,31
12.11667,31
12.12500,31
12.13333,31
12.14167,31
12.15000,30
12.15833,30
12.16667,30
12.17500,30
12.18333,30
12.19167,30
12.20000,29
12.20833,28
12.21667,28
12.22500,27
12.23333,27
12.24167,27
12.25000,26
12.25833,26
12.26667,25
12.27500,25
12.28333,24
12.29167,24
12.30000,23
12.30833,23
12.31667,22
12.32500,22
12.33333,21
12.34167,21
12.35000,20
12.35833,20
12.36667,20
12.37500,19
12.38333,19
12.39167,18
12.40000,17
12.40833,17
12.41667,17
12.42500,16
12.43333,16
12.44167,16
12.45000,16
12.45833,16
12.46667,15
12.47500,15
12.48333,15
12.49167,16
12.50000,16
12.50833,16
12.51667,16
12.52500,16
12.53333,17
12.54167,17
12.55000,18
12.55833,19
12.56667,19
12.57500,20
12.58333,22
12.59167,24
12.60000,26
12.60833,29
12.61667,32
12.62500,36
12.63333,42
12.64167,48
12.65000,55
12.65833,64
12.66667,75
12.67500,88
12.68333,103
12.69167,121
12.70000,143
12.70833,168
12.71667,196
12.72500,230
12.73333,267
12.74167,309
12.75000,356
12.75833,409
12.76667,468
12.77500,533
12.78333,604
12.79167,681
12.80000,765
12.80833,856
12.81667,953
12.82500,1058
12.83333,1169
12.84167,1287
12.85000,1412
12.85833,1543
12.86667,1682
12.87500,1826
12.88333,1977
12.89167,2134
12.90000,2297
12.90833,2465
12.91667,2640
12.92500,2819
12.93333,3005
12.94167,3195
12.95000,3391
12.95833,3591
12.96667,3796
12.97500,4006
12.98333,4220
12.99167,4438
13.00000,4660
13.00833,4886
13.01667,5116
13.02500,5349
13.03333,5585
13.04167,5825
13.05000,6069
13.05833,6316
13.06667,6566
13.07500,6819
13.08333,7075
13.09167,7334
13.10000,7596
13.10833,7861
13.11667,8128
13.12500,8399
13.13333,8671
13.14167,8946
13.15000,9224
13.15833,9504
13.16667,9787
13.17500,10072
13.18333,10360
13.19167,10650
13.20000,10943
13.20833,11238
13.21667,11536
13.22500,11836
13.23333,12138
13.24167,12443
13.25000,12749
13.25833,13058
13.26667,13369
13.27500,13683
13.28333,13999
13.29167,14317
13.30000,14638
13.30833,14961
13.31667,15286
13.32500,15614
13.33333,15944
13.34167,16277
13.35000,16612
13.35833,16949
13.36667,17289
13.37500,17631
13.38333,17976
13.39167,18323
13.40000,18672
13.40833,19024
13.41667,19379
13.42500,19736
13.43333,20096
13.44167,20458
13.45000,20823
13.45833,21191
13.46667,21561
13.47500,21934
13.48333,22310
13.49167,22689
13.50000,23070
13.50833,23455
13.51667,23842
13.52500,24231
13.53333,24624
13.54167,25019
13.55000,25417
13.55833,25818
13.56667,26222
13.57500,26629
13.58333,27040
13.59167,27453
13.60000,27868
13.60833,28287
13.61667,28709
13.62500,29134
13.63333,29563
13.64167,29994
13.65000,30428
13.65833,30865
13.66667,31306
13.67500,31749
13.68333,32197
13.69167,32647
13.70000,33101
13.70833,33558
13.71667,34018
13.72500,34482
13.73333,34949
13.74167,35419
13.75000,35892
13.75833,36368
13.76667,36849
13.77500,37333
13.78333,37820
13.79167,38311
13.80000,38806
13.80833,39304
13.81667,39806
13.82500,40311
13.83333,40819
13.84167,41331
13.85000,41847
13.85833,42367
13.86667,42890
13.87500,43416
13.88333,43946
13.89167,44480
13.90000,45017
13.90833,45557
13.91667,46097
13.92500,46636
13.93333,47169
13.94167,47692
13.95000,48194
13.95833,48664
13.96667,49086
13.97500,49439
13.98333,49701
13.99167,49843
14.00000,49838
14.00833,49657
14.01667,49274
14.02500,48667
14.03333,47819
14.04167,46723
14.05000,45379
14.05833,43798
14.06667,42000
14.07500,40014
14.08333,37877
14.09167,35630
14.10000,33318
14.10833,30987
14.11667,28681
14.12500,26441
14.13333,24303
14.14167,22298
14.15000,20447
14.15833,18768
14.16667,17271
14.17500,15958
14.18333,14828
14.19167,13875
14.20000,13088
14.20833,12456
14.21667,11965
14.22500,11600
14.23333,11344
14.24167,11181
14.25000,11096
14.25833,11074
14.26667,11099
14.27500,11157
14.28333,11236
14.29167,11324
14.30000,11411
14.30833,11488
14.31667,11547
14.32500,11580
14.33333,11584
14.34167,11553
14.35000,11487
14.35833,11381
14.36667,11237
14.37500,11054
14.38333,10835
14.39167,10581
14.40000,10295
14.40833,9981
14.41667,9641
14.42500,9281
14.43333,8903
14.44167,8513
14.45000,8113
14.45833,7709
14.46667,7303
14.47500,6900
14.48333,6502
14.49167,6111
14.50000,5731
14.50833,5363
14.51667,5009
14.52500,4670
14.53333,4346
14.54167,4040
14.55000,3750
14.55833,3478
14.56667,3223
14.57500,2985
14.58333,2763
14.59167,2558
14.60000,2367
14.60833,2191
14.61667,2029
14.62500,1880
14.63333,1743
14.64167,1617
14.65000,1503
14.65833,1398
14.66667,1303
14.67500,1215
14.68333,1136
14.69167,1063
14.70000,997
14.70833,936
14.71667,881
14.72500,831
14.73333,785
14.74167,743
14.75000,705
14.75833,670
14.76667,638
14.77500,609
14.78333,583
14.79167,558
14.80000,536
14.80833,516
14.81667,497
14.82500,480
14.83333,464
14.84167,449
14.85000,436
14.85833,423
14.86667,412
14.87500,401
14.88333,392
14.89167,384
14.90000,376
14.90833,369
14.91667,362
14.92500,355
14.93333,350
14.94167,345
14.95000,341
14.95833,337
14.96667,334
14.97500,331
14.98333,329
14.99167,328
15.00000,326
15.00833,326
15.01667,326
15.02500,326
15.03333,327
15.04167,328
15.05000,331
15.05833,334
15.06667,337
15.07500,342
15.08333,348
15.09167,354
15.10000,363
15.10833,373
15.11667,385
15.12500,399
15.13333,417
15.14167,438
15.15000,464
15.15833,494
15.16667,531
15.17500,576
15.18333,629
15.19167,693
15.20000,770
15.20833,863
15.21667,974
15.22500,1106
15.23333,1263
15.24167,1448
15.25000,1666
15.25833,1923
15.26667,2222
15.27500,2572
15.28333,2977
15.29167,3445
15.30000,3982
15.30833,4597
15.31667,5297
15.32500,6089
15.33333,6984
15.34167,7987
15.35000,9108
15.35833,10355
15.36667,11734
15.37500,13253
15.38333,14917
15.39167,16731
15.40000,18699
15.40833,20823
15.41667,23105
15.42500,25543
15.43333,28137
15.44167,30880
15.45000,33768
15.45833,36791
15.46667,39938
15.47500,43197
15.48333,46554
15.49167,49992
15.50000,53493
15.50833,57037
15.51667,60601
15.52500,64164
15.53333,67703
15.54167,71193
15.55000,74609
15.55833,77928
15.56667,81125
15.57500,84177
15.58333,87061
15.59167,89755
15.60000,92240
15.60833,94498
15.61667,96512
15.62500,98270
15.63333,99761
15.64167,100974
15.65000,101905
15.65833,102548
15.66667,102905
15.67500,102975
15.68333,102762
15.69167,102274
15.70000,101517
15.70833,100503
15.71667,99245
15.72500,97754
15.73333,96046
15.74167,94138
15.75000,92046
15.75833,89789
15.76667,87384
15.77500,84851
15.78333,82209
15.79167,79475
15.80000,76666
15.80833,73801
15.81667,70898
15.82500,67970
15.83333,65035
15.84167,62107
15.85000,59198
15.85833,56322
15.86667,53489
15.87500,50709
15.88333,47991
15.89167,45344
15.90000,42774
15.90833,40286
15.91667,37886
15.92500,35577
15.93333,33361
15.94167,31241
15.95000,29217
15.95833,27291
15.96667,25461
15.97500,23728
15.98333,22089
15.99167,20543
16.00000,19087
16.00833,17720
16.01667,16437
16.02500,15237
16.03333,14116
16.04167,13069
16.05000,12095
16.05833,11189
16.06667,10348
16.07500,9569
16.08333,8847
16.09167,8179
16.10000,7562
16.10833,6993
16.11667,6468
16.12500,5985
16.13333,5541
16.14167,5132
16.15000,4757
16.15833,4413
16.16667,4097
16.17500,3808
16.18333,3542
16.19167,3299
16.20000,3076
16.20833,2872
16.21667,2686
16.22500,2514
16.23333,2357
16.24167,2214
16.25000,2083
16.25833,1963
16.26667,1853
16.27500,1751
16.28333,1658
16.29167,1573
16.30000,1495
16.30833,1423
16.31667,1357
16.32500,1296
16.33333,1240
16.34167,1188
16.35000,1141
16.35833,1097
16.36667,1056
16.37500,1018
16.38333,984
16.39167,951
16.40000,921
16.40833,893
16.41667,867
16.42500,843
16.43333,820
16.44167,799
16.45000,779
16.45833,761
16.46667,743
16.47500,727
16.48333,712
16.49167,697
16.50000,684
16.50833,671
16.51667,659
16.52500,648
16.53333,638
16.54167,627
16.55000,618
16.55833,609
16.56667,600
16.57500,592
16.58333,584
16.59167,576
16.60000,569
16.60833,562
16.61667,556
16.62500,549
16.63333,543
16.64167,538
16.65000,532
16.65833,527
16.66667,522
16.67500,517
16.68333,512
16.69167,507
16.70000,502
16.70833,497
16.71667,493
16.72500,488
16.73333,484
16.74167,479
16.75000,475
16.75833,470
16.76667,466
16.77500,462
16.78333,457
16.79167,453
16.80000,449
16.80833,445
16.81667,440
16.82500,436
16.83333,432
16.84167,428
16.85000,425
16.85833,421
16.86667,417
16.87500,414
16.88333,410
16.89167,406
16.90000,402
16.90833,399
16.91667,395
16.92500,392
16.93333,389
16.94167,385
16.95000,382
16.95833,378
16.96667,374
16.97500,371
16.98333,368
16.99167,365
17.00000,362
17.00833,359
17.01667,356
17.02500,353
17.03333,350
17.04167,348
17.05000,345
17.05833,343
17.06667,340
17.07500,337
17.08333,335
17.09167,332
17.10000,329
17.10833,327
17.11667,325
17.12500,323
17.13333,320
17.14167,318
17.15000,316
17.15833,314
17.16667,312
17.17500,310
17.18333,308
17.19167,306
17.20000,304
17.20833,301
17.21667,299
17.22500,298
17.23333,296
17.24167,294
17.25000,292
17.25833,290
17.26667,288
17.27500,286
17.28333,285
17.29167,283
17.30000,281
17.30833,279
17.31667,277
17.32500,275
17.33333,274
17.34167,272
17.35000,270
17.35833,269
17.36667,267
17.37500,265
17.38333,264
17.39167,262
17.40000,260
17.40833,258
17.41667,257
17.42500,255
17.43333,254
17.44167,252
17.45000,251
17.45833,249
17.46667,248
17.47500,246
17.48333,245
17.49167,244
17.50000,242
17.50833,241
17.51667,239
17.52500,238
17.53333,237
17.54167,236
17.55000,235
17.55833,234
17.56667,233
17.57500,232
17.58333,230
17.59167,229
17.60000,228
17.60833,227
17.61667,227
17.62500,226
17.63333,225
17.64167,225
17.65000,224
17.65833,224
17.66667,224
17.67500,223
17.68333,223
17.69167,222
17.70000,222
17.70833,222
17.71667,222
17.72500,221
17.73333,221
17.74167,221
17.75000,220
17.75833,220
17.76667,219
17.77500,219
17.78333,218
17.79167,218
17.80000,218
17.80833,218
17.81667,217
17.82500,217
17.83333,216
17.84167,216
17.85000,215
17.85833,215
17.86667,215
17.87500,214
17.88333,213
17.89167,213
17.90000,212
17.90833,211
17.91667,210
17.92500,210
17.93333,210
17.94167,209
17.95000,208
17.95833,208
17.96667,207
17.97500,206
17.98333,206
17.99167,205
18.00000,204
18.00833,204
18.01667,203
18.02500,202
18.03333,201
18.04167,201
18.05000,200
18.05833,200
18.06667,199
18.07500,199
18.08333,198
18.09167,198
18.10000,197
18.10833,197
18.11667,197
18.12500,196
18.13333,196
18.14167,196
18.15000,195
18.15833,195
18.16667,195
18.17500,195
18.18333,194
18.19167,194
18.20000,194
18.20833,194
18.21667,193
18.22500,193
18.23333,193
18.24167,193
18.25000,193
18.25833,193
18.26667,193
18.27500,193
18.28333,193
18.29167,192
18.30000,192
18.30833,191
18.31667,191
18.32500,191
18.33333,191
18.34167,190
18.35000,189
18.35833,188
18.36667,188
18.37500,187
18.38333,187
18.39167,186
18.40000,186
18.40833,185
18.41667,184
18.42500,184
18.43333,183
18.44167,182
18.45000,181
18.45833,179
18.46667,178
18.47500,178
18.48333,177
18.49167,175
18.50000,174
18.50833,173
18.51667,172
18.52500,171
18.53333,170
18.54167,169
18.55000,168
18.55833,167
18.56667,166
18.57500,165
18.58333,164
18.59167,163
18.60000,162
18.60833,161
18.61667,159
18.62500,158
18.63333,158
18.64167,157
18.65000,156
18.65833,155
18.66667,155
18.67500,154
18.68333,153
18.69167,152
18.70000,152
18.70833,151
18.71667,151
18.72500,150
18.73333,150
18.74167,149
18.75000,149
18.75833,148
18.76667,148
18.77500,148
18.78333,149
18.79167,149
18.80000,149
18.80833,150
18.81667,151
18.82500,151
18.83333,152
18.84167,152
18.85000,153
18.85833,154
18.86667,155
18.87500,156
18.88333,157
18.89167,158
18.90000,159
18.90833,161
18.91667,162
18.92500,163
18.93333,164
18.94167,165
18.95000,166
18.95833,167
18.96667,167
18.97500,168
18.98333,169
18.99167,170
19.00000,170
19.00833,171
19.01667,171
19.02500,172
19.03333,172
19.04167,172
19.05000,172
19.05833,172
19.06667,171
19.07500,170
19.08333,169
19.09167,168
19.10000,167
19.10833,165
19.11667,164
19.12500,162
19.13333,161
19.14167,159
19.15000,157
19.15833,156
19.16667,154
19.17500,152
19.18333,150
19.19167,147
19.20000,145
19.20833,143
19.21667,141
19.22500,139
19.23333,136
19.24167,134
19.25000,132
19.25833,130
19.26667,127
19.27500,125
19.28333,123
19.29167,121
19.30000,120
19.30833,118
19.31667,116
19.32500,114
19.33333,113
19.34167,111
19.35000,110
19.35833,108
19.36667,107
19.37500,107
19.38333,106
19.39167,104
19.40000,104
19.40833,103
19.41667,102
19.42500,102
19.43333,101
19.44167,100
19.45000,100
19.45833,100
19.46667,99
19.47500,99
19.48333,99
19.49167,98
19.50000,98
19.50833,99
19.51667,99
19.52500,99
19.53333,99
19.54167,99
19.55000,99
19.55833,100
19.56667,100
19.57500,101
19.58333,101
19.59167,101
19.60000,101
19.60833,101
19.61667,102
19.62500,102
19.63333,102
19.64167,103
19.65000,103
19.65833,103
19.66667,103
19.67500,103
19.68333,103
19.69167,104
19.70000,104
19.70833,104
19.71667,104
19.72500,104
19.73333,104
19.74167,104
19.75000,104
19.75833,104
19.76667,104
19.77500,104
19.78333,104
19.79167,104
19.80000,104
19.80833,103
19.81667,103
19.82500,103
19.83333,103
19.84167,103
19.85000,102
19.85833,102
19.86667,102
19.87500,102
19.88333,101
19.89167,101
19.90000,101
19.90833,100
19.91667,99
19.92500,98
19.93333,98
19.94167,97
19.95000,97
19.95833,96
19.96667,95
19.97500,94
19.98333,93
19.99167,92
20.00000,91
20.00833,90
20.01667,89
20.02500,89
20.03333,88
20.04167,87
20.05000,86
20.05833,86
20.06667,85
20.07500,84
20.08333,83
20.09167,82
20.10000,81
20.10833,81
20.11667,80
20.12500,80
20.13333,79
20.14167,78
20.15000,77
20.15833,76
20.16667,76
20.17500,75
20.18333,74
20.19167,74
20.20000,73
20.20833,72
20.21667,72
20.22500,72
20.23333,71
20.24167,71
20.25000,70
20.25833,70
20.26667,70
20.27500,69
20.28333,69
20.29167,69
20.30000,69
20.30833,68
20.31667,67
20.32500,67
20.33333,67
20.34167,67
20.35000,68
20.35833,68
20.36667,69
20.37500,69
20.38333,69
20.39167,69
20.40000,69
20.40833,69
20.41667,69
20.42500,69
20.43333,69
20.44167,70
20.45000,70
20.45833,71
20.46667,71
20.47500,71
20.48333,72
20.49167,72
20.50000,73
20.50833,74
20.51667,74
20.52500,75
20.53333,75
20.54167,75
20.55000,75
20.55833,76
20.56667,77
20.57500,77
20.58333,78
20.59167,78
20.60000,79
20.60833,80
20.61667,80
20.62500,81
20.63333,81
20.64167,81
20.65000,82
20.65833,82
20.66667,83
20.67500,83
20.68333,83
20.69167,83
20.70000,84
20.70833,84
20.71667,84
20.72500,85
20.73333,85
20.74167,85
20.75000,85
20.75833,85
20.76667,85
20.77500,85
20.78333,85
20.79167,85
20.80000,85
20.80833,85
20.81667,85
20.82500,85
20.83333,85
20.84167,85
20.85000,85
20.85833,85
20.86667,84
20.87500,84
20.88333,84
20.89167,83
20.90000,83
20.90833,83
20.91667,83
20.92500,83
20.93333,83
20.94167,82
20.95000,82
20.95833,81
20.96667,81
20.97500,80
20.98333,80
20.99167,79
21.00000,79
21.00833,78
21.01667,77
21.02500,77
21.03333,77
21.04167,76
21.05000,76
21.05833,75
21.06667,75
21.07500,74
21.08333,73
21.09167,72
21.10000,71
21.10833,71
21.11667,71
21.12500,70
21.13333,70
21.14167,70
21.15000,70
21.15833,70
21.16667,70
21.17500,69
21.18333,69
21.19167,69
21.20000,68
21.20833,68
21.21667,68
21.22500,68
21.23333,68
21.24167,68
21.25000,68
21.25833,68
21.26667,68
21.27500,69
21.28333,69
21.29167,69
21.30000,70
21.30833,70
21.31667,71
21.32500,72
21.33333,73
21.34167,75
21.35000,76
21.35833,78
21.36667,80
21.37500,83
21.38333,86
21.39167,90
21.40000,93
21.40833,97
21.41667,102
21.42500,108
21.43333,115
21.44167,123
21.45000,132
21.45833,142
21.46667,153
21.47500,166
21.48333,180
21.49167,197
21.50000,216
21.50833,238
21.51667,263
21.52500,290
21.53333,322
21.54167,358
21.55000,399
21.55833,446
21.56667,498
21.57500,557
21.58333,624
21.59167,699
21.60000,783
21.60833,877
21.61667,981
21.62500,1098
21.63333,1228
21.64167,1372
21.65000,1532
21.65833,1708
21.66667,1901
21.67500,2114
21.68333,2346
21.69167,2600
21.70000,2876
21.70833,3175
21.71667,3499
21.72500,3848
21.73333,4223
21.74167,4624
21.75000,5053
21.75833,5508
21.76667,5991
21.77500,6501
21.78333,7038
21.79167,7602
21.80000,8192
21.80833,8806
21.81667,9443
21.82500,10102
21.83333,10781
21.84167,11477
21.85000,12189
21.85833,12912
21.86667,13646
21.87500,14386
21.88333,15129
21.89167,15872
21.90000,16611
21.90833,17342
21.91667,18062
21.92500,18766
21.93333,19451
21.94167,20113
21.95000,20748
21.95833,21354
21.96667,21925
21.97500,22459
21.98333,22952
21.99167,23402
22.00000,23807
22.00833,24164
22.01667,24471
22.02500,24726
22.03333,24929
22.04167,25078
22.05000,25173
22.05833,25213
22.06667,25199
22.07500,25131
22.08333,25011
22.09167,24839
22.10000,24617
22.10833,24348
22.11667,24032
22.12500,23672
22.13333,23272
22.14167,22833
22.15000,22360
22.15833,21854
22.16667,21319
22.17500,20759
22.18333,20175
22.19167,19572
22.20000,18953
22.20833,18320
22.21667,17678
22.22500,17028
22.23333,16373
22.24167,15718
22.25000,15063
22.25833,14413
22.26667,13768
22.27500,13132
22.28333,12505
22.29167,11890
22.30000,11288
22.30833,10702
22.31667,10131
22.32500,9578
22.33333,9042
22.34167,8525
22.35000,8028
22.35833,7550
22.36667,7093
22.37500,6655
22.38333,6237
22.39167,5840
22.40000,5463
22.40833,5105
22.41667,4766
22.42500,4446
22.43333,4144
22.44167,3861
22.45000,3594
22.45833,3344
22.46667,3109
22.47500,2890
22.48333,2686
22.49167,2495
22.50000,2317
22.50833,2151
22.51667,1998
22.52500,1856
22.53333,1724
22.54167,1603
22.55000,1490
22.55833,1386
22.56667,1290
22.57500,1202
22.58333,1119
22.59167,1044
22.60000,975
22.60833,912
22.61667,854
22.62500,800
22.63333,751
22.64167,705
22.65000,664
22.65833,626
22.66667,591
22.67500,559
22.68333,530
22.69167,502
22.70000,478
22.70833,455
22.71667,434
22.72500,414
22.73333,396
22.74167,380
22.75000,365
22.75833,351
22.76667,338
22.77500,326
22.78333,315
22.79167,305
22.80000,296
22.80833,287
22.81667,279
22.82500,271
22.83333,264
22.84167,256
22.85000,250
22.85833,244
22.86667,238
22.87500,233
22.88333,228
22.89167,223
22.90000,218
22.90833,214
22.91667,210
22.92500,206
22.93333,202
22.94167,199
22.95000,196
22.95833,193
22.96667,190
22.97500,188
22.98333,185
22.99167,183
23.00000,180
23.00833,178
23.01667,176
23.02500,174
23.03333,171
23.04167,169
23.05000,167
23.05833,166
23.06667,165
23.07500,164
23.08333,163
23.09167,162
23.10000,161
23.10833,160
23.11667,159
23.12500,158
23.13333,157
23.14167,156
23.15000,156
23.15833,155
23.16667,154
23.17500,154
23.18333,154
23.19167,153
23.20000,153
23.20833,152
23.21667,152
23.22500,151
23.23333,151
23.24167,151
23.25000,151
23.25833,150
23.26667,150
23.27500,150
23.28333,150
23.29167,150
23.30000,150
23.30833,150
23.31667,150
23.32500,149
23.33333,149
23.34167,149
23.35000,149
23.35833,149
23.36667,149
23.37500,149
23.38333,149
23.39167,149
23.40000,149
23.40833,148
23.41667,148
23.42500,147
23.43333,147
23.44167,147
23.45000,147
23.45833,147
23.46667,146
23.47500,146
23.48333,145
23.49167,145
23.50000,144
23.50833,144
23.51667,143
23.52500,142
23.53333,141
23.54167,141
23.55000,140
23.55833,140
23.56667,139
23.57500,139
23.58333,139
23.59167,138
23.60000,137
23.60833,136
23.61667,136
23.62500,135
23.63333,134
23.64167,134
23.65000,133
23.65833,133
23.66667,132
23.67500,132
23.68333,132
23.69167,131
23.70000,131
23.70833,130
23.71667,130
23.72500,129
23.73333,129
23.74167,129
23.75000,129
23.75833,129
23.76667,129
23.77500,128
23.78333,128
23.79167,128
23.80000,127
23.80833,127
23.81667,127
23.82500,126
23.83333,126
23.84167,126
23.85000,126
23.85833,126
23.86667,126
23.87500,126
23.88333,126
23.89167,126
23.90000,126
23.90833,126
23.91667,126
23.92500,126
23.93333,126
23.94167,126
23.95000,126
23.95833,126
23.96667,126
23.97500,126
23.98333,125
23.99167,125
24.00000,125
24.00833,124
24.01667,123
24.02500,123
24.03333,123
24.04167,122
24.05000,122
24.05833,121
24.06667,120
24.07500,120
24.08333,119
24.09167,118
24.10000,117
24.10833,117
24.11667,116
24.12500,115
24.13333,114
24.14167,114
24.15000,113
24.15833,112
24.16667,111
24.17500,110
24.18333,109
24.19167,109
24.20000,108
24.20833,107
24.21667,107
24.22500,106
24.23333,106
24.24167,105
24.25000,105
24.25833,105
24.26667,104
24.27500,104
24.28333,104
24.29167,105
24.30000,105
24.30833,106
24.31667,107
24.32500,108
24.33333,109
24.34167,111
24.35000,113
24.35833,115
24.36667,118
24.37500,121
24.38333,125
24.39167,130
24.40000,135
24.40833,141
24.41667,147
24.42500,155
24.43333,164
24.44167,174
24.45000,185
24.45833,197
24.46667,210
24.47500,225
24.48333,242
24.49167,261
24.50000,282
24.50833,305
24.51667,331
24.52500,361
24.53333,393
24.54167,428
24.55000,467
24.55833,509
24.56667,556
24.57500,608
24.58333,664
24.59167,725
24.60000,792
24.60833,864
24.61667,943
24.62500,1028
24.63333,1119
24.64167,1217
24.65000,1322
24.65833,1435
24.66667,1555
24.67500,1684
24.68333,1821
24.69167,1965
24.70000,2118
24.70833,2279
24.71667,2449
24.72500,2627
24.73333,2812
24.74167,3005
24.75000,3206
24.75833,3413
24.76667,3628
24.77500,3848
24.78333,4075
24.79167,4306
24.80000,4542
24.80833,4781
24.81667,5024
24.82500,5268
24.83333,5514
24.84167,5759
24.85000,6004
24.85833,6247
24.86667,6486
24.87500,6722
24.88333,6953
24.89167,7178
24.90000,7395
24.90833,7605
24.91667,7806
24.92500,7995
24.93333,8174
24.94167,8340
24.95000,8494
24.95833,8634
24.96667,8759
24.97500,8870
24.98333,8965
24.99167,9044
25.00000,9107
25.00833,9154
25.01667,9184
25.02500,9198
25.03333,9195
25.04167,9176
25.05000,9140
25.05833,9088
25.06667,9021
25.07500,8939
25.08333,8843
25.09167,8733
25.10000,8609
25.10833,8473
25.11667,8326
25.12500,8167
25.13333,7999
25.14167,7820
25.15000,7634
25.15833,7441
25.16667,7241
25.17500,7036
25.18333,6826
25.19167,6612
25.20000,6395
25.20833,6176
25.21667,5956
25.22500,5735
25.23333,5515
25.24167,5296
25.25000,5078
25.25833,4864
25.26667,4651
25.27500,4442
25.28333,4238
25.29167,4037
25.30000,3842
25.30833,3651
25.31667,3466
25.32500,3286
25.33333,3112
25.34167,2944
25.35000,2783
25.35833,2628
25.36667,2479
25.37500,2336
25.38333,2200
25.39167,2070
25.40000,1946
25.40833,1828
25.41667,1717
25.42500,1611
25.43333,1511
25.44167,1417
25.45000,1327
25.45833,1244
25.46667,1165
25.47500,1091
25.48333,1022
25.49167,957
25.50000,896
25.50833,839
25.51667,786
25.52500,737
25.53333,691
25.54167,648
25.55000,608
25.55833,571
25.56667,537
25.57500,505
25.58333,476
25.59167,449
25.60000,424
25.60833,401
25.61667,379
25.62500,359
25.63333,341
25.64167,324
25.65000,308
25.65833,293
25.66667,280
25.67500,268
25.68333,257
25.69167,246
25.70000,236
25.70833,228
25.71667,220
25.72500,212
25.73333,205
25.74167,198
25.75000,192
25.75833,186
25.76667,181
25.77500,176
25.78333,172
25.79167,167
25.80000,164
25.80833,160
25.81667,157
25.82500,154
25.83333,152
25.84167,149
25.85000,147
25.85833,146
25.86667,144
25.87500,143
25.88333,141
25.89167,140
25.90000,138
25.90833,137
25.91667,136
25.92500,135
25.93333,134
25.94167,133
25.95000,132
25.95833,132
25.96667,131
25.97500,130
25.98333,130
25.99167,130
26.00000,129
26.00833,129
26.01667,129
26.02500,129
26.03333,129
26.04167,129
26.05000,129
26.05833,129
26.06667,129
26.07500,129
26.08333,129
26.09167,129
26.10000,129
26.10833,128
26.11667,128
26.12500,128
26.13333,128
26.14167,128
26.15000,127
26.15833,127
26.16667,127
26.17500,126
26.18333,126
26.19167,126
26.20000,126
26.20833,126
26.21667,126
26.22500,126
26.23333,125
26.24167,125
26.25000,126
26.25833,126
26.26667,125
26.27500,125
26.28333,125
26.29167,125
26.30000,124
26.30833,124
26.31667,124
26.32500,124
26.33333,123
26.34167,122
26.35000,122
26.35833,121
26.36667,121
26.37500,121
26.38333,120
26.39167,119
26.40000,119
26.40833,119
26.41667,118
26.42500,118
26.43333,118
26.44167,117
26.45000,117
26.45833,116
26.46667,116
26.47500,116
26.48333,115
26.49167,115
26.50000,115
26.50833,115
26.51667,115
26.52500,115
26.53333,114
26.54167,114
26.55000,114
26.55833,114
26.56667,113
26.57500,113
26.58333,113
26.59167,113
26.60000,113
26.60833,113
26.61667,114
26.62500,114
26.63333,114
26.64167,114
26.65000,114
26.65833,113
26.66667,113
26.67500,114
26.68333,114
26.69167,114
26.70000,114
26.70833,114
26.71667,115
26.72500,115
26.73333,115
26.74167,115
26.75000,115
26.75833,115
26.76667,116
26.77500,116
26.78333,116
26.79167,116
26.80000,116
26.80833,116
26.81667,116
26.82500,117
26.83333,117
26.84167,117
26.85000,117
26.85833,117
26.86667,116
26.87500,116
26.88333,116
26.89167,116
26.90000,115
26.90833,115
26.91667,116
26.92500,116
26.93333,116
26.94167,116
26.95000,116
26.95833,115
26.96667,115
26.97500,115
26.98333,115
26.99167,115
27.00000,115
27.00833,115
27.01667,115
27.02500,114
27.03333,114
27.04167,114
27.05000,114
27.05833,114
27.06667,113
27.07500,113
27.08333,113
27.09167,113
27.10000,113
27.10833,113
27.11667,112
27.12500,112
27.13333,111
27.14167,111
27.15000,111
27.15833,110
27.16667,110
27.17500,109
27.18333,109
27.19167,109
27.20000,109
27.20833,109
27.21667,109
27.22500,109
27.23333,108
27.24167,108
27.25000,108
27.25833,108
27.26667,108
27.27500,108
27.28333,107
27.29167,107
27.30000,107
27.30833,107
27.31667,106
27.32500,106
27.33333,106
27.34167,106
27.35000,105
27.35833,105
27.36667,105
27.37500,104
27.38333,104
27.39167,104
27.40000,104
27.40833,104
27.41667,104
27.42500,104
27.43333,103
27.44167,103
27.45000,103
27.45833,103
27.46667,103
27.47500,103
27.48333,103
27.49167,102
27.50000,102
27.50833,102
27.51667,102
27.52500,102
27.53333,102
27.54167,102
27.55000,102
27.55833,101
27.56667,101
27.57500,101
27.58333,101
27.59167,101
27.60000,101
27.60833,100
27.61667,100
27.62500,100
27.63333,100
27.64167,100
27.65000,100
27.65833,100
27.66667,100
27.67500,99
27.68333,99
27.69167,98
27.70000,98
27.70833,98
27.71667,98
27.72500,98
27.73333,98
27.74167,97
27.75000,97
27.75833,97
27.76667,96
27.77500,96
27.78333,95
27.79167,94
27.80000,93
27.80833,92
27.81667,91
27.82500,90
27.83333,89
27.84167,88
27.85000,87
27.85833,86
27.86667,84
27.87500,83
27.88333,81
27.89167,80
27.90000,79
27.90833,77
27.91667,76
27.92500,74
27.93333,73
27.94167,71
27.95000,69
27.95833,67
27.96667,65
27.97500,63
27.98333,60
27.99167,57
28.00000,54
28.00833,51
28.01667,48
28.02500,45
28.03333,43
28.04167,40
28.05000,37
28.05833,34
28.06667,30
28.07500,27
28.08333,23
28.09167,20
28.10000,17
28.10833,13
28.11667,10
28.12500,7
28.13333,3
28.14167,0
28.15000,-3
28.15833,-6
28.16667,-10
28.17500,-13
28.18333,-16
28.19167,-19
28.20000,-23
28.20833,-26
28.21667,-30
28.22500,-33
28.23333,-36
28.24167,-39
28.25000,-41
28.25833,-44
28.26667,-46
28.27500,-48
28.28333,-50
28.29167,-52
28.30000,-54
28.30833,-55
28.31667,-57
28.32500,-58
28.33333,-59
28.34167,-59
28.35000,-60
28.35833,-60
28.36667,-61
28.37500,-61
28.38333,-61
28.39167,-60
28.40000,-60
28.40833,-59
28.41667,-59
28.42500,-58
28.43333,-56
28.44167,-55
28.45000,-54
28.45833,-52
28.46667,-50
28.47500,-48
28.48333,-46
28.49167,-44
28.50000,-41
28.50833,-39
28.51667,-37
28.52500,-34
28.53333,-32
28.54167,-29
28.55000,-27
28.55833,-24
28.56667,-22
28.57500,-19
28.58333,-16
28.59167,-14
28.60000,-11
28.60833,-8
28.61667,-4
28.62500,-1
28.63333,2
28.64167,4
28.65000,7
28.65833,9
28.66667,12
28.67500,15
28.68333,18
28.69167,20
28.70000,22
28.70833,25
28.71667,27
28.72500,29
28.73333,31
28.74167,32
28.75000,34
28.75833,36
28.76667,37
28.77500,39
28.78333,41
28.79167,43
28.80000,45
28.80833,46
28.81667,48
28.82500,50
28.83333,51
28.84167,52
28.85000,54
28.85833,55
28.86667,57
28.87500,58
28.88333,59
28.89167,60
28.90000,61
28.90833,62
28.91667,63
28.92500,64
28.93333,65
28.94167,65
28.95000,66
28.95833,67
28.96667,67
28.97500,68
28.98333,69
28.99167,70
29.00000,70
29.00833,71
29.01667,72
29.02500,73
29.03333,73
29.04167,74
29.05000,75
29.05833,75
29.06667,76
29.07500,76
29.08333,77
29.09167,77
29.10000,77
29.10833,78
29.11667,78
29.12500,78
29.13333,78
29.14167,78
29.15000,78
29.15833,78
29.16667,78
29.17500,78
29.18333,79
29.19167,80
29.20000,80
29.20833,80
29.21667,80
29.22500,80
29.23333,80
29.24167,80
29.25000,80
29.25833,80
29.26667,80
29.27500,80
29.28333,80
29.29167,81
29.30000,81
29.30833,81
29.31667,81
29.32500,81
29.33333,80
29.34167,79
29.35000,79
29.35833,79
29.36667,78
29.37500,78
29.38333,78
29.39167,78
29.40000,78
29.40833,78
29.41667,78
29.42500,77
29.43333,77
29.44167,76
29.45000,76
29.45833,76
29.46667,76
29.47500,76
29.48333,76
29.49167,75
29.50000,75
29.50833,74
29.51667,74
29.52500,73
29.53333,73
29.54167,73
29.55000,73
29.55833,73
29.56667,73
29.57500,73
29.58333,72
29.59167,72
29.60000,72
29.60833,71
29.61667,71
29.62500,70
29.63333,70
29.64167,69
29.65000,69
29.65833,68
29.66667,68
29.67500,67
29.68333,66
29.69167,65
29.70000,65
29.70833,64
29.71667,64
29.72500,63
29.73333,63
29.74167,62
29.75000,61
29.75833,60
29.76667,60
29.77500,59
29.78333,58
29.79167,57
29.80000,55
29.80833,54
29.81667,53
29.82500,52
29.83333,51
29.84167,50
29.85000,48
29.85833,47
29.86667,46
29.87500,45
29.88333,44
29.89167,43
29.90000,42
29.90833,41
29.91667,40
29.92500,38
29.93333,37
29.94167,36
29.95000,35
29.95833,34
29.96667,33
29.97500,32
29.98333,31
29.99167,30
30.00000,29
30.00833,29
30.01667,28
30.02500,27
30.03333,27
30.04167,26
30.05000,25
30.05833,25
30.06667,24
30.07500,24
30.08333,24
30.09167,23
30.10000,23
30.10833,22
30.11667,22
30.12500,22
30.13333,22
30.14167,22
30.15000,22
30.15833,22
30.16667,21
30.17500,21
30.18333,20
30.19167,20
30.20000,20
30.20833,20
30.21667,20
30.22500,20
30.23333,20
30.24167,21
30.25000,21
30.25833,21
30.26667,21
30.27500,21
30.28333,21
30.29167,21
30.30000,21
30.30833,21
30.31667,21
30.32500,21
30.33333,21
30.34167,21
30.35000,21
30.35833,22
30.36667,22
30.37500,23
30.38333,23
30.39167,23
30.40000,24
30.40833,25
30.41667,25
30.42500,26
30.43333,27
30.44167,27
30.45000,28
30.45833,29
30.46667,30
30.47500,30
30.48333,31
30.49167,32
30.50000,33
30.50833,34
30.51667,35
30.52500,36
30.53333,37
30.54167,38
30.55000,39
30.55833,40
30.56667,42
30.57500,43
30.58333,44
30.59167,45
30.60000,46
30.60833,47
30.61667,48
30.62500,50
30.63333,51
30.64167,52
30.65000,53
30.65833,54
30.66667,55
30.67500,57
30.68333,58
30.69167,59
30.70000,61
30.70833,62
30.71667,64
30.72500,65
30.73333,67
30.74167,68
30.75000,70
30.75833,71
30.76667,72
30.77500,73
30.78333,74
30.79167,75
30.80000,76
30.80833,77
30.81667,78
30.82500,79
30.83333,80
30.84167,81
30.85000,82
30.85833,82
30.86667,83
30.87500,83
30.88333,83
30.89167,84
30.90000,84
30.90833,85
30.91667,85
30.92500,85
30.93333,85
30.94167,85
30.95000,86
30.95833,86
30.96667,87
30.97500,87
30.98333,87
30.99167,87
31.00000,87
31.00833,86
31.01667,86
31.02500,86
31.03333,86
31.04167,86
31.05000,86
31.05833,86
31.06667,86
31.07500,86
31.08333,86
31.09167,86
31.10000,85
31.10833,85
31.11667,85
31.12500,85
31.13333,84
31.14167,84
31.15000,84
31.15833,83
31.16667,83
31.17500,83
31.18333,83
31.19167,83
31.20000,83
31.20833,83
31.21667,83
31.22500,83
31.23333,83
31.24167,83
31.25000,83
31.25833,83
31.26667,83
31.27500,83
31.28333,83
31.29167,83
31.30000,83
31.30833,83
31.31667,83
31.32500,83
31.33333,83
31.34167,84
31.35000,84
31.35833,84
31.36667,84
31.37500,84
31.38333,84
31.39167,85
31.40000,85
31.40833,85
31.41667,86
31.42500,86
31.43333,86
31.44167,87
31.45000,87
31.45833,86
31.46667,86
31.47500,87
31.48333,87
31.49167,88
31.50000,88
31.50833,88
31.51667,88
31.52500,88
31.53333,88
31.54167,89
31.55000,89
31.55833,89
31.56667,88
31.57500,88
31.58333,88
31.59167,88
31.60000,88
31.60833,88
31.61667,88
31.62500,87
31.63333,87
31.64167,88
31.65000,88
31.65833,88
31.66667,88
31.67500,88
31.68333,88
31.69167,87
31.70000,87
31.70833,87
31.71667,86
31.72500,86
31.73333,86
31.74167,87
31.75000,87
31.75833,87
31.76667,87
31.77500,87
31.78333,86
31.79167,86
31.80000,86
31.80833,86
31.81667,86
31.82500,86
31.83333,86
31.84167,86
31.85000,86
31.85833,85
31.86667,85
31.87500,84
31.88333,84
31.89167,84
31.90000,84
31.90833,84
31.91667,83
31.92500,83
31.93333,82
31.94167,82
31.95000,81
31.95833,81
31.96667,82
31.97500,81
31.98333,81
31.99167,80
32.00000,80
32.00833,80
32.01667,80
32.02500,80
32.03333,79
32.04167,79
32.05000,78
32.05833,77
32.06667,76
32.07500,75
32.08333,75
32.09167,74
32.10000,73
32.10833,73
32.11667,72
32.12500,72
32.13333,71
32.14167,71
32.15000,70
32.15833,69
32.16667,68
32.17500,68
32.18333,68
32.19167,67
32.20000,67
32.20833,67
32.21667,66
32.22500,65
32.23333,65
32.24167,65
32.25000,65
32.25833,65
32.26667,65
32.27500,64
32.28333,64
32.29167,64
32.30000,64
32.30833,64
32.31667,64
32.32500,64
32.33333,64
32.34167,64
32.35000,64
32.35833,64
32.36667,65
32.37500,66
32.38333,66
32.39167,67
32.40000,68
32.40833,69
32.41667,69
32.42500,69
32.43333,70
32.44167,70
32.45000,71
32.45833,71
32.46667,72
32.47500,72
32.48333,72
32.49167,72
32.50000,73
32.50833,73
32.51667,74
32.52500,75
32.53333,75
32.54167,76
32.55000,77
32.55833,77
32.56667,78
32.57500,78
32.58333,78
32.59167,79
32.60000,79
32.60833,80
32.61667,80
32.62500,80
32.63333,81
32.64167,81
32.65000,81
32.65833,81
32.66667,82
32.67500,82
32.68333,82
32.69167,83
32.70000,83
32.70833,83
32.71667,84
32.72500,84
32.73333,84
32.74167,84
32.75000,84
32.75833,85
32.76667,85
32.77500,85
32.78333,85
32.79167,85
32.80000,85
32.80833,86
32.81667,86
32.82500,87
32.83333,87
32.84167,87
32.85000,87
32.85833,87
32.86667,87
32.87500,87
32.88333,88
32.89167,88
32.90000,89
32.90833,89
32.91667,90
32.92500,90
32.93333,90
32.94167,90
32.95000,89
32.95833,90
32.96667,90
32.97500,90
32.98333,90
32.99167,90
33.00000,90
33.00833,89
33.01667,89
33.02500,89
33.03333,88
33.04167,88
33.05000,88
33.05833,88
33.06667,87
33.07500,87
33.08333,87
33.09167,87
33.10000,86
33.10833,86
33.11667,85
33.12500,85
33.13333,85
33.14167,84
33.15000,84
33.15833,83
33.16667,82
33.17500,81
33.18333,80
33.19167,80
33.20000,79
33.20833,78
33.21667,78
33.22500,77
33.23333,76
33.24167,76
33.25000,75
33.25833,75
33.26667,74
33.27500,73
33.28333,73
33.29167,72
33.30000,71
33.30833,70
33.31667,70
33.32500,69
33.33333,69
33.34167,68
33.35000,68
33.35833,67
33.36667,66
33.37500,65
33.38333,65
33.39167,64
33.40000,64
33.40833,63
33.41667,63
33.42500,63
33.43333,63
33.44167,63
33.45000,63
33.45833,63
33.46667,63
33.47500,63
33.48333,63
33.49167,63
33.50000,63
33.50833,63
33.51667,63
33.52500,64
33.53333,64
33.54167,64
33.55000,64
33.55833,65
33.56667,65
33.57500,66
33.58333,67
33.59167,67
33.60000,68
33.60833,68
33.61667,69
33.62500,70
33.63333,70
33.64167,71
33.65000,72
33.65833,73
33.66667,74
33.67500,74
33.68333,75
33.69167,76
33.70000,77
33.70833,77
33.71667,78
33.72500,79
33.73333,79
33.74167,80
33.75000,81
33.75833,82
33.76667,83
33.77500,84
33.78333,84
33.79167,85
33.80000,85
33.80833,86
33.81667,86
33.82500,86
33.83333,87
33.84167,88
33.85000,88
33.85833,89
33.86667,90
33.87500,91
33.88333,91
33.89167,92
33.90000,93
33.90833,93
33.91667,93
33.92500,94
33.93333,94
33.94167,94
33.95000,94
33.95833,94
33.96667,94
33.97500,94
33.98333,94
33.99167,95
34.00000,95
34.00833,95
34.01667,95
34.02500,96
34.03333,96
34.04167,96
34.05000,96
34.05833,96
34.06667,96
34.07500,96
34.08333,96
34.09167,96
34.10000,96
34.10833,96
34.11667,96
34.12500,96
34.13333,96
34.14167,96
34.15000,96
34.15833,96
34.16667,96
34.17500,96
34.18333,96
34.19167,96
34.20000,96
34.20833,96
34.21667,96
34.22500,96
34.23333,95
34.24167,95
34.25000,95
34.25833,95
34.26667,94
34.27500,94
34.28333,93
34.29167,93
34.30000,93
34.30833,93
34.31667,92
34.32500,92
34.33333,92
34.34167,91
34.35000,90
34.35833,90
34.36667,90
34.37500,89
34.38333,89
34.39167,88
34.40000,88
34.40833,87
34.41667,87
34.42500,87
34.43333,87
34.44167,86
34.45000,86
34.45833,85
34.46667,85
34.47500,84
34.48333,84
34.49167,83
34.50000,83
34.50833,82
34.51667,82
34.52500,82
34.53333,82
34.54167,81
34.55000,81
34.55833,81
34.56667,81
34.57500,81
34.58333,81
34.59167,81
34.60000,80
34.60833,80
34.61667,81
34.62500,81
34.63333,81
34.64167,81
34.65000,82
34.65833,82
34.66667,82
34.67500,83
34.68333,83
34.69167,83
34.70000,83
34.70833,84
34.71667,84
34.72500,84
34.73333,84
34.74167,85
34.75000,85
34.75833,85
34.76667,85
34.77500,85
34.78333,85
34.79167,85
34.80000,85
34.80833,85
34.81667,85
34.82500,85
34.83333,86
34.84167,86
34.85000,86
34.85833,86
34.86667,86
34.87500,86
34.88333,86
34.89167,86
34.90000,86
34.90833,85
34.91667,85
34.92500,85
34.93333,85
34.94167,85
34.95000,85
34.95833,85
34.96667,84
34.97500,84
34.98333,84
34.99167,84
35.00000,84
35.00833,84
35.01667,84
35.02500,83
35.03333,83
35.04167,83
35.05000,83
35.05833,83
35.06667,83
35.07500,83
35.08333,83
35.09167,83
35.10000,82
35.10833,82
35.11667,82
35.12500,82
35.13333,82
35.14167,82
35.15000,82
35.15833,82
35.16667,82
35.17500,82
35.18333,82
35.19167,81
35.20000,81
35.20833,82
35.21667,82
35.22500,82
35.23333,82
35.24167,82
35.25000,82
35.25833,82
35.26667,82
35.27500,82
35.28333,83
35.29167,83
35.30000,83
35.30833,84
35.31667,84
35.32500,84
35.33333,85
35.34167,85
35.35000,85
35.35833,85
35.36667,86
35.37500,86
35.38333,86
35.39167,86
35.40000,87
35.40833,87
35.41667,88
35.42500,88
35.43333,88
35.44167,88
35.45000,88
35.45833,88
35.46667,88
35.47500,88
35.48333,88
35.49167,89
35.50000,89
35.50833,89
35.51667,89
35.52500,89
35.53333,89
35.54167,89
35.55000,89
35.55833,89
35.56667,89
35.57500,89
35.58333,89
35.59167,90
35.60000,90
35.60833,90
35.61667,90
35.62500,89
35.63333,89
35.64167,89
35.65000,89
35.65833,89
35.66667,89
35.67500,90
35.68333,90
35.69167,90
35.70000,90
35.70833,90
35.71667,90
35.72500,90
35.73333,91
35.74167,91
35.75000,91
35.75833,91
35.76667,92
35.77500,92
35.78333,92
35.79167,92
35.80000,92
35.80833,92
35.81667,92
35.82500,91
35.83333,92
35.84167,92
35.85000,92
35.85833,92
35.86667,92
35.87500,92
35.88333,92
35.89167,92
35.90000,92
35.90833,92
35.91667,92
35.92500,92
35.93333,92
35.94167,92
35.95000,91
35.95833,91
35.96667,91
35.97500,91
35.98333,91
35.99167,91
36.00000,91
36.00833,91
36.01667,91
36.02500,90
36.03333,90
36.04167,89
36.05000,89
36.05833,88
36.06667,88
36.07500,87
36.08333,87
36.09167,86
36.10000,86
36.10833,85
36.11667,85
36.12500,84
36.13333,84
36.14167,83
36.15000,82
36.15833,81
36.16667,79
36.17500,79
36.18333,78
36.19167,77
36.20000,76
36.20833,76
36.21667,75
36.22500,74
36.23333,73
36.24167,73
36.25000,72
36.25833,71
36.26667,71
36.27500,70
36.28333,70
36.29167,70
36.30000,69
36.30833,69
36.31667,69
36.32500,69
36.33333,68
36.34167,68
36.35000,68
36.35833,68
36.36667,68
36.37500,67
36.38333,67
36.39167,67
36.40000,67
36.40833,67
36.41667,67
36.42500,67
36.43333,68
36.44167,68
36.45000,68
36.45833,68
36.46667,68
36.47500,69
36.48333,69
36.49167,70
36.50000,70
36.50833,71
36.51667,71
36.52500,71
36.53333,72
36.54167,72
36.55000,73
36.55833,73
36.56667,73
36.57500,74
36.58333,74
36.59167,74
36.60000,75
36.60833,75
36.61667,75
36.62500,75
36.63333,76
36.64167,76
36.65000,76
36.65833,76
36.66667,76
36.67500,76
36.68333,76
36.69167,75
36.70000,76
36.70833,76
36.71667,76
36.72500,77
36.73333,77
36.74167,77
36.75000,78
36.75833,78
36.76667,78
36.77500,78
36.78333,78
36.79167,78
36.80000,78
36.80833,78
36.81667,78
36.82500,78
36.83333,78
36.84167,78
36.85000,78
36.85833,79
36.86667,79
36.87500,79
36.88333,80
36.89167,79
36.90000,79
36.90833,79
36.91667,79
36.92500,79
36.93333,79
36.94167,79
36.95000,80
36.95833,80
36.96667,81
36.97500,81
36.98333,81
36.99167,81
37.00000,81
37.00833,81
37.01667,81
37.02500,81
37.03333,81
37.04167,80
37.05000,80
37.05833,80
37.06667,80
37.07500,80
37.08333,80
37.09167,80
37.10000,80
37.10833,80
37.11667,80
37.12500,80
37.13333,80
37.14167,79
37.15000,79
37.15833,79
37.16667,79
37.17500,79
37.18333,79
37.19167,79
37.20000,79
37.20833,79
37.21667,79
37.22500,79
37.23333,80
37.24167,79
37.25000,80
37.25833,80
37.26667,80
37.27500,80
37.28333,80
37.29167,80
37.30000,80
37.30833,81
37.31667,81
37.32500,82
37.33333,82
37.34167,83
37.35000,83
37.35833,84
37.36667,84
37.37500,84
37.38333,85
37.39167,86
37.40000,86
37.40833,87
37.41667,87
37.42500,88
37.43333,89
37.44167,89
37.45000,90
37.45833,90
37.46667,91
37.47500,91
37.48333,92
37.49167,92
37.50000,93
37.50833,93
37.51667,94
37.52500,94
37.53333,95
37.54167,95
37.55000,96
37.55833,96
37.56667,96
37.57500,96
37.58333,95
37.59167,95
37.60000,95
37.60833,96
37.61667,96
37.62500,96
37.63333,95
37.64167,95
37.65000,95
37.65833,95
37.66667,95
37.67500,94
37.68333,93
37.69167,93
37.70000,92
37.70833,92
37.71667,91
37.72500,90
37.73333,90
37.74167,89
37.75000,89
37.75833,89
37.76667,88
37.77500,87
37.78333,86
37.79167,85
37.80000,85
37.80833,84
37.81667,84
37.82500,83
37.83333,82
37.84167,82
37.85000,81
37.85833,81
37.86667,80
37.87500,79
37.88333,78
37.89167,78
37.90000,77
37.90833,77
37.91667,76
37.92500,76
37.93333,76
37.94167,75
37.95000,75
37.95833,75
37.96667,75
37.97500,75
37.98333,75
37.99167,76
38.00000,76
38.00833,76
38.01667,76
38.02500,77
38.03333,77
38.04167,77
38.05000,77
38.05833,77
38.06667,77
38.07500,78
38.08333,79
38.09167,80
38.10000,80
38.10833,81
38.11667,82
38.12500,83
38.13333,83
38.14167,84
38.15000,85
38.15833,86
38.16667,86
38.17500,88
38.18333,89
38.19167,90
38.20000,91
38.20833,91
38.21667,92
38.22500,93
38.23333,93
38.24167,94
38.25000,95
38.25833,96
38.26667,97
38.27500,97
38.28333,98
38.29167,99
38.30000,100
38.30833,100
38.31667,101
38.32500,102
38.33333,102
38.34167,102
38.35000,102
38.35833,103
38.36667,103
38.37500,103
38.38333,103
38.39167,103
38.40000,103
38.40833,103
38.41667,102
38.42500,102
38.43333,102
38.44167,102
38.45000,102
38.45833,102
38.46667,101
38.47500,101
38.48333,100
38.49167,99
38.50000,98
38.50833,98
38.51667,97
38.52500,96
38.53333,95
38.54167,94
38.55000,92
38.55833,91
38.56667,90
38.57500,89
38.58333,87
38.59167,86
38.60000,85
38.60833,83
38.61667,82
38.62500,80
38.63333,79
38.64167,77
38.65000,76
38.65833,74
38.66667,72
38.67500,71
38.68333,70
38.69167,68
38.70000,67
38.70833,66
38.71667,65
38.72500,64
38.73333,63
38.74167,61
38.75000,60
38.75833,59
38.76667,58
38.77500,57
38.78333,57
38.79167,56
38.80000,55
38.80833,55
38.81667,54
38.82500,53
38.83333,53
38.84167,53
38.85000,53
38.85833,53
38.86667,52
38.87500,52
38.88333,52
38.89167,53
38.90000,53
38.90833,54
38.91667,55
38.92500,55
38.93333,56
38.94167,56
38.95000,57
38.95833,58
38.96667,59
38.97500,59
38.98333,61
38.99167,62
39.00000,63
39.00833,64
39.01667,66
39.02500,67
39.03333,68
39.04167,70
39.05000,71
39.05833,73
39.06667,74
39.07500,75
39.08333,77
39.09167,79
39.10000,80
39.10833,82
39.11667,83
39.12500,85
39.13333,87
39.14167,88
39.15000,90
39.15833,92
39.16667,93
39.17500,95
39.18333,96
39.19167,98
39.20000,99
39.20833,101
39.21667,102
39.22500,104
39.23333,105
39.24167,107
39.25000,108
39.25833,109
39.26667,110
39.27500,111
39.28333,112
39.29167,113
39.30000,114
39.30833,115
39.31667,116
39.32500,117
39.33333,118
39.34167,119
39.35000,120
39.35833,120
39.36667,121
39.37500,121
39.38333,122
39.39167,122
39.40000,122
39.40833,123
39.41667,123
39.42500,124
39.43333,124
39.44167,124
39.45000,124
39.45833,124
39.46667,124
39.47500,124
39.48333,124
39.49167,124
39.50000,124
39.50833,124
39.51667,123
39.52500,123
39.53333,122
39.54167,122
39.55000,122
39.55833,122
39.56667,121
39.57500,121
39.58333,120
39.59167,120
39.60000,119
39.60833,119
39.61667,118
39.62500,118
39.63333,117
39.64167,117
39.65000,116
39.65833,115
39.66667,115
39.67500,114
39.68333,114
39.69167,113
39.70000,113
39.70833,112
39.71667,111
39.72500,110
39.73333,110
39.74167,109
39.75000,108
39.75833,108
39.76667,107
39.77500,106
39.78333,105
39.79167,104
39.80000,104
39.80833,103
39.81667,103
39.82500,102
39.83333,101
39.84167,101
39.85000,100
39.85833,99
39.86667,99
39.87500,98
39.88333,97
39.89167,96
39.90000,95
39.90833,95
39.91667,94
39.92500,94
39.93333,93
39.94167,93
39.95000,93
39.95833,93
39.96667,92
39.97500,91
39.98333,91
39.99167,91
40.00000,90

