[Header]
Application Name,LabSolutions
Version,5.97 SP1
Data File Name,C:\Users\cremerlab\Desktop\griffin\2021-04-05_NC_DM_calibration\2021-04-05_NC_DM_2.5mM_calibration_452021_004_026.lcd
Output Date,4/6/2021
Output Time,11:14:22 AM

[File Information]
Type,Data File
Generated,4/6/2021 10:34:02 AM
Generated by,System Administrator
Modified,4/6/2021 11:14:22 AM
Modified by,System Administrator

[Sample Information]
Operator Name,System Administrator
Acquired,4/6/2021 10:34:21 AM
Sample Type,1:Standard
Level,4
Sample Name,2021-04-05_DM_glucose_glycerol_acetate_0mM
Sample ID,004
ISTD Amount1,1
ISTD Amount2,1
ISTD Amount3,1
ISTD Amount4,1
ISTD Amount5,1
ISTD Amount6,1
ISTD Amount7,1
ISTD Amount8,1
ISTD Amount9,1
ISTD Amount10,1
ISTD Amount11,1
ISTD Amount12,1
ISTD Amount13,1
ISTD Amount14,1
ISTD Amount15,1
ISTD Amount16,1
ISTD Amount17,1
ISTD Amount18,1
ISTD Amount19,1
ISTD Amount20,1
ISTD Amount21,1
ISTD Amount22,1
ISTD Amount23,1
ISTD Amount24,1
ISTD Amount25,1
ISTD Amount26,1
ISTD Amount27,1
ISTD Amount28,1
ISTD Amount29,1
ISTD Amount30,1
ISTD Amount31,1
ISTD Amount32,1
Sample Amount,1
Dilution Factor,1
Vial#,31
Injection Volume,20

[Original Files]
Data File,C:\Users\cremerlab\Desktop\griffin\2021-04-05_NC_DM_calibration\2021-04-05_NC_DM_2.5mM_calibration_452021_004_026.lcd
Method File,C:\Users\cremerlab\Desktop\griffin\2021-04-05_NC_DM_calibration\2021-04-05_2.5mM_mobile.lcm
Batch File,C:\Users\cremerlab\Desktop\griffin\2021-04-05_NC_DM_calibration\2021-04-05_NC_DM_2.5mM_calibration.lcb
Report Format File,c:\LabSolutions\System\DEFAULT.lsr

[File Description]


[Configuration]
Instrument Name,HPLC-PC-Instrument1
Instrument #,1
Line #,1
# of Detectors,2
Detector ID,Detector A,Detector B
Detector Name,Detector A,Detector B
# of Channels,1,1

[Peak Table(Detector A)]
# of Peaks,0

[Peak Table(Detector B)]
# of Peaks,4
Peak#,R.Time,I.Time,F.Time,Area,Height,A/H,Conc.,Mark,ID#,Name,k',Plate #,Plate Ht.,Tailing,Resolution,Sep.Factor,Area Ratio,Height Ratio,Conc. %,Norm Conc.
1,10.888,10.425,11.925,234748,13961,16.815,0.000,   ,,,0.000,9499,15.792,1.037,0.000,0.000,0,0,0.000,0.000
2,13.944,12.558,14.208,1715435,45586,37.631,0.000,   ,,,0.281,3140,47.768,0.000,4.238,0.000,0,0,0.000,0.000
3,14.333,14.208,15.050,163595,9392,17.418,0.000, V ,,,0.316,5682,26.400,0.000,0.443,1.127,0,0,0.000,0.000
4,19.080,18.825,19.608,1054,48,22.062,0.000,   ,,,0.752,15420,9.728,1.374,6.903,2.378,0,0,0.000,0.000

[LC Chromatogram(Detector B-Ch1)]
Interval(msec),500
# of Points,4801
Start Time(min),0.000
End Time(min),40.000
Intensity Units,mV
Intensity Multiplier,0.001
R.Time (min),Intensity
0.00000,-5
0.00833,-5
0.01667,-1
0.02500,-1
0.03333,-1
0.04167,-2
0.05000,-2
0.05833,-2
0.06667,-2
0.07500,-3
0.08333,-4
0.09167,-5
0.10000,-5
0.10833,-6
0.11667,-6
0.12500,-7
0.13333,-7
0.14167,-7
0.15000,-7
0.15833,-7
0.16667,-7
0.17500,-8
0.18333,-8
0.19167,-8
0.20000,-9
0.20833,-9
0.21667,-9
0.22500,-9
0.23333,-10
0.24167,-10
0.25000,-10
0.25833,-10
0.26667,-10
0.27500,-10
0.28333,-10
0.29167,-10
0.30000,-10
0.30833,-9
0.31667,-9
0.32500,-9
0.33333,-8
0.34167,-8
0.35000,-8
0.35833,-7
0.36667,-6
0.37500,-6
0.38333,-5
0.39167,-5
0.40000,-5
0.40833,-4
0.41667,-4
0.42500,-4
0.43333,-3
0.44167,-3
0.45000,-2
0.45833,-2
0.46667,-1
0.47500,-0
0.48333,0
0.49167,1
0.50000,1
0.50833,2
0.51667,3
0.52500,4
0.53333,5
0.54167,5
0.55000,6
0.55833,6
0.56667,7
0.57500,9
0.58333,10
0.59167,10
0.60000,10
0.60833,10
0.61667,10
0.62500,11
0.63333,11
0.64167,11
0.65000,12
0.65833,13
0.66667,13
0.67500,13
0.68333,13
0.69167,13
0.70000,14
0.70833,14
0.71667,14
0.72500,14
0.73333,14
0.74167,14
0.75000,14
0.75833,14
0.76667,14
0.77500,14
0.78333,14
0.79167,14
0.80000,14
0.80833,13
0.81667,13
0.82500,13
0.83333,13
0.84167,12
0.85000,12
0.85833,12
0.86667,12
0.87500,12
0.88333,12
0.89167,11
0.90000,11
0.90833,11
0.91667,11
0.92500,11
0.93333,11
0.94167,10
0.95000,10
0.95833,9
0.96667,9
0.97500,8
0.98333,8
0.99167,7
1.00000,7
1.00833,6
1.01667,6
1.02500,6
1.03333,5
1.04167,4
1.05000,4
1.05833,3
1.06667,3
1.07500,3
1.08333,2
1.09167,1
1.10000,1
1.10833,1
1.11667,1
1.12500,1
1.13333,0
1.14167,0
1.15000,-0
1.15833,-1
1.16667,-1
1.17500,-1
1.18333,-1
1.19167,-1
1.20000,-1
1.20833,-1
1.21667,-1
1.22500,-1
1.23333,-2
1.24167,-2
1.25000,-2
1.25833,-2
1.26667,-2
1.27500,-3
1.28333,-3
1.29167,-3
1.30000,-3
1.30833,-2
1.31667,-2
1.32500,-2
1.33333,-2
1.34167,-1
1.35000,-1
1.35833,-1
1.36667,-1
1.37500,-1
1.38333,-0
1.39167,-0
1.40000,-0
1.40833,-0
1.41667,0
1.42500,0
1.43333,1
1.44167,1
1.45000,1
1.45833,2
1.46667,2
1.47500,2
1.48333,3
1.49167,3
1.50000,4
1.50833,5
1.51667,5
1.52500,5
1.53333,6
1.54167,6
1.55000,6
1.55833,7
1.56667,7
1.57500,8
1.58333,9
1.59167,9
1.60000,10
1.60833,10
1.61667,11
1.62500,11
1.63333,12
1.64167,13
1.65000,13
1.65833,14
1.66667,15
1.67500,15
1.68333,16
1.69167,17
1.70000,18
1.70833,18
1.71667,19
1.72500,19
1.73333,20
1.74167,20
1.75000,21
1.75833,21
1.76667,22
1.77500,23
1.78333,23
1.79167,24
1.80000,24
1.80833,25
1.81667,26
1.82500,26
1.83333,26
1.84167,27
1.85000,28
1.85833,28
1.86667,28
1.87500,29
1.88333,29
1.89167,29
1.90000,29
1.90833,30
1.91667,30
1.92500,30
1.93333,30
1.94167,30
1.95000,30
1.95833,30
1.96667,30
1.97500,30
1.98333,30
1.99167,30
2.00000,30
2.00833,30
2.01667,30
2.02500,30
2.03333,30
2.04167,30
2.05000,30
2.05833,29
2.06667,29
2.07500,28
2.08333,27
2.09167,27
2.10000,27
2.10833,27
2.11667,27
2.12500,27
2.13333,26
2.14167,26
2.15000,25
2.15833,25
2.16667,24
2.17500,24
2.18333,24
2.19167,23
2.20000,23
2.20833,23
2.21667,22
2.22500,22
2.23333,22
2.24167,22
2.25000,21
2.25833,21
2.26667,20
2.27500,20
2.28333,19
2.29167,19
2.30000,18
2.30833,18
2.31667,18
2.32500,17
2.33333,17
2.34167,17
2.35000,17
2.35833,17
2.36667,17
2.37500,17
2.38333,17
2.39167,17
2.40000,17
2.40833,16
2.41667,16
2.42500,16
2.43333,16
2.44167,16
2.45000,16
2.45833,15
2.46667,14
2.47500,14
2.48333,13
2.49167,13
2.50000,13
2.50833,13
2.51667,13
2.52500,13
2.53333,13
2.54167,13
2.55000,13
2.55833,13
2.56667,13
2.57500,12
2.58333,12
2.59167,11
2.60000,11
2.60833,10
2.61667,10
2.62500,10
2.63333,9
2.64167,9
2.65000,8
2.65833,8
2.66667,7
2.67500,7
2.68333,7
2.69167,7
2.70000,7
2.70833,7
2.71667,7
2.72500,6
2.73333,6
2.74167,6
2.75000,5
2.75833,5
2.76667,4
2.77500,4
2.78333,4
2.79167,3
2.80000,3
2.80833,3
2.81667,3
2.82500,3
2.83333,2
2.84167,2
2.85000,2
2.85833,2
2.86667,2
2.87500,2
2.88333,2
2.89167,2
2.90000,1
2.90833,2
2.91667,2
2.92500,3
2.93333,3
2.94167,3
2.95000,3
2.95833,4
2.96667,4
2.97500,4
2.98333,5
2.99167,6
3.00000,6
3.00833,7
3.01667,7
3.02500,8
3.03333,8
3.04167,8
3.05000,9
3.05833,10
3.06667,10
3.07500,11
3.08333,12
3.09167,12
3.10000,13
3.10833,13
3.11667,14
3.12500,15
3.13333,16
3.14167,17
3.15000,17
3.15833,17
3.16667,18
3.17500,18
3.18333,19
3.19167,19
3.20000,19
3.20833,19
3.21667,19
3.22500,19
3.23333,19
3.24167,19
3.25000,20
3.25833,20
3.26667,20
3.27500,20
3.28333,20
3.29167,20
3.30000,20
3.30833,20
3.31667,19
3.32500,19
3.33333,19
3.34167,19
3.35000,18
3.35833,19
3.36667,18
3.37500,18
3.38333,17
3.39167,17
3.40000,16
3.40833,16
3.41667,16
3.42500,16
3.43333,16
3.44167,15
3.45000,15
3.45833,14
3.46667,14
3.47500,13
3.48333,13
3.49167,13
3.50000,12
3.50833,12
3.51667,11
3.52500,11
3.53333,10
3.54167,10
3.55000,10
3.55833,10
3.56667,10
3.57500,9
3.58333,9
3.59167,8
3.60000,8
3.60833,8
3.61667,8
3.62500,8
3.63333,8
3.64167,7
3.65000,7
3.65833,7
3.66667,7
3.67500,7
3.68333,7
3.69167,7
3.70000,7
3.70833,7
3.71667,7
3.72500,7
3.73333,7
3.74167,7
3.75000,7
3.75833,8
3.76667,8
3.77500,8
3.78333,8
3.79167,9
3.80000,9
3.80833,9
3.81667,9
3.82500,9
3.83333,9
3.84167,10
3.85000,10
3.85833,10
3.86667,10
3.87500,10
3.88333,10
3.89167,11
3.90000,11
3.90833,11
3.91667,11
3.92500,10
3.93333,11
3.94167,11
3.95000,11
3.95833,11
3.96667,11
3.97500,11
3.98333,11
3.99167,11
4.00000,11
4.00833,11
4.01667,12
4.02500,12
4.03333,12
4.04167,11
4.05000,11
4.05833,11
4.06667,11
4.07500,11
4.08333,11
4.09167,10
4.10000,11
4.10833,11
4.11667,11
4.12500,11
4.13333,10
4.14167,10
4.15000,9
4.15833,9
4.16667,9
4.17500,9
4.18333,8
4.19167,8
4.20000,8
4.20833,8
4.21667,8
4.22500,7
4.23333,7
4.24167,7
4.25000,6
4.25833,6
4.26667,6
4.27500,6
4.28333,6
4.29167,5
4.30000,5
4.30833,5
4.31667,5
4.32500,5
4.33333,5
4.34167,5
4.35000,5
4.35833,5
4.36667,6
4.37500,6
4.38333,6
4.39167,6
4.40000,6
4.40833,6
4.41667,6
4.42500,6
4.43333,6
4.44167,6
4.45000,7
4.45833,7
4.46667,8
4.47500,8
4.48333,9
4.49167,9
4.50000,10
4.50833,10
4.51667,11
4.52500,11
4.53333,11
4.54167,11
4.55000,11
4.55833,11
4.56667,12
4.57500,12
4.58333,12
4.59167,13
4.60000,13
4.60833,13
4.61667,14
4.62500,14
4.63333,14
4.64167,14
4.65000,15
4.65833,15
4.66667,15
4.67500,16
4.68333,16
4.69167,17
4.70000,17
4.70833,17
4.71667,17
4.72500,18
4.73333,18
4.74167,18
4.75000,18
4.75833,17
4.76667,17
4.77500,17
4.78333,17
4.79167,17
4.80000,17
4.80833,17
4.81667,17
4.82500,17
4.83333,17
4.84167,17
4.85000,16
4.85833,16
4.86667,16
4.87500,16
4.88333,16
4.89167,16
4.90000,16
4.90833,16
4.91667,16
4.92500,16
4.93333,16
4.94167,16
4.95000,16
4.95833,16
4.96667,16
4.97500,16
4.98333,17
4.99167,17
5.00000,17
5.00833,17
5.01667,17
5.02500,17
5.03333,17
5.04167,17
5.05000,17
5.05833,18
5.06667,18
5.07500,18
5.08333,18
5.09167,18
5.10000,18
5.10833,18
5.11667,18
5.12500,18
5.13333,18
5.14167,18
5.15000,18
5.15833,18
5.16667,18
5.17500,18
5.18333,18
5.19167,18
5.20000,18
5.20833,18
5.21667,18
5.22500,18
5.23333,17
5.24167,17
5.25000,17
5.25833,17
5.26667,16
5.27500,15
5.28333,15
5.29167,15
5.30000,15
5.30833,14
5.31667,14
5.32500,14
5.33333,14
5.34167,13
5.35000,13
5.35833,13
5.36667,12
5.37500,12
5.38333,11
5.39167,11
5.40000,10
5.40833,10
5.41667,9
5.42500,8
5.43333,8
5.44167,8
5.45000,7
5.45833,7
5.46667,7
5.47500,7
5.48333,7
5.49167,7
5.50000,6
5.50833,6
5.51667,6
5.52500,5
5.53333,5
5.54167,5
5.55000,5
5.55833,4
5.56667,4
5.57500,4
5.58333,5
5.59167,5
5.60000,5
5.60833,5
5.61667,5
5.62500,6
5.63333,6
5.64167,6
5.65000,7
5.65833,7
5.66667,8
5.67500,8
5.68333,8
5.69167,8
5.70000,9
5.70833,9
5.71667,9
5.72500,9
5.73333,10
5.74167,10
5.75000,10
5.75833,11
5.76667,11
5.77500,11
5.78333,11
5.79167,11
5.80000,11
5.80833,12
5.81667,13
5.82500,13
5.83333,14
5.84167,14
5.85000,15
5.85833,15
5.86667,16
5.87500,16
5.88333,16
5.89167,17
5.90000,17
5.90833,18
5.91667,18
5.92500,18
5.93333,18
5.94167,18
5.95000,19
5.95833,19
5.96667,20
5.97500,20
5.98333,20
5.99167,20
6.00000,20
6.00833,20
6.01667,20
6.02500,20
6.03333,20
6.04167,21
6.05000,21
6.05833,21
6.06667,21
6.07500,21
6.08333,21
6.09167,21
6.10000,21
6.10833,21
6.11667,21
6.12500,21
6.13333,21
6.14167,21
6.15000,21
6.15833,21
6.16667,21
6.17500,21
6.18333,21
6.19167,21
6.20000,21
6.20833,21
6.21667,21
6.22500,21
6.23333,21
6.24167,21
6.25000,22
6.25833,22
6.26667,22
6.27500,21
6.28333,21
6.29167,21
6.30000,20
6.30833,20
6.31667,20
6.32500,20
6.33333,20
6.34167,20
6.35000,20
6.35833,20
6.36667,20
6.37500,20
6.38333,20
6.39167,20
6.40000,20
6.40833,20
6.41667,19
6.42500,19
6.43333,20
6.44167,19
6.45000,20
6.45833,20
6.46667,20
6.47500,20
6.48333,21
6.49167,21
6.50000,21
6.50833,21
6.51667,21
6.52500,21
6.53333,21
6.54167,21
6.55000,21
6.55833,21
6.56667,20
6.57500,20
6.58333,19
6.59167,19
6.60000,19
6.60833,19
6.61667,19
6.62500,19
6.63333,19
6.64167,19
6.65000,19
6.65833,19
6.66667,19
6.67500,19
6.68333,18
6.69167,18
6.70000,18
6.70833,18
6.71667,18
6.72500,18
6.73333,18
6.74167,17
6.75000,17
6.75833,16
6.76667,16
6.77500,16
6.78333,16
6.79167,16
6.80000,15
6.80833,15
6.81667,15
6.82500,14
6.83333,13
6.84167,13
6.85000,13
6.85833,12
6.86667,12
6.87500,11
6.88333,11
6.89167,11
6.90000,10
6.90833,10
6.91667,10
6.92500,9
6.93333,9
6.94167,9
6.95000,8
6.95833,8
6.96667,7
6.97500,7
6.98333,7
6.99167,6
7.00000,6
7.00833,6
7.01667,6
7.02500,5
7.03333,4
7.04167,4
7.05000,4
7.05833,4
7.06667,4
7.07500,4
7.08333,4
7.09167,4
7.10000,4
7.10833,4
7.11667,4
7.12500,4
7.13333,4
7.14167,4
7.15000,5
7.15833,5
7.16667,5
7.17500,6
7.18333,6
7.19167,7
7.20000,7
7.20833,7
7.21667,7
7.22500,8
7.23333,8
7.24167,8
7.25000,9
7.25833,9
7.26667,10
7.27500,10
7.28333,11
7.29167,11
7.30000,12
7.30833,12
7.31667,12
7.32500,13
7.33333,13
7.34167,13
7.35000,13
7.35833,13
7.36667,14
7.37500,14
7.38333,15
7.39167,15
7.40000,16
7.40833,17
7.41667,17
7.42500,18
7.43333,18
7.44167,18
7.45000,18
7.45833,19
7.46667,19
7.47500,19
7.48333,19
7.49167,19
7.50000,19
7.50833,19
7.51667,19
7.52500,19
7.53333,19
7.54167,20
7.55000,20
7.55833,21
7.56667,21
7.57500,21
7.58333,21
7.59167,21
7.60000,21
7.60833,21
7.61667,22
7.62500,22
7.63333,22
7.64167,22
7.65000,22
7.65833,22
7.66667,22
7.67500,21
7.68333,21
7.69167,20
7.70000,20
7.70833,21
7.71667,21
7.72500,22
7.73333,22
7.74167,22
7.75000,22
7.75833,22
7.76667,22
7.77500,22
7.78333,22
7.79167,22
7.80000,22
7.80833,22
7.81667,22
7.82500,22
7.83333,22
7.84167,21
7.85000,22
7.85833,22
7.86667,22
7.87500,22
7.88333,22
7.89167,22
7.90000,22
7.90833,23
7.91667,23
7.92500,23
7.93333,23
7.94167,23
7.95000,22
7.95833,22
7.96667,23
7.97500,23
7.98333,23
7.99167,23
8.00000,23
8.00833,23
8.01667,23
8.02500,23
8.03333,23
8.04167,23
8.05000,23
8.05833,23
8.06667,23
8.07500,23
8.08333,23
8.09167,22
8.10000,22
8.10833,22
8.11667,22
8.12500,22
8.13333,22
8.14167,22
8.15000,22
8.15833,22
8.16667,22
8.17500,22
8.18333,21
8.19167,21
8.20000,20
8.20833,20
8.21667,20
8.22500,20
8.23333,21
8.24167,21
8.25000,21
8.25833,21
8.26667,21
8.27500,21
8.28333,21
8.29167,21
8.30000,20
8.30833,20
8.31667,20
8.32500,20
8.33333,20
8.34167,20
8.35000,20
8.35833,20
8.36667,20
8.37500,20
8.38333,20
8.39167,20
8.40000,21
8.40833,21
8.41667,21
8.42500,22
8.43333,22
8.44167,22
8.45000,22
8.45833,22
8.46667,22
8.47500,22
8.48333,22
8.49167,22
8.50000,22
8.50833,22
8.51667,23
8.52500,23
8.53333,23
8.54167,23
8.55000,23
8.55833,23
8.56667,23
8.57500,22
8.58333,22
8.59167,21
8.60000,21
8.60833,21
8.61667,21
8.62500,21
8.63333,21
8.64167,21
8.65000,20
8.65833,19
8.66667,19
8.67500,18
8.68333,18
8.69167,18
8.70000,19
8.70833,19
8.71667,19
8.72500,18
8.73333,18
8.74167,17
8.75000,17
8.75833,17
8.76667,17
8.77500,17
8.78333,17
8.79167,17
8.80000,16
8.80833,15
8.81667,15
8.82500,15
8.83333,15
8.84167,14
8.85000,14
8.85833,14
8.86667,13
8.87500,13
8.88333,13
8.89167,13
8.90000,13
8.90833,13
8.91667,13
8.92500,13
8.93333,13
8.94167,13
8.95000,13
8.95833,13
8.96667,12
8.97500,12
8.98333,12
8.99167,12
9.00000,12
9.00833,12
9.01667,13
9.02500,13
9.03333,13
9.04167,14
9.05000,14
9.05833,14
9.06667,14
9.07500,14
9.08333,15
9.09167,15
9.10000,15
9.10833,15
9.11667,15
9.12500,15
9.13333,15
9.14167,15
9.15000,16
9.15833,16
9.16667,16
9.17500,16
9.18333,17
9.19167,16
9.20000,16
9.20833,16
9.21667,16
9.22500,17
9.23333,17
9.24167,17
9.25000,17
9.25833,17
9.26667,17
9.27500,17
9.28333,17
9.29167,17
9.30000,17
9.30833,17
9.31667,18
9.32500,18
9.33333,18
9.34167,18
9.35000,18
9.35833,18
9.36667,18
9.37500,18
9.38333,18
9.39167,18
9.40000,18
9.40833,18
9.41667,18
9.42500,17
9.43333,17
9.44167,17
9.45000,17
9.45833,17
9.46667,17
9.47500,17
9.48333,17
9.49167,17
9.50000,17
9.50833,17
9.51667,17
9.52500,17
9.53333,17
9.54167,17
9.55000,17
9.55833,17
9.56667,17
9.57500,17
9.58333,18
9.59167,18
9.60000,18
9.60833,19
9.61667,19
9.62500,20
9.63333,20
9.64167,20
9.65000,21
9.65833,21
9.66667,21
9.67500,21
9.68333,21
9.69167,21
9.70000,21
9.70833,21
9.71667,22
9.72500,22
9.73333,22
9.74167,22
9.75000,22
9.75833,23
9.76667,23
9.77500,24
9.78333,24
9.79167,24
9.80000,24
9.80833,24
9.81667,25
9.82500,25
9.83333,25
9.84167,25
9.85000,25
9.85833,25
9.86667,26
9.87500,26
9.88333,26
9.89167,26
9.90000,26
9.90833,26
9.91667,26
9.92500,26
9.93333,26
9.94167,26
9.95000,25
9.95833,25
9.96667,25
9.97500,26
9.98333,26
9.99167,25
10.00000,25
10.00833,25
10.01667,25
10.02500,24
10.03333,24
10.04167,24
10.05000,23
10.05833,23
10.06667,22
10.07500,22
10.08333,22
10.09167,21
10.10000,21
10.10833,20
10.11667,20
10.12500,19
10.13333,19
10.14167,18
10.15000,18
10.15833,18
10.16667,18
10.17500,18
10.18333,17
10.19167,17
10.20000,16
10.20833,16
10.21667,15
10.22500,15
10.23333,15
10.24167,14
10.25000,14
10.25833,14
10.26667,14
10.27500,14
10.28333,14
10.29167,14
10.30000,14
10.30833,14
10.31667,14
10.32500,14
10.33333,14
10.34167,14
10.35000,14
10.35833,14
10.36667,15
10.37500,15
10.38333,15
10.39167,15
10.40000,16
10.40833,16
10.41667,17
10.42500,17
10.43333,18
10.44167,19
10.45000,20
10.45833,22
10.46667,24
10.47500,26
10.48333,29
10.49167,33
10.50000,39
10.50833,46
10.51667,55
10.52500,67
10.53333,82
10.54167,101
10.55000,125
10.55833,155
10.56667,193
10.57500,240
10.58333,298
10.59167,367
10.60000,451
10.60833,552
10.61667,671
10.62500,810
10.63333,973
10.64167,1160
10.65000,1375
10.65833,1618
10.66667,1891
10.67500,2197
10.68333,2536
10.69167,2908
10.70000,3315
10.70833,3756
10.71667,4230
10.72500,4735
10.73333,5271
10.74167,5833
10.75000,6419
10.75833,7025
10.76667,7644
10.77500,8273
10.78333,8905
10.79167,9532
10.80000,10148
10.80833,10745
10.81667,11314
10.82500,11849
10.83333,12339
10.84167,12779
10.85000,13159
10.85833,13474
10.86667,13717
10.87500,13884
10.88333,13971
10.89167,13977
10.90000,13900
10.90833,13742
10.91667,13504
10.92500,13192
10.93333,12810
10.94167,12366
10.95000,11867
10.95833,11323
10.96667,10742
10.97500,10134
10.98333,9508
10.99167,8873
11.00000,8237
11.00833,7608
11.01667,6993
11.02500,6398
11.03333,5827
11.04167,5284
11.05000,4772
11.05833,4294
11.06667,3849
11.07500,3439
11.08333,3062
11.09167,2718
11.10000,2406
11.10833,2125
11.11667,1872
11.12500,1645
11.13333,1443
11.14167,1263
11.15000,1104
11.15833,964
11.16667,841
11.17500,733
11.18333,638
11.19167,556
11.20000,484
11.20833,423
11.21667,369
11.22500,323
11.23333,284
11.24167,250
11.25000,221
11.25833,196
11.26667,176
11.27500,158
11.28333,144
11.29167,132
11.30000,122
11.30833,113
11.31667,105
11.32500,99
11.33333,94
11.34167,91
11.35000,87
11.35833,85
11.36667,82
11.37500,80
11.38333,79
11.39167,77
11.40000,76
11.40833,75
11.41667,74
11.42500,73
11.43333,72
11.44167,70
11.45000,69
11.45833,67
11.46667,66
11.47500,65
11.48333,63
11.49167,62
11.50000,61
11.50833,60
11.51667,58
11.52500,57
11.53333,56
11.54167,54
11.55000,53
11.55833,51
11.56667,50
11.57500,49
11.58333,47
11.59167,46
11.60000,45
11.60833,43
11.61667,42
11.62500,41
11.63333,40
11.64167,39
11.65000,38
11.65833,37
11.66667,36
11.67500,35
11.68333,34
11.69167,32
11.70000,31
11.70833,30
11.71667,30
11.72500,29
11.73333,28
11.74167,28
11.75000,27
11.75833,26
11.76667,25
11.77500,25
11.78333,24
11.79167,23
11.80000,22
11.80833,21
11.81667,20
11.82500,20
11.83333,19
11.84167,18
11.85000,18
11.85833,17
11.86667,17
11.87500,16
11.88333,15
11.89167,15
11.90000,14
11.90833,14
11.91667,13
11.92500,13
11.93333,13
11.94167,13
11.95000,13
11.95833,12
11.96667,12
11.97500,12
11.98333,12
11.99167,12
12.00000,12
12.00833,12
12.01667,13
12.02500,12
12.03333,12
12.04167,13
12.05000,13
12.05833,13
12.06667,13
12.07500,13
12.08333,13
12.09167,13
12.10000,13
12.10833,13
12.11667,13
12.12500,13
12.13333,12
12.14167,12
12.15000,12
12.15833,12
12.16667,12
12.17500,11
12.18333,11
12.19167,11
12.20000,11
12.20833,11
12.21667,11
12.22500,11
12.23333,10
12.24167,10
12.25000,10
12.25833,9
12.26667,9
12.27500,9
12.28333,8
12.29167,8
12.30000,8
12.30833,8
12.31667,8
12.32500,8
12.33333,8
12.34167,8
12.35000,8
12.35833,7
12.36667,7
12.37500,7
12.38333,7
12.39167,7
12.40000,7
12.40833,7
12.41667,7
12.42500,7
12.43333,7
12.44167,7
12.45000,8
12.45833,8
12.46667,8
12.47500,8
12.48333,9
12.49167,9
12.50000,10
12.50833,10
12.51667,10
12.52500,11
12.53333,11
12.54167,12
12.55000,13
12.55833,14
12.56667,15
12.57500,17
12.58333,18
12.59167,19
12.60000,21
12.60833,24
12.61667,27
12.62500,30
12.63333,35
12.64167,40
12.65000,47
12.65833,55
12.66667,65
12.67500,77
12.68333,91
12.69167,108
12.70000,127
12.70833,150
12.71667,177
12.72500,207
12.73333,242
12.74167,281
12.75000,326
12.75833,376
12.76667,431
12.77500,493
12.78333,560
12.79167,633
12.80000,714
12.80833,801
12.81667,894
12.82500,994
12.83333,1101
12.84167,1215
12.85000,1335
12.85833,1463
12.86667,1596
12.87500,1736
12.88333,1883
12.89167,2035
12.90000,2193
12.90833,2358
12.91667,2528
12.92500,2704
12.93333,2885
12.94167,3071
12.95000,3262
12.95833,3458
12.96667,3658
12.97500,3863
12.98333,4073
12.99167,4286
13.00000,4504
13.00833,4726
13.01667,4952
13.02500,5182
13.03333,5415
13.04167,5651
13.05000,5890
13.05833,6132
13.06667,6378
13.07500,6627
13.08333,6879
13.09167,7134
13.10000,7392
13.10833,7653
13.11667,7916
13.12500,8182
13.13333,8451
13.14167,8723
13.15000,8997
13.15833,9274
13.16667,9553
13.17500,9836
13.18333,10120
13.19167,10406
13.20000,10695
13.20833,10987
13.21667,11281
13.22500,11578
13.23333,11877
13.24167,12178
13.25000,12482
13.25833,12789
13.26667,13098
13.27500,13409
13.28333,13722
13.29167,14038
13.30000,14356
13.30833,14676
13.31667,14999
13.32500,15325
13.33333,15652
13.34167,15982
13.35000,16315
13.35833,16650
13.36667,16988
13.37500,17327
13.38333,17670
13.39167,18015
13.40000,18362
13.40833,18712
13.41667,19065
13.42500,19420
13.43333,19777
13.44167,20137
13.45000,20500
13.45833,20865
13.46667,21233
13.47500,21603
13.48333,21976
13.49167,22352
13.50000,22731
13.50833,23112
13.51667,23496
13.52500,23883
13.53333,24273
13.54167,24665
13.55000,25060
13.55833,25458
13.56667,25859
13.57500,26263
13.58333,26669
13.59167,27079
13.60000,27491
13.60833,27906
13.61667,28323
13.62500,28744
13.63333,29167
13.64167,29594
13.65000,30024
13.65833,30457
13.66667,30893
13.67500,31333
13.68333,31775
13.69167,32220
13.70000,32669
13.70833,33120
13.71667,33575
13.72500,34033
13.73333,34494
13.74167,34958
13.75000,35426
13.75833,35897
13.76667,36371
13.77500,36849
13.78333,37330
13.79167,37814
13.80000,38302
13.80833,38793
13.81667,39287
13.82500,39784
13.83333,40286
13.84167,40790
13.85000,41296
13.85833,41804
13.86667,42313
13.87500,42819
13.88333,43319
13.89167,43807
13.90000,44274
13.90833,44709
13.91667,45094
13.92500,45411
13.93333,45637
13.94167,45747
13.95000,45714
13.95833,45512
13.96667,45117
13.97500,44509
13.98333,43673
13.99167,42605
14.00000,41305
14.00833,39784
14.01667,38062
14.02500,36167
14.03333,34133
14.04167,31997
14.05000,29802
14.05833,27588
14.06667,25396
14.07500,23262
14.08333,21220
14.09167,19294
14.10000,17507
14.10833,15872
14.11667,14399
14.12500,13090
14.13333,11947
14.14167,10964
14.15000,10136
14.15833,9453
14.16667,8905
14.17500,8480
14.18333,8168
14.19167,7955
14.20000,7831
14.20833,7782
14.21667,7798
14.22500,7868
14.23333,7981
14.24167,8127
14.25000,8295
14.25833,8478
14.26667,8666
14.27500,8852
14.28333,9028
14.29167,9189
14.30000,9328
14.30833,9442
14.31667,9526
14.32500,9578
14.33333,9595
14.34167,9576
14.35000,9521
14.35833,9431
14.36667,9305
14.37500,9145
14.38333,8955
14.39167,8735
14.40000,8489
14.40833,8221
14.41667,7933
14.42500,7629
14.43333,7313
14.44167,6987
14.45000,6655
14.45833,6321
14.46667,5987
14.47500,5655
14.48333,5328
14.49167,5008
14.50000,4697
14.50833,4396
14.51667,4107
14.52500,3830
14.53333,3566
14.54167,3317
14.55000,3081
14.55833,2859
14.56667,2651
14.57500,2456
14.58333,2275
14.59167,2107
14.60000,1951
14.60833,1806
14.61667,1673
14.62500,1551
14.63333,1438
14.64167,1335
14.65000,1240
14.65833,1153
14.66667,1074
14.67500,1002
14.68333,937
14.69167,877
14.70000,822
14.70833,771
14.71667,726
14.72500,684
14.73333,646
14.74167,612
14.75000,581
14.75833,553
14.76667,528
14.77500,505
14.78333,484
14.79167,464
14.80000,446
14.80833,430
14.81667,415
14.82500,402
14.83333,390
14.84167,379
14.85000,369
14.85833,359
14.86667,351
14.87500,343
14.88333,336
14.89167,330
14.90000,324
14.90833,318
14.91667,313
14.92500,308
14.93333,304
14.94167,300
14.95000,297
14.95833,294
14.96667,291
14.97500,288
14.98333,287
14.99167,285
15.00000,283
15.00833,282
15.01667,281
15.02500,280
15.03333,279
15.04167,279
15.05000,279
15.05833,279
15.06667,279
15.07500,279
15.08333,279
15.09167,279
15.10000,279
15.10833,279
15.11667,280
15.12500,280
15.13333,280
15.14167,280
15.15000,280
15.15833,279
15.16667,278
15.17500,278
15.18333,277
15.19167,275
15.20000,274
15.20833,272
15.21667,271
15.22500,269
15.23333,267
15.24167,265
15.25000,263
15.25833,260
15.26667,257
15.27500,254
15.28333,251
15.29167,249
15.30000,246
15.30833,243
15.31667,240
15.32500,237
15.33333,234
15.34167,231
15.35000,228
15.35833,225
15.36667,222
15.37500,220
15.38333,217
15.39167,214
15.40000,212
15.40833,210
15.41667,208
15.42500,206
15.43333,205
15.44167,203
15.45000,202
15.45833,201
15.46667,200
15.47500,199
15.48333,199
15.49167,198
15.50000,197
15.50833,197
15.51667,196
15.52500,196
15.53333,196
15.54167,196
15.55000,196
15.55833,196
15.56667,196
15.57500,196
15.58333,196
15.59167,196
15.60000,196
15.60833,197
15.61667,197
15.62500,197
15.63333,197
15.64167,196
15.65000,196
15.65833,195
15.66667,195
15.67500,194
15.68333,193
15.69167,192
15.70000,191
15.70833,189
15.71667,188
15.72500,186
15.73333,185
15.74167,184
15.75000,182
15.75833,181
15.76667,179
15.77500,178
15.78333,175
15.79167,173
15.80000,171
15.80833,169
15.81667,168
15.82500,166
15.83333,164
15.84167,162
15.85000,160
15.85833,158
15.86667,155
15.87500,153
15.88333,150
15.89167,148
15.90000,146
15.90833,144
15.91667,142
15.92500,139
15.93333,137
15.94167,136
15.95000,134
15.95833,132
15.96667,130
15.97500,128
15.98333,126
15.99167,124
16.00000,122
16.00833,121
16.01667,119
16.02500,117
16.03333,116
16.04167,114
16.05000,113
16.05833,112
16.06667,110
16.07500,109
16.08333,108
16.09167,107
16.10000,106
16.10833,104
16.11667,103
16.12500,102
16.13333,101
16.14167,101
16.15000,100
16.15833,99
16.16667,98
16.17500,97
16.18333,97
16.19167,96
16.20000,96
16.20833,96
16.21667,95
16.22500,95
16.23333,95
16.24167,95
16.25000,94
16.25833,94
16.26667,94
16.27500,94
16.28333,94
16.29167,93
16.30000,94
16.30833,94
16.31667,94
16.32500,94
16.33333,94
16.34167,95
16.35000,95
16.35833,95
16.36667,95
16.37500,96
16.38333,96
16.39167,96
16.40000,97
16.40833,97
16.41667,97
16.42500,97
16.43333,97
16.44167,97
16.45000,97
16.45833,98
16.46667,98
16.47500,98
16.48333,99
16.49167,98
16.50000,98
16.50833,98
16.51667,99
16.52500,99
16.53333,100
16.54167,100
16.55000,100
16.55833,100
16.56667,100
16.57500,100
16.58333,99
16.59167,99
16.60000,98
16.60833,98
16.61667,98
16.62500,98
16.63333,97
16.64167,97
16.65000,96
16.65833,95
16.66667,95
16.67500,94
16.68333,94
16.69167,93
16.70000,92
16.70833,92
16.71667,92
16.72500,92
16.73333,91
16.74167,91
16.75000,90
16.75833,89
16.76667,89
16.77500,88
16.78333,88
16.79167,88
16.80000,87
16.80833,87
16.81667,86
16.82500,86
16.83333,85
16.84167,85
16.85000,84
16.85833,84
16.86667,83
16.87500,82
16.88333,82
16.89167,81
16.90000,81
16.90833,80
16.91667,80
16.92500,80
16.93333,80
16.94167,80
16.95000,80
16.95833,79
16.96667,79
16.97500,79
16.98333,79
16.99167,79
17.00000,79
17.00833,79
17.01667,79
17.02500,79
17.03333,78
17.04167,78
17.05000,78
17.05833,77
17.06667,77
17.07500,77
17.08333,77
17.09167,77
17.10000,77
17.10833,77
17.11667,77
17.12500,76
17.13333,76
17.14167,75
17.15000,75
17.15833,75
17.16667,74
17.17500,74
17.18333,74
17.19167,74
17.20000,73
17.20833,73
17.21667,72
17.22500,72
17.23333,71
17.24167,70
17.25000,70
17.25833,69
17.26667,68
17.27500,67
17.28333,66
17.29167,65
17.30000,65
17.30833,64
17.31667,64
17.32500,63
17.33333,63
17.34167,62
17.35000,62
17.35833,61
17.36667,61
17.37500,60
17.38333,60
17.39167,59
17.40000,59
17.40833,59
17.41667,59
17.42500,58
17.43333,58
17.44167,58
17.45000,58
17.45833,58
17.46667,58
17.47500,58
17.48333,58
17.49167,57
17.50000,57
17.50833,57
17.51667,57
17.52500,58
17.53333,58
17.54167,58
17.55000,58
17.55833,59
17.56667,59
17.57500,59
17.58333,60
17.59167,60
17.60000,60
17.60833,61
17.61667,61
17.62500,62
17.63333,63
17.64167,64
17.65000,64
17.65833,65
17.66667,65
17.67500,66
17.68333,66
17.69167,66
17.70000,67
17.70833,67
17.71667,68
17.72500,68
17.73333,68
17.74167,68
17.75000,68
17.75833,68
17.76667,68
17.77500,68
17.78333,68
17.79167,68
17.80000,68
17.80833,67
17.81667,67
17.82500,67
17.83333,67
17.84167,67
17.85000,66
17.85833,66
17.86667,66
17.87500,66
17.88333,66
17.89167,65
17.90000,64
17.90833,64
17.91667,63
17.92500,63
17.93333,62
17.94167,62
17.95000,62
17.95833,61
17.96667,60
17.97500,60
17.98333,59
17.99167,58
18.00000,58
18.00833,57
18.01667,56
18.02500,56
18.03333,55
18.04167,55
18.05000,55
18.05833,54
18.06667,54
18.07500,54
18.08333,53
18.09167,53
18.10000,52
18.10833,52
18.11667,52
18.12500,52
18.13333,52
18.14167,51
18.15000,51
18.15833,52
18.16667,52
18.17500,52
18.18333,52
18.19167,52
18.20000,52
18.20833,52
18.21667,52
18.22500,52
18.23333,52
18.24167,52
18.25000,52
18.25833,52
18.26667,52
18.27500,53
18.28333,53
18.29167,54
18.30000,54
18.30833,54
18.31667,54
18.32500,55
18.33333,55
18.34167,55
18.35000,56
18.35833,56
18.36667,56
18.37500,57
18.38333,57
18.39167,57
18.40000,57
18.40833,57
18.41667,57
18.42500,57
18.43333,57
18.44167,57
18.45000,57
18.45833,57
18.46667,57
18.47500,57
18.48333,57
18.49167,57
18.50000,57
18.50833,56
18.51667,56
18.52500,55
18.53333,55
18.54167,55
18.55000,55
18.55833,55
18.56667,55
18.57500,54
18.58333,54
18.59167,53
18.60000,53
18.60833,53
18.61667,53
18.62500,53
18.63333,53
18.64167,52
18.65000,52
18.65833,52
18.66667,52
18.67500,52
18.68333,52
18.69167,52
18.70000,53
18.70833,53
18.71667,54
18.72500,55
18.73333,55
18.74167,55
18.75000,56
18.75833,56
18.76667,56
18.77500,57
18.78333,58
18.79167,58
18.80000,60
18.80833,60
18.81667,62
18.82500,63
18.83333,64
18.84167,65
18.85000,67
18.85833,68
18.86667,70
18.87500,71
18.88333,73
18.89167,75
18.90000,77
18.90833,78
18.91667,80
18.92500,81
18.93333,83
18.94167,84
18.95000,85
18.95833,87
18.96667,88
18.97500,90
18.98333,91
18.99167,92
19.00000,93
19.00833,94
19.01667,95
19.02500,96
19.03333,96
19.04167,97
19.05000,97
19.05833,98
19.06667,98
19.07500,98
19.08333,98
19.09167,98
19.10000,97
19.10833,97
19.11667,96
19.12500,96
19.13333,95
19.14167,94
19.15000,92
19.15833,91
19.16667,90
19.17500,88
19.18333,87
19.19167,86
19.20000,84
19.20833,82
19.21667,81
19.22500,79
19.23333,77
19.24167,76
19.25000,74
19.25833,72
19.26667,70
19.27500,68
19.28333,66
19.29167,64
19.30000,62
19.30833,61
19.31667,59
19.32500,58
19.33333,56
19.34167,54
19.35000,53
19.35833,51
19.36667,50
19.37500,49
19.38333,47
19.39167,46
19.40000,45
19.40833,43
19.41667,42
19.42500,41
19.43333,40
19.44167,39
19.45000,38
19.45833,37
19.46667,36
19.47500,35
19.48333,34
19.49167,33
19.50000,33
19.50833,32
19.51667,32
19.52500,31
19.53333,31
19.54167,30
19.55000,29
19.55833,29
19.56667,28
19.57500,27
19.58333,27
19.59167,26
19.60000,26
19.60833,25
19.61667,25
19.62500,25
19.63333,25
19.64167,25
19.65000,24
19.65833,24
19.66667,24
19.67500,23
19.68333,23
19.69167,23
19.70000,23
19.70833,22
19.71667,22
19.72500,22
19.73333,21
19.74167,21
19.75000,21
19.75833,21
19.76667,21
19.77500,21
19.78333,21
19.79167,22
19.80000,22
19.80833,22
19.81667,22
19.82500,22
19.83333,22
19.84167,22
19.85000,22
19.85833,23
19.86667,23
19.87500,23
19.88333,23
19.89167,24
19.90000,24
19.90833,25
19.91667,26
19.92500,26
19.93333,27
19.94167,27
19.95000,28
19.95833,28
19.96667,29
19.97500,29
19.98333,30
19.99167,30
20.00000,31
20.00833,32
20.01667,33
20.02500,33
20.03333,34
20.04167,35
20.05000,36
20.05833,36
20.06667,37
20.07500,38
20.08333,38
20.09167,38
20.10000,39
20.10833,40
20.11667,41
20.12500,42
20.13333,42
20.14167,42
20.15000,43
20.15833,43
20.16667,44
20.17500,44
20.18333,44
20.19167,44
20.20000,45
20.20833,46
20.21667,46
20.22500,46
20.23333,46
20.24167,46
20.25000,46
20.25833,46
20.26667,46
20.27500,46
20.28333,46
20.29167,46
20.30000,45
20.30833,45
20.31667,45
20.32500,45
20.33333,45
20.34167,45
20.35000,45
20.35833,45
20.36667,45
20.37500,44
20.38333,44
20.39167,44
20.40000,44
20.40833,44
20.41667,44
20.42500,44
20.43333,44
20.44167,44
20.45000,44
20.45833,44
20.46667,44
20.47500,44
20.48333,43
20.49167,43
20.50000,42
20.50833,42
20.51667,42
20.52500,42
20.53333,41
20.54167,41
20.55000,41
20.55833,41
20.56667,41
20.57500,40
20.58333,40
20.59167,41
20.60000,41
20.60833,41
20.61667,40
20.62500,40
20.63333,40
20.64167,40
20.65000,40
20.65833,40
20.66667,40
20.67500,39
20.68333,39
20.69167,39
20.70000,39
20.70833,38
20.71667,38
20.72500,38
20.73333,38
20.74167,37
20.75000,38
20.75833,38
20.76667,38
20.77500,38
20.78333,38
20.79167,38
20.80000,38
20.80833,38
20.81667,38
20.82500,37
20.83333,37
20.84167,37
20.85000,38
20.85833,38
20.86667,38
20.87500,38
20.88333,38
20.89167,37
20.90000,37
20.90833,37
20.91667,37
20.92500,37
20.93333,37
20.94167,37
20.95000,37
20.95833,37
20.96667,37
20.97500,37
20.98333,37
20.99167,37
21.00000,37
21.00833,37
21.01667,37
21.02500,37
21.03333,37
21.04167,37
21.05000,37
21.05833,36
21.06667,36
21.07500,36
21.08333,36
21.09167,36
21.10000,36
21.10833,37
21.11667,37
21.12500,37
21.13333,37
21.14167,37
21.15000,37
21.15833,36
21.16667,36
21.17500,36
21.18333,36
21.19167,36
21.20000,36
21.20833,36
21.21667,36
21.22500,36
21.23333,37
21.24167,37
21.25000,37
21.25833,37
21.26667,37
21.27500,36
21.28333,36
21.29167,36
21.30000,36
21.30833,36
21.31667,36
21.32500,36
21.33333,36
21.34167,37
21.35000,37
21.35833,37
21.36667,38
21.37500,38
21.38333,38
21.39167,38
21.40000,38
21.40833,38
21.41667,38
21.42500,38
21.43333,38
21.44167,39
21.45000,39
21.45833,39
21.46667,39
21.47500,40
21.48333,40
21.49167,40
21.50000,40
21.50833,40
21.51667,40
21.52500,40
21.53333,40
21.54167,40
21.55000,40
21.55833,41
21.56667,41
21.57500,42
21.58333,42
21.59167,42
21.60000,43
21.60833,43
21.61667,43
21.62500,43
21.63333,43
21.64167,43
21.65000,44
21.65833,44
21.66667,44
21.67500,44
21.68333,44
21.69167,45
21.70000,44
21.70833,45
21.71667,45
21.72500,45
21.73333,45
21.74167,46
21.75000,46
21.75833,46
21.76667,46
21.77500,46
21.78333,46
21.79167,46
21.80000,46
21.80833,46
21.81667,47
21.82500,47
21.83333,47
21.84167,47
21.85000,47
21.85833,48
21.86667,48
21.87500,48
21.88333,47
21.89167,47
21.90000,47
21.90833,47
21.91667,47
21.92500,47
21.93333,47
21.94167,48
21.95000,47
21.95833,47
21.96667,47
21.97500,47
21.98333,47
21.99167,47
22.00000,47
22.00833,47
22.01667,47
22.02500,47
22.03333,47
22.04167,46
22.05000,46
22.05833,46
22.06667,45
22.07500,45
22.08333,45
22.09167,45
22.10000,45
22.10833,45
22.11667,45
22.12500,45
22.13333,45
22.14167,45
22.15000,45
22.15833,45
22.16667,45
22.17500,45
22.18333,44
22.19167,44
22.20000,44
22.20833,44
22.21667,44
22.22500,44
22.23333,43
22.24167,43
22.25000,43
22.25833,43
22.26667,42
22.27500,42
22.28333,42
22.29167,42
22.30000,42
22.30833,42
22.31667,42
22.32500,42
22.33333,42
22.34167,41
22.35000,41
22.35833,41
22.36667,41
22.37500,40
22.38333,40
22.39167,40
22.40000,40
22.40833,40
22.41667,40
22.42500,40
22.43333,40
22.44167,40
22.45000,40
22.45833,40
22.46667,40
22.47500,40
22.48333,40
22.49167,40
22.50000,40
22.50833,40
22.51667,39
22.52500,39
22.53333,39
22.54167,40
22.55000,40
22.55833,39
22.56667,39
22.57500,39
22.58333,39
22.59167,39
22.60000,39
22.60833,39
22.61667,39
22.62500,39
22.63333,39
22.64167,38
22.65000,38
22.65833,38
22.66667,38
22.67500,38
22.68333,38
22.69167,39
22.70000,38
22.70833,38
22.71667,38
22.72500,38
22.73333,38
22.74167,39
22.75000,39
22.75833,39
22.76667,39
22.77500,39
22.78333,39
22.79167,39
22.80000,39
22.80833,38
22.81667,38
22.82500,38
22.83333,37
22.84167,38
22.85000,38
22.85833,38
22.86667,38
22.87500,39
22.88333,39
22.89167,39
22.90000,39
22.90833,39
22.91667,39
22.92500,40
22.93333,40
22.94167,40
22.95000,40
22.95833,40
22.96667,40
22.97500,40
22.98333,40
22.99167,40
23.00000,40
23.00833,41
23.01667,41
23.02500,41
23.03333,41
23.04167,41
23.05000,41
23.05833,41
23.06667,41
23.07500,41
23.08333,41
23.09167,42
23.10000,42
23.10833,42
23.11667,42
23.12500,42
23.13333,42
23.14167,42
23.15000,42
23.15833,42
23.16667,42
23.17500,43
23.18333,43
23.19167,43
23.20000,43
23.20833,43
23.21667,43
23.22500,43
23.23333,43
23.24167,44
23.25000,44
23.25833,44
23.26667,43
23.27500,43
23.28333,43
23.29167,43
23.30000,43
23.30833,43
23.31667,42
23.32500,42
23.33333,42
23.34167,42
23.35000,41
23.35833,41
23.36667,41
23.37500,41
23.38333,41
23.39167,41
23.40000,41
23.40833,41
23.41667,41
23.42500,41
23.43333,41
23.44167,41
23.45000,41
23.45833,40
23.46667,40
23.47500,40
23.48333,40
23.49167,40
23.50000,40
23.50833,40
23.51667,40
23.52500,41
23.53333,41
23.54167,41
23.55000,40
23.55833,40
23.56667,41
23.57500,41
23.58333,41
23.59167,41
23.60000,41
23.60833,41
23.61667,42
23.62500,42
23.63333,42
23.64167,42
23.65000,43
23.65833,43
23.66667,43
23.67500,43
23.68333,43
23.69167,44
23.70000,44
23.70833,45
23.71667,45
23.72500,45
23.73333,46
23.74167,46
23.75000,45
23.75833,45
23.76667,45
23.77500,46
23.78333,46
23.79167,46
23.80000,46
23.80833,46
23.81667,45
23.82500,45
23.83333,45
23.84167,45
23.85000,46
23.85833,46
23.86667,46
23.87500,46
23.88333,46
23.89167,46
23.90000,46
23.90833,46
23.91667,46
23.92500,46
23.93333,46
23.94167,46
23.95000,46
23.95833,45
23.96667,45
23.97500,45
23.98333,44
23.99167,44
24.00000,43
24.00833,43
24.01667,42
24.02500,41
24.03333,41
24.04167,41
24.05000,41
24.05833,41
24.06667,40
24.07500,40
24.08333,40
24.09167,39
24.10000,39
24.10833,38
24.11667,37
24.12500,36
24.13333,36
24.14167,36
24.15000,35
24.15833,35
24.16667,34
24.17500,34
24.18333,33
24.19167,32
24.20000,32
24.20833,31
24.21667,31
24.22500,30
24.23333,30
24.24167,30
24.25000,30
24.25833,30
24.26667,30
24.27500,30
24.28333,29
24.29167,29
24.30000,29
24.30833,29
24.31667,29
24.32500,30
24.33333,30
24.34167,30
24.35000,31
24.35833,31
24.36667,31
24.37500,31
24.38333,31
24.39167,32
24.40000,32
24.40833,32
24.41667,32
24.42500,33
24.43333,33
24.44167,34
24.45000,34
24.45833,35
24.46667,36
24.47500,36
24.48333,37
24.49167,38
24.50000,38
24.50833,39
24.51667,40
24.52500,40
24.53333,41
24.54167,41
24.55000,42
24.55833,43
24.56667,44
24.57500,45
24.58333,45
24.59167,46
24.60000,47
24.60833,47
24.61667,47
24.62500,48
24.63333,49
24.64167,49
24.65000,50
24.65833,50
24.66667,50
24.67500,50
24.68333,51
24.69167,51
24.70000,51
24.70833,52
24.71667,52
24.72500,52
24.73333,53
24.74167,53
24.75000,53
24.75833,54
24.76667,54
24.77500,54
24.78333,54
24.79167,54
24.80000,53
24.80833,53
24.81667,53
24.82500,53
24.83333,53
24.84167,53
24.85000,53
24.85833,53
24.86667,53
24.87500,53
24.88333,53
24.89167,52
24.90000,52
24.90833,51
24.91667,50
24.92500,50
24.93333,49
24.94167,49
24.95000,48
24.95833,47
24.96667,47
24.97500,47
24.98333,46
24.99167,45
25.00000,44
25.00833,43
25.01667,42
25.02500,41
25.03333,40
25.04167,39
25.05000,38
25.05833,37
25.06667,36
25.07500,36
25.08333,35
25.09167,35
25.10000,34
25.10833,33
25.11667,32
25.12500,31
25.13333,31
25.14167,30
25.15000,30
25.15833,29
25.16667,28
25.17500,28
25.18333,27
25.19167,26
25.20000,26
25.20833,25
25.21667,24
25.22500,24
25.23333,23
25.24167,23
25.25000,22
25.25833,21
25.26667,21
25.27500,21
25.28333,21
25.29167,20
25.30000,20
25.30833,20
25.31667,20
25.32500,20
25.33333,20
25.34167,20
25.35000,20
25.35833,20
25.36667,20
25.37500,20
25.38333,20
25.39167,20
25.40000,21
25.40833,21
25.41667,21
25.42500,21
25.43333,22
25.44167,22
25.45000,23
25.45833,23
25.46667,24
25.47500,25
25.48333,25
25.49167,26
25.50000,26
25.50833,27
25.51667,28
25.52500,28
25.53333,29
25.54167,30
25.55000,31
25.55833,31
25.56667,32
25.57500,32
25.58333,33
25.59167,33
25.60000,34
25.60833,34
25.61667,35
25.62500,36
25.63333,37
25.64167,38
25.65000,39
25.65833,40
25.66667,40
25.67500,41
25.68333,41
25.69167,42
25.70000,42
25.70833,43
25.71667,43
25.72500,44
25.73333,44
25.74167,44
25.75000,45
25.75833,45
25.76667,45
25.77500,45
25.78333,45
25.79167,45
25.80000,46
25.80833,46
25.81667,47
25.82500,47
25.83333,47
25.84167,47
25.85000,47
25.85833,47
25.86667,47
25.87500,48
25.88333,48
25.89167,48
25.90000,48
25.90833,48
25.91667,48
25.92500,49
25.93333,49
25.94167,49
25.95000,49
25.95833,49
25.96667,49
25.97500,49
25.98333,49
25.99167,49
26.00000,49
26.00833,49
26.01667,49
26.02500,49
26.03333,49
26.04167,50
26.05000,50
26.05833,50
26.06667,51
26.07500,51
26.08333,51
26.09167,51
26.10000,50
26.10833,51
26.11667,51
26.12500,51
26.13333,51
26.14167,52
26.15000,52
26.15833,52
26.16667,52
26.17500,52
26.18333,52
26.19167,52
26.20000,52
26.20833,52
26.21667,52
26.22500,52
26.23333,53
26.24167,53
26.25000,53
26.25833,53
26.26667,53
26.27500,53
26.28333,53
26.29167,53
26.30000,53
26.30833,53
26.31667,52
26.32500,52
26.33333,52
26.34167,52
26.35000,52
26.35833,52
26.36667,52
26.37500,52
26.38333,52
26.39167,52
26.40000,52
26.40833,51
26.41667,51
26.42500,52
26.43333,52
26.44167,52
26.45000,51
26.45833,50
26.46667,50
26.47500,50
26.48333,50
26.49167,49
26.50000,49
26.50833,49
26.51667,48
26.52500,48
26.53333,47
26.54167,47
26.55000,47
26.55833,47
26.56667,46
26.57500,46
26.58333,45
26.59167,45
26.60000,45
26.60833,45
26.61667,45
26.62500,45
26.63333,44
26.64167,44
26.65000,43
26.65833,43
26.66667,43
26.67500,42
26.68333,42
26.69167,42
26.70000,42
26.70833,42
26.71667,42
26.72500,42
26.73333,42
26.74167,42
26.75000,42
26.75833,42
26.76667,42
26.77500,42
26.78333,42
26.79167,43
26.80000,43
26.80833,43
26.81667,43
26.82500,44
26.83333,44
26.84167,44
26.85000,45
26.85833,45
26.86667,46
26.87500,46
26.88333,46
26.89167,46
26.90000,46
26.90833,46
26.91667,46
26.92500,47
26.93333,47
26.94167,47
26.95000,47
26.95833,47
26.96667,47
26.97500,48
26.98333,48
26.99167,48
27.00000,48
27.00833,48
27.01667,48
27.02500,48
27.03333,47
27.04167,47
27.05000,48
27.05833,48
27.06667,48
27.07500,48
27.08333,48
27.09167,48
27.10000,48
27.10833,48
27.11667,48
27.12500,48
27.13333,48
27.14167,48
27.15000,47
27.15833,47
27.16667,47
27.17500,47
27.18333,46
27.19167,46
27.20000,46
27.20833,46
27.21667,46
27.22500,46
27.23333,46
27.24167,46
27.25000,46
27.25833,46
27.26667,46
27.27500,46
27.28333,46
27.29167,46
27.30000,46
27.30833,46
27.31667,46
27.32500,46
27.33333,46
27.34167,45
27.35000,45
27.35833,46
27.36667,46
27.37500,46
27.38333,46
27.39167,46
27.40000,46
27.40833,46
27.41667,46
27.42500,46
27.43333,46
27.44167,46
27.45000,47
27.45833,47
27.46667,47
27.47500,47
27.48333,47
27.49167,47
27.50000,47
27.50833,48
27.51667,47
27.52500,47
27.53333,47
27.54167,48
27.55000,48
27.55833,49
27.56667,49
27.57500,49
27.58333,49
27.59167,49
27.60000,49
27.60833,49
27.61667,49
27.62500,49
27.63333,49
27.64167,49
27.65000,48
27.65833,48
27.66667,48
27.67500,48
27.68333,48
27.69167,48
27.70000,47
27.70833,47
27.71667,47
27.72500,46
27.73333,46
27.74167,45
27.75000,45
27.75833,44
27.76667,43
27.77500,43
27.78333,42
27.79167,41
27.80000,41
27.80833,40
27.81667,39
27.82500,38
27.83333,37
27.84167,36
27.85000,35
27.85833,34
27.86667,33
27.87500,31
27.88333,30
27.89167,28
27.90000,27
27.90833,25
27.91667,24
27.92500,22
27.93333,20
27.94167,18
27.95000,17
27.95833,15
27.96667,13
27.97500,10
27.98333,8
27.99167,6
28.00000,4
28.00833,2
28.01667,-1
28.02500,-3
28.03333,-6
28.04167,-9
28.05000,-12
28.05833,-14
28.06667,-17
28.07500,-20
28.08333,-23
28.09167,-26
28.10000,-29
28.10833,-32
28.11667,-34
28.12500,-37
28.13333,-40
28.14167,-44
28.15000,-47
28.15833,-50
28.16667,-53
28.17500,-56
28.18333,-58
28.19167,-61
28.20000,-64
28.20833,-67
28.21667,-70
28.22500,-73
28.23333,-75
28.24167,-77
28.25000,-80
28.25833,-82
28.26667,-84
28.27500,-86
28.28333,-89
28.29167,-91
28.30000,-92
28.30833,-94
28.31667,-95
28.32500,-96
28.33333,-97
28.34167,-98
28.35000,-99
28.35833,-99
28.36667,-99
28.37500,-99
28.38333,-100
28.39167,-100
28.40000,-99
28.40833,-99
28.41667,-99
28.42500,-98
28.43333,-98
28.44167,-97
28.45000,-96
28.45833,-94
28.46667,-93
28.47500,-91
28.48333,-90
28.49167,-88
28.50000,-86
28.50833,-84
28.51667,-81
28.52500,-79
28.53333,-77
28.54167,-75
28.55000,-73
28.55833,-70
28.56667,-68
28.57500,-65
28.58333,-63
28.59167,-61
28.60000,-59
28.60833,-56
28.61667,-54
28.62500,-51
28.63333,-49
28.64167,-47
28.65000,-45
28.65833,-42
28.66667,-40
28.67500,-37
28.68333,-35
28.69167,-33
28.70000,-31
28.70833,-29
28.71667,-27
28.72500,-25
28.73333,-23
28.74167,-21
28.75000,-19
28.75833,-17
28.76667,-15
28.77500,-13
28.78333,-12
28.79167,-10
28.80000,-9
28.80833,-7
28.81667,-6
28.82500,-4
28.83333,-3
28.84167,-1
28.85000,-0
28.85833,1
28.86667,2
28.87500,3
28.88333,4
28.89167,5
28.90000,6
28.90833,8
28.91667,8
28.92500,9
28.93333,11
28.94167,12
28.95000,13
28.95833,14
28.96667,14
28.97500,15
28.98333,16
28.99167,17
29.00000,18
29.00833,19
29.01667,20
29.02500,21
29.03333,22
29.04167,23
29.05000,24
29.05833,25
29.06667,25
29.07500,26
29.08333,26
29.09167,27
29.10000,28
29.10833,28
29.11667,29
29.12500,29
29.13333,30
29.14167,31
29.15000,31
29.15833,32
29.16667,32
29.17500,33
29.18333,33
29.19167,34
29.20000,34
29.20833,34
29.21667,35
29.22500,35
29.23333,36
29.24167,36
29.25000,37
29.25833,37
29.26667,37
29.27500,38
29.28333,38
29.29167,38
29.30000,38
29.30833,38
29.31667,38
29.32500,39
29.33333,39
29.34167,40
29.35000,40
29.35833,40
29.36667,40
29.37500,40
29.38333,40
29.39167,40
29.40000,40
29.40833,40
29.41667,40
29.42500,40
29.43333,40
29.44167,39
29.45000,39
29.45833,39
29.46667,38
29.47500,38
29.48333,38
29.49167,38
29.50000,37
29.50833,37
29.51667,37
29.52500,37
29.53333,37
29.54167,37
29.55000,37
29.55833,37
29.56667,36
29.57500,36
29.58333,35
29.59167,35
29.60000,35
29.60833,35
29.61667,35
29.62500,34
29.63333,34
29.64167,33
29.65000,33
29.65833,32
29.66667,31
29.67500,30
29.68333,29
29.69167,29
29.70000,28
29.70833,27
29.71667,26
29.72500,25
29.73333,24
29.74167,24
29.75000,23
29.75833,22
29.76667,20
29.77500,19
29.78333,18
29.79167,17
29.80000,16
29.80833,14
29.81667,12
29.82500,11
29.83333,10
29.84167,9
29.85000,9
29.85833,7
29.86667,6
29.87500,5
29.88333,4
29.89167,3
29.90000,2
29.90833,0
29.91667,-1
29.92500,-2
29.93333,-3
29.94167,-4
29.95000,-5
29.95833,-7
29.96667,-8
29.97500,-9
29.98333,-9
29.99167,-10
30.00000,-11
30.00833,-12
30.01667,-13
30.02500,-13
30.03333,-14
30.04167,-15
30.05000,-16
30.05833,-16
30.06667,-17
30.07500,-17
30.08333,-17
30.09167,-17
30.10000,-18
30.10833,-18
30.11667,-18
30.12500,-18
30.13333,-18
30.14167,-18
30.15000,-18
30.15833,-18
30.16667,-17
30.17500,-16
30.18333,-15
30.19167,-14
30.20000,-13
30.20833,-12
30.21667,-11
30.22500,-10
30.23333,-9
30.24167,-8
30.25000,-8
30.25833,-7
30.26667,-6
30.27500,-5
30.28333,-3
30.29167,-2
30.30000,-0
30.30833,1
30.31667,3
30.32500,4
30.33333,6
30.34167,7
30.35000,9
30.35833,10
30.36667,11
30.37500,12
30.38333,14
30.39167,15
30.40000,17
30.40833,18
30.41667,20
30.42500,21
30.43333,22
30.44167,24
30.45000,25
30.45833,26
30.46667,28
30.47500,29
30.48333,30
30.49167,31
30.50000,32
30.50833,33
30.51667,34
30.52500,35
30.53333,35
30.54167,36
30.55000,37
30.55833,38
30.56667,39
30.57500,40
30.58333,40
30.59167,41
30.60000,42
30.60833,43
30.61667,43
30.62500,44
30.63333,44
30.64167,44
30.65000,45
30.65833,45
30.66667,45
30.67500,45
30.68333,44
30.69167,44
30.70000,44
30.70833,44
30.71667,44
30.72500,44
30.73333,44
30.74167,44
30.75000,44
30.75833,44
30.76667,43
30.77500,43
30.78333,43
30.79167,43
30.80000,42
30.80833,42
30.81667,42
30.82500,41
30.83333,41
30.84167,40
30.85000,40
30.85833,39
30.86667,39
30.87500,38
30.88333,38
30.89167,37
30.90000,37
30.90833,36
30.91667,36
30.92500,36
30.93333,35
30.94167,35
30.95000,35
30.95833,34
30.96667,34
30.97500,33
30.98333,33
30.99167,33
31.00000,33
31.00833,33
31.01667,33
31.02500,33
31.03333,34
31.04167,34
31.05000,34
31.05833,34
31.06667,34
31.07500,33
31.08333,33
31.09167,33
31.10000,32
31.10833,32
31.11667,32
31.12500,32
31.13333,32
31.14167,33
31.15000,34
31.15833,34
31.16667,35
31.17500,35
31.18333,35
31.19167,36
31.20000,36
31.20833,36
31.21667,36
31.22500,36
31.23333,36
31.24167,37
31.25000,37
31.25833,37
31.26667,37
31.27500,37
31.28333,37
31.29167,37
31.30000,38
31.30833,38
31.31667,39
31.32500,39
31.33333,39
31.34167,39
31.35000,39
31.35833,39
31.36667,40
31.37500,40
31.38333,40
31.39167,39
31.40000,39
31.40833,40
31.41667,40
31.42500,40
31.43333,40
31.44167,40
31.45000,40
31.45833,40
31.46667,41
31.47500,41
31.48333,41
31.49167,40
31.50000,40
31.50833,40
31.51667,40
31.52500,40
31.53333,40
31.54167,40
31.55000,41
31.55833,41
31.56667,41
31.57500,42
31.58333,42
31.59167,43
31.60000,43
31.60833,43
31.61667,43
31.62500,44
31.63333,44
31.64167,44
31.65000,45
31.65833,45
31.66667,45
31.67500,45
31.68333,45
31.69167,45
31.70000,45
31.70833,45
31.71667,45
31.72500,45
31.73333,46
31.74167,46
31.75000,46
31.75833,46
31.76667,46
31.77500,46
31.78333,46
31.79167,47
31.80000,47
31.80833,47
31.81667,47
31.82500,47
31.83333,47
31.84167,47
31.85000,47
31.85833,47
31.86667,47
31.87500,46
31.88333,46
31.89167,46
31.90000,46
31.90833,45
31.91667,45
31.92500,45
31.93333,46
31.94167,46
31.95000,46
31.95833,46
31.96667,46
31.97500,45
31.98333,46
31.99167,46
32.00000,45
32.00833,45
32.01667,45
32.02500,45
32.03333,45
32.04167,44
32.05000,44
32.05833,45
32.06667,45
32.07500,45
32.08333,45
32.09167,45
32.10000,45
32.10833,45
32.11667,45
32.12500,45
32.13333,45
32.14167,45
32.15000,45
32.15833,45
32.16667,45
32.17500,45
32.18333,45
32.19167,45
32.20000,45
32.20833,45
32.21667,46
32.22500,46
32.23333,46
32.24167,46
32.25000,47
32.25833,47
32.26667,47
32.27500,47
32.28333,47
32.29167,47
32.30000,47
32.30833,47
32.31667,47
32.32500,47
32.33333,47
32.34167,47
32.35000,47
32.35833,47
32.36667,48
32.37500,48
32.38333,48
32.39167,48
32.40000,48
32.40833,48
32.41667,48
32.42500,48
32.43333,48
32.44167,48
32.45000,48
32.45833,48
32.46667,48
32.47500,48
32.48333,48
32.49167,48
32.50000,48
32.50833,48
32.51667,49
32.52500,49
32.53333,49
32.54167,49
32.55000,49
32.55833,49
32.56667,50
32.57500,50
32.58333,50
32.59167,50
32.60000,50
32.60833,49
32.61667,49
32.62500,50
32.63333,50
32.64167,49
32.65000,49
32.65833,48
32.66667,48
32.67500,48
32.68333,48
32.69167,48
32.70000,48
32.70833,48
32.71667,48
32.72500,48
32.73333,48
32.74167,49
32.75000,49
32.75833,49
32.76667,49
32.77500,49
32.78333,49
32.79167,49
32.80000,50
32.80833,50
32.81667,50
32.82500,49
32.83333,49
32.84167,49
32.85000,49
32.85833,49
32.86667,49
32.87500,49
32.88333,48
32.89167,48
32.90000,48
32.90833,49
32.91667,49
32.92500,49
32.93333,49
32.94167,50
32.95000,50
32.95833,49
32.96667,49
32.97500,49
32.98333,49
32.99167,49
33.00000,49
33.00833,49
33.01667,49
33.02500,50
33.03333,50
33.04167,50
33.05000,50
33.05833,50
33.06667,50
33.07500,49
33.08333,49
33.09167,49
33.10000,50
33.10833,50
33.11667,50
33.12500,50
33.13333,50
33.14167,50
33.15000,50
33.15833,50
33.16667,50
33.17500,50
33.18333,49
33.19167,49
33.20000,49
33.20833,49
33.21667,49
33.22500,50
33.23333,50
33.24167,50
33.25000,49
33.25833,49
33.26667,49
33.27500,49
33.28333,50
33.29167,50
33.30000,50
33.30833,50
33.31667,50
33.32500,50
33.33333,50
33.34167,50
33.35000,50
33.35833,50
33.36667,50
33.37500,50
33.38333,50
33.39167,50
33.40000,50
33.40833,50
33.41667,50
33.42500,50
33.43333,50
33.44167,50
33.45000,50
33.45833,51
33.46667,51
33.47500,51
33.48333,50
33.49167,50
33.50000,50
33.50833,50
33.51667,50
33.52500,50
33.53333,50
33.54167,50
33.55000,50
33.55833,50
33.56667,50
33.57500,50
33.58333,50
33.59167,50
33.60000,49
33.60833,49
33.61667,49
33.62500,48
33.63333,48
33.64167,48
33.65000,47
33.65833,47
33.66667,47
33.67500,47
33.68333,47
33.69167,47
33.70000,47
33.70833,46
33.71667,46
33.72500,45
33.73333,45
33.74167,45
33.75000,44
33.75833,44
33.76667,44
33.77500,44
33.78333,44
33.79167,44
33.80000,44
33.80833,44
33.81667,44
33.82500,44
33.83333,44
33.84167,44
33.85000,44
33.85833,44
33.86667,44
33.87500,44
33.88333,44
33.89167,44
33.90000,44
33.90833,44
33.91667,45
33.92500,45
33.93333,45
33.94167,45
33.95000,45
33.95833,46
33.96667,47
33.97500,47
33.98333,48
33.99167,48
34.00000,48
34.00833,49
34.01667,49
34.02500,50
34.03333,50
34.04167,50
34.05000,51
34.05833,51
34.06667,51
34.07500,51
34.08333,51
34.09167,52
34.10000,52
34.10833,52
34.11667,52
34.12500,53
34.13333,53
34.14167,53
34.15000,53
34.15833,54
34.16667,54
34.17500,54
34.18333,54
34.19167,54
34.20000,54
34.20833,54
34.21667,54
34.22500,54
34.23333,54
34.24167,54
34.25000,54
34.25833,54
34.26667,54
34.27500,54
34.28333,53
34.29167,53
34.30000,53
34.30833,52
34.31667,52
34.32500,52
34.33333,53
34.34167,53
34.35000,52
34.35833,52
34.36667,52
34.37500,52
34.38333,52
34.39167,52
34.40000,52
34.40833,52
34.41667,51
34.42500,51
34.43333,51
34.44167,51
34.45000,51
34.45833,52
34.46667,52
34.47500,52
34.48333,52
34.49167,52
34.50000,52
34.50833,52
34.51667,52
34.52500,52
34.53333,52
34.54167,52
34.55000,52
34.55833,52
34.56667,52
34.57500,53
34.58333,53
34.59167,53
34.60000,53
34.60833,53
34.61667,54
34.62500,54
34.63333,54
34.64167,53
34.65000,53
34.65833,54
34.66667,54
34.67500,54
34.68333,55
34.69167,55
34.70000,55
34.70833,56
34.71667,56
34.72500,56
34.73333,57
34.74167,57
34.75000,57
34.75833,57
34.76667,56
34.77500,56
34.78333,56
34.79167,56
34.80000,56
34.80833,56
34.81667,56
34.82500,57
34.83333,57
34.84167,57
34.85000,57
34.85833,57
34.86667,57
34.87500,56
34.88333,56
34.89167,56
34.90000,56
34.90833,56
34.91667,55
34.92500,55
34.93333,55
34.94167,55
34.95000,55
34.95833,56
34.96667,56
34.97500,56
34.98333,56
34.99167,56
35.00000,56
35.00833,56
35.01667,56
35.02500,56
35.03333,56
35.04167,56
35.05000,56
35.05833,56
35.06667,56
35.07500,56
35.08333,56
35.09167,56
35.10000,56
35.10833,56
35.11667,55
35.12500,55
35.13333,54
35.14167,54
35.15000,54
35.15833,54
35.16667,54
35.17500,54
35.18333,53
35.19167,53
35.20000,53
35.20833,53
35.21667,52
35.22500,52
35.23333,52
35.24167,52
35.25000,52
35.25833,52
35.26667,51
35.27500,51
35.28333,51
35.29167,51
35.30000,51
35.30833,51
35.31667,51
35.32500,51
35.33333,51
35.34167,51
35.35000,50
35.35833,50
35.36667,49
35.37500,49
35.38333,48
35.39167,48
35.40000,48
35.40833,48
35.41667,48
35.42500,48
35.43333,48
35.44167,47
35.45000,47
35.45833,47
35.46667,47
35.47500,47
35.48333,46
35.49167,46
35.50000,46
35.50833,46
35.51667,46
35.52500,46
35.53333,46
35.54167,46
35.55000,46
35.55833,45
35.56667,45
35.57500,45
35.58333,45
35.59167,45
35.60000,45
35.60833,45
35.61667,45
35.62500,45
35.63333,45
35.64167,45
35.65000,46
35.65833,46
35.66667,46
35.67500,46
35.68333,46
35.69167,46
35.70000,46
35.70833,46
35.71667,46
35.72500,46
35.73333,47
35.74167,47
35.75000,47
35.75833,47
35.76667,47
35.77500,47
35.78333,46
35.79167,46
35.80000,47
35.80833,47
35.81667,47
35.82500,48
35.83333,48
35.84167,48
35.85000,48
35.85833,48
35.86667,48
35.87500,48
35.88333,48
35.89167,48
35.90000,49
35.90833,49
35.91667,49
35.92500,49
35.93333,49
35.94167,50
35.95000,50
35.95833,50
35.96667,50
35.97500,50
35.98333,50
35.99167,51
36.00000,51
36.00833,51
36.01667,52
36.02500,52
36.03333,52
36.04167,51
36.05000,51
36.05833,51
36.06667,51
36.07500,52
36.08333,52
36.09167,52
36.10000,52
36.10833,52
36.11667,52
36.12500,52
36.13333,52
36.14167,52
36.15000,52
36.15833,51
36.16667,51
36.17500,52
36.18333,52
36.19167,52
36.20000,52
36.20833,52
36.21667,52
36.22500,52
36.23333,52
36.24167,52
36.25000,52
36.25833,51
36.26667,51
36.27500,51
36.28333,52
36.29167,52
36.30000,51
36.30833,51
36.31667,51
36.32500,51
36.33333,51
36.34167,51
36.35000,51
36.35833,51
36.36667,51
36.37500,51
36.38333,51
36.39167,51
36.40000,51
36.40833,51
36.41667,51
36.42500,50
36.43333,50
36.44167,50
36.45000,50
36.45833,50
36.46667,50
36.47500,51
36.48333,51
36.49167,51
36.50000,51
36.50833,51
36.51667,51
36.52500,51
36.53333,51
36.54167,52
36.55000,52
36.55833,52
36.56667,52
36.57500,52
36.58333,52
36.59167,52
36.60000,51
36.60833,51
36.61667,51
36.62500,52
36.63333,52
36.64167,52
36.65000,52
36.65833,52
36.66667,52
36.67500,52
36.68333,52
36.69167,52
36.70000,52
36.70833,52
36.71667,52
36.72500,52
36.73333,52
36.74167,53
36.75000,53
36.75833,53
36.76667,53
36.77500,53
36.78333,53
36.79167,53
36.80000,52
36.80833,52
36.81667,52
36.82500,51
36.83333,51
36.84167,51
36.85000,52
36.85833,52
36.86667,51
36.87500,51
36.88333,51
36.89167,51
36.90000,51
36.90833,51
36.91667,51
36.92500,51
36.93333,50
36.94167,50
36.95000,50
36.95833,50
36.96667,50
36.97500,50
36.98333,50
36.99167,49
37.00000,49
37.00833,50
37.01667,49
37.02500,49
37.03333,49
37.04167,49
37.05000,48
37.05833,48
37.06667,48
37.07500,48
37.08333,48
37.09167,48
37.10000,48
37.10833,48
37.11667,47
37.12500,47
37.13333,47
37.14167,47
37.15000,47
37.15833,47
37.16667,47
37.17500,47
37.18333,46
37.19167,46
37.20000,46
37.20833,46
37.21667,46
37.22500,47
37.23333,47
37.24167,47
37.25000,47
37.25833,47
37.26667,47
37.27500,47
37.28333,47
37.29167,47
37.30000,48
37.30833,48
37.31667,48
37.32500,49
37.33333,49
37.34167,49
37.35000,50
37.35833,50
37.36667,51
37.37500,51
37.38333,51
37.39167,52
37.40000,52
37.40833,53
37.41667,53
37.42500,54
37.43333,54
37.44167,54
37.45000,55
37.45833,55
37.46667,55
37.47500,56
37.48333,56
37.49167,56
37.50000,56
37.50833,56
37.51667,56
37.52500,57
37.53333,57
37.54167,57
37.55000,58
37.55833,58
37.56667,58
37.57500,58
37.58333,59
37.59167,59
37.60000,59
37.60833,59
37.61667,59
37.62500,59
37.63333,59
37.64167,59
37.65000,59
37.65833,59
37.66667,59
37.67500,59
37.68333,59
37.69167,60
37.70000,60
37.70833,59
37.71667,59
37.72500,59
37.73333,59
37.74167,59
37.75000,59
37.75833,59
37.76667,59
37.77500,58
37.78333,58
37.79167,57
37.80000,57
37.80833,57
37.81667,57
37.82500,57
37.83333,57
37.84167,57
37.85000,57
37.85833,57
37.86667,56
37.87500,56
37.88333,56
37.89167,55
37.90000,55
37.90833,55
37.91667,55
37.92500,55
37.93333,54
37.94167,54
37.95000,54
37.95833,53
37.96667,53
37.97500,53
37.98333,53
37.99167,53
38.00000,53
38.00833,53
38.01667,52
38.02500,52
38.03333,52
38.04167,52
38.05000,52
38.05833,52
38.06667,52
38.07500,52
38.08333,52
38.09167,51
38.10000,51
38.10833,51
38.11667,51
38.12500,51
38.13333,50
38.14167,50
38.15000,50
38.15833,49
38.16667,49
38.17500,49
38.18333,49
38.19167,49
38.20000,49
38.20833,50
38.21667,50
38.22500,50
38.23333,50
38.24167,50
38.25000,50
38.25833,50
38.26667,50
38.27500,50
38.28333,50
38.29167,50
38.30000,50
38.30833,50
38.31667,50
38.32500,51
38.33333,51
38.34167,51
38.35000,51
38.35833,51
38.36667,51
38.37500,51
38.38333,51
38.39167,51
38.40000,51
38.40833,51
38.41667,51
38.42500,51
38.43333,51
38.44167,51
38.45000,51
38.45833,51
38.46667,51
38.47500,51
38.48333,51
38.49167,51
38.50000,51
38.50833,52
38.51667,52
38.52500,52
38.53333,53
38.54167,53
38.55000,53
38.55833,53
38.56667,54
38.57500,54
38.58333,55
38.59167,55
38.60000,55
38.60833,55
38.61667,55
38.62500,55
38.63333,55
38.64167,55
38.65000,55
38.65833,55
38.66667,55
38.67500,55
38.68333,55
38.69167,55
38.70000,56
38.70833,56
38.71667,56
38.72500,57
38.73333,57
38.74167,57
38.75000,57
38.75833,57
38.76667,58
38.77500,58
38.78333,58
38.79167,58
38.80000,57
38.80833,58
38.81667,57
38.82500,57
38.83333,57
38.84167,58
38.85000,58
38.85833,58
38.86667,58
38.87500,58
38.88333,58
38.89167,58
38.90000,58
38.90833,58
38.91667,57
38.92500,57
38.93333,57
38.94167,57
38.95000,57
38.95833,57
38.96667,57
38.97500,57
38.98333,57
38.99167,57
39.00000,57
39.00833,58
39.01667,58
39.02500,59
39.03333,59
39.04167,59
39.05000,59
39.05833,59
39.06667,59
39.07500,59
39.08333,59
39.09167,59
39.10000,59
39.10833,59
39.11667,58
39.12500,58
39.13333,58
39.14167,58
39.15000,58
39.15833,58
39.16667,58
39.17500,59
39.18333,59
39.19167,59
39.20000,58
39.20833,58
39.21667,58
39.22500,59
39.23333,59
39.24167,59
39.25000,59
39.25833,59
39.26667,59
39.27500,59
39.28333,59
39.29167,59
39.30000,59
39.30833,59
39.31667,59
39.32500,59
39.33333,59
39.34167,59
39.35000,59
39.35833,59
39.36667,59
39.37500,59
39.38333,60
39.39167,60
39.40000,60
39.40833,61
39.41667,61
39.42500,61
39.43333,60
39.44167,60
39.45000,59
39.45833,59
39.46667,59
39.47500,59
39.48333,59
39.49167,59
39.50000,59
39.50833,59
39.51667,58
39.52500,58
39.53333,58
39.54167,58
39.55000,58
39.55833,58
39.56667,58
39.57500,57
39.58333,57
39.59167,57
39.60000,57
39.60833,57
39.61667,58
39.62500,58
39.63333,58
39.64167,57
39.65000,57
39.65833,57
39.66667,57
39.67500,57
39.68333,57
39.69167,57
39.70000,56
39.70833,56
39.71667,55
39.72500,55
39.73333,55
39.74167,55
39.75000,55
39.75833,54
39.76667,54
39.77500,54
39.78333,54
39.79167,53
39.80000,53
39.80833,54
39.81667,53
39.82500,53
39.83333,53
39.84167,53
39.85000,53
39.85833,52
39.86667,52
39.87500,52
39.88333,51
39.89167,51
39.90000,51
39.90833,51
39.91667,51
39.92500,51
39.93333,50
39.94167,50
39.95000,50
39.95833,50
39.96667,49
39.97500,49
39.98333,49
39.99167,49
40.00000,49

