[Header]
Application Name,LabSolutions
Version,5.97 SP1
Data File Name,C:\Users\cremerlab\Desktop\griffin\2021-04-05_NC_DM_calibration\2021-04-05_NC_DM_2.5mM_calibration_452021_005_005.lcd
Output Date,4/5/2021
Output Time,8:26:39 PM

[File Information]
Type,Data File
Generated,4/5/2021 7:46:20 PM
Generated by,System Administrator
Modified,4/5/2021 8:26:38 PM
Modified by,System Administrator

[Sample Information]
Operator Name,System Administrator
Acquired,4/5/2021 7:46:38 PM
Sample Type,1:Standard
Level,5
Sample Name,2021-04-05_NC_glucose_glycerol_acetate_10mM
Sample ID,005
ISTD Amount1,1
ISTD Amount2,1
ISTD Amount3,1
ISTD Amount4,1
ISTD Amount5,1
ISTD Amount6,1
ISTD Amount7,1
ISTD Amount8,1
ISTD Amount9,1
ISTD Amount10,1
ISTD Amount11,1
ISTD Amount12,1
ISTD Amount13,1
ISTD Amount14,1
ISTD Amount15,1
ISTD Amount16,1
ISTD Amount17,1
ISTD Amount18,1
ISTD Amount19,1
ISTD Amount20,1
ISTD Amount21,1
ISTD Amount22,1
ISTD Amount23,1
ISTD Amount24,1
ISTD Amount25,1
ISTD Amount26,1
ISTD Amount27,1
ISTD Amount28,1
ISTD Amount29,1
ISTD Amount30,1
ISTD Amount31,1
ISTD Amount32,1
Sample Amount,1
Dilution Factor,1
Vial#,5
Injection Volume,20

[Original Files]
Data File,C:\Users\cremerlab\Desktop\griffin\2021-04-05_NC_DM_calibration\2021-04-05_NC_DM_2.5mM_calibration_452021_005_005.lcd
Method File,C:\Users\cremerlab\Desktop\griffin\2021-04-05_NC_DM_calibration\2021-04-05_2.5mM_mobile.lcm
Batch File,C:\Users\cremerlab\Desktop\griffin\2021-04-05_NC_DM_calibration\2021-04-05_NC_DM_2.5mM_calibration.lcb
Report Format File,c:\LabSolutions\System\DEFAULT.lsr

[File Description]


[Configuration]
Instrument Name,HPLC-PC-Instrument1
Instrument #,1
Line #,1
# of Detectors,2
Detector ID,Detector A,Detector B
Detector Name,Detector A,Detector B
# of Channels,1,1

[Peak Table(Detector A)]
# of Peaks,0

[Peak Table(Detector B)]
# of Peaks,5
Peak#,R.Time,I.Time,F.Time,Area,Height,A/H,Conc.,Mark,ID#,Name,k',Plate #,Plate Ht.,Tailing,Resolution,Sep.Factor,Area Ratio,Height Ratio,Conc. %,Norm Conc.
1,11.015,10.592,12.158,1712445,99436,17.222,0.000,   ,,,0.000,9192,16.318,0.915,0.000,0.000,0,0,0.000,0.000
2,14.578,12.642,15.175,5283526,111696,47.303,0.000,   ,,,0.323,2806,53.449,0.610,4.567,0.000,0,0,0.000,0.000
3,15.662,15.175,18.550,1513220,60685,24.936,0.000, V ,,,0.422,9562,15.688,1.140,1.244,1.304,0,0,0.000,0.000
4,22.052,21.333,23.242,408326,14856,27.486,0.000,   ,,,1.002,14860,10.094,1.093,9.368,2.375,0,0,0.000,0.000
5,25.011,24.325,26.000,163463,5537,29.521,0.000,   ,,,1.271,16369,9.164,1.071,3.931,1.268,0,0,0.000,0.000

[LC Chromatogram(Detector B-Ch1)]
Interval(msec),500
# of Points,4801
Start Time(min),0.000
End Time(min),40.000
Intensity Units,mV
Intensity Multiplier,0.001
R.Time (min),Intensity
0.00000,-9
0.00833,-9
0.01667,-0
0.02500,-0
0.03333,-1
0.04167,-0
0.05000,-0
0.05833,0
0.06667,0
0.07500,-0
0.08333,-0
0.09167,-0
0.10000,0
0.10833,1
0.11667,1
0.12500,1
0.13333,2
0.14167,2
0.15000,2
0.15833,2
0.16667,2
0.17500,2
0.18333,3
0.19167,3
0.20000,4
0.20833,5
0.21667,5
0.22500,5
0.23333,5
0.24167,6
0.25000,7
0.25833,7
0.26667,7
0.27500,8
0.28333,8
0.29167,8
0.30000,9
0.30833,9
0.31667,9
0.32500,10
0.33333,10
0.34167,11
0.35000,11
0.35833,11
0.36667,12
0.37500,12
0.38333,13
0.39167,14
0.40000,15
0.40833,16
0.41667,16
0.42500,17
0.43333,17
0.44167,17
0.45000,18
0.45833,18
0.46667,18
0.47500,19
0.48333,19
0.49167,20
0.50000,20
0.50833,21
0.51667,21
0.52500,21
0.53333,22
0.54167,22
0.55000,22
0.55833,23
0.56667,23
0.57500,23
0.58333,23
0.59167,23
0.60000,23
0.60833,23
0.61667,24
0.62500,24
0.63333,24
0.64167,24
0.65000,24
0.65833,25
0.66667,25
0.67500,25
0.68333,25
0.69167,26
0.70000,26
0.70833,26
0.71667,26
0.72500,26
0.73333,25
0.74167,25
0.75000,25
0.75833,26
0.76667,26
0.77500,26
0.78333,26
0.79167,26
0.80000,26
0.80833,26
0.81667,25
0.82500,25
0.83333,25
0.84167,25
0.85000,25
0.85833,24
0.86667,24
0.87500,24
0.88333,24
0.89167,23
0.90000,23
0.90833,23
0.91667,22
0.92500,22
0.93333,22
0.94167,22
0.95000,21
0.95833,21
0.96667,21
0.97500,21
0.98333,20
0.99167,20
1.00000,19
1.00833,19
1.01667,18
1.02500,17
1.03333,17
1.04167,16
1.05000,16
1.05833,16
1.06667,15
1.07500,15
1.08333,14
1.09167,14
1.10000,13
1.10833,13
1.11667,12
1.12500,12
1.13333,12
1.14167,12
1.15000,11
1.15833,11
1.16667,10
1.17500,10
1.18333,10
1.19167,10
1.20000,9
1.20833,9
1.21667,9
1.22500,8
1.23333,8
1.24167,8
1.25000,8
1.25833,8
1.26667,8
1.27500,7
1.28333,8
1.29167,7
1.30000,7
1.30833,7
1.31667,7
1.32500,7
1.33333,8
1.34167,8
1.35000,8
1.35833,8
1.36667,8
1.37500,8
1.38333,8
1.39167,8
1.40000,8
1.40833,9
1.41667,9
1.42500,9
1.43333,10
1.44167,11
1.45000,11
1.45833,12
1.46667,12
1.47500,12
1.48333,12
1.49167,12
1.50000,13
1.50833,13
1.51667,13
1.52500,13
1.53333,14
1.54167,14
1.55000,14
1.55833,14
1.56667,14
1.57500,14
1.58333,14
1.59167,15
1.60000,15
1.60833,16
1.61667,16
1.62500,17
1.63333,17
1.64167,17
1.65000,17
1.65833,17
1.66667,18
1.67500,18
1.68333,17
1.69167,18
1.70000,18
1.70833,18
1.71667,18
1.72500,17
1.73333,17
1.74167,17
1.75000,17
1.75833,17
1.76667,17
1.77500,17
1.78333,17
1.79167,17
1.80000,17
1.80833,17
1.81667,16
1.82500,16
1.83333,16
1.84167,16
1.85000,16
1.85833,16
1.86667,16
1.87500,16
1.88333,16
1.89167,16
1.90000,16
1.90833,15
1.91667,15
1.92500,15
1.93333,15
1.94167,14
1.95000,14
1.95833,14
1.96667,14
1.97500,14
1.98333,15
1.99167,15
2.00000,16
2.00833,16
2.01667,16
2.02500,16
2.03333,17
2.04167,17
2.05000,17
2.05833,18
2.06667,19
2.07500,19
2.08333,20
2.09167,20
2.10000,20
2.10833,21
2.11667,21
2.12500,22
2.13333,22
2.14167,23
2.15000,23
2.15833,23
2.16667,24
2.17500,24
2.18333,25
2.19167,25
2.20000,26
2.20833,26
2.21667,26
2.22500,27
2.23333,27
2.24167,27
2.25000,28
2.25833,28
2.26667,28
2.27500,28
2.28333,28
2.29167,28
2.30000,28
2.30833,28
2.31667,29
2.32500,28
2.33333,29
2.34167,29
2.35000,29
2.35833,29
2.36667,28
2.37500,28
2.38333,28
2.39167,28
2.40000,28
2.40833,28
2.41667,28
2.42500,27
2.43333,27
2.44167,26
2.45000,26
2.45833,26
2.46667,25
2.47500,24
2.48333,24
2.49167,24
2.50000,23
2.50833,23
2.51667,22
2.52500,22
2.53333,21
2.54167,21
2.55000,21
2.55833,20
2.56667,19
2.57500,19
2.58333,18
2.59167,18
2.60000,18
2.60833,18
2.61667,17
2.62500,17
2.63333,17
2.64167,17
2.65000,16
2.65833,16
2.66667,16
2.67500,16
2.68333,16
2.69167,15
2.70000,15
2.70833,15
2.71667,15
2.72500,15
2.73333,14
2.74167,14
2.75000,14
2.75833,13
2.76667,13
2.77500,13
2.78333,13
2.79167,13
2.80000,13
2.80833,13
2.81667,13
2.82500,13
2.83333,14
2.84167,13
2.85000,13
2.85833,13
2.86667,12
2.87500,12
2.88333,12
2.89167,12
2.90000,12
2.90833,12
2.91667,12
2.92500,12
2.93333,12
2.94167,12
2.95000,13
2.95833,13
2.96667,12
2.97500,12
2.98333,11
2.99167,11
3.00000,10
3.00833,10
3.01667,11
3.02500,11
3.03333,11
3.04167,11
3.05000,11
3.05833,11
3.06667,11
3.07500,11
3.08333,11
3.09167,11
3.10000,10
3.10833,10
3.11667,10
3.12500,9
3.13333,9
3.14167,9
3.15000,9
3.15833,9
3.16667,9
3.17500,9
3.18333,8
3.19167,8
3.20000,8
3.20833,8
3.21667,8
3.22500,8
3.23333,7
3.24167,7
3.25000,7
3.25833,6
3.26667,6
3.27500,5
3.28333,5
3.29167,5
3.30000,4
3.30833,4
3.31667,4
3.32500,4
3.33333,4
3.34167,4
3.35000,4
3.35833,3
3.36667,3
3.37500,2
3.38333,2
3.39167,1
3.40000,1
3.40833,2
3.41667,2
3.42500,2
3.43333,2
3.44167,1
3.45000,1
3.45833,1
3.46667,1
3.47500,1
3.48333,2
3.49167,2
3.50000,2
3.50833,3
3.51667,3
3.52500,3
3.53333,3
3.54167,3
3.55000,3
3.55833,3
3.56667,3
3.57500,4
3.58333,4
3.59167,5
3.60000,5
3.60833,5
3.61667,6
3.62500,6
3.63333,6
3.64167,6
3.65000,6
3.65833,6
3.66667,7
3.67500,7
3.68333,8
3.69167,8
3.70000,9
3.70833,10
3.71667,10
3.72500,10
3.73333,10
3.74167,11
3.75000,12
3.75833,12
3.76667,13
3.77500,13
3.78333,13
3.79167,14
3.80000,14
3.80833,14
3.81667,14
3.82500,14
3.83333,15
3.84167,15
3.85000,16
3.85833,16
3.86667,16
3.87500,16
3.88333,17
3.89167,17
3.90000,17
3.90833,16
3.91667,17
3.92500,17
3.93333,17
3.94167,17
3.95000,17
3.95833,18
3.96667,18
3.97500,18
3.98333,19
3.99167,19
4.00000,19
4.00833,19
4.01667,19
4.02500,20
4.03333,20
4.04167,20
4.05000,20
4.05833,20
4.06667,19
4.07500,19
4.08333,19
4.09167,20
4.10000,20
4.10833,21
4.11667,20
4.12500,20
4.13333,20
4.14167,20
4.15000,20
4.15833,20
4.16667,20
4.17500,19
4.18333,19
4.19167,19
4.20000,19
4.20833,20
4.21667,20
4.22500,20
4.23333,20
4.24167,20
4.25000,20
4.25833,20
4.26667,19
4.27500,19
4.28333,19
4.29167,19
4.30000,19
4.30833,18
4.31667,18
4.32500,18
4.33333,18
4.34167,18
4.35000,18
4.35833,18
4.36667,18
4.37500,18
4.38333,18
4.39167,18
4.40000,17
4.40833,17
4.41667,17
4.42500,17
4.43333,17
4.44167,17
4.45000,17
4.45833,17
4.46667,17
4.47500,17
4.48333,17
4.49167,17
4.50000,17
4.50833,17
4.51667,16
4.52500,16
4.53333,16
4.54167,16
4.55000,16
4.55833,16
4.56667,17
4.57500,18
4.58333,18
4.59167,19
4.60000,19
4.60833,20
4.61667,20
4.62500,20
4.63333,20
4.64167,20
4.65000,21
4.65833,21
4.66667,21
4.67500,21
4.68333,22
4.69167,22
4.70000,23
4.70833,23
4.71667,23
4.72500,23
4.73333,24
4.74167,24
4.75000,24
4.75833,25
4.76667,25
4.77500,25
4.78333,25
4.79167,25
4.80000,26
4.80833,26
4.81667,26
4.82500,25
4.83333,25
4.84167,25
4.85000,25
4.85833,25
4.86667,25
4.87500,25
4.88333,25
4.89167,25
4.90000,26
4.90833,26
4.91667,26
4.92500,25
4.93333,25
4.94167,25
4.95000,25
4.95833,24
4.96667,24
4.97500,24
4.98333,24
4.99167,24
5.00000,23
5.00833,23
5.01667,23
5.02500,23
5.03333,23
5.04167,22
5.05000,22
5.05833,21
5.06667,21
5.07500,20
5.08333,20
5.09167,20
5.10000,19
5.10833,19
5.11667,19
5.12500,18
5.13333,18
5.14167,18
5.15000,17
5.15833,17
5.16667,17
5.17500,16
5.18333,17
5.19167,17
5.20000,17
5.20833,17
5.21667,17
5.22500,17
5.23333,17
5.24167,17
5.25000,17
5.25833,17
5.26667,17
5.27500,17
5.28333,17
5.29167,17
5.30000,17
5.30833,17
5.31667,17
5.32500,17
5.33333,17
5.34167,17
5.35000,17
5.35833,18
5.36667,18
5.37500,19
5.38333,19
5.39167,19
5.40000,19
5.40833,19
5.41667,19
5.42500,19
5.43333,19
5.44167,19
5.45000,19
5.45833,19
5.46667,20
5.47500,20
5.48333,20
5.49167,21
5.50000,21
5.50833,21
5.51667,21
5.52500,21
5.53333,21
5.54167,21
5.55000,21
5.55833,21
5.56667,20
5.57500,20
5.58333,20
5.59167,20
5.60000,20
5.60833,20
5.61667,19
5.62500,19
5.63333,19
5.64167,20
5.65000,19
5.65833,19
5.66667,18
5.67500,18
5.68333,17
5.69167,16
5.70000,16
5.70833,15
5.71667,15
5.72500,15
5.73333,15
5.74167,15
5.75000,14
5.75833,14
5.76667,14
5.77500,14
5.78333,14
5.79167,14
5.80000,14
5.80833,14
5.81667,13
5.82500,13
5.83333,13
5.84167,13
5.85000,12
5.85833,12
5.86667,12
5.87500,12
5.88333,13
5.89167,13
5.90000,13
5.90833,12
5.91667,12
5.92500,12
5.93333,12
5.94167,12
5.95000,12
5.95833,13
5.96667,13
5.97500,13
5.98333,12
5.99167,12
6.00000,13
6.00833,13
6.01667,13
6.02500,13
6.03333,14
6.04167,14
6.05000,14
6.05833,14
6.06667,14
6.07500,14
6.08333,14
6.09167,14
6.10000,14
6.10833,14
6.11667,15
6.12500,15
6.13333,15
6.14167,15
6.15000,15
6.15833,14
6.16667,15
6.17500,15
6.18333,16
6.19167,16
6.20000,17
6.20833,17
6.21667,17
6.22500,17
6.23333,17
6.24167,18
6.25000,18
6.25833,18
6.26667,18
6.27500,17
6.28333,17
6.29167,18
6.30000,18
6.30833,18
6.31667,18
6.32500,19
6.33333,20
6.34167,20
6.35000,20
6.35833,20
6.36667,20
6.37500,20
6.38333,20
6.39167,20
6.40000,20
6.40833,21
6.41667,21
6.42500,21
6.43333,21
6.44167,21
6.45000,21
6.45833,22
6.46667,22
6.47500,22
6.48333,23
6.49167,23
6.50000,23
6.50833,23
6.51667,23
6.52500,23
6.53333,24
6.54167,24
6.55000,25
6.55833,25
6.56667,25
6.57500,25
6.58333,25
6.59167,26
6.60000,26
6.60833,26
6.61667,26
6.62500,27
6.63333,28
6.64167,28
6.65000,29
6.65833,29
6.66667,30
6.67500,30
6.68333,31
6.69167,31
6.70000,31
6.70833,32
6.71667,32
6.72500,33
6.73333,33
6.74167,33
6.75000,34
6.75833,34
6.76667,34
6.77500,34
6.78333,35
6.79167,36
6.80000,36
6.80833,37
6.81667,37
6.82500,38
6.83333,38
6.84167,39
6.85000,39
6.85833,40
6.86667,40
6.87500,40
6.88333,41
6.89167,41
6.90000,41
6.90833,41
6.91667,41
6.92500,42
6.93333,42
6.94167,42
6.95000,42
6.95833,42
6.96667,42
6.97500,42
6.98333,42
6.99167,42
7.00000,43
7.00833,43
7.01667,42
7.02500,42
7.03333,42
7.04167,41
7.05000,41
7.05833,41
7.06667,41
7.07500,40
7.08333,40
7.09167,40
7.10000,39
7.10833,39
7.11667,39
7.12500,38
7.13333,38
7.14167,37
7.15000,37
7.15833,37
7.16667,37
7.17500,37
7.18333,36
7.19167,36
7.20000,36
7.20833,36
7.21667,35
7.22500,35
7.23333,34
7.24167,34
7.25000,34
7.25833,34
7.26667,33
7.27500,33
7.28333,32
7.29167,31
7.30000,31
7.30833,30
7.31667,30
7.32500,29
7.33333,29
7.34167,29
7.35000,29
7.35833,29
7.36667,29
7.37500,29
7.38333,29
7.39167,28
7.40000,28
7.40833,28
7.41667,28
7.42500,28
7.43333,28
7.44167,27
7.45000,27
7.45833,27
7.46667,26
7.47500,26
7.48333,25
7.49167,25
7.50000,25
7.50833,24
7.51667,24
7.52500,25
7.53333,25
7.54167,25
7.55000,25
7.55833,25
7.56667,25
7.57500,24
7.58333,24
7.59167,23
7.60000,23
7.60833,23
7.61667,23
7.62500,23
7.63333,22
7.64167,22
7.65000,22
7.65833,21
7.66667,21
7.67500,21
7.68333,21
7.69167,20
7.70000,20
7.70833,20
7.71667,20
7.72500,19
7.73333,19
7.74167,18
7.75000,18
7.75833,17
7.76667,17
7.77500,17
7.78333,17
7.79167,17
7.80000,16
7.80833,16
7.81667,15
7.82500,15
7.83333,15
7.84167,15
7.85000,14
7.85833,14
7.86667,14
7.87500,14
7.88333,13
7.89167,13
7.90000,13
7.90833,13
7.91667,12
7.92500,12
7.93333,12
7.94167,11
7.95000,11
7.95833,11
7.96667,10
7.97500,10
7.98333,9
7.99167,9
8.00000,9
8.00833,9
8.01667,8
8.02500,8
8.03333,7
8.04167,7
8.05000,7
8.05833,6
8.06667,6
8.07500,6
8.08333,5
8.09167,5
8.10000,6
8.10833,6
8.11667,6
8.12500,6
8.13333,7
8.14167,7
8.15000,7
8.15833,7
8.16667,7
8.17500,8
8.18333,8
8.19167,8
8.20000,8
8.20833,9
8.21667,9
8.22500,10
8.23333,10
8.24167,10
8.25000,10
8.25833,11
8.26667,11
8.27500,12
8.28333,12
8.29167,13
8.30000,14
8.30833,14
8.31667,15
8.32500,15
8.33333,16
8.34167,16
8.35000,17
8.35833,18
8.36667,19
8.37500,19
8.38333,19
8.39167,20
8.40000,20
8.40833,21
8.41667,21
8.42500,22
8.43333,22
8.44167,23
8.45000,24
8.45833,24
8.46667,25
8.47500,25
8.48333,25
8.49167,25
8.50000,26
8.50833,26
8.51667,26
8.52500,26
8.53333,26
8.54167,27
8.55000,27
8.55833,27
8.56667,27
8.57500,28
8.58333,29
8.59167,29
8.60000,29
8.60833,29
8.61667,29
8.62500,29
8.63333,29
8.64167,29
8.65000,29
8.65833,29
8.66667,29
8.67500,29
8.68333,29
8.69167,29
8.70000,29
8.70833,29
8.71667,29
8.72500,29
8.73333,29
8.74167,29
8.75000,29
8.75833,29
8.76667,30
8.77500,30
8.78333,30
8.79167,30
8.80000,30
8.80833,30
8.81667,30
8.82500,30
8.83333,29
8.84167,29
8.85000,29
8.85833,29
8.86667,28
8.87500,28
8.88333,29
8.89167,29
8.90000,29
8.90833,28
8.91667,28
8.92500,28
8.93333,28
8.94167,27
8.95000,27
8.95833,27
8.96667,27
8.97500,26
8.98333,26
8.99167,25
9.00000,25
9.00833,25
9.01667,24
9.02500,24
9.03333,24
9.04167,24
9.05000,23
9.05833,23
9.06667,23
9.07500,22
9.08333,22
9.09167,22
9.10000,22
9.10833,22
9.11667,21
9.12500,21
9.13333,21
9.14167,20
9.15000,20
9.15833,19
9.16667,19
9.17500,19
9.18333,19
9.19167,20
9.20000,19
9.20833,19
9.21667,19
9.22500,19
9.23333,19
9.24167,20
9.25000,20
9.25833,21
9.26667,21
9.27500,22
9.28333,22
9.29167,22
9.30000,23
9.30833,23
9.31667,23
9.32500,23
9.33333,23
9.34167,23
9.35000,23
9.35833,23
9.36667,24
9.37500,24
9.38333,24
9.39167,25
9.40000,25
9.40833,25
9.41667,26
9.42500,27
9.43333,27
9.44167,27
9.45000,27
9.45833,28
9.46667,28
9.47500,28
9.48333,28
9.49167,29
9.50000,29
9.50833,29
9.51667,29
9.52500,29
9.53333,29
9.54167,29
9.55000,29
9.55833,29
9.56667,29
9.57500,29
9.58333,29
9.59167,29
9.60000,29
9.60833,30
9.61667,30
9.62500,29
9.63333,29
9.64167,29
9.65000,29
9.65833,28
9.66667,28
9.67500,28
9.68333,28
9.69167,28
9.70000,28
9.70833,28
9.71667,27
9.72500,27
9.73333,28
9.74167,28
9.75000,28
9.75833,28
9.76667,28
9.77500,29
9.78333,29
9.79167,29
9.80000,29
9.80833,28
9.81667,28
9.82500,27
9.83333,28
9.84167,28
9.85000,28
9.85833,29
9.86667,29
9.87500,30
9.88333,30
9.89167,30
9.90000,30
9.90833,30
9.91667,30
9.92500,30
9.93333,31
9.94167,31
9.95000,32
9.95833,32
9.96667,33
9.97500,33
9.98333,34
9.99167,35
10.00000,35
10.00833,35
10.01667,36
10.02500,37
10.03333,37
10.04167,38
10.05000,38
10.05833,39
10.06667,40
10.07500,40
10.08333,41
10.09167,41
10.10000,41
10.10833,42
10.11667,42
10.12500,43
10.13333,43
10.14167,43
10.15000,43
10.15833,44
10.16667,44
10.17500,44
10.18333,45
10.19167,45
10.20000,46
10.20833,46
10.21667,46
10.22500,46
10.23333,47
10.24167,47
10.25000,47
10.25833,47
10.26667,47
10.27500,48
10.28333,48
10.29167,48
10.30000,47
10.30833,47
10.31667,46
10.32500,46
10.33333,47
10.34167,47
10.35000,47
10.35833,47
10.36667,46
10.37500,45
10.38333,44
10.39167,42
10.40000,40
10.40833,37
10.41667,33
10.42500,27
10.43333,18
10.44167,7
10.45000,-7
10.45833,-26
10.46667,-50
10.47500,-80
10.48333,-117
10.49167,-161
10.50000,-213
10.50833,-274
10.51667,-342
10.52500,-417
10.53333,-497
10.54167,-581
10.55000,-664
10.55833,-744
10.56667,-814
10.57500,-871
10.58333,-906
10.59167,-914
10.60000,-888
10.60833,-818
10.61667,-698
10.62500,-519
10.63333,-274
10.64167,45
10.65000,446
10.65833,934
10.66667,1517
10.67500,2199
10.68333,2986
10.69167,3881
10.70000,4889
10.70833,6012
10.71667,7252
10.72500,8611
10.73333,10091
10.74167,11691
10.75000,13412
10.75833,15253
10.76667,17214
10.77500,19292
10.78333,21487
10.79167,23796
10.80000,26218
10.80833,28749
10.81667,31388
10.82500,34129
10.83333,36970
10.84167,39906
10.85000,42932
10.85833,46044
10.86667,49235
10.87500,52499
10.88333,55827
10.89167,59211
10.90000,62638
10.90833,66098
10.91667,69572
10.92500,73042
10.93333,76483
10.94167,79865
10.95000,83150
10.95833,86294
10.96667,89242
10.97500,91931
10.98333,94287
10.99167,96233
11.00000,97685
11.00833,98565
11.01667,98800
11.02500,98333
11.03333,97126
11.04167,95170
11.05000,92484
11.05833,89114
11.06667,85134
11.07500,80641
11.08333,75746
11.09167,70570
11.10000,65235
11.10833,59855
11.11667,54537
11.12500,49369
11.13333,44426
11.14167,39763
11.15000,35418
11.15833,31414
11.16667,27761
11.17500,24456
11.18333,21489
11.19167,18844
11.20000,16500
11.20833,14432
11.21667,12616
11.22500,11028
11.23333,9643
11.24167,8439
11.25000,7394
11.25833,6489
11.26667,5706
11.27500,5030
11.28333,4445
11.29167,3941
11.30000,3504
11.30833,3127
11.31667,2801
11.32500,2518
11.33333,2273
11.34167,2061
11.35000,1875
11.35833,1713
11.36667,1572
11.37500,1447
11.38333,1337
11.39167,1240
11.40000,1154
11.40833,1077
11.41667,1008
11.42500,946
11.43333,890
11.44167,839
11.45000,792
11.45833,749
11.46667,710
11.47500,674
11.48333,641
11.49167,610
11.50000,581
11.50833,555
11.51667,529
11.52500,506
11.53333,483
11.54167,461
11.55000,441
11.55833,422
11.56667,404
11.57500,388
11.58333,372
11.59167,357
11.60000,342
11.60833,328
11.61667,315
11.62500,303
11.63333,291
11.64167,280
11.65000,270
11.65833,260
11.66667,251
11.67500,242
11.68333,234
11.69167,226
11.70000,219
11.70833,212
11.71667,206
11.72500,200
11.73333,194
11.74167,188
11.75000,183
11.75833,179
11.76667,174
11.77500,170
11.78333,166
11.79167,163
11.80000,159
11.80833,156
11.81667,153
11.82500,151
11.83333,149
11.84167,147
11.85000,144
11.85833,142
11.86667,141
11.87500,139
11.88333,137
11.89167,135
11.90000,134
11.90833,133
11.91667,132
11.92500,131
11.93333,130
11.94167,130
11.95000,129
11.95833,129
11.96667,129
11.97500,128
11.98333,127
11.99167,126
12.00000,126
12.00833,125
12.01667,124
12.02500,124
12.03333,123
12.04167,122
12.05000,121
12.05833,121
12.06667,120
12.07500,119
12.08333,119
12.09167,118
12.10000,118
12.10833,117
12.11667,117
12.12500,116
12.13333,116
12.14167,115
12.15000,115
12.15833,115
12.16667,114
12.17500,114
12.18333,113
12.19167,113
12.20000,112
12.20833,112
12.21667,111
12.22500,111
12.23333,110
12.24167,110
12.25000,109
12.25833,109
12.26667,108
12.27500,108
12.28333,107
12.29167,106
12.30000,106
12.30833,106
12.31667,106
12.32500,105
12.33333,104
12.34167,104
12.35000,103
12.35833,103
12.36667,102
12.37500,102
12.38333,100
12.39167,100
12.40000,99
12.40833,98
12.41667,97
12.42500,96
12.43333,96
12.44167,95
12.45000,93
12.45833,92
12.46667,90
12.47500,89
12.48333,88
12.49167,87
12.50000,85
12.50833,84
12.51667,83
12.52500,82
12.53333,81
12.54167,80
12.55000,79
12.55833,78
12.56667,77
12.57500,76
12.58333,75
12.59167,74
12.60000,73
12.60833,73
12.61667,73
12.62500,72
12.63333,72
12.64167,72
12.65000,73
12.65833,73
12.66667,75
12.67500,77
12.68333,79
12.69167,82
12.70000,87
12.70833,92
12.71667,99
12.72500,107
12.73333,118
12.74167,130
12.75000,145
12.75833,163
12.76667,183
12.77500,207
12.78333,235
12.79167,268
12.80000,304
12.80833,346
12.81667,392
12.82500,445
12.83333,503
12.84167,568
12.85000,639
12.85833,717
12.86667,801
12.87500,892
12.88333,990
12.89167,1096
12.90000,1208
12.90833,1328
12.91667,1455
12.92500,1589
12.93333,1730
12.94167,1877
12.95000,2032
12.95833,2193
12.96667,2360
12.97500,2535
12.98333,2715
12.99167,2901
13.00000,3094
13.00833,3291
13.01667,3495
13.02500,3703
13.03333,3917
13.04167,4137
13.05000,4361
13.05833,4589
13.06667,4822
13.07500,5060
13.08333,5302
13.09167,5547
13.10000,5797
13.10833,6051
13.11667,6309
13.12500,6571
13.13333,6836
13.14167,7105
13.15000,7378
13.15833,7653
13.16667,7932
13.17500,8214
13.18333,8499
13.19167,8787
13.20000,9079
13.20833,9373
13.21667,9671
13.22500,9971
13.23333,10275
13.24167,10581
13.25000,10890
13.25833,11202
13.26667,11518
13.27500,11835
13.28333,12156
13.29167,12479
13.30000,12804
13.30833,13133
13.31667,13465
13.32500,13799
13.33333,14137
13.34167,14477
13.35000,14819
13.35833,15165
13.36667,15513
13.37500,15865
13.38333,16219
13.39167,16576
13.40000,16936
13.40833,17298
13.41667,17664
13.42500,18032
13.43333,18404
13.44167,18778
13.45000,19155
13.45833,19536
13.46667,19920
13.47500,20306
13.48333,20696
13.49167,21089
13.50000,21485
13.50833,21884
13.51667,22286
13.52500,22691
13.53333,23099
13.54167,23511
13.55000,23926
13.55833,24345
13.56667,24767
13.57500,25192
13.58333,25620
13.59167,26052
13.60000,26487
13.60833,26926
13.61667,27369
13.62500,27815
13.63333,28265
13.64167,28718
13.65000,29175
13.65833,29635
13.66667,30099
13.67500,30567
13.68333,31039
13.69167,31515
13.70000,31994
13.70833,32477
13.71667,32964
13.72500,33455
13.73333,33950
13.74167,34449
13.75000,34952
13.75833,35459
13.76667,35971
13.77500,36486
13.78333,37006
13.79167,37530
13.80000,38059
13.80833,38591
13.81667,39128
13.82500,39670
13.83333,40216
13.84167,40767
13.85000,41322
13.85833,41882
13.86667,42446
13.87500,43016
13.88333,43589
13.89167,44168
13.90000,44751
13.90833,45340
13.91667,45933
13.92500,46532
13.93333,47136
13.94167,47745
13.95000,48360
13.95833,48980
13.96667,49605
13.97500,50235
13.98333,50871
13.99167,51513
14.00000,52160
14.00833,52813
14.01667,53472
14.02500,54136
14.03333,54807
14.04167,55483
14.05000,56165
14.05833,56854
14.06667,57548
14.07500,58250
14.08333,58957
14.09167,59671
14.10000,60391
14.10833,61118
14.11667,61852
14.12500,62592
14.13333,63339
14.14167,64092
14.15000,64853
14.15833,65621
14.16667,66396
14.17500,67179
14.18333,67969
14.19167,68766
14.20000,69571
14.20833,70383
14.21667,71203
14.22500,72031
14.23333,72866
14.24167,73709
14.25000,74561
14.25833,75420
14.26667,76288
14.27500,77164
14.28333,78049
14.29167,78942
14.30000,79844
14.30833,80754
14.31667,81673
14.32500,82601
14.33333,83538
14.34167,84484
14.35000,85440
14.35833,86405
14.36667,87379
14.37500,88363
14.38333,89357
14.39167,90361
14.40000,91375
14.40833,92399
14.41667,93433
14.42500,94478
14.43333,95532
14.44167,96598
14.45000,97674
14.45833,98761
14.46667,99858
14.47500,100965
14.48333,102080
14.49167,103201
14.50000,104322
14.50833,105438
14.51667,106538
14.52500,107605
14.53333,108620
14.54167,109556
14.55000,110382
14.55833,111059
14.56667,111546
14.57500,111798
14.58333,111767
14.59167,111409
14.60000,110680
14.60833,109544
14.61667,107973
14.62500,105950
14.63333,103467
14.64167,100530
14.65000,97158
14.65833,93381
14.66667,89242
14.67500,84794
14.68333,80097
14.69167,75218
14.70000,70227
14.70833,65195
14.71667,60188
14.72500,55272
14.73333,50502
14.74167,45929
14.75000,41591
14.75833,37519
14.76667,33733
14.77500,30245
14.78333,27058
14.79167,24167
14.80000,21562
14.80833,19228
14.81667,17148
14.82500,15301
14.83333,13669
14.84167,12229
14.85000,10963
14.85833,9850
14.86667,8873
14.87500,8017
14.88333,7266
14.89167,6607
14.90000,6028
14.90833,5519
14.91667,5071
14.92500,4675
14.93333,4326
14.94167,4017
14.95000,3742
14.95833,3497
14.96667,3279
14.97500,3084
14.98333,2909
14.99167,2753
15.00000,2611
15.00833,2483
15.01667,2368
15.02500,2263
15.03333,2167
15.04167,2080
15.05000,2000
15.05833,1928
15.06667,1861
15.07500,1800
15.08333,1745
15.09167,1693
15.10000,1647
15.10833,1605
15.11667,1568
15.12500,1535
15.13333,1507
15.14167,1483
15.15000,1464
15.15833,1451
15.16667,1444
15.17500,1443
15.18333,1450
15.19167,1466
15.20000,1491
15.20833,1529
15.21667,1579
15.22500,1644
15.23333,1726
15.24167,1829
15.25000,1954
15.25833,2105
15.26667,2285
15.27500,2497
15.28333,2746
15.29167,3037
15.30000,3373
15.30833,3760
15.31667,4202
15.32500,4704
15.33333,5272
15.34167,5909
15.35000,6621
15.35833,7413
15.36667,8288
15.37500,9250
15.38333,10303
15.39167,11448
15.40000,12688
15.40833,14024
15.41667,15454
15.42500,16977
15.43333,18592
15.44167,20293
15.45000,22077
15.45833,23937
15.46667,25864
15.47500,27851
15.48333,29887
15.49167,31961
15.50000,34061
15.50833,36175
15.51667,38287
15.52500,40383
15.53333,42449
15.54167,44469
15.55000,46429
15.55833,48314
15.56667,50109
15.57500,51801
15.58333,53377
15.59167,54825
15.60000,56134
15.60833,57295
15.61667,58300
15.62500,59141
15.63333,59816
15.64167,60318
15.65000,60647
15.65833,60803
15.66667,60787
15.67500,60602
15.68333,60251
15.69167,59740
15.70000,59077
15.70833,58269
15.71667,57324
15.72500,56253
15.73333,55064
15.74167,53770
15.75000,52381
15.75833,50909
15.76667,49364
15.77500,47759
15.78333,46105
15.79167,44412
15.80000,42690
15.80833,40952
15.81667,39205
15.82500,37458
15.83333,35721
15.84167,34001
15.85000,32306
15.85833,30641
15.86667,29012
15.87500,27424
15.88333,25881
15.89167,24388
15.90000,22947
15.90833,21561
15.91667,20230
15.92500,18957
15.93333,17743
15.94167,16588
15.95000,15490
15.95833,14451
15.96667,13468
15.97500,12542
15.98333,11671
15.99167,10853
16.00000,10086
16.00833,9369
16.01667,8699
16.02500,8074
16.03333,7493
16.04167,6953
16.05000,6451
16.05833,5986
16.06667,5556
16.07500,5158
16.08333,4791
16.09167,4452
16.10000,4140
16.10833,3852
16.11667,3588
16.12500,3345
16.13333,3122
16.14167,2917
16.15000,2729
16.15833,2556
16.16667,2398
16.17500,2253
16.18333,2120
16.19167,1998
16.20000,1886
16.20833,1784
16.21667,1690
16.22500,1603
16.23333,1524
16.24167,1452
16.25000,1385
16.25833,1323
16.26667,1267
16.27500,1215
16.28333,1167
16.29167,1123
16.30000,1082
16.30833,1045
16.31667,1010
16.32500,978
16.33333,948
16.34167,920
16.35000,894
16.35833,870
16.36667,847
16.37500,825
16.38333,806
16.39167,787
16.40000,770
16.40833,754
16.41667,739
16.42500,725
16.43333,711
16.44167,698
16.45000,686
16.45833,675
16.46667,665
16.47500,654
16.48333,645
16.49167,636
16.50000,627
16.50833,619
16.51667,611
16.52500,604
16.53333,597
16.54167,590
16.55000,584
16.55833,578
16.56667,572
16.57500,566
16.58333,561
16.59167,555
16.60000,551
16.60833,546
16.61667,542
16.62500,537
16.63333,533
16.64167,528
16.65000,524
16.65833,520
16.66667,517
16.67500,513
16.68333,509
16.69167,506
16.70000,503
16.70833,500
16.71667,497
16.72500,494
16.73333,492
16.74167,489
16.75000,486
16.75833,483
16.76667,480
16.77500,478
16.78333,475
16.79167,473
16.80000,470
16.80833,468
16.81667,465
16.82500,463
16.83333,461
16.84167,458
16.85000,456
16.85833,453
16.86667,451
16.87500,449
16.88333,446
16.89167,444
16.90000,442
16.90833,440
16.91667,438
16.92500,435
16.93333,432
16.94167,429
16.95000,426
16.95833,424
16.96667,421
16.97500,419
16.98333,416
16.99167,413
17.00000,411
17.00833,408
17.01667,405
17.02500,402
17.03333,399
17.04167,396
17.05000,394
17.05833,391
17.06667,388
17.07500,385
17.08333,383
17.09167,380
17.10000,378
17.10833,375
17.11667,372
17.12500,369
17.13333,367
17.14167,364
17.15000,361
17.15833,359
17.16667,357
17.17500,354
17.18333,351
17.19167,348
17.20000,346
17.20833,343
17.21667,341
17.22500,339
17.23333,337
17.24167,334
17.25000,332
17.25833,329
17.26667,327
17.27500,325
17.28333,323
17.29167,321
17.30000,319
17.30833,317
17.31667,316
17.32500,314
17.33333,312
17.34167,311
17.35000,310
17.35833,308
17.36667,307
17.37500,306
17.38333,304
17.39167,303
17.40000,301
17.40833,300
17.41667,299
17.42500,297
17.43333,295
17.44167,294
17.45000,293
17.45833,292
17.46667,291
17.47500,290
17.48333,289
17.49167,288
17.50000,287
17.50833,286
17.51667,285
17.52500,284
17.53333,283
17.54167,282
17.55000,281
17.55833,279
17.56667,278
17.57500,277
17.58333,276
17.59167,275
17.60000,274
17.60833,273
17.61667,272
17.62500,271
17.63333,270
17.64167,269
17.65000,268
17.65833,266
17.66667,265
17.67500,263
17.68333,262
17.69167,260
17.70000,259
17.70833,258
17.71667,257
17.72500,256
17.73333,255
17.74167,253
17.75000,252
17.75833,250
17.76667,249
17.77500,248
17.78333,246
17.79167,245
17.80000,244
17.80833,242
17.81667,241
17.82500,239
17.83333,238
17.84167,236
17.85000,235
17.85833,234
17.86667,233
17.87500,231
17.88333,230
17.89167,229
17.90000,228
17.90833,227
17.91667,226
17.92500,225
17.93333,224
17.94167,223
17.95000,222
17.95833,220
17.96667,219
17.97500,218
17.98333,218
17.99167,217
18.00000,216
18.00833,216
18.01667,215
18.02500,214
18.03333,213
18.04167,212
18.05000,212
18.05833,211
18.06667,211
18.07500,210
18.08333,209
18.09167,209
18.10000,208
18.10833,208
18.11667,207
18.12500,206
18.13333,205
18.14167,204
18.15000,203
18.15833,202
18.16667,201
18.17500,201
18.18333,200
18.19167,199
18.20000,199
18.20833,198
18.21667,197
18.22500,196
18.23333,195
18.24167,195
18.25000,194
18.25833,194
18.26667,193
18.27500,192
18.28333,191
18.29167,190
18.30000,189
18.30833,188
18.31667,187
18.32500,185
18.33333,184
18.34167,183
18.35000,182
18.35833,181
18.36667,180
18.37500,179
18.38333,178
18.39167,177
18.40000,176
18.40833,175
18.41667,174
18.42500,173
18.43333,172
18.44167,172
18.45000,171
18.45833,170
18.46667,169
18.47500,168
18.48333,167
18.49167,166
18.50000,166
18.50833,165
18.51667,165
18.52500,164
18.53333,163
18.54167,163
18.55000,162
18.55833,162
18.56667,162
18.57500,162
18.58333,162
18.59167,161
18.60000,161
18.60833,161
18.61667,161
18.62500,161
18.63333,161
18.64167,161
18.65000,161
18.65833,160
18.66667,160
18.67500,160
18.68333,160
18.69167,160
18.70000,160
18.70833,161
18.71667,161
18.72500,161
18.73333,162
18.74167,162
18.75000,163
18.75833,163
18.76667,164
18.77500,165
18.78333,166
18.79167,166
18.80000,167
18.80833,168
18.81667,168
18.82500,169
18.83333,170
18.84167,171
18.85000,172
18.85833,173
18.86667,174
18.87500,175
18.88333,176
18.89167,177
18.90000,179
18.90833,179
18.91667,180
18.92500,180
18.93333,181
18.94167,181
18.95000,182
18.95833,182
18.96667,183
18.97500,183
18.98333,184
18.99167,184
19.00000,183
19.00833,183
19.01667,182
19.02500,182
19.03333,181
19.04167,181
19.05000,181
19.05833,180
19.06667,179
19.07500,177
19.08333,176
19.09167,174
19.10000,172
19.10833,171
19.11667,170
19.12500,168
19.13333,166
19.14167,165
19.15000,163
19.15833,161
19.16667,159
19.17500,156
19.18333,155
19.19167,153
19.20000,151
19.20833,149
19.21667,147
19.22500,145
19.23333,144
19.24167,142
19.25000,141
19.25833,139
19.26667,138
19.27500,137
19.28333,135
19.29167,134
19.30000,133
19.30833,131
19.31667,130
19.32500,128
19.33333,127
19.34167,126
19.35000,125
19.35833,124
19.36667,123
19.37500,123
19.38333,122
19.39167,121
19.40000,120
19.40833,120
19.41667,119
19.42500,118
19.43333,118
19.44167,117
19.45000,116
19.45833,116
19.46667,115
19.47500,115
19.48333,114
19.49167,113
19.50000,112
19.50833,111
19.51667,111
19.52500,110
19.53333,109
19.54167,108
19.55000,107
19.55833,106
19.56667,105
19.57500,104
19.58333,104
19.59167,104
19.60000,103
19.60833,103
19.61667,102
19.62500,102
19.63333,102
19.64167,101
19.65000,101
19.65833,100
19.66667,100
19.67500,99
19.68333,99
19.69167,98
19.70000,98
19.70833,98
19.71667,98
19.72500,97
19.73333,97
19.74167,97
19.75000,97
19.75833,96
19.76667,96
19.77500,96
19.78333,96
19.79167,96
19.80000,96
19.80833,96
19.81667,96
19.82500,97
19.83333,97
19.84167,97
19.85000,97
19.85833,98
19.86667,98
19.87500,98
19.88333,99
19.89167,99
19.90000,100
19.90833,100
19.91667,100
19.92500,100
19.93333,101
19.94167,101
19.95000,102
19.95833,102
19.96667,102
19.97500,102
19.98333,103
19.99167,103
20.00000,104
20.00833,104
20.01667,103
20.02500,104
20.03333,104
20.04167,104
20.05000,104
20.05833,105
20.06667,105
20.07500,105
20.08333,105
20.09167,105
20.10000,105
20.10833,105
20.11667,105
20.12500,105
20.13333,105
20.14167,105
20.15000,105
20.15833,105
20.16667,105
20.17500,105
20.18333,105
20.19167,104
20.20000,104
20.20833,104
20.21667,104
20.22500,103
20.23333,103
20.24167,103
20.25000,103
20.25833,103
20.26667,103
20.27500,103
20.28333,103
20.29167,103
20.30000,102
20.30833,102
20.31667,102
20.32500,102
20.33333,102
20.34167,103
20.35000,103
20.35833,103
20.36667,102
20.37500,102
20.38333,103
20.39167,103
20.40000,102
20.40833,102
20.41667,101
20.42500,101
20.43333,101
20.44167,101
20.45000,101
20.45833,101
20.46667,101
20.47500,101
20.48333,100
20.49167,100
20.50000,100
20.50833,100
20.51667,99
20.52500,99
20.53333,99
20.54167,99
20.55000,99
20.55833,99
20.56667,99
20.57500,99
20.58333,99
20.59167,99
20.60000,99
20.60833,99
20.61667,99
20.62500,98
20.63333,97
20.64167,97
20.65000,97
20.65833,96
20.66667,96
20.67500,96
20.68333,95
20.69167,95
20.70000,94
20.70833,93
20.71667,93
20.72500,93
20.73333,92
20.74167,92
20.75000,91
20.75833,91
20.76667,91
20.77500,91
20.78333,90
20.79167,90
20.80000,90
20.80833,89
20.81667,89
20.82500,88
20.83333,88
20.84167,87
20.85000,87
20.85833,86
20.86667,86
20.87500,85
20.88333,85
20.89167,84
20.90000,84
20.90833,84
20.91667,84
20.92500,83
20.93333,83
20.94167,82
20.95000,82
20.95833,81
20.96667,80
20.97500,80
20.98333,79
20.99167,79
21.00000,78
21.00833,78
21.01667,78
21.02500,77
21.03333,77
21.04167,76
21.05000,76
21.05833,76
21.06667,75
21.07500,75
21.08333,75
21.09167,75
21.10000,75
21.10833,75
21.11667,75
21.12500,75
21.13333,75
21.14167,75
21.15000,75
21.15833,75
21.16667,75
21.17500,75
21.18333,75
21.19167,75
21.20000,75
21.20833,75
21.21667,75
21.22500,75
21.23333,75
21.24167,75
21.25000,76
21.25833,76
21.26667,76
21.27500,76
21.28333,77
21.29167,78
21.30000,78
21.30833,79
21.31667,79
21.32500,80
21.33333,81
21.34167,82
21.35000,83
21.35833,85
21.36667,86
21.37500,88
21.38333,91
21.39167,93
21.40000,96
21.40833,99
21.41667,103
21.42500,107
21.43333,112
21.44167,117
21.45000,123
21.45833,130
21.46667,137
21.47500,146
21.48333,156
21.49167,168
21.50000,180
21.50833,195
21.51667,211
21.52500,230
21.53333,251
21.54167,275
21.55000,301
21.55833,331
21.56667,365
21.57500,404
21.58333,447
21.59167,495
21.60000,550
21.60833,611
21.61667,678
21.62500,754
21.63333,838
21.64167,931
21.65000,1034
21.65833,1147
21.66667,1271
21.67500,1407
21.68333,1555
21.69167,1717
21.70000,1891
21.70833,2081
21.71667,2285
21.72500,2504
21.73333,2739
21.74167,2990
21.75000,3257
21.75833,3541
21.76667,3841
21.77500,4158
21.78333,4490
21.79167,4837
21.80000,5199
21.80833,5576
21.81667,5966
21.82500,6367
21.83333,6779
21.84167,7200
21.85000,7629
21.85833,8064
21.86667,8504
21.87500,8945
21.88333,9387
21.89167,9826
21.90000,10262
21.90833,10690
21.91667,11110
21.92500,11518
21.93333,11913
21.94167,12291
21.95000,12652
21.95833,12993
21.96667,13313
21.97500,13608
21.98333,13877
21.99167,14118
22.00000,14331
22.00833,14513
22.01667,14665
22.02500,14785
22.03333,14873
22.04167,14929
22.05000,14951
22.05833,14942
22.06667,14901
22.07500,14828
22.08333,14723
22.09167,14589
22.10000,14426
22.10833,14236
22.11667,14019
22.12500,13778
22.13333,13514
22.14167,13230
22.15000,12926
22.15833,12604
22.16667,12267
22.17500,11917
22.18333,11556
22.19167,11185
22.20000,10806
22.20833,10422
22.21667,10033
22.22500,9643
22.23333,9252
22.24167,8862
22.25000,8475
22.25833,8091
22.26667,7713
22.27500,7341
22.28333,6976
22.29167,6620
22.30000,6274
22.30833,5937
22.31667,5610
22.32500,5295
22.33333,4991
22.34167,4698
22.35000,4417
22.35833,4149
22.36667,3892
22.37500,3648
22.38333,3416
22.39167,3196
22.40000,2987
22.40833,2790
22.41667,2604
22.42500,2429
22.43333,2265
22.44167,2110
22.45000,1966
22.45833,1830
22.46667,1705
22.47500,1587
22.48333,1477
22.49167,1374
22.50000,1280
22.50833,1192
22.51667,1111
22.52500,1036
22.53333,967
22.54167,903
22.55000,843
22.55833,789
22.56667,738
22.57500,692
22.58333,650
22.59167,611
22.60000,575
22.60833,542
22.61667,512
22.62500,484
22.63333,459
22.64167,435
22.65000,414
22.65833,394
22.66667,376
22.67500,359
22.68333,344
22.69167,329
22.70000,316
22.70833,305
22.71667,294
22.72500,284
22.73333,275
22.74167,266
22.75000,257
22.75833,250
22.76667,243
22.77500,236
22.78333,230
22.79167,224
22.80000,219
22.80833,214
22.81667,210
22.82500,205
22.83333,201
22.84167,197
22.85000,193
22.85833,190
22.86667,186
22.87500,183
22.88333,180
22.89167,177
22.90000,174
22.90833,172
22.91667,170
22.92500,167
22.93333,165
22.94167,162
22.95000,160
22.95833,157
22.96667,155
22.97500,152
22.98333,150
22.99167,148
23.00000,147
23.00833,145
23.01667,144
23.02500,143
23.03333,142
23.04167,140
23.05000,139
23.05833,138
23.06667,137
23.07500,136
23.08333,135
23.09167,134
23.10000,133
23.10833,132
23.11667,131
23.12500,129
23.13333,129
23.14167,128
23.15000,127
23.15833,126
23.16667,126
23.17500,125
23.18333,125
23.19167,124
23.20000,123
23.20833,122
23.21667,121
23.22500,121
23.23333,121
23.24167,120
23.25000,120
23.25833,119
23.26667,119
23.27500,118
23.28333,118
23.29167,118
23.30000,118
23.30833,118
23.31667,117
23.32500,117
23.33333,116
23.34167,116
23.35000,116
23.35833,116
23.36667,116
23.37500,116
23.38333,116
23.39167,116
23.40000,115
23.40833,115
23.41667,115
23.42500,115
23.43333,115
23.44167,115
23.45000,115
23.45833,115
23.46667,114
23.47500,114
23.48333,114
23.49167,114
23.50000,114
23.50833,113
23.51667,113
23.52500,113
23.53333,113
23.54167,113
23.55000,113
23.55833,113
23.56667,114
23.57500,113
23.58333,113
23.59167,113
23.60000,113
23.60833,113
23.61667,114
23.62500,114
23.63333,114
23.64167,114
23.65000,115
23.65833,115
23.66667,115
23.67500,115
23.68333,115
23.69167,115
23.70000,115
23.70833,114
23.71667,114
23.72500,114
23.73333,115
23.74167,115
23.75000,116
23.75833,116
23.76667,117
23.77500,117
23.78333,117
23.79167,117
23.80000,117
23.80833,117
23.81667,117
23.82500,118
23.83333,118
23.84167,118
23.85000,119
23.85833,119
23.86667,119
23.87500,119
23.88333,119
23.89167,119
23.90000,119
23.90833,119
23.91667,119
23.92500,119
23.93333,119
23.94167,119
23.95000,119
23.95833,119
23.96667,119
23.97500,119
23.98333,119
23.99167,119
24.00000,119
24.00833,119
24.01667,118
24.02500,118
24.03333,118
24.04167,118
24.05000,117
24.05833,117
24.06667,116
24.07500,115
24.08333,115
24.09167,114
24.10000,114
24.10833,114
24.11667,114
24.12500,113
24.13333,113
24.14167,113
24.15000,113
24.15833,112
24.16667,112
24.17500,111
24.18333,110
24.19167,110
24.20000,109
24.20833,109
24.21667,108
24.22500,108
24.23333,108
24.24167,107
24.25000,107
24.25833,107
24.26667,107
24.27500,108
24.28333,108
24.29167,108
24.30000,109
24.30833,109
24.31667,110
24.32500,111
24.33333,112
24.34167,113
24.35000,114
24.35833,116
24.36667,118
24.37500,120
24.38333,123
24.39167,126
24.40000,130
24.40833,135
24.41667,139
24.42500,145
24.43333,151
24.44167,158
24.45000,166
24.45833,175
24.46667,185
24.47500,196
24.48333,209
24.49167,223
24.50000,238
24.50833,255
24.51667,274
24.52500,295
24.53333,319
24.54167,344
24.55000,372
24.55833,403
24.56667,437
24.57500,473
24.58333,514
24.59167,557
24.60000,604
24.60833,655
24.61667,710
24.62500,769
24.63333,832
24.64167,900
24.65000,973
24.65833,1050
24.66667,1132
24.67500,1220
24.68333,1312
24.69167,1410
24.70000,1512
24.70833,1620
24.71667,1732
24.72500,1850
24.73333,1971
24.74167,2097
24.75000,2227
24.75833,2360
24.76667,2498
24.77500,2639
24.78333,2782
24.79167,2928
24.80000,3076
24.80833,3225
24.81667,3376
24.82500,3526
24.83333,3676
24.84167,3825
24.85000,3972
24.85833,4117
24.86667,4259
24.87500,4397
24.88333,4531
24.89167,4660
24.90000,4783
24.90833,4901
24.91667,5011
24.92500,5115
24.93333,5210
24.94167,5297
24.95000,5376
24.95833,5445
24.96667,5504
24.97500,5553
24.98333,5593
24.99167,5622
25.00000,5641
25.00833,5650
25.01667,5648
25.02500,5636
25.03333,5614
25.04167,5583
25.05000,5542
25.05833,5491
25.06667,5431
25.07500,5362
25.08333,5285
25.09167,5201
25.10000,5109
25.10833,5010
25.11667,4905
25.12500,4794
25.13333,4678
25.14167,4558
25.15000,4433
25.15833,4305
25.16667,4175
25.17500,4042
25.18333,3908
25.19167,3772
25.20000,3635
25.20833,3499
25.21667,3363
25.22500,3227
25.23333,3092
25.24167,2960
25.25000,2829
25.25833,2700
25.26667,2574
25.27500,2451
25.28333,2331
25.29167,2214
25.30000,2101
25.30833,1991
25.31667,1885
25.32500,1783
25.33333,1685
25.34167,1591
25.35000,1500
25.35833,1414
25.36667,1332
25.37500,1254
25.38333,1179
25.39167,1108
25.40000,1041
25.40833,978
25.41667,918
25.42500,862
25.43333,809
25.44167,759
25.45000,713
25.45833,670
25.46667,629
25.47500,591
25.48333,555
25.49167,522
25.50000,491
25.50833,462
25.51667,436
25.52500,411
25.53333,389
25.54167,368
25.55000,348
25.55833,330
25.56667,313
25.57500,297
25.58333,283
25.59167,270
25.60000,258
25.60833,247
25.61667,236
25.62500,227
25.63333,218
25.64167,210
25.65000,202
25.65833,196
25.66667,189
25.67500,184
25.68333,179
25.69167,174
25.70000,170
25.70833,165
25.71667,162
25.72500,158
25.73333,155
25.74167,152
25.75000,149
25.75833,147
25.76667,145
25.77500,143
25.78333,141
25.79167,139
25.80000,137
25.80833,136
25.81667,134
25.82500,132
25.83333,131
25.84167,129
25.85000,128
25.85833,126
25.86667,125
25.87500,124
25.88333,124
25.89167,123
25.90000,122
25.90833,121
25.91667,120
25.92500,120
25.93333,119
25.94167,119
25.95000,118
25.95833,117
25.96667,116
25.97500,116
25.98333,116
25.99167,115
26.00000,115
26.00833,115
26.01667,114
26.02500,114
26.03333,114
26.04167,114
26.05000,114
26.05833,114
26.06667,114
26.07500,114
26.08333,113
26.09167,113
26.10000,114
26.10833,114
26.11667,114
26.12500,114
26.13333,114
26.14167,114
26.15000,114
26.15833,114
26.16667,115
26.17500,115
26.18333,115
26.19167,115
26.20000,116
26.20833,116
26.21667,116
26.22500,116
26.23333,116
26.24167,116
26.25000,117
26.25833,117
26.26667,117
26.27500,117
26.28333,117
26.29167,117
26.30000,117
26.30833,117
26.31667,117
26.32500,117
26.33333,117
26.34167,117
26.35000,117
26.35833,117
26.36667,117
26.37500,117
26.38333,117
26.39167,117
26.40000,116
26.40833,116
26.41667,115
26.42500,114
26.43333,114
26.44167,114
26.45000,113
26.45833,112
26.46667,112
26.47500,111
26.48333,110
26.49167,109
26.50000,108
26.50833,107
26.51667,106
26.52500,106
26.53333,105
26.54167,104
26.55000,104
26.55833,103
26.56667,103
26.57500,102
26.58333,101
26.59167,100
26.60000,99
26.60833,98
26.61667,97
26.62500,96
26.63333,96
26.64167,96
26.65000,95
26.65833,95
26.66667,94
26.67500,93
26.68333,93
26.69167,93
26.70000,93
26.70833,93
26.71667,92
26.72500,92
26.73333,92
26.74167,92
26.75000,92
26.75833,91
26.76667,91
26.77500,91
26.78333,91
26.79167,91
26.80000,91
26.80833,91
26.81667,91
26.82500,91
26.83333,91
26.84167,91
26.85000,91
26.85833,91
26.86667,92
26.87500,92
26.88333,92
26.89167,92
26.90000,92
26.90833,93
26.91667,93
26.92500,93
26.93333,93
26.94167,93
26.95000,94
26.95833,94
26.96667,95
26.97500,95
26.98333,95
26.99167,95
27.00000,95
27.00833,95
27.01667,96
27.02500,96
27.03333,96
27.04167,96
27.05000,96
27.05833,96
27.06667,97
27.07500,97
27.08333,97
27.09167,97
27.10000,97
27.10833,97
27.11667,97
27.12500,98
27.13333,98
27.14167,98
27.15000,98
27.15833,98
27.16667,98
27.17500,99
27.18333,99
27.19167,99
27.20000,99
27.20833,100
27.21667,100
27.22500,100
27.23333,101
27.24167,101
27.25000,102
27.25833,102
27.26667,102
27.27500,103
27.28333,103
27.29167,104
27.30000,104
27.30833,105
27.31667,105
27.32500,106
27.33333,106
27.34167,106
27.35000,107
27.35833,107
27.36667,108
27.37500,108
27.38333,109
27.39167,109
27.40000,110
27.40833,110
27.41667,111
27.42500,111
27.43333,112
27.44167,112
27.45000,113
27.45833,114
27.46667,114
27.47500,115
27.48333,115
27.49167,115
27.50000,116
27.50833,116
27.51667,116
27.52500,116
27.53333,116
27.54167,116
27.55000,117
27.55833,117
27.56667,117
27.57500,117
27.58333,117
27.59167,116
27.60000,116
27.60833,117
27.61667,116
27.62500,116
27.63333,116
27.64167,115
27.65000,115
27.65833,114
27.66667,114
27.67500,114
27.68333,113
27.69167,112
27.70000,112
27.70833,111
27.71667,110
27.72500,110
27.73333,109
27.74167,109
27.75000,108
27.75833,108
27.76667,107
27.77500,106
27.78333,105
27.79167,104
27.80000,103
27.80833,102
27.81667,100
27.82500,99
27.83333,98
27.84167,97
27.85000,96
27.85833,95
27.86667,93
27.87500,92
27.88333,91
27.89167,89
27.90000,88
27.90833,86
27.91667,84
27.92500,82
27.93333,80
27.94167,78
27.95000,77
27.95833,75
27.96667,73
27.97500,71
27.98333,68
27.99167,66
28.00000,64
28.00833,62
28.01667,60
28.02500,57
28.03333,55
28.04167,52
28.05000,49
28.05833,47
28.06667,44
28.07500,42
28.08333,40
28.09167,37
28.10000,34
28.10833,32
28.11667,29
28.12500,27
28.13333,24
28.14167,21
28.15000,18
28.15833,15
28.16667,13
28.17500,10
28.18333,8
28.19167,5
28.20000,3
28.20833,0
28.21667,-2
28.22500,-5
28.23333,-7
28.24167,-9
28.25000,-11
28.25833,-13
28.26667,-15
28.27500,-17
28.28333,-19
28.29167,-21
28.30000,-22
28.30833,-23
28.31667,-24
28.32500,-25
28.33333,-26
28.34167,-27
28.35000,-27
28.35833,-28
28.36667,-29
28.37500,-29
28.38333,-30
28.39167,-30
28.40000,-30
28.40833,-29
28.41667,-29
28.42500,-28
28.43333,-27
28.44167,-26
28.45000,-25
28.45833,-24
28.46667,-23
28.47500,-22
28.48333,-21
28.49167,-19
28.50000,-17
28.50833,-15
28.51667,-14
28.52500,-12
28.53333,-10
28.54167,-7
28.55000,-5
28.55833,-3
28.56667,-1
28.57500,1
28.58333,3
28.59167,5
28.60000,7
28.60833,9
28.61667,11
28.62500,13
28.63333,16
28.64167,18
28.65000,20
28.65833,22
28.66667,24
28.67500,26
28.68333,28
28.69167,30
28.70000,32
28.70833,35
28.71667,36
28.72500,38
28.73333,40
28.74167,42
28.75000,44
28.75833,45
28.76667,46
28.77500,48
28.78333,49
28.79167,51
28.80000,53
28.80833,54
28.81667,56
28.82500,57
28.83333,58
28.84167,59
28.85000,61
28.85833,62
28.86667,63
28.87500,64
28.88333,65
28.89167,65
28.90000,66
28.90833,67
28.91667,67
28.92500,67
28.93333,68
28.94167,69
28.95000,69
28.95833,70
28.96667,71
28.97500,71
28.98333,72
28.99167,73
29.00000,73
29.00833,73
29.01667,74
29.02500,75
29.03333,75
29.04167,75
29.05000,76
29.05833,76
29.06667,77
29.07500,77
29.08333,78
29.09167,78
29.10000,78
29.10833,79
29.11667,79
29.12500,80
29.13333,80
29.14167,80
29.15000,80
29.15833,81
29.16667,81
29.17500,82
29.18333,82
29.19167,82
29.20000,83
29.20833,83
29.21667,83
29.22500,83
29.23333,83
29.24167,84
29.25000,83
29.25833,83
29.26667,83
29.27500,83
29.28333,83
29.29167,84
29.30000,84
29.30833,84
29.31667,84
29.32500,84
29.33333,84
29.34167,84
29.35000,84
29.35833,83
29.36667,83
29.37500,83
29.38333,84
29.39167,84
29.40000,84
29.40833,84
29.41667,84
29.42500,84
29.43333,84
29.44167,84
29.45000,84
29.45833,83
29.46667,83
29.47500,83
29.48333,83
29.49167,83
29.50000,84
29.50833,83
29.51667,84
29.52500,84
29.53333,83
29.54167,83
29.55000,83
29.55833,83
29.56667,83
29.57500,83
29.58333,83
29.59167,83
29.60000,83
29.60833,82
29.61667,82
29.62500,82
29.63333,82
29.64167,82
29.65000,81
29.65833,81
29.66667,80
29.67500,79
29.68333,79
29.69167,79
29.70000,79
29.70833,78
29.71667,78
29.72500,77
29.73333,77
29.74167,76
29.75000,75
29.75833,75
29.76667,74
29.77500,73
29.78333,72
29.79167,72
29.80000,71
29.80833,69
29.81667,68
29.82500,68
29.83333,67
29.84167,66
29.85000,65
29.85833,65
29.86667,64
29.87500,63
29.88333,62
29.89167,61
29.90000,61
29.90833,59
29.91667,58
29.92500,57
29.93333,57
29.94167,56
29.95000,55
29.95833,55
29.96667,54
29.97500,52
29.98333,51
29.99167,50
30.00000,49
30.00833,49
30.01667,48
30.02500,47
30.03333,47
30.04167,46
30.05000,46
30.05833,46
30.06667,45
30.07500,44
30.08333,43
30.09167,42
30.10000,42
30.10833,41
30.11667,41
30.12500,41
30.13333,40
30.14167,40
30.15000,40
30.15833,39
30.16667,39
30.17500,39
30.18333,38
30.19167,38
30.20000,38
30.20833,39
30.21667,39
30.22500,39
30.23333,39
30.24167,39
30.25000,39
30.25833,40
30.26667,40
30.27500,40
30.28333,41
30.29167,41
30.30000,42
30.30833,42
30.31667,43
30.32500,44
30.33333,45
30.34167,46
30.35000,46
30.35833,47
30.36667,48
30.37500,49
30.38333,49
30.39167,50
30.40000,51
30.40833,51
30.41667,52
30.42500,53
30.43333,54
30.44167,55
30.45000,57
30.45833,58
30.46667,59
30.47500,60
30.48333,61
30.49167,62
30.50000,62
30.50833,64
30.51667,65
30.52500,65
30.53333,66
30.54167,67
30.55000,68
30.55833,69
30.56667,69
30.57500,70
30.58333,70
30.59167,71
30.60000,71
30.60833,72
30.61667,73
30.62500,73
30.63333,74
30.64167,74
30.65000,75
30.65833,75
30.66667,75
30.67500,75
30.68333,76
30.69167,76
30.70000,77
30.70833,77
30.71667,77
30.72500,77
30.73333,77
30.74167,77
30.75000,77
30.75833,78
30.76667,78
30.77500,78
30.78333,79
30.79167,79
30.80000,79
30.80833,80
30.81667,79
30.82500,79
30.83333,79
30.84167,79
30.85000,79
30.85833,79
30.86667,79
30.87500,79
30.88333,78
30.89167,78
30.90000,78
30.90833,78
30.91667,78
30.92500,78
30.93333,79
30.94167,79
30.95000,79
30.95833,79
30.96667,79
30.97500,79
30.98333,80
30.99167,80
31.00000,79
31.00833,79
31.01667,80
31.02500,80
31.03333,80
31.04167,80
31.05000,80
31.05833,80
31.06667,80
31.07500,81
31.08333,81
31.09167,81
31.10000,81
31.10833,82
31.11667,82
31.12500,82
31.13333,81
31.14167,81
31.15000,82
31.15833,82
31.16667,83
31.17500,83
31.18333,83
31.19167,83
31.20000,83
31.20833,83
31.21667,83
31.22500,84
31.23333,84
31.24167,84
31.25000,84
31.25833,84
31.26667,83
31.27500,83
31.28333,83
31.29167,83
31.30000,83
31.30833,83
31.31667,83
31.32500,82
31.33333,82
31.34167,82
31.35000,82
31.35833,81
31.36667,81
31.37500,81
31.38333,81
31.39167,80
31.40000,80
31.40833,80
31.41667,80
31.42500,79
31.43333,79
31.44167,79
31.45000,78
31.45833,78
31.46667,77
31.47500,77
31.48333,76
31.49167,76
31.50000,75
31.50833,75
31.51667,75
31.52500,74
31.53333,73
31.54167,73
31.55000,72
31.55833,72
31.56667,71
31.57500,71
31.58333,71
31.59167,70
31.60000,70
31.60833,70
31.61667,70
31.62500,69
31.63333,69
31.64167,68
31.65000,67
31.65833,67
31.66667,67
31.67500,66
31.68333,66
31.69167,65
31.70000,65
31.70833,65
31.71667,65
31.72500,65
31.73333,65
31.74167,64
31.75000,64
31.75833,63
31.76667,63
31.77500,63
31.78333,63
31.79167,63
31.80000,63
31.80833,62
31.81667,62
31.82500,63
31.83333,63
31.84167,63
31.85000,63
31.85833,64
31.86667,64
31.87500,64
31.88333,65
31.89167,65
31.90000,65
31.90833,65
31.91667,66
31.92500,66
31.93333,67
31.94167,67
31.95000,68
31.95833,69
31.96667,69
31.97500,70
31.98333,71
31.99167,71
32.00000,72
32.00833,73
32.01667,74
32.02500,74
32.03333,75
32.04167,76
32.05000,76
32.05833,77
32.06667,77
32.07500,78
32.08333,79
32.09167,80
32.10000,80
32.10833,81
32.11667,81
32.12500,82
32.13333,83
32.14167,84
32.15000,84
32.15833,85
32.16667,85
32.17500,86
32.18333,86
32.19167,87
32.20000,87
32.20833,88
32.21667,88
32.22500,88
32.23333,89
32.24167,89
32.25000,89
32.25833,90
32.26667,90
32.27500,90
32.28333,91
32.29167,90
32.30000,90
32.30833,90
32.31667,90
32.32500,90
32.33333,90
32.34167,90
32.35000,90
32.35833,89
32.36667,89
32.37500,89
32.38333,89
32.39167,90
32.40000,90
32.40833,90
32.41667,90
32.42500,90
32.43333,90
32.44167,89
32.45000,89
32.45833,89
32.46667,89
32.47500,88
32.48333,88
32.49167,88
32.50000,88
32.50833,87
32.51667,87
32.52500,87
32.53333,87
32.54167,87
32.55000,86
32.55833,86
32.56667,86
32.57500,86
32.58333,86
32.59167,86
32.60000,87
32.60833,87
32.61667,86
32.62500,86
32.63333,86
32.64167,86
32.65000,86
32.65833,86
32.66667,85
32.67500,85
32.68333,85
32.69167,84
32.70000,84
32.70833,84
32.71667,84
32.72500,84
32.73333,84
32.74167,84
32.75000,84
32.75833,84
32.76667,85
32.77500,85
32.78333,85
32.79167,85
32.80000,85
32.80833,85
32.81667,86
32.82500,86
32.83333,85
32.84167,86
32.85000,86
32.85833,86
32.86667,86
32.87500,86
32.88333,86
32.89167,86
32.90000,86
32.90833,86
32.91667,86
32.92500,86
32.93333,86
32.94167,86
32.95000,86
32.95833,86
32.96667,86
32.97500,87
32.98333,87
32.99167,87
33.00000,87
33.00833,87
33.01667,87
33.02500,87
33.03333,87
33.04167,87
33.05000,87
33.05833,87
33.06667,87
33.07500,87
33.08333,87
33.09167,88
33.10000,88
33.10833,88
33.11667,88
33.12500,88
33.13333,88
33.14167,89
33.15000,89
33.15833,89
33.16667,89
33.17500,90
33.18333,90
33.19167,90
33.20000,90
33.20833,91
33.21667,91
33.22500,91
33.23333,91
33.24167,91
33.25000,91
33.25833,91
33.26667,91
33.27500,91
33.28333,91
33.29167,90
33.30000,90
33.30833,90
33.31667,90
33.32500,90
33.33333,89
33.34167,89
33.35000,89
33.35833,88
33.36667,88
33.37500,88
33.38333,88
33.39167,88
33.40000,87
33.40833,87
33.41667,87
33.42500,86
33.43333,86
33.44167,85
33.45000,85
33.45833,84
33.46667,84
33.47500,84
33.48333,83
33.49167,83
33.50000,83
33.50833,83
33.51667,82
33.52500,82
33.53333,81
33.54167,81
33.55000,81
33.55833,80
33.56667,80
33.57500,80
33.58333,79
33.59167,79
33.60000,79
33.60833,79
33.61667,79
33.62500,79
33.63333,79
33.64167,79
33.65000,79
33.65833,79
33.66667,78
33.67500,78
33.68333,78
33.69167,78
33.70000,79
33.70833,79
33.71667,79
33.72500,80
33.73333,80
33.74167,80
33.75000,81
33.75833,81
33.76667,82
33.77500,82
33.78333,82
33.79167,83
33.80000,83
33.80833,83
33.81667,83
33.82500,84
33.83333,84
33.84167,84
33.85000,84
33.85833,85
33.86667,85
33.87500,85
33.88333,86
33.89167,86
33.90000,87
33.90833,87
33.91667,88
33.92500,87
33.93333,88
33.94167,88
33.95000,88
33.95833,88
33.96667,89
33.97500,89
33.98333,89
33.99167,89
34.00000,89
34.00833,88
34.01667,88
34.02500,88
34.03333,88
34.04167,88
34.05000,88
34.05833,88
34.06667,88
34.07500,88
34.08333,88
34.09167,87
34.10000,87
34.10833,86
34.11667,86
34.12500,86
34.13333,86
34.14167,86
34.15000,85
34.15833,85
34.16667,85
34.17500,85
34.18333,84
34.19167,84
34.20000,84
34.20833,83
34.21667,83
34.22500,83
34.23333,83
34.24167,82
34.25000,82
34.25833,82
34.26667,82
34.27500,82
34.28333,82
34.29167,82
34.30000,82
34.30833,81
34.31667,81
34.32500,81
34.33333,82
34.34167,82
34.35000,82
34.35833,83
34.36667,83
34.37500,83
34.38333,83
34.39167,83
34.40000,83
34.40833,83
34.41667,83
34.42500,83
34.43333,83
34.44167,83
34.45000,83
34.45833,84
34.46667,84
34.47500,85
34.48333,85
34.49167,86
34.50000,86
34.50833,86
34.51667,86
34.52500,86
34.53333,87
34.54167,87
34.55000,87
34.55833,87
34.56667,88
34.57500,88
34.58333,88
34.59167,89
34.60000,89
34.60833,89
34.61667,89
34.62500,89
34.63333,89
34.64167,89
34.65000,89
34.65833,89
34.66667,89
34.67500,89
34.68333,89
34.69167,89
34.70000,89
34.70833,89
34.71667,89
34.72500,89
34.73333,89
34.74167,89
34.75000,89
34.75833,89
34.76667,89
34.77500,89
34.78333,89
34.79167,89
34.80000,89
34.80833,89
34.81667,89
34.82500,88
34.83333,88
34.84167,87
34.85000,87
34.85833,87
34.86667,87
34.87500,87
34.88333,87
34.89167,87
34.90000,87
34.90833,86
34.91667,86
34.92500,86
34.93333,85
34.94167,85
34.95000,84
34.95833,84
34.96667,84
34.97500,84
34.98333,84
34.99167,83
35.00000,83
35.00833,82
35.01667,81
35.02500,81
35.03333,80
35.04167,80
35.05000,81
35.05833,80
35.06667,80
35.07500,80
35.08333,79
35.09167,79
35.10000,78
35.10833,78
35.11667,77
35.12500,77
35.13333,76
35.14167,75
35.15000,75
35.15833,74
35.16667,73
35.17500,73
35.18333,72
35.19167,71
35.20000,71
35.20833,70
35.21667,70
35.22500,70
35.23333,70
35.24167,70
35.25000,69
35.25833,68
35.26667,68
35.27500,67
35.28333,67
35.29167,67
35.30000,67
35.30833,67
35.31667,67
35.32500,66
35.33333,66
35.34167,66
35.35000,66
35.35833,65
35.36667,65
35.37500,65
35.38333,65
35.39167,65
35.40000,65
35.40833,65
35.41667,64
35.42500,64
35.43333,64
35.44167,65
35.45000,65
35.45833,66
35.46667,66
35.47500,67
35.48333,67
35.49167,67
35.50000,67
35.50833,67
35.51667,68
35.52500,68
35.53333,68
35.54167,68
35.55000,69
35.55833,69
35.56667,70
35.57500,70
35.58333,71
35.59167,72
35.60000,73
35.60833,73
35.61667,74
35.62500,74
35.63333,75
35.64167,75
35.65000,76
35.65833,77
35.66667,77
35.67500,78
35.68333,79
35.69167,79
35.70000,80
35.70833,80
35.71667,80
35.72500,81
35.73333,81
35.74167,82
35.75000,83
35.75833,83
35.76667,84
35.77500,85
35.78333,86
35.79167,87
35.80000,87
35.80833,88
35.81667,88
35.82500,88
35.83333,88
35.84167,88
35.85000,89
35.85833,89
35.86667,89
35.87500,90
35.88333,90
35.89167,90
35.90000,90
35.90833,90
35.91667,90
35.92500,90
35.93333,90
35.94167,90
35.95000,90
35.95833,90
35.96667,90
35.97500,90
35.98333,90
35.99167,89
36.00000,90
36.00833,90
36.01667,89
36.02500,89
36.03333,89
36.04167,88
36.05000,88
36.05833,88
36.06667,87
36.07500,87
36.08333,87
36.09167,86
36.10000,86
36.10833,86
36.11667,85
36.12500,85
36.13333,84
36.14167,83
36.15000,83
36.15833,82
36.16667,81
36.17500,81
36.18333,81
36.19167,80
36.20000,79
36.20833,79
36.21667,78
36.22500,77
36.23333,77
36.24167,77
36.25000,76
36.25833,75
36.26667,75
36.27500,75
36.28333,74
36.29167,74
36.30000,74
36.30833,73
36.31667,73
36.32500,72
36.33333,72
36.34167,71
36.35000,71
36.35833,71
36.36667,70
36.37500,70
36.38333,69
36.39167,69
36.40000,68
36.40833,68
36.41667,67
36.42500,68
36.43333,68
36.44167,68
36.45000,67
36.45833,67
36.46667,67
36.47500,67
36.48333,67
36.49167,67
36.50000,67
36.50833,68
36.51667,68
36.52500,68
36.53333,68
36.54167,68
36.55000,69
36.55833,69
36.56667,69
36.57500,70
36.58333,70
36.59167,70
36.60000,70
36.60833,71
36.61667,71
36.62500,72
36.63333,72
36.64167,73
36.65000,73
36.65833,74
36.66667,74
36.67500,75
36.68333,75
36.69167,76
36.70000,76
36.70833,77
36.71667,77
36.72500,78
36.73333,79
36.74167,79
36.75000,80
36.75833,80
36.76667,80
36.77500,81
36.78333,81
36.79167,81
36.80000,82
36.80833,82
36.81667,83
36.82500,84
36.83333,84
36.84167,85
36.85000,85
36.85833,85
36.86667,86
36.87500,86
36.88333,86
36.89167,86
36.90000,86
36.90833,86
36.91667,86
36.92500,86
36.93333,86
36.94167,86
36.95000,87
36.95833,87
36.96667,88
36.97500,88
36.98333,88
36.99167,88
37.00000,88
37.00833,89
37.01667,89
37.02500,89
37.03333,89
37.04167,89
37.05000,89
37.05833,89
37.06667,89
37.07500,89
37.08333,89
37.09167,89
37.10000,89
37.10833,89
37.11667,89
37.12500,90
37.13333,90
37.14167,90
37.15000,91
37.15833,91
37.16667,91
37.17500,91
37.18333,91
37.19167,91
37.20000,91
37.20833,91
37.21667,91
37.22500,91
37.23333,91
37.24167,91
37.25000,90
37.25833,90
37.26667,90
37.27500,89
37.28333,89
37.29167,89
37.30000,89
37.30833,89
37.31667,88
37.32500,88
37.33333,87
37.34167,87
37.35000,86
37.35833,86
37.36667,85
37.37500,85
37.38333,85
37.39167,84
37.40000,84
37.40833,83
37.41667,83
37.42500,82
37.43333,82
37.44167,82
37.45000,82
37.45833,81
37.46667,81
37.47500,80
37.48333,79
37.49167,79
37.50000,78
37.50833,78
37.51667,78
37.52500,77
37.53333,77
37.54167,76
37.55000,76
37.55833,76
37.56667,76
37.57500,76
37.58333,77
37.59167,77
37.60000,77
37.60833,77
37.61667,77
37.62500,77
37.63333,77
37.64167,77
37.65000,78
37.65833,78
37.66667,78
37.67500,78
37.68333,78
37.69167,79
37.70000,79
37.70833,79
37.71667,80
37.72500,80
37.73333,81
37.74167,81
37.75000,82
37.75833,82
37.76667,83
37.77500,83
37.78333,83
37.79167,83
37.80000,84
37.80833,85
37.81667,85
37.82500,85
37.83333,85
37.84167,85
37.85000,86
37.85833,86
37.86667,87
37.87500,87
37.88333,87
37.89167,87
37.90000,87
37.90833,87
37.91667,87
37.92500,87
37.93333,86
37.94167,86
37.95000,86
37.95833,86
37.96667,86
37.97500,85
37.98333,85
37.99167,85
38.00000,85
38.00833,85
38.01667,84
38.02500,84
38.03333,84
38.04167,84
38.05000,83
38.05833,83
38.06667,82
38.07500,82
38.08333,82
38.09167,81
38.10000,81
38.10833,81
38.11667,81
38.12500,81
38.13333,81
38.14167,80
38.15000,80
38.15833,80
38.16667,81
38.17500,80
38.18333,80
38.19167,80
38.20000,80
38.20833,80
38.21667,81
38.22500,81
38.23333,81
38.24167,81
38.25000,81
38.25833,81
38.26667,81
38.27500,81
38.28333,81
38.29167,82
38.30000,82
38.30833,83
38.31667,83
38.32500,83
38.33333,83
38.34167,83
38.35000,83
38.35833,83
38.36667,83
38.37500,83
38.38333,83
38.39167,83
38.40000,83
38.40833,83
38.41667,83
38.42500,83
38.43333,84
38.44167,84
38.45000,84
38.45833,84
38.46667,84
38.47500,84
38.48333,84
38.49167,84
38.50000,84
38.50833,84
38.51667,84
38.52500,83
38.53333,83
38.54167,83
38.55000,83
38.55833,83
38.56667,83
38.57500,84
38.58333,84
38.59167,84
38.60000,84
38.60833,84
38.61667,84
38.62500,84
38.63333,85
38.64167,85
38.65000,85
38.65833,85
38.66667,86
38.67500,86
38.68333,86
38.69167,86
38.70000,86
38.70833,87
38.71667,87
38.72500,87
38.73333,87
38.74167,87
38.75000,88
38.75833,88
38.76667,89
38.77500,89
38.78333,90
38.79167,91
38.80000,91
38.80833,92
38.81667,93
38.82500,93
38.83333,94
38.84167,94
38.85000,94
38.85833,95
38.86667,95
38.87500,95
38.88333,95
38.89167,95
38.90000,95
38.90833,95
38.91667,95
38.92500,95
38.93333,95
38.94167,96
38.95000,96
38.95833,96
38.96667,96
38.97500,96
38.98333,96
38.99167,96
39.00000,97
39.00833,97
39.01667,96
39.02500,96
39.03333,96
39.04167,96
39.05000,96
39.05833,96
39.06667,96
39.07500,95
39.08333,95
39.09167,95
39.10000,95
39.10833,95
39.11667,95
39.12500,95
39.13333,95
39.14167,95
39.15000,95
39.15833,95
39.16667,95
39.17500,95
39.18333,95
39.19167,95
39.20000,95
39.20833,95
39.21667,94
39.22500,94
39.23333,94
39.24167,94
39.25000,94
39.25833,94
39.26667,94
39.27500,94
39.28333,94
39.29167,95
39.30000,95
39.30833,95
39.31667,95
39.32500,96
39.33333,96
39.34167,97
39.35000,97
39.35833,97
39.36667,97
39.37500,97
39.38333,97
39.39167,97
39.40000,97
39.40833,97
39.41667,97
39.42500,97
39.43333,97
39.44167,98
39.45000,98
39.45833,98
39.46667,98
39.47500,98
39.48333,98
39.49167,98
39.50000,98
39.50833,98
39.51667,98
39.52500,98
39.53333,97
39.54167,97
39.55000,97
39.55833,97
39.56667,97
39.57500,96
39.58333,96
39.59167,96
39.60000,96
39.60833,95
39.61667,95
39.62500,94
39.63333,94
39.64167,93
39.65000,93
39.65833,92
39.66667,92
39.67500,91
39.68333,91
39.69167,91
39.70000,91
39.70833,91
39.71667,90
39.72500,90
39.73333,89
39.74167,88
39.75000,88
39.75833,87
39.76667,87
39.77500,87
39.78333,86
39.79167,86
39.80000,85
39.80833,85
39.81667,84
39.82500,84
39.83333,84
39.84167,83
39.85000,83
39.85833,83
39.86667,82
39.87500,82
39.88333,82
39.89167,81
39.90000,81
39.90833,80
39.91667,80
39.92500,80
39.93333,80
39.94167,79
39.95000,79
39.95833,79
39.96667,79
39.97500,79
39.98333,79
39.99167,79
40.00000,79

