[Header]
Application Name,LabSolutions
Version,5.97 SP1
Data File Name,C:\Users\cremerlab\Desktop\griffin\2021-04-05_NC_DM_calibration\2021-04-05_NC_DM_2.5mM_calibration_452021_002_002.lcd
Output Date,4/5/2021
Output Time,6:25:38 PM

[File Information]
Type,Data File
Generated,4/5/2021 5:45:17 PM
Generated by,System Administrator
Modified,4/5/2021 6:25:38 PM
Modified by,System Administrator

[Sample Information]
Operator Name,System Administrator
Acquired,4/5/2021 5:45:37 PM
Sample Type,1:Standard
Level,2
Sample Name,2021-04-05_NC_glucose_glycerol_acetate_25mM
Sample ID,002
ISTD Amount1,1
ISTD Amount2,1
ISTD Amount3,1
ISTD Amount4,1
ISTD Amount5,1
ISTD Amount6,1
ISTD Amount7,1
ISTD Amount8,1
ISTD Amount9,1
ISTD Amount10,1
ISTD Amount11,1
ISTD Amount12,1
ISTD Amount13,1
ISTD Amount14,1
ISTD Amount15,1
ISTD Amount16,1
ISTD Amount17,1
ISTD Amount18,1
ISTD Amount19,1
ISTD Amount20,1
ISTD Amount21,1
ISTD Amount22,1
ISTD Amount23,1
ISTD Amount24,1
ISTD Amount25,1
ISTD Amount26,1
ISTD Amount27,1
ISTD Amount28,1
ISTD Amount29,1
ISTD Amount30,1
ISTD Amount31,1
ISTD Amount32,1
Sample Amount,1
Dilution Factor,1
Vial#,2
Injection Volume,20

[Original Files]
Data File,C:\Users\cremerlab\Desktop\griffin\2021-04-05_NC_DM_calibration\2021-04-05_NC_DM_2.5mM_calibration_452021_002_002.lcd
Method File,C:\Users\cremerlab\Desktop\griffin\2021-04-05_NC_DM_calibration\2021-04-05_2.5mM_mobile.lcm
Batch File,C:\Users\cremerlab\Desktop\griffin\2021-04-05_NC_DM_calibration\2021-04-05_NC_DM_2.5mM_calibration.lcb
Report Format File,c:\LabSolutions\System\DEFAULT.lsr

[File Description]


[Configuration]
Instrument Name,HPLC-PC-Instrument1
Instrument #,1
Line #,1
# of Detectors,2
Detector ID,Detector A,Detector B
Detector Name,Detector A,Detector B
# of Channels,1,1

[Peak Table(Detector A)]
# of Peaks,0

[Peak Table(Detector B)]
# of Peaks,5
Peak#,R.Time,I.Time,F.Time,Area,Height,A/H,Conc.,Mark,ID#,Name,k',Plate #,Plate Ht.,Tailing,Resolution,Sep.Factor,Area Ratio,Height Ratio,Conc. %,Norm Conc.
1,11.000,10.600,11.900,1360720,80431,16.918,0.000,   ,,,0.000,9494,15.799,0.950,0.000,0.000,0,0,0.000,0.000
2,14.347,12.625,15.083,3550056,80828,43.921,0.000,   ,,,0.304,2864,52.378,0.621,4.393,0.000,0,0,0.000,0.000
3,15.662,15.083,18.592,2356023,95692,24.621,0.000, V ,,,0.424,9588,15.644,1.152,1.536,1.393,0,0,0.000,0.000
4,22.059,21.300,23.717,692632,25135,27.556,0.000,   ,,,1.005,14872,10.086,1.093,9.384,2.372,0,0,0.000,0.000
5,25.014,24.267,26.075,297049,10029,29.619,0.000,   ,,,1.274,16308,9.198,1.068,3.922,1.267,0,0,0.000,0.000

[LC Chromatogram(Detector B-Ch1)]
Interval(msec),500
# of Points,4801
Start Time(min),0.000
End Time(min),40.000
Intensity Units,mV
Intensity Multiplier,0.001
R.Time (min),Intensity
0.00000,-8
0.00833,-8
0.01667,-1
0.02500,0
0.03333,0
0.04167,0
0.05000,0
0.05833,1
0.06667,1
0.07500,1
0.08333,1
0.09167,2
0.10000,2
0.10833,3
0.11667,3
0.12500,3
0.13333,3
0.14167,3
0.15000,4
0.15833,3
0.16667,4
0.17500,4
0.18333,5
0.19167,5
0.20000,5
0.20833,5
0.21667,5
0.22500,5
0.23333,6
0.24167,6
0.25000,6
0.25833,6
0.26667,7
0.27500,7
0.28333,7
0.29167,8
0.30000,8
0.30833,8
0.31667,9
0.32500,9
0.33333,10
0.34167,10
0.35000,11
0.35833,10
0.36667,10
0.37500,10
0.38333,11
0.39167,11
0.40000,11
0.40833,11
0.41667,11
0.42500,12
0.43333,11
0.44167,11
0.45000,11
0.45833,11
0.46667,11
0.47500,11
0.48333,12
0.49167,12
0.50000,13
0.50833,13
0.51667,13
0.52500,13
0.53333,13
0.54167,14
0.55000,14
0.55833,14
0.56667,14
0.57500,14
0.58333,14
0.59167,14
0.60000,14
0.60833,14
0.61667,14
0.62500,14
0.63333,14
0.64167,14
0.65000,13
0.65833,13
0.66667,13
0.67500,13
0.68333,13
0.69167,12
0.70000,12
0.70833,12
0.71667,11
0.72500,11
0.73333,11
0.74167,11
0.75000,11
0.75833,10
0.76667,10
0.77500,10
0.78333,9
0.79167,9
0.80000,9
0.80833,9
0.81667,9
0.82500,8
0.83333,8
0.84167,8
0.85000,8
0.85833,7
0.86667,7
0.87500,7
0.88333,6
0.89167,6
0.90000,6
0.90833,6
0.91667,6
0.92500,6
0.93333,6
0.94167,6
0.95000,6
0.95833,6
0.96667,6
0.97500,6
0.98333,6
0.99167,5
1.00000,5
1.00833,5
1.01667,5
1.02500,5
1.03333,5
1.04167,5
1.05000,5
1.05833,6
1.06667,6
1.07500,6
1.08333,7
1.09167,7
1.10000,7
1.10833,7
1.11667,7
1.12500,7
1.13333,7
1.14167,7
1.15000,6
1.15833,6
1.16667,6
1.17500,7
1.18333,7
1.19167,7
1.20000,7
1.20833,7
1.21667,7
1.22500,7
1.23333,7
1.24167,7
1.25000,7
1.25833,7
1.26667,7
1.27500,7
1.28333,7
1.29167,7
1.30000,7
1.30833,7
1.31667,7
1.32500,7
1.33333,7
1.34167,7
1.35000,6
1.35833,6
1.36667,7
1.37500,7
1.38333,7
1.39167,7
1.40000,7
1.40833,7
1.41667,7
1.42500,7
1.43333,7
1.44167,7
1.45000,7
1.45833,7
1.46667,7
1.47500,7
1.48333,7
1.49167,7
1.50000,7
1.50833,7
1.51667,7
1.52500,7
1.53333,7
1.54167,7
1.55000,7
1.55833,6
1.56667,6
1.57500,6
1.58333,6
1.59167,6
1.60000,6
1.60833,7
1.61667,7
1.62500,7
1.63333,7
1.64167,7
1.65000,7
1.65833,8
1.66667,8
1.67500,8
1.68333,8
1.69167,8
1.70000,7
1.70833,7
1.71667,7
1.72500,7
1.73333,7
1.74167,7
1.75000,7
1.75833,7
1.76667,7
1.77500,7
1.78333,7
1.79167,7
1.80000,7
1.80833,6
1.81667,6
1.82500,6
1.83333,6
1.84167,5
1.85000,5
1.85833,4
1.86667,4
1.87500,4
1.88333,5
1.89167,5
1.90000,5
1.90833,4
1.91667,4
1.92500,4
1.93333,4
1.94167,3
1.95000,3
1.95833,3
1.96667,3
1.97500,3
1.98333,3
1.99167,3
2.00000,3
2.00833,3
2.01667,3
2.02500,3
2.03333,3
2.04167,3
2.05000,3
2.05833,3
2.06667,3
2.07500,3
2.08333,3
2.09167,3
2.10000,3
2.10833,3
2.11667,3
2.12500,3
2.13333,3
2.14167,3
2.15000,3
2.15833,4
2.16667,4
2.17500,5
2.18333,5
2.19167,5
2.20000,5
2.20833,5
2.21667,6
2.22500,6
2.23333,7
2.24167,7
2.25000,7
2.25833,7
2.26667,7
2.27500,8
2.28333,8
2.29167,8
2.30000,9
2.30833,9
2.31667,9
2.32500,10
2.33333,10
2.34167,10
2.35000,11
2.35833,11
2.36667,11
2.37500,11
2.38333,12
2.39167,12
2.40000,12
2.40833,12
2.41667,12
2.42500,12
2.43333,12
2.44167,13
2.45000,13
2.45833,13
2.46667,13
2.47500,13
2.48333,13
2.49167,13
2.50000,13
2.50833,13
2.51667,13
2.52500,13
2.53333,13
2.54167,12
2.55000,12
2.55833,13
2.56667,12
2.57500,12
2.58333,12
2.59167,12
2.60000,12
2.60833,12
2.61667,12
2.62500,13
2.63333,13
2.64167,13
2.65000,13
2.65833,13
2.66667,13
2.67500,13
2.68333,13
2.69167,13
2.70000,13
2.70833,13
2.71667,13
2.72500,13
2.73333,13
2.74167,14
2.75000,14
2.75833,14
2.76667,14
2.77500,14
2.78333,14
2.79167,14
2.80000,15
2.80833,15
2.81667,15
2.82500,15
2.83333,15
2.84167,15
2.85000,15
2.85833,16
2.86667,16
2.87500,16
2.88333,16
2.89167,16
2.90000,16
2.90833,16
2.91667,16
2.92500,16
2.93333,16
2.94167,16
2.95000,16
2.95833,16
2.96667,16
2.97500,16
2.98333,16
2.99167,16
3.00000,16
3.00833,15
3.01667,15
3.02500,15
3.03333,15
3.04167,14
3.05000,14
3.05833,14
3.06667,14
3.07500,14
3.08333,14
3.09167,14
3.10000,14
3.10833,14
3.11667,14
3.12500,14
3.13333,14
3.14167,14
3.15000,13
3.15833,13
3.16667,13
3.17500,13
3.18333,13
3.19167,13
3.20000,13
3.20833,12
3.21667,12
3.22500,12
3.23333,11
3.24167,11
3.25000,11
3.25833,11
3.26667,11
3.27500,11
3.28333,11
3.29167,11
3.30000,11
3.30833,10
3.31667,10
3.32500,10
3.33333,10
3.34167,10
3.35000,10
3.35833,10
3.36667,9
3.37500,9
3.38333,9
3.39167,9
3.40000,9
3.40833,8
3.41667,8
3.42500,8
3.43333,8
3.44167,8
3.45000,8
3.45833,8
3.46667,8
3.47500,8
3.48333,8
3.49167,7
3.50000,7
3.50833,8
3.51667,8
3.52500,8
3.53333,8
3.54167,7
3.55000,7
3.55833,7
3.56667,7
3.57500,7
3.58333,7
3.59167,8
3.60000,8
3.60833,8
3.61667,8
3.62500,8
3.63333,8
3.64167,8
3.65000,8
3.65833,9
3.66667,9
3.67500,9
3.68333,10
3.69167,10
3.70000,10
3.70833,11
3.71667,11
3.72500,11
3.73333,11
3.74167,12
3.75000,12
3.75833,12
3.76667,12
3.77500,12
3.78333,13
3.79167,13
3.80000,13
3.80833,13
3.81667,13
3.82500,13
3.83333,13
3.84167,13
3.85000,13
3.85833,13
3.86667,13
3.87500,13
3.88333,14
3.89167,14
3.90000,14
3.90833,14
3.91667,13
3.92500,13
3.93333,12
3.94167,12
3.95000,12
3.95833,13
3.96667,13
3.97500,13
3.98333,12
3.99167,12
4.00000,12
4.00833,11
4.01667,11
4.02500,11
4.03333,11
4.04167,11
4.05000,11
4.05833,11
4.06667,11
4.07500,10
4.08333,10
4.09167,9
4.10000,9
4.10833,9
4.11667,9
4.12500,8
4.13333,8
4.14167,8
4.15000,8
4.15833,8
4.16667,8
4.17500,8
4.18333,8
4.19167,8
4.20000,8
4.20833,8
4.21667,8
4.22500,8
4.23333,7
4.24167,7
4.25000,6
4.25833,6
4.26667,6
4.27500,6
4.28333,6
4.29167,7
4.30000,7
4.30833,7
4.31667,7
4.32500,8
4.33333,8
4.34167,7
4.35000,7
4.35833,6
4.36667,6
4.37500,6
4.38333,6
4.39167,6
4.40000,7
4.40833,7
4.41667,7
4.42500,7
4.43333,7
4.44167,7
4.45000,7
4.45833,7
4.46667,7
4.47500,7
4.48333,8
4.49167,8
4.50000,8
4.50833,8
4.51667,8
4.52500,9
4.53333,9
4.54167,9
4.55000,10
4.55833,10
4.56667,10
4.57500,10
4.58333,11
4.59167,11
4.60000,11
4.60833,12
4.61667,12
4.62500,12
4.63333,13
4.64167,13
4.65000,13
4.65833,13
4.66667,13
4.67500,13
4.68333,13
4.69167,13
4.70000,14
4.70833,14
4.71667,14
4.72500,14
4.73333,14
4.74167,14
4.75000,14
4.75833,15
4.76667,15
4.77500,15
4.78333,15
4.79167,16
4.80000,16
4.80833,16
4.81667,16
4.82500,16
4.83333,16
4.84167,17
4.85000,16
4.85833,16
4.86667,16
4.87500,16
4.88333,16
4.89167,15
4.90000,15
4.90833,15
4.91667,15
4.92500,15
4.93333,15
4.94167,15
4.95000,15
4.95833,15
4.96667,15
4.97500,15
4.98333,15
4.99167,15
5.00000,15
5.00833,15
5.01667,15
5.02500,15
5.03333,15
5.04167,15
5.05000,15
5.05833,15
5.06667,14
5.07500,14
5.08333,14
5.09167,13
5.10000,13
5.10833,13
5.11667,13
5.12500,13
5.13333,13
5.14167,12
5.15000,12
5.15833,11
5.16667,11
5.17500,11
5.18333,10
5.19167,10
5.20000,10
5.20833,10
5.21667,9
5.22500,9
5.23333,9
5.24167,9
5.25000,9
5.25833,8
5.26667,8
5.27500,7
5.28333,7
5.29167,6
5.30000,6
5.30833,6
5.31667,6
5.32500,5
5.33333,5
5.34167,5
5.35000,5
5.35833,4
5.36667,4
5.37500,4
5.38333,4
5.39167,4
5.40000,4
5.40833,4
5.41667,4
5.42500,4
5.43333,4
5.44167,4
5.45000,4
5.45833,4
5.46667,4
5.47500,5
5.48333,5
5.49167,5
5.50000,5
5.50833,5
5.51667,5
5.52500,5
5.53333,5
5.54167,6
5.55000,6
5.55833,6
5.56667,7
5.57500,8
5.58333,8
5.59167,9
5.60000,9
5.60833,10
5.61667,10
5.62500,10
5.63333,10
5.64167,11
5.65000,11
5.65833,11
5.66667,11
5.67500,12
5.68333,13
5.69167,14
5.70000,14
5.70833,14
5.71667,14
5.72500,14
5.73333,14
5.74167,14
5.75000,14
5.75833,14
5.76667,14
5.77500,15
5.78333,15
5.79167,15
5.80000,15
5.80833,15
5.81667,15
5.82500,15
5.83333,15
5.84167,15
5.85000,15
5.85833,16
5.86667,16
5.87500,16
5.88333,16
5.89167,16
5.90000,15
5.90833,15
5.91667,15
5.92500,15
5.93333,15
5.94167,15
5.95000,15
5.95833,15
5.96667,15
5.97500,15
5.98333,15
5.99167,15
6.00000,15
6.00833,15
6.01667,14
6.02500,14
6.03333,14
6.04167,14
6.05000,14
6.05833,14
6.06667,14
6.07500,14
6.08333,14
6.09167,14
6.10000,14
6.10833,14
6.11667,14
6.12500,14
6.13333,13
6.14167,13
6.15000,13
6.15833,12
6.16667,12
6.17500,12
6.18333,13
6.19167,13
6.20000,12
6.20833,12
6.21667,12
6.22500,12
6.23333,12
6.24167,12
6.25000,12
6.25833,13
6.26667,13
6.27500,13
6.28333,13
6.29167,13
6.30000,13
6.30833,13
6.31667,13
6.32500,13
6.33333,13
6.34167,13
6.35000,13
6.35833,13
6.36667,13
6.37500,13
6.38333,13
6.39167,14
6.40000,13
6.40833,13
6.41667,13
6.42500,13
6.43333,13
6.44167,13
6.45000,13
6.45833,13
6.46667,13
6.47500,13
6.48333,13
6.49167,13
6.50000,13
6.50833,13
6.51667,13
6.52500,13
6.53333,13
6.54167,12
6.55000,12
6.55833,12
6.56667,12
6.57500,12
6.58333,12
6.59167,12
6.60000,12
6.60833,12
6.61667,11
6.62500,11
6.63333,11
6.64167,11
6.65000,11
6.65833,11
6.66667,11
6.67500,10
6.68333,10
6.69167,10
6.70000,10
6.70833,9
6.71667,9
6.72500,9
6.73333,9
6.74167,9
6.75000,9
6.75833,9
6.76667,9
6.77500,9
6.78333,9
6.79167,10
6.80000,10
6.80833,10
6.81667,10
6.82500,10
6.83333,9
6.84167,9
6.85000,9
6.85833,9
6.86667,9
6.87500,9
6.88333,9
6.89167,9
6.90000,9
6.90833,9
6.91667,9
6.92500,9
6.93333,10
6.94167,10
6.95000,10
6.95833,10
6.96667,10
6.97500,10
6.98333,10
6.99167,11
7.00000,11
7.00833,11
7.01667,11
7.02500,11
7.03333,12
7.04167,12
7.05000,12
7.05833,12
7.06667,12
7.07500,12
7.08333,12
7.09167,13
7.10000,13
7.10833,13
7.11667,13
7.12500,13
7.13333,13
7.14167,13
7.15000,13
7.15833,13
7.16667,13
7.17500,13
7.18333,13
7.19167,13
7.20000,13
7.20833,13
7.21667,14
7.22500,14
7.23333,14
7.24167,14
7.25000,14
7.25833,13
7.26667,13
7.27500,13
7.28333,13
7.29167,13
7.30000,13
7.30833,13
7.31667,13
7.32500,13
7.33333,13
7.34167,13
7.35000,13
7.35833,13
7.36667,13
7.37500,13
7.38333,13
7.39167,14
7.40000,14
7.40833,14
7.41667,14
7.42500,15
7.43333,15
7.44167,15
7.45000,15
7.45833,15
7.46667,16
7.47500,16
7.48333,16
7.49167,16
7.50000,17
7.50833,17
7.51667,17
7.52500,17
7.53333,17
7.54167,17
7.55000,17
7.55833,18
7.56667,18
7.57500,18
7.58333,18
7.59167,17
7.60000,17
7.60833,17
7.61667,18
7.62500,18
7.63333,19
7.64167,20
7.65000,20
7.65833,20
7.66667,19
7.67500,20
7.68333,20
7.69167,20
7.70000,20
7.70833,20
7.71667,20
7.72500,20
7.73333,20
7.74167,20
7.75000,20
7.75833,19
7.76667,19
7.77500,19
7.78333,18
7.79167,18
7.80000,18
7.80833,18
7.81667,18
7.82500,17
7.83333,17
7.84167,17
7.85000,16
7.85833,16
7.86667,16
7.87500,16
7.88333,15
7.89167,15
7.90000,15
7.90833,15
7.91667,15
7.92500,15
7.93333,15
7.94167,15
7.95000,14
7.95833,14
7.96667,13
7.97500,13
7.98333,12
7.99167,12
8.00000,11
8.00833,11
8.01667,11
8.02500,11
8.03333,11
8.04167,10
8.05000,10
8.05833,10
8.06667,9
8.07500,8
8.08333,8
8.09167,7
8.10000,7
8.10833,8
8.11667,8
8.12500,7
8.13333,7
8.14167,7
8.15000,7
8.15833,7
8.16667,7
8.17500,7
8.18333,7
8.19167,7
8.20000,7
8.20833,7
8.21667,7
8.22500,7
8.23333,7
8.24167,7
8.25000,7
8.25833,6
8.26667,7
8.27500,7
8.28333,7
8.29167,7
8.30000,7
8.30833,7
8.31667,7
8.32500,8
8.33333,8
8.34167,8
8.35000,8
8.35833,8
8.36667,8
8.37500,9
8.38333,9
8.39167,10
8.40000,10
8.40833,11
8.41667,11
8.42500,11
8.43333,11
8.44167,11
8.45000,11
8.45833,11
8.46667,11
8.47500,12
8.48333,12
8.49167,12
8.50000,13
8.50833,13
8.51667,13
8.52500,13
8.53333,13
8.54167,13
8.55000,13
8.55833,13
8.56667,14
8.57500,14
8.58333,14
8.59167,13
8.60000,13
8.60833,14
8.61667,14
8.62500,15
8.63333,15
8.64167,15
8.65000,15
8.65833,16
8.66667,16
8.67500,16
8.68333,16
8.69167,16
8.70000,16
8.70833,17
8.71667,17
8.72500,17
8.73333,17
8.74167,17
8.75000,17
8.75833,17
8.76667,17
8.77500,17
8.78333,18
8.79167,18
8.80000,19
8.80833,19
8.81667,20
8.82500,21
8.83333,21
8.84167,21
8.85000,22
8.85833,22
8.86667,22
8.87500,22
8.88333,22
8.89167,23
8.90000,23
8.90833,23
8.91667,23
8.92500,23
8.93333,24
8.94167,25
8.95000,25
8.95833,25
8.96667,25
8.97500,25
8.98333,25
8.99167,26
9.00000,26
9.00833,27
9.01667,27
9.02500,27
9.03333,27
9.04167,28
9.05000,28
9.05833,27
9.06667,27
9.07500,27
9.08333,27
9.09167,27
9.10000,27
9.10833,27
9.11667,27
9.12500,27
9.13333,27
9.14167,27
9.15000,27
9.15833,27
9.16667,27
9.17500,27
9.18333,27
9.19167,26
9.20000,26
9.20833,26
9.21667,25
9.22500,25
9.23333,25
9.24167,24
9.25000,24
9.25833,24
9.26667,24
9.27500,23
9.28333,23
9.29167,23
9.30000,22
9.30833,22
9.31667,22
9.32500,21
9.33333,21
9.34167,20
9.35000,20
9.35833,19
9.36667,18
9.37500,18
9.38333,18
9.39167,17
9.40000,17
9.40833,17
9.41667,16
9.42500,16
9.43333,16
9.44167,15
9.45000,15
9.45833,15
9.46667,15
9.47500,14
9.48333,14
9.49167,13
9.50000,13
9.50833,13
9.51667,12
9.52500,12
9.53333,11
9.54167,11
9.55000,11
9.55833,11
9.56667,11
9.57500,11
9.58333,11
9.59167,10
9.60000,10
9.60833,10
9.61667,10
9.62500,10
9.63333,10
9.64167,10
9.65000,10
9.65833,10
9.66667,10
9.67500,10
9.68333,10
9.69167,11
9.70000,11
9.70833,11
9.71667,11
9.72500,11
9.73333,12
9.74167,12
9.75000,12
9.75833,12
9.76667,13
9.77500,14
9.78333,14
9.79167,14
9.80000,14
9.80833,14
9.81667,14
9.82500,14
9.83333,14
9.84167,15
9.85000,15
9.85833,16
9.86667,16
9.87500,17
9.88333,17
9.89167,17
9.90000,17
9.90833,17
9.91667,18
9.92500,18
9.93333,18
9.94167,18
9.95000,18
9.95833,18
9.96667,18
9.97500,18
9.98333,18
9.99167,18
10.00000,18
10.00833,18
10.01667,18
10.02500,19
10.03333,19
10.04167,20
10.05000,20
10.05833,20
10.06667,20
10.07500,21
10.08333,21
10.09167,21
10.10000,20
10.10833,20
10.11667,20
10.12500,20
10.13333,20
10.14167,20
10.15000,21
10.15833,21
10.16667,21
10.17500,21
10.18333,21
10.19167,21
10.20000,21
10.20833,21
10.21667,21
10.22500,21
10.23333,21
10.24167,21
10.25000,21
10.25833,21
10.26667,21
10.27500,22
10.28333,23
10.29167,23
10.30000,23
10.30833,23
10.31667,22
10.32500,22
10.33333,22
10.34167,22
10.35000,22
10.35833,22
10.36667,22
10.37500,22
10.38333,22
10.39167,21
10.40000,19
10.40833,17
10.41667,14
10.42500,9
10.43333,2
10.44167,-6
10.45000,-18
10.45833,-34
10.46667,-54
10.47500,-80
10.48333,-112
10.49167,-151
10.50000,-197
10.50833,-252
10.51667,-314
10.52500,-385
10.53333,-463
10.54167,-546
10.55000,-633
10.55833,-720
10.56667,-804
10.57500,-880
10.58333,-942
10.59167,-985
10.60000,-1002
10.60833,-985
10.61667,-928
10.62500,-822
10.63333,-659
10.64167,-434
10.65000,-138
10.65833,236
10.66667,694
10.67500,1241
10.68333,1883
10.69167,2625
10.70000,3469
10.70833,4420
10.71667,5479
10.72500,6650
10.73333,7932
10.74167,9327
10.75000,10835
10.75833,12456
10.76667,14189
10.77500,16032
10.78333,17984
10.79167,20043
10.80000,22207
10.80833,24471
10.81667,26834
10.82500,29291
10.83333,31836
10.84167,34466
10.85000,37174
10.85833,39953
10.86667,42796
10.87500,45693
10.88333,48632
10.89167,51602
10.90000,54586
10.90833,57566
10.91667,60518
10.92500,63416
10.93333,66227
10.94167,68912
10.95000,71426
10.95833,73717
10.96667,75729
10.97500,77401
10.98333,78672
10.99167,79483
11.00000,79781
11.00833,79526
11.01667,78691
11.02500,77268
11.03333,75272
11.04167,72737
11.05000,69716
11.05833,66279
11.06667,62509
11.07500,58495
11.08333,54328
11.09167,50096
11.10000,45880
11.10833,41753
11.11667,37774
11.12500,33991
11.13333,30438
11.14167,27138
11.15000,24104
11.15833,21338
11.16667,18836
11.17500,16590
11.18333,14585
11.19167,12805
11.20000,11232
11.20833,9848
11.21667,8634
11.22500,7573
11.23333,6647
11.24167,5841
11.25000,5141
11.25833,4533
11.26667,4005
11.27500,3548
11.28333,3153
11.29167,2810
11.30000,2513
11.30833,2255
11.31667,2031
11.32500,1836
11.33333,1666
11.34167,1517
11.35000,1386
11.35833,1272
11.36667,1171
11.37500,1082
11.38333,1004
11.39167,933
11.40000,871
11.40833,814
11.41667,764
11.42500,718
11.43333,676
11.44167,639
11.45000,605
11.45833,573
11.46667,544
11.47500,517
11.48333,493
11.49167,470
11.50000,449
11.50833,429
11.51667,410
11.52500,392
11.53333,376
11.54167,361
11.55000,346
11.55833,332
11.56667,319
11.57500,307
11.58333,295
11.59167,284
11.60000,274
11.60833,264
11.61667,255
11.62500,247
11.63333,238
11.64167,230
11.65000,223
11.65833,216
11.66667,210
11.67500,204
11.68333,199
11.69167,193
11.70000,188
11.70833,184
11.71667,180
11.72500,176
11.73333,173
11.74167,169
11.75000,166
11.75833,163
11.76667,160
11.77500,158
11.78333,156
11.79167,154
11.80000,152
11.80833,151
11.81667,150
11.82500,148
11.83333,147
11.84167,146
11.85000,145
11.85833,144
11.86667,143
11.87500,143
11.88333,142
11.89167,142
11.90000,142
11.90833,142
11.91667,142
11.92500,142
11.93333,142
11.94167,142
11.95000,141
11.95833,141
11.96667,140
11.97500,140
11.98333,140
11.99167,139
12.00000,139
12.00833,139
12.01667,139
12.02500,138
12.03333,138
12.04167,137
12.05000,135
12.05833,134
12.06667,133
12.07500,133
12.08333,132
12.09167,131
12.10000,130
12.10833,129
12.11667,128
12.12500,127
12.13333,126
12.14167,126
12.15000,126
12.15833,125
12.16667,124
12.17500,123
12.18333,122
12.19167,121
12.20000,120
12.20833,119
12.21667,118
12.22500,117
12.23333,116
12.24167,116
12.25000,115
12.25833,114
12.26667,113
12.27500,112
12.28333,111
12.29167,110
12.30000,109
12.30833,108
12.31667,107
12.32500,106
12.33333,105
12.34167,104
12.35000,103
12.35833,102
12.36667,101
12.37500,100
12.38333,99
12.39167,99
12.40000,98
12.40833,96
12.41667,95
12.42500,94
12.43333,94
12.44167,93
12.45000,92
12.45833,91
12.46667,91
12.47500,90
12.48333,89
12.49167,89
12.50000,88
12.50833,88
12.51667,88
12.52500,87
12.53333,87
12.54167,86
12.55000,86
12.55833,85
12.56667,85
12.57500,84
12.58333,84
12.59167,83
12.60000,83
12.60833,83
12.61667,83
12.62500,84
12.63333,84
12.64167,85
12.65000,86
12.65833,87
12.66667,89
12.67500,91
12.68333,94
12.69167,98
12.70000,102
12.70833,108
12.71667,115
12.72500,124
12.73333,135
12.74167,149
12.75000,164
12.75833,183
12.76667,204
12.77500,229
12.78333,258
12.79167,292
12.80000,330
12.80833,373
12.81667,422
12.82500,477
12.83333,537
12.84167,603
12.85000,677
12.85833,756
12.86667,842
12.87500,936
12.88333,1036
12.89167,1143
12.90000,1257
12.90833,1379
12.91667,1507
12.92500,1642
12.93333,1785
12.94167,1934
12.95000,2090
12.95833,2253
12.96667,2421
12.97500,2596
12.98333,2777
12.99167,2964
13.00000,3157
13.00833,3355
13.01667,3559
13.02500,3768
13.03333,3982
13.04167,4200
13.05000,4424
13.05833,4652
13.06667,4885
13.07500,5122
13.08333,5363
13.09167,5609
13.10000,5858
13.10833,6111
13.11667,6368
13.12500,6628
13.13333,6892
13.14167,7159
13.15000,7430
13.15833,7704
13.16667,7981
13.17500,8262
13.18333,8546
13.19167,8832
13.20000,9122
13.20833,9415
13.21667,9711
13.22500,10009
13.23333,10311
13.24167,10615
13.25000,10922
13.25833,11232
13.26667,11545
13.27500,11861
13.28333,12179
13.29167,12500
13.30000,12824
13.30833,13151
13.31667,13480
13.32500,13811
13.33333,14146
13.34167,14483
13.35000,14823
13.35833,15166
13.36667,15511
13.37500,15860
13.38333,16210
13.39167,16564
13.40000,16921
13.40833,17280
13.41667,17642
13.42500,18006
13.43333,18374
13.44167,18745
13.45000,19118
13.45833,19495
13.46667,19874
13.47500,20256
13.48333,20641
13.49167,21029
13.50000,21421
13.50833,21815
13.51667,22212
13.52500,22613
13.53333,23016
13.54167,23423
13.55000,23833
13.55833,24246
13.56667,24663
13.57500,25083
13.58333,25506
13.59167,25932
13.60000,26362
13.60833,26796
13.61667,27232
13.62500,27673
13.63333,28116
13.64167,28563
13.65000,29013
13.65833,29467
13.66667,29925
13.67500,30387
13.68333,30852
13.69167,31321
13.70000,31793
13.70833,32269
13.71667,32749
13.72500,33233
13.73333,33720
13.74167,34211
13.75000,34706
13.75833,35205
13.76667,35709
13.77500,36217
13.78333,36728
13.79167,37244
13.80000,37763
13.80833,38287
13.81667,38816
13.82500,39348
13.83333,39885
13.84167,40426
13.85000,40972
13.85833,41522
13.86667,42077
13.87500,42636
13.88333,43199
13.89167,43768
13.90000,44340
13.90833,44918
13.91667,45501
13.92500,46089
13.93333,46681
13.94167,47279
13.95000,47881
13.95833,48489
13.96667,49101
13.97500,49719
13.98333,50342
13.99167,50970
14.00000,51605
14.00833,52244
14.01667,52888
14.02500,53539
14.03333,54195
14.04167,54856
14.05000,55522
14.05833,56195
14.06667,56874
14.07500,57559
14.08333,58249
14.09167,58946
14.10000,59648
14.10833,60357
14.11667,61072
14.12500,61793
14.13333,62520
14.14167,63254
14.15000,63994
14.15833,64740
14.16667,65494
14.17500,66254
14.18333,67021
14.19167,67795
14.20000,68575
14.20833,69363
14.21667,70157
14.22500,70958
14.23333,71766
14.24167,72580
14.25000,73400
14.25833,74226
14.26667,75054
14.27500,75881
14.28333,76700
14.29167,77502
14.30000,78273
14.30833,78998
14.31667,79651
14.32500,80206
14.33333,80629
14.34167,80884
14.35000,80931
14.35833,80732
14.36667,80248
14.37500,79447
14.38333,78301
14.39167,76793
14.40000,74916
14.40833,72672
14.41667,70079
14.42500,67164
14.43333,63966
14.44167,60532
14.45000,56916
14.45833,53178
14.46667,49378
14.47500,45575
14.48333,41824
14.49167,38176
14.50000,34673
14.50833,31350
14.51667,28233
14.52500,25340
14.53333,22678
14.54167,20251
14.55000,18054
14.55833,16079
14.56667,14314
14.57500,12743
14.58333,11352
14.59167,10123
14.60000,9041
14.60833,8090
14.61667,7256
14.62500,6524
14.63333,5883
14.64167,5320
14.65000,4826
14.65833,4392
14.66667,4011
14.67500,3675
14.68333,3377
14.69167,3114
14.70000,2881
14.70833,2674
14.71667,2490
14.72500,2325
14.73333,2178
14.74167,2045
14.75000,1926
14.75833,1818
14.76667,1720
14.77500,1632
14.78333,1551
14.79167,1477
14.80000,1409
14.80833,1346
14.81667,1288
14.82500,1234
14.83333,1185
14.84167,1139
14.85000,1096
14.85833,1056
14.86667,1019
14.87500,984
14.88333,952
14.89167,921
14.90000,892
14.90833,866
14.91667,840
14.92500,817
14.93333,795
14.94167,774
14.95000,754
14.95833,736
14.96667,719
14.97500,703
14.98333,688
14.99167,674
15.00000,661
15.00833,649
15.01667,638
15.02500,628
15.03333,620
15.04167,612
15.05000,605
15.05833,600
15.06667,595
15.07500,592
15.08333,591
15.09167,591
15.10000,593
15.10833,598
15.11667,605
15.12500,616
15.13333,630
15.14167,649
15.15000,672
15.15833,702
15.16667,739
15.17500,786
15.18333,842
15.19167,911
15.20000,994
15.20833,1093
15.21667,1212
15.22500,1355
15.23333,1523
15.24167,1723
15.25000,1957
15.25833,2232
15.26667,2553
15.27500,2924
15.28333,3353
15.29167,3847
15.30000,4412
15.30833,5056
15.31667,5786
15.32500,6612
15.33333,7539
15.34167,8576
15.35000,9730
15.35833,11008
15.36667,12417
15.37500,13962
15.38333,15648
15.39167,17480
15.40000,19459
15.40833,21587
15.41667,23863
15.42500,26285
15.43333,28849
15.44167,31550
15.45000,34379
15.45833,37326
15.46667,40380
15.47500,43526
15.48333,46749
15.49167,50032
15.50000,53356
15.50833,56699
15.51667,60040
15.52500,63357
15.53333,66626
15.54167,69824
15.55000,72928
15.55833,75914
15.56667,78759
15.57500,81442
15.58333,83942
15.59167,86241
15.60000,88322
15.60833,90170
15.61667,91772
15.62500,93118
15.63333,94199
15.64167,95009
15.65000,95546
15.65833,95809
15.66667,95800
15.67500,95524
15.68333,94986
15.69167,94196
15.70000,93164
15.70833,91902
15.71667,90424
15.72500,88745
15.73333,86881
15.74167,84848
15.75000,82665
15.75833,80349
15.76667,77918
15.77500,75389
15.78333,72781
15.79167,70111
15.80000,67395
15.80833,64651
15.81667,61891
15.82500,59132
15.83333,56386
15.84167,53666
15.85000,50982
15.85833,48346
15.86667,45767
15.87500,43252
15.88333,40807
15.89167,38440
15.90000,36154
15.90833,33954
15.91667,31843
15.92500,29822
15.93333,27893
15.94167,26056
15.95000,24311
15.95833,22658
15.96667,21095
15.97500,19621
15.98333,18233
15.99167,16930
16.00000,15708
16.00833,14565
16.01667,13497
16.02500,12501
16.03333,11573
16.04167,10711
16.05000,9911
16.05833,9170
16.06667,8483
16.07500,7848
16.08333,7262
16.09167,6721
16.10000,6223
16.10833,5764
16.11667,5342
16.12500,4955
16.13333,4598
16.14167,4272
16.15000,3972
16.15833,3697
16.16667,3446
16.17500,3215
16.18333,3004
16.19167,2811
16.20000,2634
16.20833,2471
16.21667,2323
16.22500,2187
16.23333,2062
16.24167,1948
16.25000,1843
16.25833,1746
16.26667,1658
16.27500,1577
16.28333,1503
16.29167,1434
16.30000,1372
16.30833,1314
16.31667,1260
16.32500,1211
16.33333,1166
16.34167,1124
16.35000,1085
16.35833,1048
16.36667,1014
16.37500,983
16.38333,954
16.39167,927
16.40000,902
16.40833,879
16.41667,857
16.42500,836
16.43333,817
16.44167,798
16.45000,781
16.45833,765
16.46667,750
16.47500,735
16.48333,722
16.49167,709
16.50000,697
16.50833,686
16.51667,675
16.52500,665
16.53333,656
16.54167,646
16.55000,637
16.55833,629
16.56667,620
16.57500,613
16.58333,605
16.59167,598
16.60000,592
16.60833,585
16.61667,579
16.62500,573
16.63333,567
16.64167,561
16.65000,555
16.65833,550
16.66667,544
16.67500,539
16.68333,534
16.69167,530
16.70000,525
16.70833,521
16.71667,517
16.72500,512
16.73333,508
16.74167,504
16.75000,499
16.75833,496
16.76667,492
16.77500,488
16.78333,485
16.79167,481
16.80000,478
16.80833,475
16.81667,471
16.82500,467
16.83333,464
16.84167,461
16.85000,457
16.85833,454
16.86667,451
16.87500,447
16.88333,443
16.89167,440
16.90000,437
16.90833,433
16.91667,430
16.92500,427
16.93333,425
16.94167,422
16.95000,419
16.95833,416
16.96667,413
16.97500,410
16.98333,406
16.99167,403
17.00000,400
17.00833,397
17.01667,394
17.02500,391
17.03333,388
17.04167,386
17.05000,383
17.05833,380
17.06667,377
17.07500,374
17.08333,371
17.09167,369
17.10000,366
17.10833,364
17.11667,362
17.12500,359
17.13333,356
17.14167,353
17.15000,351
17.15833,348
17.16667,346
17.17500,343
17.18333,341
17.19167,338
17.20000,336
17.20833,334
17.21667,332
17.22500,330
17.23333,328
17.24167,326
17.25000,324
17.25833,321
17.26667,319
17.27500,317
17.28333,315
17.29167,313
17.30000,311
17.30833,309
17.31667,307
17.32500,306
17.33333,304
17.34167,302
17.35000,300
17.35833,298
17.36667,295
17.37500,294
17.38333,292
17.39167,290
17.40000,289
17.40833,287
17.41667,286
17.42500,284
17.43333,282
17.44167,280
17.45000,278
17.45833,277
17.46667,276
17.47500,274
17.48333,272
17.49167,271
17.50000,269
17.50833,268
17.51667,266
17.52500,265
17.53333,264
17.54167,263
17.55000,262
17.55833,261
17.56667,259
17.57500,258
17.58333,257
17.59167,256
17.60000,255
17.60833,254
17.61667,252
17.62500,251
17.63333,250
17.64167,249
17.65000,248
17.65833,247
17.66667,246
17.67500,244
17.68333,243
17.69167,243
17.70000,242
17.70833,241
17.71667,240
17.72500,239
17.73333,237
17.74167,236
17.75000,235
17.75833,234
17.76667,233
17.77500,232
17.78333,231
17.79167,230
17.80000,229
17.80833,227
17.81667,226
17.82500,224
17.83333,223
17.84167,222
17.85000,221
17.85833,220
17.86667,219
17.87500,218
17.88333,217
17.89167,216
17.90000,215
17.90833,214
17.91667,212
17.92500,211
17.93333,211
17.94167,210
17.95000,209
17.95833,208
17.96667,207
17.97500,205
17.98333,204
17.99167,203
18.00000,202
18.00833,201
18.01667,200
18.02500,199
18.03333,198
18.04167,198
18.05000,197
18.05833,196
18.06667,195
18.07500,194
18.08333,193
18.09167,192
18.10000,191
18.10833,190
18.11667,190
18.12500,189
18.13333,188
18.14167,188
18.15000,187
18.15833,187
18.16667,185
18.17500,184
18.18333,183
18.19167,182
18.20000,181
18.20833,181
18.21667,180
18.22500,179
18.23333,178
18.24167,177
18.25000,177
18.25833,176
18.26667,175
18.27500,174
18.28333,173
18.29167,172
18.30000,172
18.30833,171
18.31667,170
18.32500,169
18.33333,169
18.34167,168
18.35000,167
18.35833,166
18.36667,166
18.37500,165
18.38333,165
18.39167,164
18.40000,163
18.40833,163
18.41667,162
18.42500,161
18.43333,161
18.44167,160
18.45000,159
18.45833,158
18.46667,157
18.47500,157
18.48333,156
18.49167,156
18.50000,155
18.50833,155
18.51667,155
18.52500,154
18.53333,154
18.54167,153
18.55000,152
18.55833,152
18.56667,151
18.57500,151
18.58333,150
18.59167,150
18.60000,150
18.60833,149
18.61667,149
18.62500,148
18.63333,147
18.64167,146
18.65000,145
18.65833,145
18.66667,144
18.67500,144
18.68333,144
18.69167,144
18.70000,144
18.70833,143
18.71667,143
18.72500,143
18.73333,143
18.74167,142
18.75000,142
18.75833,142
18.76667,142
18.77500,142
18.78333,142
18.79167,143
18.80000,143
18.80833,143
18.81667,143
18.82500,144
18.83333,144
18.84167,144
18.85000,145
18.85833,146
18.86667,147
18.87500,148
18.88333,149
18.89167,149
18.90000,150
18.90833,151
18.91667,152
18.92500,152
18.93333,153
18.94167,153
18.95000,154
18.95833,154
18.96667,155
18.97500,155
18.98333,155
18.99167,155
19.00000,155
19.00833,155
19.01667,156
19.02500,156
19.03333,156
19.04167,155
19.05000,155
19.05833,155
19.06667,154
19.07500,154
19.08333,153
19.09167,153
19.10000,152
19.10833,151
19.11667,150
19.12500,149
19.13333,148
19.14167,147
19.15000,146
19.15833,145
19.16667,144
19.17500,142
19.18333,141
19.19167,139
19.20000,138
19.20833,136
19.21667,135
19.22500,133
19.23333,131
19.24167,130
19.25000,128
19.25833,127
19.26667,125
19.27500,124
19.28333,122
19.29167,121
19.30000,119
19.30833,118
19.31667,116
19.32500,115
19.33333,114
19.34167,113
19.35000,111
19.35833,110
19.36667,108
19.37500,107
19.38333,106
19.39167,105
19.40000,104
19.40833,103
19.41667,102
19.42500,101
19.43333,100
19.44167,100
19.45000,99
19.45833,99
19.46667,98
19.47500,97
19.48333,96
19.49167,95
19.50000,94
19.50833,94
19.51667,93
19.52500,92
19.53333,91
19.54167,91
19.55000,90
19.55833,90
19.56667,90
19.57500,89
19.58333,88
19.59167,88
19.60000,87
19.60833,87
19.61667,86
19.62500,86
19.63333,86
19.64167,85
19.65000,85
19.65833,84
19.66667,84
19.67500,83
19.68333,83
19.69167,82
19.70000,81
19.70833,80
19.71667,80
19.72500,80
19.73333,79
19.74167,79
19.75000,79
19.75833,78
19.76667,78
19.77500,78
19.78333,78
19.79167,78
19.80000,77
19.80833,77
19.81667,77
19.82500,77
19.83333,76
19.84167,76
19.85000,76
19.85833,76
19.86667,76
19.87500,75
19.88333,75
19.89167,75
19.90000,75
19.90833,75
19.91667,75
19.92500,74
19.93333,74
19.94167,73
19.95000,73
19.95833,73
19.96667,73
19.97500,73
19.98333,73
19.99167,72
20.00000,72
20.00833,72
20.01667,72
20.02500,72
20.03333,72
20.04167,72
20.05000,71
20.05833,72
20.06667,71
20.07500,71
20.08333,71
20.09167,71
20.10000,71
20.10833,70
20.11667,71
20.12500,71
20.13333,71
20.14167,72
20.15000,72
20.15833,72
20.16667,72
20.17500,72
20.18333,73
20.19167,73
20.20000,74
20.20833,74
20.21667,73
20.22500,73
20.23333,73
20.24167,73
20.25000,73
20.25833,73
20.26667,74
20.27500,74
20.28333,73
20.29167,73
20.30000,73
20.30833,73
20.31667,73
20.32500,73
20.33333,74
20.34167,74
20.35000,74
20.35833,74
20.36667,74
20.37500,74
20.38333,74
20.39167,74
20.40000,74
20.40833,74
20.41667,75
20.42500,75
20.43333,75
20.44167,75
20.45000,75
20.45833,75
20.46667,75
20.47500,75
20.48333,75
20.49167,75
20.50000,74
20.50833,74
20.51667,74
20.52500,74
20.53333,74
20.54167,74
20.55000,74
20.55833,75
20.56667,75
20.57500,75
20.58333,75
20.59167,75
20.60000,75
20.60833,75
20.61667,75
20.62500,74
20.63333,74
20.64167,74
20.65000,73
20.65833,73
20.66667,73
20.67500,72
20.68333,72
20.69167,72
20.70000,72
20.70833,72
20.71667,72
20.72500,72
20.73333,72
20.74167,72
20.75000,72
20.75833,72
20.76667,71
20.77500,71
20.78333,70
20.79167,70
20.80000,69
20.80833,69
20.81667,69
20.82500,69
20.83333,69
20.84167,69
20.85000,68
20.85833,68
20.86667,68
20.87500,67
20.88333,67
20.89167,66
20.90000,66
20.90833,65
20.91667,65
20.92500,64
20.93333,64
20.94167,63
20.95000,63
20.95833,63
20.96667,62
20.97500,61
20.98333,60
20.99167,59
21.00000,59
21.00833,58
21.01667,58
21.02500,57
21.03333,57
21.04167,56
21.05000,56
21.05833,55
21.06667,55
21.07500,55
21.08333,54
21.09167,53
21.10000,53
21.10833,53
21.11667,52
21.12500,51
21.13333,51
21.14167,51
21.15000,50
21.15833,50
21.16667,50
21.17500,50
21.18333,50
21.19167,50
21.20000,50
21.20833,49
21.21667,49
21.22500,49
21.23333,50
21.24167,50
21.25000,50
21.25833,50
21.26667,51
21.27500,51
21.28333,51
21.29167,52
21.30000,53
21.30833,54
21.31667,55
21.32500,56
21.33333,58
21.34167,59
21.35000,61
21.35833,64
21.36667,66
21.37500,69
21.38333,72
21.39167,76
21.40000,80
21.40833,85
21.41667,90
21.42500,96
21.43333,103
21.44167,111
21.45000,120
21.45833,130
21.46667,141
21.47500,154
21.48333,169
21.49167,186
21.50000,206
21.50833,228
21.51667,253
21.52500,281
21.53333,313
21.54167,349
21.55000,389
21.55833,435
21.56667,487
21.57500,545
21.58333,611
21.59167,686
21.60000,769
21.60833,863
21.61667,967
21.62500,1083
21.63333,1212
21.64167,1355
21.65000,1513
21.65833,1687
21.66667,1880
21.67500,2091
21.68333,2321
21.69167,2574
21.70000,2848
21.70833,3146
21.71667,3468
21.72500,3814
21.73333,4187
21.74167,4587
21.75000,5014
21.75833,5468
21.76667,5950
21.77500,6460
21.78333,6997
21.79167,7560
21.80000,8150
21.80833,8765
21.81667,9403
21.82500,10063
21.83333,10744
21.84167,11442
21.85000,12156
21.85833,12883
21.86667,13619
21.87500,14363
21.88333,15110
21.89167,15857
21.90000,16600
21.90833,17336
21.91667,18060
21.92500,18769
21.93333,19459
21.94167,20125
21.95000,20764
21.95833,21372
21.96667,21946
21.97500,22482
21.98333,22976
21.99167,23427
22.00000,23831
22.00833,24187
22.01667,24491
22.02500,24744
22.03333,24942
22.04167,25086
22.05000,25174
22.05833,25207
22.06667,25185
22.07500,25109
22.08333,24979
22.09167,24797
22.10000,24564
22.10833,24283
22.11667,23956
22.12500,23585
22.13333,23172
22.14167,22721
22.15000,22235
22.15833,21717
22.16667,21169
22.17500,20596
22.18333,20001
22.19167,19387
22.20000,18757
22.20833,18115
22.21667,17464
22.22500,16806
22.23333,16144
22.24167,15482
22.25000,14823
22.25833,14169
22.26667,13521
22.27500,12882
22.28333,12254
22.29167,11639
22.30000,11039
22.30833,10454
22.31667,9886
22.32500,9336
22.33333,8804
22.34167,8293
22.35000,7801
22.35833,7329
22.36667,6877
22.37500,6446
22.38333,6036
22.39167,5646
22.40000,5276
22.40833,4926
22.41667,4595
22.42500,4284
22.43333,3990
22.44167,3714
22.45000,3454
22.45833,3212
22.46667,2985
22.47500,2773
22.48333,2576
22.49167,2392
22.50000,2221
22.50833,2062
22.51667,1915
22.52500,1779
22.53333,1652
22.54167,1536
22.55000,1428
22.55833,1329
22.56667,1237
22.57500,1152
22.58333,1075
22.59167,1003
22.60000,937
22.60833,877
22.61667,821
22.62500,771
22.63333,724
22.64167,682
22.65000,643
22.65833,607
22.66667,574
22.67500,544
22.68333,516
22.69167,491
22.70000,468
22.70833,446
22.71667,427
22.72500,409
22.73333,392
22.74167,377
22.75000,363
22.75833,350
22.76667,339
22.77500,328
22.78333,318
22.79167,309
22.80000,300
22.80833,293
22.81667,285
22.82500,278
22.83333,272
22.84167,266
22.85000,260
22.85833,255
22.86667,250
22.87500,245
22.88333,240
22.89167,236
22.90000,232
22.90833,229
22.91667,225
22.92500,222
22.93333,219
22.94167,216
22.95000,213
22.95833,210
22.96667,207
22.97500,204
22.98333,202
22.99167,199
23.00000,197
23.00833,195
23.01667,193
23.02500,191
23.03333,188
23.04167,186
23.05000,184
23.05833,182
23.06667,180
23.07500,178
23.08333,177
23.09167,175
23.10000,173
23.10833,172
23.11667,170
23.12500,169
23.13333,167
23.14167,166
23.15000,164
23.15833,163
23.16667,161
23.17500,160
23.18333,158
23.19167,157
23.20000,156
23.20833,155
23.21667,154
23.22500,153
23.23333,152
23.24167,152
23.25000,151
23.25833,150
23.26667,149
23.27500,148
23.28333,147
23.29167,147
23.30000,146
23.30833,145
23.31667,145
23.32500,144
23.33333,143
23.34167,143
23.35000,142
23.35833,141
23.36667,141
23.37500,140
23.38333,140
23.39167,139
23.40000,139
23.40833,138
23.41667,137
23.42500,136
23.43333,136
23.44167,135
23.45000,134
23.45833,133
23.46667,133
23.47500,132
23.48333,131
23.49167,131
23.50000,130
23.50833,130
23.51667,129
23.52500,129
23.53333,128
23.54167,128
23.55000,127
23.55833,126
23.56667,126
23.57500,125
23.58333,124
23.59167,123
23.60000,123
23.60833,122
23.61667,121
23.62500,121
23.63333,120
23.64167,119
23.65000,119
23.65833,118
23.66667,117
23.67500,116
23.68333,115
23.69167,115
23.70000,114
23.70833,114
23.71667,114
23.72500,113
23.73333,113
23.74167,112
23.75000,111
23.75833,110
23.76667,109
23.77500,109
23.78333,108
23.79167,107
23.80000,106
23.80833,106
23.81667,105
23.82500,105
23.83333,104
23.84167,103
23.85000,103
23.85833,102
23.86667,102
23.87500,101
23.88333,101
23.89167,100
23.90000,100
23.90833,99
23.91667,99
23.92500,98
23.93333,98
23.94167,97
23.95000,97
23.95833,96
23.96667,96
23.97500,95
23.98333,95
23.99167,95
24.00000,95
24.00833,94
24.01667,94
24.02500,94
24.03333,94
24.04167,93
24.05000,93
24.05833,92
24.06667,92
24.07500,92
24.08333,92
24.09167,92
24.10000,92
24.10833,92
24.11667,92
24.12500,91
24.13333,91
24.14167,91
24.15000,92
24.15833,92
24.16667,92
24.17500,92
24.18333,92
24.19167,92
24.20000,92
24.20833,92
24.21667,92
24.22500,93
24.23333,93
24.24167,94
24.25000,94
24.25833,95
24.26667,96
24.27500,97
24.28333,98
24.29167,100
24.30000,101
24.30833,103
24.31667,105
24.32500,108
24.33333,111
24.34167,114
24.35000,117
24.35833,121
24.36667,126
24.37500,131
24.38333,137
24.39167,143
24.40000,150
24.40833,158
24.41667,167
24.42500,177
24.43333,189
24.44167,202
24.45000,216
24.45833,232
24.46667,250
24.47500,269
24.48333,291
24.49167,315
24.50000,343
24.50833,373
24.51667,406
24.52500,442
24.53333,482
24.54167,526
24.55000,574
24.55833,627
24.56667,686
24.57500,750
24.58333,819
24.59167,895
24.60000,976
24.60833,1064
24.61667,1159
24.62500,1263
24.63333,1373
24.64167,1492
24.65000,1620
24.65833,1756
24.66667,1901
24.67500,2055
24.68333,2217
24.69167,2389
24.70000,2571
24.70833,2761
24.71667,2960
24.72500,3168
24.73333,3385
24.74167,3609
24.75000,3842
24.75833,4081
24.76667,4328
24.77500,4581
24.78333,4840
24.79167,5103
24.80000,5370
24.80833,5640
24.81667,5911
24.82500,6184
24.83333,6456
24.84167,6727
24.85000,6995
24.85833,7260
24.86667,7520
24.87500,7774
24.88333,8020
24.89167,8258
24.90000,8486
24.90833,8703
24.91667,8907
24.92500,9099
24.93333,9277
24.94167,9440
24.95000,9587
24.95833,9717
24.96667,9831
24.97500,9928
24.98333,10006
24.99167,10066
25.00000,10108
25.00833,10131
25.01667,10135
25.02500,10120
25.03333,10088
25.04167,10037
25.05000,9969
25.05833,9883
25.06667,9781
25.07500,9663
25.08333,9530
25.09167,9383
25.10000,9222
25.10833,9048
25.11667,8863
25.12500,8667
25.13333,8462
25.14167,8248
25.15000,8026
25.15833,7798
25.16667,7565
25.17500,7327
25.18333,7085
25.19167,6841
25.20000,6596
25.20833,6350
25.21667,6104
25.22500,5859
25.23333,5616
25.24167,5375
25.25000,5137
25.25833,4903
25.26667,4674
25.27500,4450
25.28333,4231
25.29167,4018
25.30000,3810
25.30833,3609
25.31667,3415
25.32500,3228
25.33333,3047
25.34167,2874
25.35000,2708
25.35833,2548
25.36667,2396
25.37500,2251
25.38333,2113
25.39167,1982
25.40000,1857
25.40833,1740
25.41667,1629
25.42500,1524
25.43333,1425
25.44167,1333
25.45000,1245
25.45833,1164
25.46667,1087
25.47500,1015
25.48333,948
25.49167,885
25.50000,827
25.50833,773
25.51667,723
25.52500,676
25.53333,633
25.54167,593
25.55000,556
25.55833,522
25.56667,490
25.57500,461
25.58333,434
25.59167,409
25.60000,386
25.60833,364
25.61667,345
25.62500,327
25.63333,311
25.64167,296
25.65000,282
25.65833,270
25.66667,258
25.67500,248
25.68333,238
25.69167,229
25.70000,220
25.70833,213
25.71667,205
25.72500,199
25.73333,193
25.74167,187
25.75000,182
25.75833,177
25.76667,173
25.77500,169
25.78333,165
25.79167,162
25.80000,159
25.80833,156
25.81667,154
25.82500,151
25.83333,149
25.84167,147
25.85000,145
25.85833,143
25.86667,142
25.87500,140
25.88333,139
25.89167,137
25.90000,136
25.90833,134
25.91667,133
25.92500,132
25.93333,131
25.94167,131
25.95000,130
25.95833,129
25.96667,127
25.97500,126
25.98333,126
25.99167,125
26.00000,124
26.00833,124
26.01667,123
26.02500,122
26.03333,122
26.04167,121
26.05000,121
26.05833,120
26.06667,120
26.07500,120
26.08333,119
26.09167,119
26.10000,118
26.10833,118
26.11667,118
26.12500,117
26.13333,117
26.14167,117
26.15000,116
26.15833,116
26.16667,115
26.17500,115
26.18333,115
26.19167,115
26.20000,114
26.20833,114
26.21667,114
26.22500,114
26.23333,113
26.24167,113
26.25000,113
26.25833,113
26.26667,113
26.27500,113
26.28333,113
26.29167,112
26.30000,112
26.30833,111
26.31667,111
26.32500,111
26.33333,110
26.34167,110
26.35000,110
26.35833,110
26.36667,109
26.37500,109
26.38333,109
26.39167,109
26.40000,109
26.40833,109
26.41667,109
26.42500,108
26.43333,108
26.44167,108
26.45000,108
26.45833,108
26.46667,108
26.47500,107
26.48333,107
26.49167,107
26.50000,107
26.50833,107
26.51667,107
26.52500,106
26.53333,106
26.54167,106
26.55000,106
26.55833,106
26.56667,105
26.57500,105
26.58333,105
26.59167,105
26.60000,105
26.60833,105
26.61667,105
26.62500,105
26.63333,105
26.64167,104
26.65000,104
26.65833,104
26.66667,104
26.67500,104
26.68333,104
26.69167,104
26.70000,104
26.70833,104
26.71667,104
26.72500,104
26.73333,104
26.74167,104
26.75000,103
26.75833,103
26.76667,102
26.77500,102
26.78333,102
26.79167,102
26.80000,102
26.80833,102
26.81667,101
26.82500,101
26.83333,101
26.84167,101
26.85000,101
26.85833,101
26.86667,101
26.87500,101
26.88333,101
26.89167,101
26.90000,101
26.90833,101
26.91667,101
26.92500,101
26.93333,101
26.94167,101
26.95000,100
26.95833,100
26.96667,100
26.97500,100
26.98333,100
26.99167,99
27.00000,99
27.00833,99
27.01667,99
27.02500,98
27.03333,98
27.04167,97
27.05000,97
27.05833,97
27.06667,97
27.07500,97
27.08333,97
27.09167,97
27.10000,97
27.10833,97
27.11667,97
27.12500,96
27.13333,96
27.14167,96
27.15000,96
27.15833,96
27.16667,96
27.17500,96
27.18333,96
27.19167,96
27.20000,95
27.20833,95
27.21667,95
27.22500,96
27.23333,95
27.24167,95
27.25000,95
27.25833,95
27.26667,95
27.27500,95
27.28333,95
27.29167,95
27.30000,95
27.30833,94
27.31667,94
27.32500,94
27.33333,94
27.34167,94
27.35000,93
27.35833,93
27.36667,93
27.37500,93
27.38333,93
27.39167,93
27.40000,93
27.40833,93
27.41667,92
27.42500,92
27.43333,92
27.44167,91
27.45000,91
27.45833,90
27.46667,90
27.47500,90
27.48333,90
27.49167,90
27.50000,90
27.50833,90
27.51667,90
27.52500,89
27.53333,89
27.54167,89
27.55000,88
27.55833,88
27.56667,87
27.57500,87
27.58333,86
27.59167,85
27.60000,85
27.60833,85
27.61667,85
27.62500,84
27.63333,84
27.64167,84
27.65000,84
27.65833,84
27.66667,83
27.67500,83
27.68333,83
27.69167,82
27.70000,81
27.70833,80
27.71667,80
27.72500,79
27.73333,79
27.74167,78
27.75000,77
27.75833,76
27.76667,75
27.77500,74
27.78333,73
27.79167,73
27.80000,72
27.80833,71
27.81667,70
27.82500,69
27.83333,67
27.84167,66
27.85000,65
27.85833,63
27.86667,61
27.87500,59
27.88333,57
27.89167,55
27.90000,53
27.90833,51
27.91667,49
27.92500,46
27.93333,44
27.94167,41
27.95000,39
27.95833,36
27.96667,33
27.97500,31
27.98333,28
27.99167,24
28.00000,21
28.00833,17
28.01667,14
28.02500,10
28.03333,7
28.04167,3
28.05000,-1
28.05833,-5
28.06667,-9
28.07500,-13
28.08333,-17
28.09167,-21
28.10000,-25
28.10833,-30
28.11667,-34
28.12500,-39
28.13333,-43
28.14167,-47
28.15000,-51
28.15833,-56
28.16667,-60
28.17500,-64
28.18333,-68
28.19167,-72
28.20000,-76
28.20833,-80
28.21667,-83
28.22500,-87
28.23333,-90
28.24167,-93
28.25000,-97
28.25833,-99
28.26667,-102
28.27500,-105
28.28333,-108
28.29167,-110
28.30000,-112
28.30833,-114
28.31667,-116
28.32500,-118
28.33333,-119
28.34167,-120
28.35000,-121
28.35833,-122
28.36667,-122
28.37500,-123
28.38333,-123
28.39167,-122
28.40000,-121
28.40833,-121
28.41667,-120
28.42500,-119
28.43333,-118
28.44167,-116
28.45000,-115
28.45833,-112
28.46667,-110
28.47500,-107
28.48333,-105
28.49167,-102
28.50000,-99
28.50833,-97
28.51667,-94
28.52500,-91
28.53333,-88
28.54167,-84
28.55000,-81
28.55833,-77
28.56667,-73
28.57500,-70
28.58333,-66
28.59167,-62
28.60000,-59
28.60833,-55
28.61667,-52
28.62500,-49
28.63333,-45
28.64167,-42
28.65000,-38
28.65833,-34
28.66667,-30
28.67500,-27
28.68333,-23
28.69167,-20
28.70000,-16
28.70833,-12
28.71667,-9
28.72500,-6
28.73333,-3
28.74167,0
28.75000,3
28.75833,6
28.76667,9
28.77500,12
28.78333,14
28.79167,17
28.80000,19
28.80833,21
28.81667,24
28.82500,26
28.83333,28
28.84167,30
28.85000,33
28.85833,35
28.86667,37
28.87500,38
28.88333,40
28.89167,42
28.90000,43
28.90833,45
28.91667,46
28.92500,47
28.93333,48
28.94167,50
28.95000,51
28.95833,52
28.96667,53
28.97500,54
28.98333,55
28.99167,56
29.00000,57
29.00833,58
29.01667,59
29.02500,59
29.03333,60
29.04167,60
29.05000,61
29.05833,62
29.06667,62
29.07500,63
29.08333,64
29.09167,64
29.10000,65
29.10833,66
29.11667,66
29.12500,66
29.13333,66
29.14167,66
29.15000,66
29.15833,66
29.16667,66
29.17500,66
29.18333,66
29.19167,66
29.20000,67
29.20833,67
29.21667,67
29.22500,67
29.23333,67
29.24167,67
29.25000,67
29.25833,67
29.26667,67
29.27500,67
29.28333,67
29.29167,67
29.30000,67
29.30833,66
29.31667,66
29.32500,65
29.33333,65
29.34167,65
29.35000,65
29.35833,64
29.36667,64
29.37500,63
29.38333,63
29.39167,63
29.40000,63
29.40833,62
29.41667,62
29.42500,62
29.43333,61
29.44167,61
29.45000,60
29.45833,60
29.46667,60
29.47500,60
29.48333,60
29.49167,59
29.50000,58
29.50833,58
29.51667,57
29.52500,57
29.53333,56
29.54167,55
29.55000,55
29.55833,54
29.56667,53
29.57500,53
29.58333,52
29.59167,51
29.60000,50
29.60833,50
29.61667,49
29.62500,48
29.63333,47
29.64167,47
29.65000,46
29.65833,44
29.66667,43
29.67500,43
29.68333,42
29.69167,41
29.70000,40
29.70833,39
29.71667,38
29.72500,37
29.73333,35
29.74167,34
29.75000,33
29.75833,31
29.76667,30
29.77500,29
29.78333,28
29.79167,27
29.80000,26
29.80833,26
29.81667,24
29.82500,23
29.83333,22
29.84167,21
29.85000,20
29.85833,19
29.86667,18
29.87500,16
29.88333,15
29.89167,14
29.90000,12
29.90833,12
29.91667,11
29.92500,11
29.93333,10
29.94167,9
29.95000,8
29.95833,7
29.96667,7
29.97500,6
29.98333,5
29.99167,4
30.00000,4
30.00833,3
30.01667,3
30.02500,3
30.03333,3
30.04167,3
30.05000,2
30.05833,2
30.06667,2
30.07500,2
30.08333,1
30.09167,2
30.10000,2
30.10833,2
30.11667,2
30.12500,2
30.13333,2
30.14167,2
30.15000,3
30.15833,3
30.16667,4
30.17500,4
30.18333,5
30.19167,5
30.20000,6
30.20833,6
30.21667,6
30.22500,7
30.23333,8
30.24167,9
30.25000,10
30.25833,10
30.26667,11
30.27500,12
30.28333,13
30.29167,14
30.30000,15
30.30833,16
30.31667,17
30.32500,18
30.33333,19
30.34167,20
30.35000,21
30.35833,22
30.36667,22
30.37500,23
30.38333,24
30.39167,25
30.40000,26
30.40833,27
30.41667,28
30.42500,30
30.43333,31
30.44167,32
30.45000,33
30.45833,34
30.46667,34
30.47500,35
30.48333,36
30.49167,36
30.50000,37
30.50833,38
30.51667,39
30.52500,39
30.53333,40
30.54167,41
30.55000,42
30.55833,43
30.56667,43
30.57500,44
30.58333,44
30.59167,45
30.60000,46
30.60833,46
30.61667,46
30.62500,47
30.63333,47
30.64167,48
30.65000,48
30.65833,48
30.66667,49
30.67500,49
30.68333,50
30.69167,50
30.70000,51
30.70833,51
30.71667,51
30.72500,51
30.73333,52
30.74167,52
30.75000,52
30.75833,52
30.76667,52
30.77500,52
30.78333,53
30.79167,53
30.80000,54
30.80833,54
30.81667,54
30.82500,54
30.83333,54
30.84167,55
30.85000,55
30.85833,55
30.86667,55
30.87500,55
30.88333,55
30.89167,55
30.90000,55
30.90833,56
30.91667,56
30.92500,56
30.93333,56
30.94167,56
30.95000,57
30.95833,57
30.96667,57
30.97500,56
30.98333,56
30.99167,56
31.00000,56
31.00833,56
31.01667,56
31.02500,57
31.03333,57
31.04167,57
31.05000,57
31.05833,57
31.06667,57
31.07500,58
31.08333,58
31.09167,58
31.10000,59
31.10833,59
31.11667,59
31.12500,59
31.13333,60
31.14167,61
31.15000,61
31.15833,61
31.16667,62
31.17500,62
31.18333,62
31.19167,62
31.20000,62
31.20833,63
31.21667,63
31.22500,63
31.23333,64
31.24167,64
31.25000,64
31.25833,64
31.26667,65
31.27500,65
31.28333,66
31.29167,65
31.30000,65
31.30833,65
31.31667,66
31.32500,66
31.33333,66
31.34167,66
31.35000,67
31.35833,67
31.36667,67
31.37500,67
31.38333,68
31.39167,68
31.40000,68
31.40833,68
31.41667,68
31.42500,68
31.43333,68
31.44167,68
31.45000,68
31.45833,68
31.46667,67
31.47500,67
31.48333,67
31.49167,67
31.50000,68
31.50833,68
31.51667,68
31.52500,67
31.53333,67
31.54167,67
31.55000,66
31.55833,66
31.56667,66
31.57500,66
31.58333,66
31.59167,65
31.60000,65
31.60833,65
31.61667,65
31.62500,65
31.63333,65
31.64167,65
31.65000,65
31.65833,64
31.66667,64
31.67500,64
31.68333,64
31.69167,64
31.70000,64
31.70833,64
31.71667,64
31.72500,63
31.73333,63
31.74167,63
31.75000,62
31.75833,62
31.76667,61
31.77500,61
31.78333,61
31.79167,61
31.80000,61
31.80833,61
31.81667,60
31.82500,60
31.83333,60
31.84167,60
31.85000,60
31.85833,60
31.86667,60
31.87500,60
31.88333,60
31.89167,60
31.90000,60
31.90833,60
31.91667,60
31.92500,61
31.93333,60
31.94167,60
31.95000,60
31.95833,60
31.96667,61
31.97500,61
31.98333,61
31.99167,61
32.00000,62
32.00833,62
32.01667,62
32.02500,63
32.03333,63
32.04167,62
32.05000,62
32.05833,62
32.06667,63
32.07500,63
32.08333,63
32.09167,63
32.10000,64
32.10833,64
32.11667,64
32.12500,64
32.13333,64
32.14167,64
32.15000,63
32.15833,64
32.16667,64
32.17500,64
32.18333,64
32.19167,64
32.20000,64
32.20833,64
32.21667,65
32.22500,65
32.23333,64
32.24167,64
32.25000,65
32.25833,65
32.26667,65
32.27500,65
32.28333,66
32.29167,66
32.30000,66
32.30833,66
32.31667,66
32.32500,66
32.33333,66
32.34167,66
32.35000,66
32.35833,66
32.36667,65
32.37500,65
32.38333,65
32.39167,66
32.40000,66
32.40833,66
32.41667,66
32.42500,66
32.43333,66
32.44167,67
32.45000,67
32.45833,68
32.46667,68
32.47500,68
32.48333,69
32.49167,69
32.50000,69
32.50833,69
32.51667,69
32.52500,70
32.53333,70
32.54167,70
32.55000,70
32.55833,70
32.56667,71
32.57500,71
32.58333,71
32.59167,72
32.60000,72
32.60833,72
32.61667,72
32.62500,73
32.63333,73
32.64167,73
32.65000,74
32.65833,74
32.66667,75
32.67500,75
32.68333,75
32.69167,75
32.70000,75
32.70833,75
32.71667,75
32.72500,75
32.73333,75
32.74167,76
32.75000,76
32.75833,76
32.76667,77
32.77500,77
32.78333,77
32.79167,77
32.80000,78
32.80833,78
32.81667,78
32.82500,78
32.83333,78
32.84167,78
32.85000,78
32.85833,78
32.86667,79
32.87500,79
32.88333,79
32.89167,79
32.90000,79
32.90833,79
32.91667,79
32.92500,79
32.93333,79
32.94167,78
32.95000,78
32.95833,78
32.96667,78
32.97500,78
32.98333,78
32.99167,78
33.00000,78
33.00833,78
33.01667,78
33.02500,77
33.03333,77
33.04167,76
33.05000,76
33.05833,75
33.06667,75
33.07500,75
33.08333,75
33.09167,75
33.10000,74
33.10833,74
33.11667,74
33.12500,74
33.13333,74
33.14167,73
33.15000,73
33.15833,72
33.16667,72
33.17500,71
33.18333,71
33.19167,71
33.20000,71
33.20833,71
33.21667,70
33.22500,70
33.23333,70
33.24167,70
33.25000,70
33.25833,70
33.26667,70
33.27500,70
33.28333,69
33.29167,69
33.30000,69
33.30833,69
33.31667,69
33.32500,68
33.33333,68
33.34167,67
33.35000,67
33.35833,67
33.36667,68
33.37500,68
33.38333,68
33.39167,68
33.40000,68
33.40833,67
33.41667,67
33.42500,67
33.43333,67
33.44167,67
33.45000,66
33.45833,66
33.46667,66
33.47500,66
33.48333,66
33.49167,66
33.50000,66
33.50833,65
33.51667,65
33.52500,65
33.53333,65
33.54167,65
33.55000,65
33.55833,65
33.56667,65
33.57500,65
33.58333,65
33.59167,65
33.60000,65
33.60833,65
33.61667,66
33.62500,66
33.63333,65
33.64167,65
33.65000,65
33.65833,65
33.66667,65
33.67500,66
33.68333,66
33.69167,66
33.70000,66
33.70833,66
33.71667,66
33.72500,66
33.73333,66
33.74167,67
33.75000,67
33.75833,67
33.76667,67
33.77500,67
33.78333,67
33.79167,67
33.80000,67
33.80833,67
33.81667,68
33.82500,68
33.83333,68
33.84167,68
33.85000,68
33.85833,68
33.86667,68
33.87500,69
33.88333,69
33.89167,69
33.90000,69
33.90833,69
33.91667,69
33.92500,69
33.93333,69
33.94167,69
33.95000,69
33.95833,69
33.96667,69
33.97500,69
33.98333,69
33.99167,69
34.00000,68
34.00833,68
34.01667,68
34.02500,67
34.03333,67
34.04167,67
34.05000,67
34.05833,67
34.06667,67
34.07500,67
34.08333,66
34.09167,66
34.10000,66
34.10833,66
34.11667,66
34.12500,65
34.13333,65
34.14167,65
34.15000,65
34.15833,65
34.16667,65
34.17500,64
34.18333,64
34.19167,64
34.20000,63
34.20833,63
34.21667,63
34.22500,63
34.23333,63
34.24167,63
34.25000,63
34.25833,63
34.26667,63
34.27500,63
34.28333,63
34.29167,63
34.30000,63
34.30833,62
34.31667,62
34.32500,62
34.33333,62
34.34167,62
34.35000,61
34.35833,61
34.36667,61
34.37500,61
34.38333,61
34.39167,62
34.40000,62
34.40833,62
34.41667,63
34.42500,63
34.43333,63
34.44167,63
34.45000,63
34.45833,63
34.46667,63
34.47500,63
34.48333,63
34.49167,64
34.50000,64
34.50833,64
34.51667,64
34.52500,65
34.53333,65
34.54167,66
34.55000,66
34.55833,66
34.56667,66
34.57500,66
34.58333,66
34.59167,66
34.60000,66
34.60833,66
34.61667,66
34.62500,67
34.63333,67
34.64167,68
34.65000,68
34.65833,68
34.66667,69
34.67500,69
34.68333,69
34.69167,69
34.70000,69
34.70833,69
34.71667,70
34.72500,70
34.73333,70
34.74167,70
34.75000,70
34.75833,70
34.76667,70
34.77500,70
34.78333,70
34.79167,70
34.80000,70
34.80833,70
34.81667,70
34.82500,70
34.83333,71
34.84167,70
34.85000,70
34.85833,70
34.86667,69
34.87500,69
34.88333,69
34.89167,69
34.90000,68
34.90833,68
34.91667,68
34.92500,68
34.93333,68
34.94167,68
34.95000,68
34.95833,68
34.96667,68
34.97500,68
34.98333,68
34.99167,68
35.00000,67
35.00833,67
35.01667,67
35.02500,66
35.03333,66
35.04167,66
35.05000,67
35.05833,67
35.06667,66
35.07500,66
35.08333,66
35.09167,66
35.10000,66
35.10833,66
35.11667,66
35.12500,66
35.13333,66
35.14167,66
35.15000,66
35.15833,66
35.16667,67
35.17500,67
35.18333,67
35.19167,67
35.20000,67
35.20833,67
35.21667,67
35.22500,67
35.23333,67
35.24167,68
35.25000,68
35.25833,68
35.26667,68
35.27500,68
35.28333,69
35.29167,69
35.30000,69
35.30833,70
35.31667,70
35.32500,71
35.33333,72
35.34167,72
35.35000,72
35.35833,73
35.36667,73
35.37500,73
35.38333,73
35.39167,74
35.40000,74
35.40833,74
35.41667,74
35.42500,75
35.43333,75
35.44167,75
35.45000,75
35.45833,76
35.46667,76
35.47500,77
35.48333,77
35.49167,77
35.50000,78
35.50833,77
35.51667,77
35.52500,77
35.53333,77
35.54167,77
35.55000,77
35.55833,77
35.56667,77
35.57500,77
35.58333,77
35.59167,77
35.60000,78
35.60833,77
35.61667,77
35.62500,78
35.63333,78
35.64167,78
35.65000,78
35.65833,78
35.66667,79
35.67500,79
35.68333,78
35.69167,78
35.70000,78
35.70833,77
35.71667,77
35.72500,77
35.73333,77
35.74167,77
35.75000,76
35.75833,76
35.76667,76
35.77500,76
35.78333,76
35.79167,76
35.80000,76
35.80833,75
35.81667,75
35.82500,74
35.83333,74
35.84167,74
35.85000,74
35.85833,74
35.86667,74
35.87500,74
35.88333,74
35.89167,73
35.90000,73
35.90833,72
35.91667,72
35.92500,72
35.93333,72
35.94167,72
35.95000,71
35.95833,71
35.96667,71
35.97500,70
35.98333,70
35.99167,70
36.00000,70
36.00833,69
36.01667,69
36.02500,69
36.03333,69
36.04167,69
36.05000,69
36.05833,69
36.06667,70
36.07500,70
36.08333,70
36.09167,70
36.10000,69
36.10833,70
36.11667,70
36.12500,69
36.13333,69
36.14167,69
36.15000,69
36.15833,69
36.16667,69
36.17500,69
36.18333,68
36.19167,68
36.20000,68
36.20833,68
36.21667,68
36.22500,68
36.23333,68
36.24167,68
36.25000,68
36.25833,68
36.26667,67
36.27500,67
36.28333,67
36.29167,67
36.30000,67
36.30833,67
36.31667,66
36.32500,66
36.33333,66
36.34167,66
36.35000,66
36.35833,66
36.36667,66
36.37500,66
36.38333,65
36.39167,65
36.40000,65
36.40833,64
36.41667,64
36.42500,64
36.43333,64
36.44167,64
36.45000,64
36.45833,64
36.46667,64
36.47500,64
36.48333,64
36.49167,63
36.50000,63
36.50833,63
36.51667,63
36.52500,62
36.53333,62
36.54167,63
36.55000,62
36.55833,62
36.56667,63
36.57500,63
36.58333,63
36.59167,63
36.60000,63
36.60833,63
36.61667,63
36.62500,63
36.63333,62
36.64167,62
36.65000,62
36.65833,62
36.66667,63
36.67500,63
36.68333,63
36.69167,64
36.70000,64
36.70833,65
36.71667,65
36.72500,65
36.73333,66
36.74167,66
36.75000,67
36.75833,67
36.76667,68
36.77500,68
36.78333,68
36.79167,68
36.80000,69
36.80833,69
36.81667,69
36.82500,70
36.83333,70
36.84167,70
36.85000,71
36.85833,72
36.86667,73
36.87500,73
36.88333,73
36.89167,74
36.90000,74
36.90833,74
36.91667,75
36.92500,75
36.93333,75
36.94167,76
36.95000,76
36.95833,76
36.96667,76
36.97500,76
36.98333,77
36.99167,77
37.00000,78
37.00833,78
37.01667,78
37.02500,78
37.03333,78
37.04167,78
37.05000,79
37.05833,79
37.06667,79
37.07500,79
37.08333,78
37.09167,78
37.10000,78
37.10833,79
37.11667,79
37.12500,79
37.13333,79
37.14167,79
37.15000,79
37.15833,79
37.16667,79
37.17500,79
37.18333,79
37.19167,78
37.20000,79
37.20833,78
37.21667,78
37.22500,78
37.23333,78
37.24167,78
37.25000,78
37.25833,78
37.26667,77
37.27500,77
37.28333,77
37.29167,77
37.30000,77
37.30833,77
37.31667,77
37.32500,77
37.33333,76
37.34167,76
37.35000,76
37.35833,75
37.36667,75
37.37500,75
37.38333,75
37.39167,75
37.40000,74
37.40833,74
37.41667,74
37.42500,74
37.43333,74
37.44167,73
37.45000,73
37.45833,73
37.46667,73
37.47500,72
37.48333,72
37.49167,72
37.50000,73
37.50833,72
37.51667,72
37.52500,71
37.53333,71
37.54167,71
37.55000,71
37.55833,71
37.56667,71
37.57500,70
37.58333,70
37.59167,70
37.60000,70
37.60833,70
37.61667,70
37.62500,70
37.63333,70
37.64167,70
37.65000,70
37.65833,70
37.66667,69
37.67500,69
37.68333,69
37.69167,69
37.70000,69
37.70833,69
37.71667,69
37.72500,69
37.73333,69
37.74167,69
37.75000,69
37.75833,69
37.76667,69
37.77500,69
37.78333,69
37.79167,69
37.80000,70
37.80833,69
37.81667,69
37.82500,69
37.83333,69
37.84167,69
37.85000,69
37.85833,69
37.86667,69
37.87500,69
37.88333,68
37.89167,68
37.90000,68
37.90833,67
37.91667,67
37.92500,67
37.93333,67
37.94167,68
37.95000,68
37.95833,68
37.96667,68
37.97500,67
37.98333,67
37.99167,68
38.00000,68
38.00833,69
38.01667,69
38.02500,69
38.03333,69
38.04167,69
38.05000,69
38.05833,69
38.06667,69
38.07500,70
38.08333,70
38.09167,70
38.10000,70
38.10833,70
38.11667,70
38.12500,70
38.13333,70
38.14167,71
38.15000,71
38.15833,71
38.16667,72
38.17500,72
38.18333,72
38.19167,72
38.20000,72
38.20833,72
38.21667,72
38.22500,72
38.23333,72
38.24167,72
38.25000,72
38.25833,72
38.26667,73
38.27500,73
38.28333,73
38.29167,73
38.30000,73
38.30833,73
38.31667,72
38.32500,73
38.33333,73
38.34167,73
38.35000,73
38.35833,73
38.36667,72
38.37500,72
38.38333,72
38.39167,72
38.40000,72
38.40833,72
38.41667,72
38.42500,72
38.43333,71
38.44167,71
38.45000,71
38.45833,71
38.46667,70
38.47500,70
38.48333,70
38.49167,69
38.50000,69
38.50833,69
38.51667,69
38.52500,69
38.53333,69
38.54167,68
38.55000,68
38.55833,68
38.56667,68
38.57500,68
38.58333,68
38.59167,68
38.60000,67
38.60833,66
38.61667,66
38.62500,66
38.63333,66
38.64167,66
38.65000,66
38.65833,66
38.66667,66
38.67500,66
38.68333,66
38.69167,66
38.70000,66
38.70833,66
38.71667,66
38.72500,66
38.73333,66
38.74167,66
38.75000,65
38.75833,65
38.76667,65
38.77500,65
38.78333,66
38.79167,66
38.80000,66
38.80833,67
38.81667,66
38.82500,67
38.83333,67
38.84167,67
38.85000,67
38.85833,67
38.86667,67
38.87500,68
38.88333,68
38.89167,68
38.90000,68
38.90833,68
38.91667,68
38.92500,68
38.93333,68
38.94167,69
38.95000,69
38.95833,69
38.96667,69
38.97500,69
38.98333,69
38.99167,70
39.00000,69
39.00833,69
39.01667,69
39.02500,69
39.03333,69
39.04167,69
39.05000,69
39.05833,69
39.06667,69
39.07500,69
39.08333,69
39.09167,69
39.10000,70
39.10833,70
39.11667,70
39.12500,70
39.13333,70
39.14167,70
39.15000,70
39.15833,70
39.16667,70
39.17500,70
39.18333,70
39.19167,70
39.20000,70
39.20833,69
39.21667,69
39.22500,70
39.23333,70
39.24167,70
39.25000,70
39.25833,70
39.26667,70
39.27500,69
39.28333,70
39.29167,70
39.30000,70
39.30833,70
39.31667,70
39.32500,70
39.33333,70
39.34167,70
39.35000,70
39.35833,71
39.36667,71
39.37500,71
39.38333,71
39.39167,71
39.40000,71
39.40833,72
39.41667,72
39.42500,72
39.43333,72
39.44167,72
39.45000,72
39.45833,72
39.46667,73
39.47500,73
39.48333,73
39.49167,73
39.50000,72
39.50833,72
39.51667,72
39.52500,72
39.53333,72
39.54167,73
39.55000,73
39.55833,73
39.56667,73
39.57500,73
39.58333,73
39.59167,73
39.60000,73
39.60833,73
39.61667,73
39.62500,74
39.63333,74
39.64167,74
39.65000,74
39.65833,73
39.66667,74
39.67500,74
39.68333,74
39.69167,74
39.70000,75
39.70833,75
39.71667,75
39.72500,75
39.73333,75
39.74167,75
39.75000,75
39.75833,75
39.76667,76
39.77500,76
39.78333,75
39.79167,75
39.80000,76
39.80833,76
39.81667,76
39.82500,76
39.83333,77
39.84167,77
39.85000,77
39.85833,77
39.86667,77
39.87500,77
39.88333,76
39.89167,76
39.90000,76
39.90833,75
39.91667,75
39.92500,75
39.93333,75
39.94167,75
39.95000,75
39.95833,75
39.96667,75
39.97500,75
39.98333,75
39.99167,75
40.00000,74

