[Header]
Application Name,LabSolutions
Version,5.97 SP1
Data File Name,C:\Users\cremerlab\Desktop\griffin\2021-02-22_glucose_glucose+acetate_growth\2021-02-22_batch_2222021_018.lcd
Output Date,2/24/2021
Output Time,4:07:42 PM

[File Information]
Type,Data File
Generated,2/23/2021 1:11:12 AM
Generated by,System Administrator
Modified,2/23/2021 1:41:31 AM
Modified by,System Administrator

[Sample Information]
Operator Name,System Administrator
Acquired,2/23/2021 1:11:30 AM
Sample Type,0:Unknown
Level,0
Sample Name,glucose_1mM_acetate_3mM_calibration_20uL
Sample ID,001
ISTD Amount1,1
ISTD Amount2,1
ISTD Amount3,1
ISTD Amount4,1
ISTD Amount5,1
ISTD Amount6,1
ISTD Amount7,1
ISTD Amount8,1
ISTD Amount9,1
ISTD Amount10,1
ISTD Amount11,1
ISTD Amount12,1
ISTD Amount13,1
ISTD Amount14,1
ISTD Amount15,1
ISTD Amount16,1
ISTD Amount17,1
ISTD Amount18,1
ISTD Amount19,1
ISTD Amount20,1
ISTD Amount21,1
ISTD Amount22,1
ISTD Amount23,1
ISTD Amount24,1
ISTD Amount25,1
ISTD Amount26,1
ISTD Amount27,1
ISTD Amount28,1
ISTD Amount29,1
ISTD Amount30,1
ISTD Amount31,1
ISTD Amount32,1
Sample Amount,1
Dilution Factor,1
Vial#,38
Injection Volume,20

[Original Files]
Data File,C:\Users\cremerlab\Desktop\griffin\2021-02-22_glucose_glucose+acetate_growth\2021-02-22_batch_2222021_018.lcd
Method File,C:\Users\cremerlab\Desktop\griffin\2021-02-22_glucose_glucose+acetate_growth\2021-02-22_glucose_glucose+acetate_growth.lcm
Batch File,C:\Users\cremerlab\Desktop\griffin\2021-02-22_glucose_glucose+acetate_growth\2021-02-22_batch.lcb
Report Format File,c:\LabSolutions\System\DEFAULT.lsr

[File Description]


[Configuration]
Instrument Name,HPLC-PC-Instrument1
Instrument #,1
Line #,1
# of Detectors,2
Detector ID,Detector A,Detector B
Detector Name,Detector A,Detector B
# of Channels,1,1

[Peak Table(Detector A)]
# of Peaks,1
Peak#,R.Time,I.Time,F.Time,Area,Height,A/H,Conc.,Mark,ID#,Name,k',Plate #,Plate Ht.,Tailing,Resolution,Sep.Factor,Area Ratio,Height Ratio,Conc. %,Norm Conc.
1,10.447,10.000,11.992,30731,1056,29.101,0.000,   ,,,0.000,5578,26.893,2.350,0.000,0.000,0,0,0.000,0.000

[Peak Table(Detector B)]
# of Peaks,5
Peak#,R.Time,I.Time,F.Time,Area,Height,A/H,Conc.,Mark,ID#,Name,k',Plate #,Plate Ht.,Tailing,Resolution,Sep.Factor,Area Ratio,Height Ratio,Conc. %,Norm Conc.
1,10.895,10.650,11.375,35671,2177,16.384,0.000,   ,,,0.000,10078,14.884,1.326,0.000,0.000,0,0,0.000,0.000
2,13.234,12.550,13.900,209638,9770,21.457,0.000,   ,,,0.215,7993,18.765,0.808,4.559,0.000,0,0,0.000,0.000
3,15.571,15.083,16.400,51578,2181,23.653,0.000,   ,,,0.429,9995,15.008,1.170,3.847,1.999,0,0,0.000,0.000
4,24.918,24.342,25.725,19519,673,29.022,0.000,   ,,,1.287,17158,8.742,1.119,13.508,2.999,0,0,0.000,0.000
5,29.759,28.658,29.967,8299,104,79.597,0.000,   ,,,1.732,8580,17.483,0.595,4.732,1.345,0,0,0.000,0.000

[Compound Results(Detector A)]
# of IDs,0

[Compound Results(Detector B)]
# of IDs,0

[LC Chromatogram(Detector A-Ch1)]
Interval(msec),500
# of Points,3601
Start Time(min),0.000
End Time(min),30.000
Intensity Units,mV
Intensity Multiplier,0.001
Wavelength(nm),254nm
R.Time (min),Intensity
0.00000,6
0.00833,6
0.01667,-1
0.02500,-1
0.03333,-1
0.04167,-1
0.05000,-1
0.05833,-2
0.06667,-2
0.07500,-2
0.08333,-1
0.09167,-0
0.10000,-0
0.10833,0
0.11667,-0
0.12500,-1
0.13333,-1
0.14167,-1
0.15000,-1
0.15833,-1
0.16667,-1
0.17500,-1
0.18333,-1
0.19167,-1
0.20000,0
0.20833,3
0.21667,7
0.22500,10
0.23333,12
0.24167,13
0.25000,14
0.25833,16
0.26667,19
0.27500,21
0.28333,22
0.29167,23
0.30000,24
0.30833,24
0.31667,24
0.32500,23
0.33333,23
0.34167,22
0.35000,22
0.35833,21
0.36667,20
0.37500,19
0.38333,18
0.39167,17
0.40000,17
0.40833,17
0.41667,17
0.42500,16
0.43333,15
0.44167,14
0.45000,14
0.45833,13
0.46667,13
0.47500,13
0.48333,13
0.49167,13
0.50000,13
0.50833,12
0.51667,12
0.52500,11
0.53333,10
0.54167,9
0.55000,9
0.55833,10
0.56667,9
0.57500,9
0.58333,9
0.59167,8
0.60000,8
0.60833,8
0.61667,7
0.62500,7
0.63333,8
0.64167,8
0.65000,7
0.65833,8
0.66667,7
0.67500,6
0.68333,6
0.69167,6
0.70000,6
0.70833,7
0.71667,7
0.72500,7
0.73333,7
0.74167,7
0.75000,7
0.75833,8
0.76667,9
0.77500,8
0.78333,8
0.79167,7
0.80000,7
0.80833,7
0.81667,7
0.82500,7
0.83333,6
0.84167,6
0.85000,6
0.85833,6
0.86667,6
0.87500,6
0.88333,5
0.89167,4
0.90000,5
0.90833,6
0.91667,6
0.92500,6
0.93333,5
0.94167,6
0.95000,6
0.95833,6
0.96667,7
0.97500,7
0.98333,7
0.99167,7
1.00000,7
1.00833,6
1.01667,6
1.02500,6
1.03333,5
1.04167,5
1.05000,5
1.05833,5
1.06667,6
1.07500,7
1.08333,8
1.09167,8
1.10000,8
1.10833,8
1.11667,8
1.12500,8
1.13333,8
1.14167,7
1.15000,7
1.15833,7
1.16667,8
1.17500,7
1.18333,7
1.19167,6
1.20000,6
1.20833,6
1.21667,5
1.22500,5
1.23333,6
1.24167,7
1.25000,7
1.25833,7
1.26667,7
1.27500,7
1.28333,6
1.29167,6
1.30000,6
1.30833,7
1.31667,7
1.32500,7
1.33333,7
1.34167,8
1.35000,8
1.35833,7
1.36667,7
1.37500,6
1.38333,6
1.39167,5
1.40000,6
1.40833,6
1.41667,6
1.42500,7
1.43333,7
1.44167,6
1.45000,6
1.45833,6
1.46667,6
1.47500,6
1.48333,6
1.49167,6
1.50000,5
1.50833,5
1.51667,6
1.52500,5
1.53333,5
1.54167,5
1.55000,5
1.55833,5
1.56667,6
1.57500,6
1.58333,6
1.59167,5
1.60000,5
1.60833,5
1.61667,5
1.62500,5
1.63333,5
1.64167,5
1.65000,5
1.65833,6
1.66667,6
1.67500,6
1.68333,5
1.69167,5
1.70000,4
1.70833,4
1.71667,4
1.72500,3
1.73333,4
1.74167,4
1.75000,4
1.75833,5
1.76667,6
1.77500,6
1.78333,5
1.79167,5
1.80000,5
1.80833,5
1.81667,4
1.82500,4
1.83333,4
1.84167,4
1.85000,3
1.85833,3
1.86667,4
1.87500,5
1.88333,4
1.89167,4
1.90000,4
1.90833,4
1.91667,5
1.92500,5
1.93333,5
1.94167,6
1.95000,6
1.95833,6
1.96667,5
1.97500,5
1.98333,5
1.99167,5
2.00000,5
2.00833,5
2.01667,5
2.02500,5
2.03333,5
2.04167,5
2.05000,5
2.05833,4
2.06667,5
2.07500,5
2.08333,5
2.09167,5
2.10000,5
2.10833,6
2.11667,5
2.12500,5
2.13333,4
2.14167,4
2.15000,5
2.15833,4
2.16667,4
2.17500,4
2.18333,5
2.19167,5
2.20000,5
2.20833,6
2.21667,5
2.22500,5
2.23333,4
2.24167,3
2.25000,3
2.25833,3
2.26667,3
2.27500,3
2.28333,3
2.29167,3
2.30000,4
2.30833,5
2.31667,5
2.32500,6
2.33333,6
2.34167,6
2.35000,5
2.35833,5
2.36667,6
2.37500,5
2.38333,4
2.39167,2
2.40000,2
2.40833,3
2.41667,3
2.42500,4
2.43333,4
2.44167,4
2.45000,3
2.45833,4
2.46667,5
2.47500,4
2.48333,5
2.49167,5
2.50000,4
2.50833,4
2.51667,5
2.52500,5
2.53333,5
2.54167,5
2.55000,5
2.55833,5
2.56667,6
2.57500,6
2.58333,5
2.59167,5
2.60000,4
2.60833,3
2.61667,4
2.62500,3
2.63333,3
2.64167,4
2.65000,3
2.65833,3
2.66667,3
2.67500,3
2.68333,3
2.69167,4
2.70000,5
2.70833,4
2.71667,5
2.72500,5
2.73333,5
2.74167,4
2.75000,4
2.75833,4
2.76667,4
2.77500,3
2.78333,3
2.79167,3
2.80000,2
2.80833,2
2.81667,2
2.82500,3
2.83333,3
2.84167,4
2.85000,5
2.85833,5
2.86667,5
2.87500,5
2.88333,5
2.89167,5
2.90000,4
2.90833,4
2.91667,5
2.92500,5
2.93333,5
2.94167,4
2.95000,4
2.95833,4
2.96667,5
2.97500,5
2.98333,5
2.99167,4
3.00000,5
3.00833,5
3.01667,5
3.02500,5
3.03333,4
3.04167,4
3.05000,4
3.05833,4
3.06667,4
3.07500,4
3.08333,4
3.09167,4
3.10000,4
3.10833,4
3.11667,4
3.12500,3
3.13333,4
3.14167,4
3.15000,5
3.15833,6
3.16667,6
3.17500,5
3.18333,5
3.19167,5
3.20000,4
3.20833,4
3.21667,4
3.22500,4
3.23333,4
3.24167,5
3.25000,5
3.25833,6
3.26667,4
3.27500,3
3.28333,3
3.29167,3
3.30000,3
3.30833,4
3.31667,5
3.32500,4
3.33333,4
3.34167,5
3.35000,5
3.35833,5
3.36667,5
3.37500,4
3.38333,3
3.39167,3
3.40000,3
3.40833,4
3.41667,4
3.42500,4
3.43333,5
3.44167,5
3.45000,5
3.45833,5
3.46667,5
3.47500,5
3.48333,5
3.49167,6
3.50000,6
3.50833,6
3.51667,6
3.52500,6
3.53333,5
3.54167,6
3.55000,5
3.55833,4
3.56667,4
3.57500,4
3.58333,3
3.59167,3
3.60000,4
3.60833,6
3.61667,6
3.62500,6
3.63333,6
3.64167,5
3.65000,5
3.65833,5
3.66667,5
3.67500,4
3.68333,3
3.69167,3
3.70000,3
3.70833,2
3.71667,4
3.72500,4
3.73333,3
3.74167,3
3.75000,3
3.75833,4
3.76667,4
3.77500,4
3.78333,4
3.79167,4
3.80000,3
3.80833,3
3.81667,3
3.82500,3
3.83333,4
3.84167,4
3.85000,3
3.85833,3
3.86667,3
3.87500,4
3.88333,4
3.89167,3
3.90000,3
3.90833,3
3.91667,4
3.92500,5
3.93333,4
3.94167,3
3.95000,3
3.95833,3
3.96667,3
3.97500,3
3.98333,4
3.99167,4
4.00000,5
4.00833,5
4.01667,6
4.02500,5
4.03333,5
4.04167,5
4.05000,5
4.05833,5
4.06667,4
4.07500,4
4.08333,4
4.09167,3
4.10000,3
4.10833,3
4.11667,4
4.12500,5
4.13333,5
4.14167,4
4.15000,4
4.15833,4
4.16667,5
4.17500,5
4.18333,4
4.19167,4
4.20000,3
4.20833,3
4.21667,2
4.22500,2
4.23333,2
4.24167,3
4.25000,3
4.25833,3
4.26667,3
4.27500,3
4.28333,4
4.29167,4
4.30000,4
4.30833,4
4.31667,4
4.32500,3
4.33333,3
4.34167,3
4.35000,4
4.35833,3
4.36667,3
4.37500,3
4.38333,3
4.39167,2
4.40000,1
4.40833,1
4.41667,1
4.42500,1
4.43333,1
4.44167,2
4.45000,2
4.45833,1
4.46667,2
4.47500,2
4.48333,2
4.49167,2
4.50000,2
4.50833,3
4.51667,2
4.52500,1
4.53333,1
4.54167,1
4.55000,2
4.55833,2
4.56667,3
4.57500,3
4.58333,3
4.59167,3
4.60000,3
4.60833,3
4.61667,3
4.62500,3
4.63333,3
4.64167,2
4.65000,2
4.65833,1
4.66667,2
4.67500,2
4.68333,2
4.69167,2
4.70000,2
4.70833,2
4.71667,2
4.72500,3
4.73333,3
4.74167,2
4.75000,2
4.75833,2
4.76667,1
4.77500,2
4.78333,2
4.79167,1
4.80000,2
4.80833,2
4.81667,2
4.82500,2
4.83333,1
4.84167,2
4.85000,2
4.85833,3
4.86667,3
4.87500,3
4.88333,4
4.89167,4
4.90000,2
4.90833,2
4.91667,2
4.92500,2
4.93333,2
4.94167,2
4.95000,2
4.95833,1
4.96667,1
4.97500,1
4.98333,1
4.99167,2
5.00000,2
5.00833,2
5.01667,1
5.02500,2
5.03333,2
5.04167,3
5.05000,2
5.05833,2
5.06667,1
5.07500,1
5.08333,1
5.09167,1
5.10000,2
5.10833,2
5.11667,3
5.12500,2
5.13333,2
5.14167,1
5.15000,1
5.15833,0
5.16667,0
5.17500,-0
5.18333,-0
5.19167,0
5.20000,0
5.20833,1
5.21667,2
5.22500,3
5.23333,3
5.24167,3
5.25000,2
5.25833,2
5.26667,2
5.27500,2
5.28333,2
5.29167,2
5.30000,1
5.30833,1
5.31667,1
5.32500,0
5.33333,-0
5.34167,-0
5.35000,0
5.35833,0
5.36667,0
5.37500,1
5.38333,1
5.39167,1
5.40000,1
5.40833,1
5.41667,1
5.42500,-0
5.43333,0
5.44167,1
5.45000,1
5.45833,1
5.46667,0
5.47500,-0
5.48333,-1
5.49167,-1
5.50000,-0
5.50833,0
5.51667,0
5.52500,-0
5.53333,-0
5.54167,-0
5.55000,0
5.55833,1
5.56667,2
5.57500,1
5.58333,1
5.59167,1
5.60000,0
5.60833,-0
5.61667,-1
5.62500,-0
5.63333,0
5.64167,-0
5.65000,-0
5.65833,-1
5.66667,-1
5.67500,-0
5.68333,-0
5.69167,-1
5.70000,-1
5.70833,-1
5.71667,-1
5.72500,-1
5.73333,-0
5.74167,0
5.75000,-0
5.75833,-1
5.76667,-1
5.77500,-1
5.78333,-1
5.79167,-1
5.80000,-1
5.80833,-1
5.81667,-1
5.82500,-1
5.83333,-1
5.84167,-0
5.85000,0
5.85833,0
5.86667,-1
5.87500,-2
5.88333,-2
5.89167,-2
5.90000,-2
5.90833,-2
5.91667,-3
5.92500,-3
5.93333,-3
5.94167,-4
5.95000,-3
5.95833,-2
5.96667,-2
5.97500,-1
5.98333,-1
5.99167,-2
6.00000,-2
6.00833,-2
6.01667,-2
6.02500,-3
6.03333,-3
6.04167,-3
6.05000,-3
6.05833,-2
6.06667,-2
6.07500,-2
6.08333,-1
6.09167,-1
6.10000,-1
6.10833,-1
6.11667,-1
6.12500,0
6.13333,-0
6.14167,-1
6.15000,-2
6.15833,-2
6.16667,-1
6.17500,-1
6.18333,-1
6.19167,-1
6.20000,-1
6.20833,-1
6.21667,-2
6.22500,-2
6.23333,-2
6.24167,-2
6.25000,-2
6.25833,-2
6.26667,-3
6.27500,-3
6.28333,-4
6.29167,-4
6.30000,-3
6.30833,-3
6.31667,-2
6.32500,-2
6.33333,-2
6.34167,-2
6.35000,-2
6.35833,-2
6.36667,-2
6.37500,-2
6.38333,-2
6.39167,-1
6.40000,-2
6.40833,-3
6.41667,-4
6.42500,-4
6.43333,-4
6.44167,-4
6.45000,-4
6.45833,-3
6.46667,-2
6.47500,-1
6.48333,-2
6.49167,-2
6.50000,-2
6.50833,-2
6.51667,-2
6.52500,-1
6.53333,-2
6.54167,-3
6.55000,-3
6.55833,-3
6.56667,-2
6.57500,-2
6.58333,-2
6.59167,-2
6.60000,-3
6.60833,-3
6.61667,-2
6.62500,-3
6.63333,-2
6.64167,-2
6.65000,-2
6.65833,-2
6.66667,-2
6.67500,-2
6.68333,-2
6.69167,-2
6.70000,-3
6.70833,-3
6.71667,-3
6.72500,-2
6.73333,-1
6.74167,-1
6.75000,-2
6.75833,-2
6.76667,-3
6.77500,-2
6.78333,-3
6.79167,-3
6.80000,-3
6.80833,-4
6.81667,-3
6.82500,-3
6.83333,-2
6.84167,-2
6.85000,-3
6.85833,-4
6.86667,-4
6.87500,-4
6.88333,-4
6.89167,-5
6.90000,-4
6.90833,-4
6.91667,-3
6.92500,-3
6.93333,-2
6.94167,-3
6.95000,-4
6.95833,-4
6.96667,-3
6.97500,-3
6.98333,-5
6.99167,-5
7.00000,-4
7.00833,-4
7.01667,-3
7.02500,-2
7.03333,-2
7.04167,-1
7.05000,-1
7.05833,-1
7.06667,-1
7.07500,-1
7.08333,-2
7.09167,-1
7.10000,-1
7.10833,-2
7.11667,-2
7.12500,-2
7.13333,-2
7.14167,-2
7.15000,-2
7.15833,-2
7.16667,-2
7.17500,-2
7.18333,-3
7.19167,-3
7.20000,-3
7.20833,-2
7.21667,-2
7.22500,-2
7.23333,-2
7.24167,-1
7.25000,-2
7.25833,-2
7.26667,-3
7.27500,-2
7.28333,-2
7.29167,-1
7.30000,-1
7.30833,-1
7.31667,-1
7.32500,-1
7.33333,-2
7.34167,-2
7.35000,-2
7.35833,-2
7.36667,-1
7.37500,-1
7.38333,-1
7.39167,-1
7.40000,-1
7.40833,-1
7.41667,-1
7.42500,-1
7.43333,-1
7.44167,-1
7.45000,-1
7.45833,-1
7.46667,0
7.47500,1
7.48333,1
7.49167,1
7.50000,1
7.50833,1
7.51667,0
7.52500,-0
7.53333,-1
7.54167,-1
7.55000,-1
7.55833,-0
7.56667,-0
7.57500,0
7.58333,1
7.59167,1
7.60000,0
7.60833,-0
7.61667,0
7.62500,1
7.63333,1
7.64167,1
7.65000,3
7.65833,4
7.66667,4
7.67500,3
7.68333,3
7.69167,2
7.70000,2
7.70833,1
7.71667,-0
7.72500,-1
7.73333,-1
7.74167,0
7.75000,1
7.75833,1
7.76667,1
7.77500,1
7.78333,1
7.79167,2
7.80000,2
7.80833,1
7.81667,1
7.82500,1
7.83333,1
7.84167,2
7.85000,2
7.85833,2
7.86667,1
7.87500,0
7.88333,0
7.89167,-0
7.90000,-1
7.90833,-0
7.91667,0
7.92500,0
7.93333,1
7.94167,1
7.95000,1
7.95833,1
7.96667,1
7.97500,1
7.98333,1
7.99167,1
8.00000,1
8.00833,1
8.01667,1
8.02500,2
8.03333,1
8.04167,0
8.05000,1
8.05833,2
8.06667,3
8.07500,2
8.08333,2
8.09167,2
8.10000,2
8.10833,1
8.11667,0
8.12500,0
8.13333,0
8.14167,0
8.15000,1
8.15833,1
8.16667,0
8.17500,-0
8.18333,-0
8.19167,-0
8.20000,1
8.20833,1
8.21667,1
8.22500,1
8.23333,2
8.24167,1
8.25000,0
8.25833,0
8.26667,0
8.27500,1
8.28333,1
8.29167,0
8.30000,-1
8.30833,-1
8.31667,-0
8.32500,-0
8.33333,-0
8.34167,-1
8.35000,-1
8.35833,-1
8.36667,0
8.37500,1
8.38333,1
8.39167,1
8.40000,1
8.40833,1
8.41667,1
8.42500,1
8.43333,2
8.44167,2
8.45000,3
8.45833,3
8.46667,3
8.47500,3
8.48333,3
8.49167,2
8.50000,1
8.50833,1
8.51667,1
8.52500,1
8.53333,1
8.54167,1
8.55000,1
8.55833,1
8.56667,0
8.57500,1
8.58333,1
8.59167,1
8.60000,1
8.60833,2
8.61667,2
8.62500,1
8.63333,1
8.64167,1
8.65000,0
8.65833,-0
8.66667,-0
8.67500,-0
8.68333,0
8.69167,1
8.70000,1
8.70833,1
8.71667,1
8.72500,0
8.73333,1
8.74167,1
8.75000,1
8.75833,2
8.76667,2
8.77500,2
8.78333,2
8.79167,2
8.80000,2
8.80833,2
8.81667,2
8.82500,1
8.83333,1
8.84167,1
8.85000,1
8.85833,1
8.86667,1
8.87500,1
8.88333,1
8.89167,1
8.90000,0
8.90833,-0
8.91667,-0
8.92500,-0
8.93333,-0
8.94167,-1
8.95000,0
8.95833,1
8.96667,1
8.97500,2
8.98333,1
8.99167,-0
9.00000,-0
9.00833,-0
9.01667,-1
9.02500,-2
9.03333,-1
9.04167,-1
9.05000,-0
9.05833,-0
9.06667,0
9.07500,-0
9.08333,-0
9.09167,0
9.10000,0
9.10833,-0
9.11667,-0
9.12500,-1
9.13333,-1
9.14167,-2
9.15000,-2
9.15833,-2
9.16667,-2
9.17500,-2
9.18333,-2
9.19167,-1
9.20000,-1
9.20833,-2
9.21667,-3
9.22500,-3
9.23333,-3
9.24167,-3
9.25000,-3
9.25833,-3
9.26667,-4
9.27500,-5
9.28333,-4
9.29167,-2
9.30000,-2
9.30833,-2
9.31667,-3
9.32500,-3
9.33333,-3
9.34167,-3
9.35000,-2
9.35833,-0
9.36667,0
9.37500,1
9.38333,0
9.39167,0
9.40000,-0
9.40833,-1
9.41667,-2
9.42500,-2
9.43333,-1
9.44167,-2
9.45000,-2
9.45833,-2
9.46667,-2
9.47500,-3
9.48333,-2
9.49167,-2
9.50000,-2
9.50833,-2
9.51667,-1
9.52500,-1
9.53333,-1
9.54167,-2
9.55000,-1
9.55833,-1
9.56667,-1
9.57500,-1
9.58333,-2
9.59167,-2
9.60000,-3
9.60833,-2
9.61667,-1
9.62500,-1
9.63333,-1
9.64167,-1
9.65000,-1
9.65833,-1
9.66667,-0
9.67500,0
9.68333,1
9.69167,1
9.70000,1
9.70833,-0
9.71667,-1
9.72500,-0
9.73333,0
9.74167,1
9.75000,2
9.75833,2
9.76667,2
9.77500,3
9.78333,3
9.79167,3
9.80000,4
9.80833,4
9.81667,4
9.82500,4
9.83333,3
9.84167,3
9.85000,3
9.85833,3
9.86667,2
9.87500,1
9.88333,0
9.89167,-1
9.90000,-2
9.90833,-1
9.91667,-1
9.92500,-1
9.93333,-2
9.94167,-4
9.95000,-4
9.95833,-5
9.96667,-5
9.97500,-6
9.98333,-6
9.99167,-5
10.00000,-5
10.00833,-4
10.01667,-3
10.02500,-1
10.03333,1
10.04167,4
10.05000,8
10.05833,12
10.06667,16
10.07500,21
10.08333,27
10.09167,35
10.10000,42
10.10833,49
10.11667,56
10.12500,65
10.13333,74
10.14167,83
10.15000,93
10.15833,102
10.16667,113
10.17500,124
10.18333,137
10.19167,150
10.20000,165
10.20833,182
10.21667,200
10.22500,220
10.23333,241
10.24167,264
10.25000,290
10.25833,318
10.26667,349
10.27500,383
10.28333,419
10.29167,457
10.30000,498
10.30833,541
10.31667,585
10.32500,630
10.33333,677
10.34167,725
10.35000,772
10.35833,817
10.36667,860
10.37500,901
10.38333,940
10.39167,974
10.40000,1004
10.40833,1030
10.41667,1050
10.42500,1065
10.43333,1076
10.44167,1082
10.45000,1082
10.45833,1078
10.46667,1069
10.47500,1056
10.48333,1039
10.49167,1019
10.50000,996
10.50833,971
10.51667,944
10.52500,916
10.53333,887
10.54167,857
10.55000,828
10.55833,798
10.56667,768
10.57500,739
10.58333,711
10.59167,682
10.60000,656
10.60833,631
10.61667,606
10.62500,583
10.63333,561
10.64167,539
10.65000,519
10.65833,501
10.66667,483
10.67500,466
10.68333,451
10.69167,437
10.70000,424
10.70833,412
10.71667,400
10.72500,390
10.73333,380
10.74167,371
10.75000,363
10.75833,355
10.76667,349
10.77500,342
10.78333,337
10.79167,332
10.80000,327
10.80833,322
10.81667,317
10.82500,313
10.83333,310
10.84167,307
10.85000,304
10.85833,301
10.86667,298
10.87500,295
10.88333,293
10.89167,290
10.90000,288
10.90833,285
10.91667,282
10.92500,280
10.93333,278
10.94167,276
10.95000,273
10.95833,270
10.96667,267
10.97500,265
10.98333,263
10.99167,261
11.00000,259
11.00833,257
11.01667,255
11.02500,254
11.03333,252
11.04167,250
11.05000,249
11.05833,248
11.06667,246
11.07500,244
11.08333,243
11.09167,241
11.10000,240
11.10833,237
11.11667,236
11.12500,235
11.13333,234
11.14167,233
11.15000,231
11.15833,229
11.16667,229
11.17500,228
11.18333,227
11.19167,226
11.20000,225
11.20833,224
11.21667,223
11.22500,222
11.23333,221
11.24167,220
11.25000,219
11.25833,217
11.26667,216
11.27500,215
11.28333,213
11.29167,212
11.30000,210
11.30833,209
11.31667,208
11.32500,207
11.33333,205
11.34167,203
11.35000,203
11.35833,202
11.36667,202
11.37500,200
11.38333,200
11.39167,199
11.40000,198
11.40833,197
11.41667,196
11.42500,195
11.43333,195
11.44167,194
11.45000,193
11.45833,191
11.46667,189
11.47500,187
11.48333,186
11.49167,185
11.50000,183
11.50833,182
11.51667,181
11.52500,181
11.53333,181
11.54167,180
11.55000,178
11.55833,177
11.56667,175
11.57500,174
11.58333,173
11.59167,172
11.60000,171
11.60833,170
11.61667,169
11.62500,168
11.63333,167
11.64167,167
11.65000,166
11.65833,164
11.66667,163
11.67500,162
11.68333,161
11.69167,160
11.70000,159
11.70833,158
11.71667,157
11.72500,156
11.73333,156
11.74167,155
11.75000,154
11.75833,153
11.76667,152
11.77500,151
11.78333,150
11.79167,149
11.80000,149
11.80833,149
11.81667,149
11.82500,147
11.83333,146
11.84167,145
11.85000,145
11.85833,144
11.86667,143
11.87500,142
11.88333,142
11.89167,141
11.90000,141
11.90833,140
11.91667,140
11.92500,139
11.93333,139
11.94167,138
11.95000,136
11.95833,134
11.96667,133
11.97500,133
11.98333,133
11.99167,132
12.00000,133
12.00833,132
12.01667,131
12.02500,130
12.03333,129
12.04167,128
12.05000,128
12.05833,127
12.06667,126
12.07500,126
12.08333,125
12.09167,125
12.10000,125
12.10833,124
12.11667,123
12.12500,123
12.13333,122
12.14167,121
12.15000,121
12.15833,120
12.16667,120
12.17500,120
12.18333,120
12.19167,119
12.20000,118
12.20833,118
12.21667,118
12.22500,118
12.23333,118
12.24167,118
12.25000,117
12.25833,116
12.26667,116
12.27500,115
12.28333,114
12.29167,113
12.30000,111
12.30833,111
12.31667,109
12.32500,108
12.33333,108
12.34167,108
12.35000,107
12.35833,107
12.36667,107
12.37500,107
12.38333,107
12.39167,106
12.40000,106
12.40833,106
12.41667,105
12.42500,105
12.43333,105
12.44167,105
12.45000,105
12.45833,103
12.46667,103
12.47500,103
12.48333,102
12.49167,102
12.50000,102
12.50833,101
12.51667,101
12.52500,101
12.53333,100
12.54167,99
12.55000,99
12.55833,99
12.56667,98
12.57500,97
12.58333,98
12.59167,98
12.60000,97
12.60833,97
12.61667,97
12.62500,97
12.63333,96
12.64167,96
12.65000,96
12.65833,96
12.66667,97
12.67500,97
12.68333,96
12.69167,96
12.70000,96
12.70833,96
12.71667,95
12.72500,94
12.73333,94
12.74167,94
12.75000,93
12.75833,94
12.76667,93
12.77500,93
12.78333,93
12.79167,93
12.80000,93
12.80833,92
12.81667,92
12.82500,92
12.83333,91
12.84167,92
12.85000,93
12.85833,94
12.86667,94
12.87500,94
12.88333,95
12.89167,95
12.90000,96
12.90833,98
12.91667,99
12.92500,101
12.93333,101
12.94167,100
12.95000,99
12.95833,97
12.96667,96
12.97500,95
12.98333,95
12.99167,94
13.00000,93
13.00833,93
13.01667,93
13.02500,92
13.03333,90
13.04167,89
13.05000,89
13.05833,90
13.06667,90
13.07500,91
13.08333,91
13.09167,91
13.10000,91
13.10833,91
13.11667,91
13.12500,91
13.13333,90
13.14167,89
13.15000,89
13.15833,88
13.16667,88
13.17500,87
13.18333,88
13.19167,87
13.20000,87
13.20833,86
13.21667,85
13.22500,85
13.23333,85
13.24167,85
13.25000,86
13.25833,86
13.26667,86
13.27500,85
13.28333,85
13.29167,85
13.30000,85
13.30833,85
13.31667,84
13.32500,84
13.33333,84
13.34167,83
13.35000,83
13.35833,82
13.36667,82
13.37500,83
13.38333,83
13.39167,83
13.40000,83
13.40833,83
13.41667,82
13.42500,82
13.43333,82
13.44167,81
13.45000,80
13.45833,78
13.46667,78
13.47500,79
13.48333,79
13.49167,79
13.50000,79
13.50833,79
13.51667,79
13.52500,79
13.53333,79
13.54167,79
13.55000,78
13.55833,77
13.56667,77
13.57500,77
13.58333,77
13.59167,76
13.60000,76
13.60833,75
13.61667,76
13.62500,76
13.63333,77
13.64167,77
13.65000,77
13.65833,76
13.66667,76
13.67500,76
13.68333,75
13.69167,75
13.70000,75
13.70833,76
13.71667,76
13.72500,76
13.73333,75
13.74167,74
13.75000,73
13.75833,73
13.76667,73
13.77500,73
13.78333,73
13.79167,73
13.80000,73
13.80833,74
13.81667,74
13.82500,74
13.83333,74
13.84167,73
13.85000,73
13.85833,72
13.86667,72
13.87500,72
13.88333,72
13.89167,72
13.90000,71
13.90833,71
13.91667,70
13.92500,70
13.93333,70
13.94167,70
13.95000,70
13.95833,70
13.96667,70
13.97500,70
13.98333,70
13.99167,70
14.00000,71
14.00833,70
14.01667,70
14.02500,70
14.03333,69
14.04167,69
14.05000,69
14.05833,69
14.06667,69
14.07500,69
14.08333,69
14.09167,70
14.10000,70
14.10833,71
14.11667,70
14.12500,69
14.13333,68
14.14167,68
14.15000,69
14.15833,69
14.16667,69
14.17500,69
14.18333,69
14.19167,68
14.20000,67
14.20833,66
14.21667,66
14.22500,65
14.23333,65
14.24167,65
14.25000,66
14.25833,66
14.26667,65
14.27500,65
14.28333,65
14.29167,65
14.30000,65
14.30833,65
14.31667,64
14.32500,64
14.33333,64
14.34167,64
14.35000,64
14.35833,64
14.36667,65
14.37500,65
14.38333,65
14.39167,65
14.40000,64
14.40833,64
14.41667,64
14.42500,64
14.43333,64
14.44167,64
14.45000,63
14.45833,62
14.46667,62
14.47500,62
14.48333,62
14.49167,61
14.50000,62
14.50833,62
14.51667,62
14.52500,63
14.53333,63
14.54167,62
14.55000,61
14.55833,61
14.56667,62
14.57500,62
14.58333,63
14.59167,62
14.60000,61
14.60833,62
14.61667,62
14.62500,62
14.63333,61
14.64167,60
14.65000,60
14.65833,60
14.66667,60
14.67500,60
14.68333,60
14.69167,60
14.70000,59
14.70833,59
14.71667,59
14.72500,60
14.73333,60
14.74167,60
14.75000,61
14.75833,61
14.76667,61
14.77500,61
14.78333,60
14.79167,59
14.80000,59
14.80833,58
14.81667,59
14.82500,59
14.83333,58
14.84167,58
14.85000,57
14.85833,57
14.86667,58
14.87500,58
14.88333,57
14.89167,57
14.90000,57
14.90833,57
14.91667,57
14.92500,57
14.93333,57
14.94167,57
14.95000,57
14.95833,57
14.96667,58
14.97500,59
14.98333,59
14.99167,58
15.00000,57
15.00833,56
15.01667,56
15.02500,56
15.03333,56
15.04167,55
15.05000,55
15.05833,54
15.06667,54
15.07500,55
15.08333,54
15.09167,55
15.10000,55
15.10833,55
15.11667,54
15.12500,54
15.13333,53
15.14167,54
15.15000,54
15.15833,55
15.16667,55
15.17500,55
15.18333,55
15.19167,54
15.20000,55
15.20833,55
15.21667,55
15.22500,54
15.23333,53
15.24167,53
15.25000,52
15.25833,52
15.26667,52
15.27500,53
15.28333,53
15.29167,53
15.30000,53
15.30833,53
15.31667,53
15.32500,53
15.33333,53
15.34167,53
15.35000,54
15.35833,54
15.36667,53
15.37500,53
15.38333,52
15.39167,52
15.40000,53
15.40833,53
15.41667,52
15.42500,51
15.43333,51
15.44167,51
15.45000,51
15.45833,52
15.46667,52
15.47500,52
15.48333,52
15.49167,52
15.50000,51
15.50833,51
15.51667,50
15.52500,50
15.53333,50
15.54167,50
15.55000,51
15.55833,51
15.56667,51
15.57500,51
15.58333,51
15.59167,50
15.60000,51
15.60833,50
15.61667,50
15.62500,50
15.63333,50
15.64167,50
15.65000,50
15.65833,49
15.66667,49
15.67500,49
15.68333,49
15.69167,49
15.70000,49
15.70833,49
15.71667,50
15.72500,50
15.73333,51
15.74167,50
15.75000,51
15.75833,51
15.76667,51
15.77500,50
15.78333,49
15.79167,49
15.80000,49
15.80833,49
15.81667,49
15.82500,48
15.83333,48
15.84167,47
15.85000,47
15.85833,47
15.86667,47
15.87500,47
15.88333,47
15.89167,48
15.90000,48
15.90833,49
15.91667,48
15.92500,48
15.93333,47
15.94167,47
15.95000,48
15.95833,48
15.96667,47
15.97500,47
15.98333,47
15.99167,47
16.00000,46
16.00833,46
16.01667,45
16.02500,45
16.03333,45
16.04167,45
16.05000,44
16.05833,44
16.06667,45
16.07500,45
16.08333,45
16.09167,45
16.10000,45
16.10833,45
16.11667,44
16.12500,43
16.13333,43
16.14167,42
16.15000,42
16.15833,42
16.16667,42
16.17500,42
16.18333,43
16.19167,43
16.20000,43
16.20833,43
16.21667,43
16.22500,43
16.23333,42
16.24167,42
16.25000,41
16.25833,42
16.26667,41
16.27500,41
16.28333,41
16.29167,42
16.30000,42
16.30833,42
16.31667,41
16.32500,40
16.33333,40
16.34167,41
16.35000,42
16.35833,42
16.36667,43
16.37500,43
16.38333,43
16.39167,42
16.40000,41
16.40833,40
16.41667,40
16.42500,40
16.43333,40
16.44167,39
16.45000,40
16.45833,40
16.46667,40
16.47500,41
16.48333,41
16.49167,41
16.50000,40
16.50833,40
16.51667,40
16.52500,40
16.53333,40
16.54167,39
16.55000,39
16.55833,39
16.56667,40
16.57500,39
16.58333,39
16.59167,38
16.60000,37
16.60833,37
16.61667,37
16.62500,38
16.63333,37
16.64167,38
16.65000,39
16.65833,39
16.66667,38
16.67500,38
16.68333,38
16.69167,37
16.70000,37
16.70833,37
16.71667,37
16.72500,37
16.73333,37
16.74167,37
16.75000,37
16.75833,37
16.76667,37
16.77500,36
16.78333,36
16.79167,36
16.80000,36
16.80833,36
16.81667,36
16.82500,36
16.83333,35
16.84167,34
16.85000,34
16.85833,34
16.86667,34
16.87500,33
16.88333,33
16.89167,34
16.90000,35
16.90833,34
16.91667,34
16.92500,33
16.93333,33
16.94167,33
16.95000,33
16.95833,32
16.96667,32
16.97500,32
16.98333,31
16.99167,32
17.00000,33
17.00833,33
17.01667,33
17.02500,32
17.03333,32
17.04167,32
17.05000,32
17.05833,33
17.06667,32
17.07500,32
17.08333,32
17.09167,33
17.10000,33
17.10833,33
17.11667,33
17.12500,33
17.13333,33
17.14167,34
17.15000,34
17.15833,33
17.16667,32
17.17500,32
17.18333,31
17.19167,32
17.20000,33
17.20833,33
17.21667,33
17.22500,33
17.23333,32
17.24167,32
17.25000,32
17.25833,33
17.26667,33
17.27500,33
17.28333,34
17.29167,33
17.30000,32
17.30833,31
17.31667,31
17.32500,30
17.33333,30
17.34167,30
17.35000,29
17.35833,29
17.36667,30
17.37500,30
17.38333,31
17.39167,32
17.40000,32
17.40833,33
17.41667,32
17.42500,32
17.43333,32
17.44167,31
17.45000,30
17.45833,30
17.46667,30
17.47500,30
17.48333,30
17.49167,29
17.50000,30
17.50833,31
17.51667,31
17.52500,31
17.53333,31
17.54167,32
17.55000,31
17.55833,31
17.56667,30
17.57500,29
17.58333,30
17.59167,30
17.60000,30
17.60833,29
17.61667,30
17.62500,30
17.63333,32
17.64167,32
17.65000,32
17.65833,31
17.66667,29
17.67500,29
17.68333,29
17.69167,29
17.70000,30
17.70833,30
17.71667,30
17.72500,29
17.73333,29
17.74167,29
17.75000,30
17.75833,30
17.76667,29
17.77500,29
17.78333,29
17.79167,29
17.80000,28
17.80833,28
17.81667,28
17.82500,28
17.83333,29
17.84167,30
17.85000,30
17.85833,31
17.86667,30
17.87500,29
17.88333,28
17.89167,28
17.90000,27
17.90833,26
17.91667,26
17.92500,26
17.93333,27
17.94167,28
17.95000,29
17.95833,28
17.96667,28
17.97500,28
17.98333,28
17.99167,27
18.00000,27
18.00833,27
18.01667,27
18.02500,27
18.03333,27
18.04167,27
18.05000,27
18.05833,27
18.06667,28
18.07500,28
18.08333,28
18.09167,28
18.10000,28
18.10833,28
18.11667,27
18.12500,27
18.13333,27
18.14167,27
18.15000,27
18.15833,26
18.16667,27
18.17500,27
18.18333,27
18.19167,27
18.20000,27
18.20833,28
18.21667,28
18.22500,29
18.23333,29
18.24167,29
18.25000,28
18.25833,27
18.26667,27
18.27500,27
18.28333,27
18.29167,27
18.30000,27
18.30833,27
18.31667,28
18.32500,28
18.33333,28
18.34167,28
18.35000,28
18.35833,29
18.36667,30
18.37500,29
18.38333,29
18.39167,28
18.40000,28
18.40833,29
18.41667,28
18.42500,27
18.43333,27
18.44167,27
18.45000,27
18.45833,27
18.46667,26
18.47500,27
18.48333,28
18.49167,27
18.50000,27
18.50833,27
18.51667,27
18.52500,26
18.53333,25
18.54167,26
18.55000,27
18.55833,28
18.56667,29
18.57500,29
18.58333,30
18.59167,30
18.60000,29
18.60833,28
18.61667,28
18.62500,27
18.63333,27
18.64167,28
18.65000,29
18.65833,28
18.66667,28
18.67500,28
18.68333,28
18.69167,27
18.70000,27
18.70833,27
18.71667,26
18.72500,26
18.73333,26
18.74167,26
18.75000,26
18.75833,26
18.76667,26
18.77500,26
18.78333,26
18.79167,27
18.80000,27
18.80833,27
18.81667,27
18.82500,26
18.83333,26
18.84167,26
18.85000,26
18.85833,26
18.86667,26
18.87500,26
18.88333,26
18.89167,27
18.90000,27
18.90833,27
18.91667,27
18.92500,28
18.93333,28
18.94167,27
18.95000,27
18.95833,27
18.96667,28
18.97500,28
18.98333,27
18.99167,27
19.00000,27
19.00833,27
19.01667,26
19.02500,25
19.03333,25
19.04167,25
19.05000,26
19.05833,27
19.06667,28
19.07500,28
19.08333,28
19.09167,28
19.10000,28
19.10833,28
19.11667,28
19.12500,27
19.13333,27
19.14167,27
19.15000,28
19.15833,29
19.16667,29
19.17500,28
19.18333,28
19.19167,28
19.20000,28
19.20833,28
19.21667,28
19.22500,28
19.23333,28
19.24167,28
19.25000,28
19.25833,28
19.26667,28
19.27500,28
19.28333,28
19.29167,28
19.30000,29
19.30833,29
19.31667,30
19.32500,29
19.33333,29
19.34167,29
19.35000,30
19.35833,30
19.36667,30
19.37500,29
19.38333,29
19.39167,30
19.40000,30
19.40833,30
19.41667,31
19.42500,30
19.43333,30
19.44167,30
19.45000,31
19.45833,31
19.46667,31
19.47500,30
19.48333,30
19.49167,29
19.50000,29
19.50833,29
19.51667,29
19.52500,29
19.53333,29
19.54167,29
19.55000,29
19.55833,29
19.56667,29
19.57500,30
19.58333,30
19.59167,30
19.60000,30
19.60833,30
19.61667,30
19.62500,32
19.63333,33
19.64167,34
19.65000,33
19.65833,32
19.66667,31
19.67500,32
19.68333,32
19.69167,33
19.70000,33
19.70833,33
19.71667,33
19.72500,33
19.73333,32
19.74167,32
19.75000,32
19.75833,31
19.76667,30
19.77500,31
19.78333,32
19.79167,33
19.80000,34
19.80833,34
19.81667,34
19.82500,33
19.83333,33
19.84167,32
19.85000,32
19.85833,33
19.86667,33
19.87500,33
19.88333,33
19.89167,34
19.90000,34
19.90833,34
19.91667,34
19.92500,34
19.93333,33
19.94167,34
19.95000,34
19.95833,34
19.96667,34
19.97500,34
19.98333,35
19.99167,35
20.00000,36
20.00833,36
20.01667,35
20.02500,34
20.03333,34
20.04167,33
20.05000,33
20.05833,33
20.06667,33
20.07500,34
20.08333,35
20.09167,36
20.10000,36
20.10833,36
20.11667,36
20.12500,37
20.13333,37
20.14167,36
20.15000,35
20.15833,35
20.16667,35
20.17500,35
20.18333,35
20.19167,35
20.20000,36
20.20833,36
20.21667,36
20.22500,35
20.23333,35
20.24167,36
20.25000,36
20.25833,36
20.26667,36
20.27500,36
20.28333,36
20.29167,36
20.30000,36
20.30833,37
20.31667,38
20.32500,39
20.33333,38
20.34167,37
20.35000,37
20.35833,38
20.36667,37
20.37500,37
20.38333,37
20.39167,37
20.40000,36
20.40833,36
20.41667,37
20.42500,38
20.43333,38
20.44167,37
20.45000,38
20.45833,38
20.46667,38
20.47500,38
20.48333,38
20.49167,38
20.50000,37
20.50833,37
20.51667,37
20.52500,37
20.53333,37
20.54167,38
20.55000,38
20.55833,37
20.56667,37
20.57500,37
20.58333,36
20.59167,36
20.60000,36
20.60833,37
20.61667,37
20.62500,38
20.63333,38
20.64167,37
20.65000,37
20.65833,37
20.66667,37
20.67500,37
20.68333,37
20.69167,37
20.70000,37
20.70833,37
20.71667,37
20.72500,37
20.73333,36
20.74167,37
20.75000,37
20.75833,38
20.76667,39
20.77500,39
20.78333,40
20.79167,39
20.80000,38
20.80833,38
20.81667,38
20.82500,39
20.83333,40
20.84167,40
20.85000,39
20.85833,39
20.86667,38
20.87500,38
20.88333,37
20.89167,37
20.90000,37
20.90833,37
20.91667,37
20.92500,37
20.93333,38
20.94167,39
20.95000,39
20.95833,39
20.96667,40
20.97500,40
20.98333,41
20.99167,40
21.00000,39
21.00833,39
21.01667,40
21.02500,40
21.03333,39
21.04167,37
21.05000,37
21.05833,37
21.06667,39
21.07500,39
21.08333,40
21.09167,40
21.10000,40
21.10833,40
21.11667,40
21.12500,41
21.13333,41
21.14167,42
21.15000,42
21.15833,42
21.16667,42
21.17500,42
21.18333,42
21.19167,41
21.20000,41
21.20833,41
21.21667,41
21.22500,41
21.23333,42
21.24167,42
21.25000,42
21.25833,42
21.26667,42
21.27500,42
21.28333,41
21.29167,42
21.30000,43
21.30833,43
21.31667,43
21.32500,43
21.33333,43
21.34167,42
21.35000,41
21.35833,41
21.36667,41
21.37500,41
21.38333,41
21.39167,42
21.40000,43
21.40833,44
21.41667,44
21.42500,44
21.43333,44
21.44167,44
21.45000,43
21.45833,42
21.46667,42
21.47500,43
21.48333,44
21.49167,45
21.50000,45
21.50833,45
21.51667,45
21.52500,43
21.53333,43
21.54167,43
21.55000,43
21.55833,44
21.56667,45
21.57500,45
21.58333,45
21.59167,45
21.60000,44
21.60833,45
21.61667,46
21.62500,46
21.63333,46
21.64167,46
21.65000,46
21.65833,45
21.66667,45
21.67500,45
21.68333,46
21.69167,46
21.70000,45
21.70833,46
21.71667,46
21.72500,45
21.73333,45
21.74167,46
21.75000,46
21.75833,46
21.76667,45
21.77500,46
21.78333,46
21.79167,46
21.80000,46
21.80833,47
21.81667,47
21.82500,47
21.83333,48
21.84167,48
21.85000,47
21.85833,47
21.86667,48
21.87500,48
21.88333,48
21.89167,48
21.90000,47
21.90833,47
21.91667,48
21.92500,48
21.93333,48
21.94167,48
21.95000,49
21.95833,48
21.96667,48
21.97500,47
21.98333,47
21.99167,48
22.00000,49
22.00833,50
22.01667,50
22.02500,51
22.03333,50
22.04167,49
22.05000,49
22.05833,49
22.06667,48
22.07500,48
22.08333,49
22.09167,50
22.10000,49
22.10833,49
22.11667,50
22.12500,49
22.13333,49
22.14167,50
22.15000,51
22.15833,50
22.16667,50
22.17500,49
22.18333,49
22.19167,50
22.20000,50
22.20833,50
22.21667,49
22.22500,50
22.23333,51
22.24167,51
22.25000,52
22.25833,52
22.26667,52
22.27500,51
22.28333,50
22.29167,51
22.30000,51
22.30833,51
22.31667,51
22.32500,51
22.33333,51
22.34167,51
22.35000,52
22.35833,52
22.36667,53
22.37500,53
22.38333,52
22.39167,52
22.40000,53
22.40833,53
22.41667,53
22.42500,52
22.43333,52
22.44167,52
22.45000,53
22.45833,53
22.46667,54
22.47500,53
22.48333,52
22.49167,52
22.50000,52
22.50833,51
22.51667,51
22.52500,51
22.53333,52
22.54167,52
22.55000,53
22.55833,54
22.56667,54
22.57500,54
22.58333,53
22.59167,53
22.60000,53
22.60833,53
22.61667,53
22.62500,52
22.63333,52
22.64167,52
22.65000,52
22.65833,52
22.66667,52
22.67500,52
22.68333,53
22.69167,53
22.70000,54
22.70833,54
22.71667,54
22.72500,54
22.73333,55
22.74167,55
22.75000,54
22.75833,54
22.76667,54
22.77500,55
22.78333,56
22.79167,55
22.80000,55
22.80833,55
22.81667,55
22.82500,55
22.83333,54
22.84167,54
22.85000,54
22.85833,54
22.86667,55
22.87500,56
22.88333,56
22.89167,55
22.90000,55
22.90833,55
22.91667,55
22.92500,56
22.93333,57
22.94167,56
22.95000,57
22.95833,57
22.96667,58
22.97500,58
22.98333,57
22.99167,58
23.00000,58
23.00833,57
23.01667,57
23.02500,56
23.03333,57
23.04167,57
23.05000,56
23.05833,57
23.06667,57
23.07500,58
23.08333,58
23.09167,59
23.10000,58
23.10833,57
23.11667,57
23.12500,57
23.13333,57
23.14167,58
23.15000,58
23.15833,59
23.16667,59
23.17500,59
23.18333,59
23.19167,59
23.20000,59
23.20833,59
23.21667,60
23.22500,60
23.23333,60
23.24167,60
23.25000,60
23.25833,60
23.26667,61
23.27500,61
23.28333,61
23.29167,61
23.30000,60
23.30833,59
23.31667,60
23.32500,60
23.33333,60
23.34167,60
23.35000,60
23.35833,61
23.36667,62
23.37500,62
23.38333,62
23.39167,62
23.40000,62
23.40833,63
23.41667,63
23.42500,63
23.43333,63
23.44167,62
23.45000,62
23.45833,62
23.46667,62
23.47500,62
23.48333,62
23.49167,62
23.50000,63
23.50833,62
23.51667,61
23.52500,62
23.53333,62
23.54167,63
23.55000,63
23.55833,63
23.56667,64
23.57500,64
23.58333,63
23.59167,62
23.60000,62
23.60833,62
23.61667,64
23.62500,64
23.63333,65
23.64167,65
23.65000,65
23.65833,65
23.66667,65
23.67500,65
23.68333,66
23.69167,67
23.70000,66
23.70833,66
23.71667,66
23.72500,65
23.73333,65
23.74167,64
23.75000,65
23.75833,65
23.76667,65
23.77500,65
23.78333,66
23.79167,66
23.80000,66
23.80833,67
23.81667,68
23.82500,68
23.83333,66
23.84167,66
23.85000,66
23.85833,66
23.86667,67
23.87500,67
23.88333,67
23.89167,67
23.90000,67
23.90833,67
23.91667,67
23.92500,68
23.93333,68
23.94167,68
23.95000,68
23.95833,68
23.96667,68
23.97500,69
23.98333,70
23.99167,70
24.00000,70
24.00833,70
24.01667,70
24.02500,71
24.03333,73
24.04167,73
24.05000,72
24.05833,72
24.06667,71
24.07500,71
24.08333,70
24.09167,70
24.10000,71
24.10833,71
24.11667,71
24.12500,71
24.13333,71
24.14167,71
24.15000,71
24.15833,72
24.16667,73
24.17500,73
24.18333,74
24.19167,73
24.20000,74
24.20833,76
24.21667,76
24.22500,76
24.23333,76
24.24167,76
24.25000,76
24.25833,76
24.26667,78
24.27500,79
24.28333,80
24.29167,81
24.30000,81
24.30833,82
24.31667,82
24.32500,83
24.33333,84
24.34167,84
24.35000,83
24.35833,84
24.36667,84
24.37500,85
24.38333,87
24.39167,89
24.40000,90
24.40833,90
24.41667,91
24.42500,91
24.43333,92
24.44167,93
24.45000,94
24.45833,95
24.46667,96
24.47500,96
24.48333,97
24.49167,97
24.50000,96
24.50833,96
24.51667,96
24.52500,97
24.53333,97
24.54167,97
24.55000,97
24.55833,97
24.56667,97
24.57500,98
24.58333,98
24.59167,98
24.60000,97
24.60833,97
24.61667,96
24.62500,96
24.63333,96
24.64167,96
24.65000,95
24.65833,95
24.66667,94
24.67500,94
24.68333,93
24.69167,93
24.70000,93
24.70833,92
24.71667,92
24.72500,91
24.73333,92
24.74167,92
24.75000,91
24.75833,90
24.76667,89
24.77500,89
24.78333,89
24.79167,89
24.80000,89
24.80833,88
24.81667,87
24.82500,86
24.83333,86
24.84167,87
24.85000,87
24.85833,88
24.86667,88
24.87500,88
24.88333,87
24.89167,87
24.90000,87
24.90833,88
24.91667,87
24.92500,87
24.93333,86
24.94167,86
24.95000,86
24.95833,85
24.96667,85
24.97500,85
24.98333,85
24.99167,85
25.00000,86
25.00833,87
25.01667,88
25.02500,88
25.03333,88
25.04167,88
25.05000,89
25.05833,88
25.06667,88
25.07500,88
25.08333,88
25.09167,89
25.10000,88
25.10833,89
25.11667,88
25.12500,87
25.13333,88
25.14167,90
25.15000,90
25.15833,90
25.16667,90
25.17500,90
25.18333,90
25.19167,89
25.20000,89
25.20833,89
25.21667,90
25.22500,90
25.23333,91
25.24167,92
25.25000,93
25.25833,93
25.26667,94
25.27500,94
25.28333,94
25.29167,94
25.30000,93
25.30833,92
25.31667,92
25.32500,92
25.33333,92
25.34167,91
25.35000,92
25.35833,92
25.36667,92
25.37500,93
25.38333,93
25.39167,93
25.40000,94
25.40833,95
25.41667,95
25.42500,96
25.43333,96
25.44167,95
25.45000,95
25.45833,95
25.46667,96
25.47500,97
25.48333,98
25.49167,97
25.50000,97
25.50833,97
25.51667,98
25.52500,99
25.53333,99
25.54167,98
25.55000,98
25.55833,98
25.56667,98
25.57500,99
25.58333,99
25.59167,100
25.60000,101
25.60833,101
25.61667,102
25.62500,101
25.63333,101
25.64167,102
25.65000,102
25.65833,102
25.66667,102
25.67500,102
25.68333,102
25.69167,101
25.70000,101
25.70833,102
25.71667,102
25.72500,102
25.73333,102
25.74167,103
25.75000,103
25.75833,103
25.76667,104
25.77500,104
25.78333,103
25.79167,104
25.80000,104
25.80833,104
25.81667,104
25.82500,104
25.83333,104
25.84167,105
25.85000,106
25.85833,106
25.86667,106
25.87500,107
25.88333,108
25.89167,108
25.90000,108
25.90833,108
25.91667,107
25.92500,108
25.93333,108
25.94167,108
25.95000,109
25.95833,109
25.96667,109
25.97500,109
25.98333,109
25.99167,109
26.00000,109
26.00833,108
26.01667,108
26.02500,109
26.03333,110
26.04167,110
26.05000,110
26.05833,110
26.06667,110
26.07500,110
26.08333,109
26.09167,108
26.10000,108
26.10833,109
26.11667,109
26.12500,109
26.13333,110
26.14167,111
26.15000,112
26.15833,113
26.16667,112
26.17500,111
26.18333,111
26.19167,111
26.20000,111
26.20833,111
26.21667,110
26.22500,110
26.23333,110
26.24167,112
26.25000,113
26.25833,113
26.26667,113
26.27500,113
26.28333,113
26.29167,114
26.30000,114
26.30833,115
26.31667,115
26.32500,114
26.33333,113
26.34167,113
26.35000,113
26.35833,114
26.36667,115
26.37500,115
26.38333,115
26.39167,114
26.40000,114
26.40833,115
26.41667,115
26.42500,116
26.43333,115
26.44167,116
26.45000,116
26.45833,117
26.46667,117
26.47500,118
26.48333,118
26.49167,118
26.50000,119
26.50833,119
26.51667,120
26.52500,120
26.53333,120
26.54167,120
26.55000,119
26.55833,119
26.56667,119
26.57500,119
26.58333,120
26.59167,120
26.60000,120
26.60833,120
26.61667,120
26.62500,120
26.63333,120
26.64167,121
26.65000,122
26.65833,122
26.66667,122
26.67500,123
26.68333,123
26.69167,123
26.70000,123
26.70833,123
26.71667,124
26.72500,124
26.73333,123
26.74167,123
26.75000,123
26.75833,124
26.76667,124
26.77500,124
26.78333,124
26.79167,124
26.80000,124
26.80833,123
26.81667,123
26.82500,124
26.83333,126
26.84167,126
26.85000,126
26.85833,125
26.86667,126
26.87500,126
26.88333,127
26.89167,126
26.90000,126
26.90833,126
26.91667,126
26.92500,125
26.93333,124
26.94167,124
26.95000,125
26.95833,125
26.96667,125
26.97500,125
26.98333,125
26.99167,126
27.00000,127
27.00833,127
27.01667,127
27.02500,127
27.03333,127
27.04167,127
27.05000,127
27.05833,126
27.06667,126
27.07500,126
27.08333,126
27.09167,125
27.10000,125
27.10833,125
27.11667,126
27.12500,127
27.13333,126
27.14167,126
27.15000,126
27.15833,125
27.16667,125
27.17500,125
27.18333,125
27.19167,126
27.20000,127
27.20833,128
27.21667,129
27.22500,129
27.23333,129
27.24167,129
27.25000,128
27.25833,128
27.26667,127
27.27500,128
27.28333,128
27.29167,128
27.30000,128
27.30833,128
27.31667,127
27.32500,127
27.33333,128
27.34167,127
27.35000,127
27.35833,128
27.36667,128
27.37500,129
27.38333,128
27.39167,129
27.40000,129
27.40833,129
27.41667,129
27.42500,130
27.43333,129
27.44167,130
27.45000,129
27.45833,129
27.46667,129
27.47500,129
27.48333,130
27.49167,130
27.50000,130
27.50833,129
27.51667,128
27.52500,129
27.53333,129
27.54167,130
27.55000,131
27.55833,132
27.56667,132
27.57500,131
27.58333,130
27.59167,130
27.60000,130
27.60833,130
27.61667,130
27.62500,130
27.63333,130
27.64167,130
27.65000,130
27.65833,129
27.66667,129
27.67500,129
27.68333,129
27.69167,130
27.70000,130
27.70833,130
27.71667,129
27.72500,129
27.73333,129
27.74167,129
27.75000,129
27.75833,129
27.76667,130
27.77500,130
27.78333,130
27.79167,130
27.80000,131
27.80833,131
27.81667,131
27.82500,130
27.83333,129
27.84167,130
27.85000,129
27.85833,129
27.86667,128
27.87500,129
27.88333,129
27.89167,129
27.90000,128
27.90833,127
27.91667,127
27.92500,128
27.93333,130
27.94167,130
27.95000,130
27.95833,130
27.96667,129
27.97500,128
27.98333,129
27.99167,129
28.00000,130
28.00833,130
28.01667,129
28.02500,127
28.03333,126
28.04167,125
28.05000,126
28.05833,126
28.06667,126
28.07500,127
28.08333,127
28.09167,127
28.10000,127
28.10833,128
28.11667,128
28.12500,127
28.13333,127
28.14167,128
28.15000,129
28.15833,129
28.16667,128
28.17500,127
28.18333,127
28.19167,127
28.20000,128
28.20833,128
28.21667,128
28.22500,128
28.23333,128
28.24167,127
28.25000,126
28.25833,126
28.26667,126
28.27500,127
28.28333,127
28.29167,126
28.30000,126
28.30833,126
28.31667,126
28.32500,127
28.33333,128
28.34167,128
28.35000,127
28.35833,126
28.36667,125
28.37500,125
28.38333,124
28.39167,125
28.40000,126
28.40833,126
28.41667,126
28.42500,125
28.43333,126
28.44167,125
28.45000,125
28.45833,125
28.46667,125
28.47500,125
28.48333,125
28.49167,125
28.50000,126
28.50833,125
28.51667,125
28.52500,124
28.53333,124
28.54167,124
28.55000,124
28.55833,124
28.56667,124
28.57500,125
28.58333,126
28.59167,126
28.60000,126
28.60833,127
28.61667,127
28.62500,126
28.63333,124
28.64167,125
28.65000,125
28.65833,125
28.66667,124
28.67500,124
28.68333,123
28.69167,123
28.70000,124
28.70833,124
28.71667,124
28.72500,124
28.73333,124
28.74167,124
28.75000,124
28.75833,124
28.76667,124
28.77500,123
28.78333,124
28.79167,124
28.80000,124
28.80833,124
28.81667,125
28.82500,124
28.83333,124
28.84167,125
28.85000,124
28.85833,124
28.86667,124
28.87500,124
28.88333,124
28.89167,123
28.90000,122
28.90833,122
28.91667,122
28.92500,122
28.93333,123
28.94167,123
28.95000,123
28.95833,122
28.96667,123
28.97500,123
28.98333,123
28.99167,122
29.00000,121
29.00833,121
29.01667,122
29.02500,123
29.03333,124
29.04167,125
29.05000,125
29.05833,125
29.06667,124
29.07500,123
29.08333,123
29.09167,123
29.10000,123
29.10833,123
29.11667,123
29.12500,123
29.13333,124
29.14167,124
29.15000,123
29.15833,122
29.16667,123
29.17500,124
29.18333,124
29.19167,124
29.20000,124
29.20833,124
29.21667,124
29.22500,123
29.23333,124
29.24167,124
29.25000,124
29.25833,125
29.26667,126
29.27500,126
29.28333,127
29.29167,127
29.30000,126
29.30833,126
29.31667,126
29.32500,126
29.33333,127
29.34167,128
29.35000,130
29.35833,131
29.36667,131
29.37500,131
29.38333,130
29.39167,130
29.40000,131
29.40833,132
29.41667,134
29.42500,135
29.43333,135
29.44167,135
29.45000,135
29.45833,135
29.46667,136
29.47500,137
29.48333,137
29.49167,138
29.50000,139
29.50833,140
29.51667,141
29.52500,142
29.53333,143
29.54167,144
29.55000,145
29.55833,146
29.56667,147
29.57500,147
29.58333,147
29.59167,148
29.60000,149
29.60833,151
29.61667,152
29.62500,153
29.63333,154
29.64167,154
29.65000,155
29.65833,156
29.66667,158
29.67500,160
29.68333,161
29.69167,162
29.70000,163
29.70833,164
29.71667,165
29.72500,166
29.73333,168
29.74167,168
29.75000,167
29.75833,168
29.76667,169
29.77500,169
29.78333,170
29.79167,172
29.80000,173
29.80833,173
29.81667,174
29.82500,174
29.83333,175
29.84167,175
29.85000,176
29.85833,175
29.86667,175
29.87500,175
29.88333,176
29.89167,177
29.90000,178
29.90833,178
29.91667,178
29.92500,178
29.93333,178
29.94167,178
29.95000,179
29.95833,178
29.96667,176
29.97500,175
29.98333,175
29.99167,173
30.00000,172

[LC Chromatogram(Detector B-Ch1)]
Interval(msec),500
# of Points,3601
Start Time(min),0.000
End Time(min),30.000
Intensity Units,mV
Intensity Multiplier,0.001
R.Time (min),Intensity
0.00000,-6
0.00833,-6
0.01667,-0
0.02500,-2
0.03333,-4
0.04167,-8
0.05000,-11
0.05833,-15
0.06667,-17
0.07500,-19
0.08333,-19
0.09167,-19
0.10000,-17
0.10833,-15
0.11667,-13
0.12500,-10
0.13333,-7
0.14167,-5
0.15000,-3
0.15833,-1
0.16667,0
0.17500,1
0.18333,2
0.19167,3
0.20000,4
0.20833,4
0.21667,4
0.22500,5
0.23333,6
0.24167,6
0.25000,7
0.25833,7
0.26667,7
0.27500,7
0.28333,7
0.29167,7
0.30000,7
0.30833,7
0.31667,8
0.32500,8
0.33333,8
0.34167,9
0.35000,9
0.35833,9
0.36667,9
0.37500,10
0.38333,11
0.39167,11
0.40000,11
0.40833,12
0.41667,13
0.42500,13
0.43333,14
0.44167,15
0.45000,16
0.45833,17
0.46667,17
0.47500,18
0.48333,18
0.49167,19
0.50000,20
0.50833,21
0.51667,21
0.52500,22
0.53333,22
0.54167,23
0.55000,24
0.55833,24
0.56667,25
0.57500,26
0.58333,27
0.59167,28
0.60000,29
0.60833,30
0.61667,30
0.62500,31
0.63333,31
0.64167,31
0.65000,30
0.65833,30
0.66667,28
0.67500,27
0.68333,26
0.69167,25
0.70000,24
0.70833,23
0.71667,23
0.72500,23
0.73333,22
0.74167,22
0.75000,22
0.75833,22
0.76667,22
0.77500,22
0.78333,23
0.79167,24
0.80000,24
0.80833,24
0.81667,24
0.82500,24
0.83333,25
0.84167,25
0.85000,25
0.85833,26
0.86667,26
0.87500,26
0.88333,27
0.89167,27
0.90000,27
0.90833,27
0.91667,27
0.92500,27
0.93333,26
0.94167,26
0.95000,26
0.95833,26
0.96667,26
0.97500,25
0.98333,25
0.99167,24
1.00000,24
1.00833,24
1.01667,24
1.02500,24
1.03333,24
1.04167,24
1.05000,24
1.05833,24
1.06667,23
1.07500,23
1.08333,23
1.09167,23
1.10000,23
1.10833,22
1.11667,22
1.12500,21
1.13333,21
1.14167,20
1.15000,20
1.15833,19
1.16667,19
1.17500,19
1.18333,19
1.19167,19
1.20000,19
1.20833,19
1.21667,19
1.22500,19
1.23333,18
1.24167,18
1.25000,18
1.25833,18
1.26667,18
1.27500,19
1.28333,19
1.29167,19
1.30000,19
1.30833,19
1.31667,19
1.32500,19
1.33333,19
1.34167,19
1.35000,19
1.35833,19
1.36667,19
1.37500,19
1.38333,20
1.39167,20
1.40000,20
1.40833,20
1.41667,20
1.42500,20
1.43333,20
1.44167,20
1.45000,20
1.45833,19
1.46667,19
1.47500,19
1.48333,18
1.49167,18
1.50000,18
1.50833,18
1.51667,18
1.52500,18
1.53333,18
1.54167,18
1.55000,18
1.55833,18
1.56667,18
1.57500,18
1.58333,18
1.59167,18
1.60000,18
1.60833,18
1.61667,17
1.62500,17
1.63333,17
1.64167,17
1.65000,18
1.65833,17
1.66667,17
1.67500,17
1.68333,17
1.69167,17
1.70000,17
1.70833,17
1.71667,17
1.72500,17
1.73333,18
1.74167,17
1.75000,17
1.75833,17
1.76667,17
1.77500,16
1.78333,16
1.79167,17
1.80000,17
1.80833,17
1.81667,17
1.82500,17
1.83333,17
1.84167,17
1.85000,17
1.85833,17
1.86667,17
1.87500,17
1.88333,17
1.89167,17
1.90000,16
1.90833,16
1.91667,16
1.92500,16
1.93333,16
1.94167,16
1.95000,16
1.95833,16
1.96667,16
1.97500,16
1.98333,16
1.99167,16
2.00000,15
2.00833,15
2.01667,16
2.02500,16
2.03333,16
2.04167,16
2.05000,16
2.05833,16
2.06667,16
2.07500,15
2.08333,15
2.09167,15
2.10000,15
2.10833,15
2.11667,15
2.12500,15
2.13333,15
2.14167,15
2.15000,15
2.15833,15
2.16667,15
2.17500,15
2.18333,14
2.19167,14
2.20000,14
2.20833,13
2.21667,13
2.22500,14
2.23333,14
2.24167,14
2.25000,14
2.25833,14
2.26667,14
2.27500,13
2.28333,13
2.29167,13
2.30000,13
2.30833,14
2.31667,14
2.32500,14
2.33333,14
2.34167,14
2.35000,14
2.35833,14
2.36667,15
2.37500,15
2.38333,15
2.39167,15
2.40000,15
2.40833,16
2.41667,16
2.42500,16
2.43333,16
2.44167,16
2.45000,17
2.45833,17
2.46667,18
2.47500,19
2.48333,19
2.49167,20
2.50000,20
2.50833,20
2.51667,20
2.52500,21
2.53333,22
2.54167,23
2.55000,23
2.55833,24
2.56667,25
2.57500,25
2.58333,26
2.59167,27
2.60000,28
2.60833,29
2.61667,30
2.62500,30
2.63333,31
2.64167,31
2.65000,32
2.65833,32
2.66667,33
2.67500,34
2.68333,35
2.69167,35
2.70000,36
2.70833,36
2.71667,37
2.72500,37
2.73333,37
2.74167,37
2.75000,37
2.75833,38
2.76667,37
2.77500,37
2.78333,37
2.79167,38
2.80000,37
2.80833,37
2.81667,37
2.82500,37
2.83333,37
2.84167,36
2.85000,36
2.85833,35
2.86667,34
2.87500,33
2.88333,33
2.89167,33
2.90000,32
2.90833,32
2.91667,31
2.92500,30
2.93333,29
2.94167,28
2.95000,28
2.95833,27
2.96667,26
2.97500,25
2.98333,24
2.99167,23
3.00000,22
3.00833,22
3.01667,21
3.02500,20
3.03333,19
3.04167,18
3.05000,17
3.05833,16
3.06667,15
3.07500,13
3.08333,12
3.09167,11
3.10000,10
3.10833,9
3.11667,8
3.12500,7
3.13333,6
3.14167,5
3.15000,4
3.15833,4
3.16667,3
3.17500,2
3.18333,2
3.19167,1
3.20000,1
3.20833,1
3.21667,0
3.22500,-1
3.23333,-1
3.24167,-2
3.25000,-2
3.25833,-3
3.26667,-3
3.27500,-3
3.28333,-3
3.29167,-3
3.30000,-4
3.30833,-4
3.31667,-4
3.32500,-4
3.33333,-3
3.34167,-3
3.35000,-2
3.35833,-1
3.36667,-1
3.37500,-1
3.38333,-0
3.39167,1
3.40000,1
3.40833,2
3.41667,2
3.42500,3
3.43333,3
3.44167,4
3.45000,4
3.45833,5
3.46667,6
3.47500,6
3.48333,7
3.49167,7
3.50000,8
3.50833,9
3.51667,9
3.52500,10
3.53333,11
3.54167,12
3.55000,13
3.55833,14
3.56667,15
3.57500,16
3.58333,16
3.59167,17
3.60000,18
3.60833,18
3.61667,19
3.62500,19
3.63333,20
3.64167,20
3.65000,21
3.65833,21
3.66667,21
3.67500,21
3.68333,21
3.69167,22
3.70000,22
3.70833,22
3.71667,23
3.72500,23
3.73333,23
3.74167,23
3.75000,23
3.75833,23
3.76667,23
3.77500,23
3.78333,23
3.79167,23
3.80000,23
3.80833,23
3.81667,23
3.82500,23
3.83333,23
3.84167,22
3.85000,22
3.85833,22
3.86667,22
3.87500,21
3.88333,20
3.89167,20
3.90000,20
3.90833,20
3.91667,20
3.92500,20
3.93333,19
3.94167,19
3.95000,19
3.95833,19
3.96667,19
3.97500,19
3.98333,19
3.99167,18
4.00000,18
4.00833,18
4.01667,17
4.02500,17
4.03333,17
4.04167,17
4.05000,17
4.05833,18
4.06667,18
4.07500,18
4.08333,18
4.09167,18
4.10000,18
4.10833,18
4.11667,19
4.12500,18
4.13333,18
4.14167,18
4.15000,19
4.15833,19
4.16667,19
4.17500,20
4.18333,20
4.19167,20
4.20000,21
4.20833,21
4.21667,21
4.22500,21
4.23333,21
4.24167,21
4.25000,21
4.25833,21
4.26667,21
4.27500,21
4.28333,21
4.29167,21
4.30000,21
4.30833,20
4.31667,20
4.32500,20
4.33333,19
4.34167,19
4.35000,18
4.35833,18
4.36667,18
4.37500,18
4.38333,18
4.39167,17
4.40000,17
4.40833,17
4.41667,17
4.42500,17
4.43333,16
4.44167,16
4.45000,16
4.45833,15
4.46667,15
4.47500,14
4.48333,13
4.49167,13
4.50000,13
4.50833,12
4.51667,12
4.52500,12
4.53333,12
4.54167,12
4.55000,12
4.55833,12
4.56667,12
4.57500,11
4.58333,10
4.59167,10
4.60000,10
4.60833,10
4.61667,10
4.62500,10
4.63333,10
4.64167,9
4.65000,9
4.65833,10
4.66667,10
4.67500,10
4.68333,10
4.69167,10
4.70000,10
4.70833,10
4.71667,10
4.72500,11
4.73333,11
4.74167,11
4.75000,12
4.75833,12
4.76667,13
4.77500,13
4.78333,13
4.79167,13
4.80000,13
4.80833,14
4.81667,14
4.82500,15
4.83333,15
4.84167,16
4.85000,16
4.85833,16
4.86667,17
4.87500,17
4.88333,17
4.89167,17
4.90000,17
4.90833,17
4.91667,17
4.92500,17
4.93333,18
4.94167,18
4.95000,18
4.95833,18
4.96667,17
4.97500,17
4.98333,17
4.99167,17
5.00000,17
5.00833,17
5.01667,17
5.02500,18
5.03333,18
5.04167,18
5.05000,18
5.05833,18
5.06667,18
5.07500,17
5.08333,17
5.09167,17
5.10000,17
5.10833,16
5.11667,16
5.12500,16
5.13333,16
5.14167,15
5.15000,15
5.15833,14
5.16667,14
5.17500,13
5.18333,13
5.19167,13
5.20000,14
5.20833,14
5.21667,14
5.22500,14
5.23333,14
5.24167,14
5.25000,14
5.25833,14
5.26667,14
5.27500,14
5.28333,14
5.29167,15
5.30000,15
5.30833,15
5.31667,15
5.32500,16
5.33333,17
5.34167,17
5.35000,17
5.35833,17
5.36667,17
5.37500,18
5.38333,18
5.39167,19
5.40000,19
5.40833,19
5.41667,20
5.42500,20
5.43333,20
5.44167,21
5.45000,21
5.45833,22
5.46667,23
5.47500,24
5.48333,24
5.49167,25
5.50000,25
5.50833,25
5.51667,26
5.52500,26
5.53333,27
5.54167,27
5.55000,27
5.55833,27
5.56667,27
5.57500,27
5.58333,27
5.59167,27
5.60000,27
5.60833,27
5.61667,27
5.62500,27
5.63333,27
5.64167,27
5.65000,26
5.65833,26
5.66667,26
5.67500,26
5.68333,25
5.69167,25
5.70000,24
5.70833,23
5.71667,23
5.72500,22
5.73333,21
5.74167,20
5.75000,19
5.75833,19
5.76667,18
5.77500,17
5.78333,16
5.79167,15
5.80000,15
5.80833,14
5.81667,13
5.82500,12
5.83333,11
5.84167,11
5.85000,10
5.85833,8
5.86667,7
5.87500,6
5.88333,5
5.89167,3
5.90000,3
5.90833,2
5.91667,1
5.92500,1
5.93333,1
5.94167,0
5.95000,-0
5.95833,-0
5.96667,-1
5.97500,-1
5.98333,-1
5.99167,-1
6.00000,-2
6.00833,-2
6.01667,-3
6.02500,-3
6.03333,-3
6.04167,-3
6.05000,-2
6.05833,-1
6.06667,-1
6.07500,-1
6.08333,-1
6.09167,-0
6.10000,-0
6.10833,0
6.11667,0
6.12500,0
6.13333,1
6.14167,2
6.15000,2
6.15833,3
6.16667,4
6.17500,5
6.18333,5
6.19167,6
6.20000,6
6.20833,6
6.21667,7
6.22500,8
6.23333,8
6.24167,9
6.25000,10
6.25833,10
6.26667,11
6.27500,11
6.28333,12
6.29167,12
6.30000,13
6.30833,13
6.31667,13
6.32500,13
6.33333,14
6.34167,14
6.35000,14
6.35833,15
6.36667,15
6.37500,15
6.38333,15
6.39167,15
6.40000,15
6.40833,15
6.41667,15
6.42500,15
6.43333,16
6.44167,15
6.45000,15
6.45833,15
6.46667,16
6.47500,16
6.48333,16
6.49167,16
6.50000,16
6.50833,16
6.51667,16
6.52500,16
6.53333,16
6.54167,15
6.55000,15
6.55833,15
6.56667,15
6.57500,15
6.58333,15
6.59167,15
6.60000,15
6.60833,15
6.61667,15
6.62500,15
6.63333,15
6.64167,15
6.65000,15
6.65833,15
6.66667,15
6.67500,16
6.68333,16
6.69167,16
6.70000,16
6.70833,16
6.71667,16
6.72500,16
6.73333,17
6.74167,17
6.75000,17
6.75833,17
6.76667,18
6.77500,18
6.78333,18
6.79167,18
6.80000,18
6.80833,18
6.81667,19
6.82500,19
6.83333,19
6.84167,19
6.85000,19
6.85833,19
6.86667,19
6.87500,19
6.88333,19
6.89167,19
6.90000,19
6.90833,18
6.91667,18
6.92500,18
6.93333,18
6.94167,18
6.95000,18
6.95833,17
6.96667,17
6.97500,16
6.98333,16
6.99167,16
7.00000,16
7.00833,16
7.01667,16
7.02500,16
7.03333,15
7.04167,15
7.05000,15
7.05833,15
7.06667,14
7.07500,14
7.08333,14
7.09167,13
7.10000,13
7.10833,12
7.11667,12
7.12500,12
7.13333,12
7.14167,13
7.15000,13
7.15833,12
7.16667,12
7.17500,12
7.18333,11
7.19167,11
7.20000,12
7.20833,12
7.21667,12
7.22500,12
7.23333,12
7.24167,12
7.25000,12
7.25833,12
7.26667,13
7.27500,13
7.28333,13
7.29167,12
7.30000,12
7.30833,11
7.31667,11
7.32500,11
7.33333,11
7.34167,11
7.35000,11
7.35833,12
7.36667,12
7.37500,12
7.38333,12
7.39167,12
7.40000,11
7.40833,11
7.41667,11
7.42500,11
7.43333,11
7.44167,11
7.45000,11
7.45833,10
7.46667,10
7.47500,10
7.48333,10
7.49167,10
7.50000,10
7.50833,10
7.51667,10
7.52500,10
7.53333,9
7.54167,9
7.55000,10
7.55833,10
7.56667,11
7.57500,11
7.58333,11
7.59167,12
7.60000,12
7.60833,12
7.61667,12
7.62500,13
7.63333,13
7.64167,13
7.65000,14
7.65833,14
7.66667,14
7.67500,14
7.68333,15
7.69167,15
7.70000,16
7.70833,16
7.71667,17
7.72500,17
7.73333,17
7.74167,17
7.75000,18
7.75833,18
7.76667,19
7.77500,19
7.78333,19
7.79167,19
7.80000,20
7.80833,20
7.81667,20
7.82500,21
7.83333,21
7.84167,21
7.85000,21
7.85833,21
7.86667,22
7.87500,22
7.88333,22
7.89167,22
7.90000,22
7.90833,22
7.91667,22
7.92500,23
7.93333,23
7.94167,23
7.95000,23
7.95833,23
7.96667,23
7.97500,24
7.98333,23
7.99167,23
8.00000,23
8.00833,23
8.01667,23
8.02500,23
8.03333,23
8.04167,23
8.05000,22
8.05833,22
8.06667,22
8.07500,22
8.08333,22
8.09167,22
8.10000,21
8.10833,21
8.11667,21
8.12500,20
8.13333,20
8.14167,20
8.15000,20
8.15833,19
8.16667,19
8.17500,19
8.18333,18
8.19167,18
8.20000,17
8.20833,17
8.21667,16
8.22500,16
8.23333,16
8.24167,16
8.25000,16
8.25833,15
8.26667,15
8.27500,14
8.28333,14
8.29167,14
8.30000,14
8.30833,13
8.31667,13
8.32500,13
8.33333,13
8.34167,13
8.35000,13
8.35833,13
8.36667,13
8.37500,13
8.38333,13
8.39167,13
8.40000,13
8.40833,13
8.41667,13
8.42500,13
8.43333,12
8.44167,12
8.45000,12
8.45833,13
8.46667,13
8.47500,12
8.48333,12
8.49167,13
8.50000,12
8.50833,12
8.51667,12
8.52500,12
8.53333,11
8.54167,11
8.55000,11
8.55833,11
8.56667,11
8.57500,11
8.58333,11
8.59167,11
8.60000,11
8.60833,11
8.61667,11
8.62500,11
8.63333,11
8.64167,11
8.65000,11
8.65833,11
8.66667,11
8.67500,11
8.68333,11
8.69167,11
8.70000,11
8.70833,11
8.71667,12
8.72500,12
8.73333,12
8.74167,12
8.75000,12
8.75833,12
8.76667,12
8.77500,12
8.78333,12
8.79167,12
8.80000,13
8.80833,13
8.81667,13
8.82500,12
8.83333,12
8.84167,12
8.85000,12
8.85833,13
8.86667,13
8.87500,13
8.88333,13
8.89167,13
8.90000,14
8.90833,14
8.91667,14
8.92500,14
8.93333,14
8.94167,14
8.95000,14
8.95833,15
8.96667,15
8.97500,15
8.98333,15
8.99167,15
9.00000,14
9.00833,14
9.01667,14
9.02500,14
9.03333,14
9.04167,14
9.05000,14
9.05833,14
9.06667,14
9.07500,14
9.08333,14
9.09167,14
9.10000,13
9.10833,13
9.11667,13
9.12500,13
9.13333,13
9.14167,12
9.15000,12
9.15833,12
9.16667,11
9.17500,11
9.18333,10
9.19167,10
9.20000,11
9.20833,11
9.21667,11
9.22500,11
9.23333,11
9.24167,11
9.25000,12
9.25833,12
9.26667,12
9.27500,12
9.28333,12
9.29167,12
9.30000,12
9.30833,12
9.31667,12
9.32500,12
9.33333,12
9.34167,13
9.35000,14
9.35833,14
9.36667,15
9.37500,15
9.38333,15
9.39167,16
9.40000,16
9.40833,17
9.41667,18
9.42500,19
9.43333,20
9.44167,20
9.45000,21
9.45833,21
9.46667,21
9.47500,22
9.48333,23
9.49167,23
9.50000,24
9.50833,25
9.51667,26
9.52500,27
9.53333,27
9.54167,28
9.55000,28
9.55833,29
9.56667,29
9.57500,29
9.58333,30
9.59167,30
9.60000,30
9.60833,30
9.61667,30
9.62500,30
9.63333,30
9.64167,30
9.65000,30
9.65833,30
9.66667,30
9.67500,30
9.68333,30
9.69167,30
9.70000,30
9.70833,30
9.71667,30
9.72500,30
9.73333,29
9.74167,29
9.75000,29
9.75833,29
9.76667,29
9.77500,29
9.78333,29
9.79167,28
9.80000,28
9.80833,28
9.81667,27
9.82500,27
9.83333,27
9.84167,27
9.85000,27
9.85833,26
9.86667,26
9.87500,26
9.88333,26
9.89167,25
9.90000,25
9.90833,24
9.91667,24
9.92500,24
9.93333,24
9.94167,24
9.95000,23
9.95833,23
9.96667,22
9.97500,22
9.98333,22
9.99167,21
10.00000,21
10.00833,21
10.01667,21
10.02500,20
10.03333,20
10.04167,19
10.05000,19
10.05833,18
10.06667,18
10.07500,17
10.08333,17
10.09167,17
10.10000,16
10.10833,16
10.11667,15
10.12500,15
10.13333,14
10.14167,14
10.15000,14
10.15833,14
10.16667,13
10.17500,13
10.18333,13
10.19167,12
10.20000,12
10.20833,11
10.21667,11
10.22500,11
10.23333,11
10.24167,11
10.25000,11
10.25833,11
10.26667,11
10.27500,11
10.28333,11
10.29167,11
10.30000,11
10.30833,11
10.31667,11
10.32500,11
10.33333,11
10.34167,11
10.35000,11
10.35833,11
10.36667,11
10.37500,10
10.38333,10
10.39167,10
10.40000,10
10.40833,11
10.41667,11
10.42500,11
10.43333,11
10.44167,10
10.45000,10
10.45833,8
10.46667,6
10.47500,3
10.48333,-1
10.49167,-6
10.50000,-13
10.50833,-21
10.51667,-32
10.52500,-44
10.53333,-59
10.54167,-76
10.55000,-96
10.55833,-118
10.56667,-142
10.57500,-168
10.58333,-195
10.59167,-222
10.60000,-250
10.60833,-276
10.61667,-301
10.62500,-321
10.63333,-337
10.64167,-347
10.65000,-349
10.65833,-342
10.66667,-327
10.67500,-301
10.68333,-264
10.69167,-216
10.70000,-155
10.70833,-84
10.71667,-1
10.72500,92
10.73333,195
10.74167,305
10.75000,423
10.75833,545
10.76667,672
10.77500,801
10.78333,930
10.79167,1057
10.80000,1181
10.80833,1300
10.81667,1412
10.82500,1516
10.83333,1611
10.84167,1695
10.85000,1769
10.85833,1830
10.86667,1880
10.87500,1916
10.88333,1940
10.89167,1951
10.90000,1949
10.90833,1935
10.91667,1910
10.92500,1874
10.93333,1828
10.94167,1773
10.95000,1711
10.95833,1642
10.96667,1568
10.97500,1489
10.98333,1407
10.99167,1323
11.00000,1238
11.00833,1153
11.01667,1068
11.02500,986
11.03333,906
11.04167,829
11.05000,755
11.05833,684
11.06667,618
11.07500,556
11.08333,499
11.09167,446
11.10000,397
11.10833,352
11.11667,311
11.12500,275
11.13333,242
11.14167,212
11.15000,186
11.15833,162
11.16667,142
11.17500,124
11.18333,108
11.19167,94
11.20000,82
11.20833,72
11.21667,64
11.22500,56
11.23333,49
11.24167,43
11.25000,38
11.25833,34
11.26667,31
11.27500,28
11.28333,25
11.29167,23
11.30000,21
11.30833,19
11.31667,18
11.32500,17
11.33333,16
11.34167,16
11.35000,15
11.35833,15
11.36667,14
11.37500,14
11.38333,14
11.39167,14
11.40000,14
11.40833,13
11.41667,12
11.42500,12
11.43333,12
11.44167,11
11.45000,11
11.45833,11
11.46667,11
11.47500,11
11.48333,11
11.49167,11
11.50000,11
11.50833,11
11.51667,10
11.52500,10
11.53333,10
11.54167,10
11.55000,10
11.55833,10
11.56667,10
11.57500,10
11.58333,9
11.59167,9
11.60000,9
11.60833,8
11.61667,8
11.62500,8
11.63333,7
11.64167,7
11.65000,6
11.65833,6
11.66667,5
11.67500,5
11.68333,4
11.69167,4
11.70000,3
11.70833,2
11.71667,1
11.72500,0
11.73333,-0
11.74167,-1
11.75000,-2
11.75833,-3
11.76667,-4
11.77500,-4
11.78333,-4
11.79167,-5
11.80000,-5
11.80833,-5
11.81667,-6
11.82500,-6
11.83333,-7
11.84167,-7
11.85000,-7
11.85833,-8
11.86667,-8
11.87500,-8
11.88333,-8
11.89167,-8
11.90000,-8
11.90833,-8
11.91667,-8
11.92500,-8
11.93333,-7
11.94167,-7
11.95000,-7
11.95833,-6
11.96667,-6
11.97500,-5
11.98333,-4
11.99167,-3
12.00000,-2
12.00833,-2
12.01667,-1
12.02500,-1
12.03333,-1
12.04167,0
12.05000,1
12.05833,2
12.06667,3
12.07500,4
12.08333,5
12.09167,5
12.10000,6
12.10833,6
12.11667,7
12.12500,7
12.13333,7
12.14167,8
12.15000,8
12.15833,9
12.16667,9
12.17500,10
12.18333,10
12.19167,11
12.20000,11
12.20833,12
12.21667,12
12.22500,13
12.23333,13
12.24167,13
12.25000,13
12.25833,14
12.26667,14
12.27500,14
12.28333,14
12.29167,14
12.30000,14
12.30833,14
12.31667,14
12.32500,15
12.33333,15
12.34167,15
12.35000,15
12.35833,15
12.36667,15
12.37500,15
12.38333,15
12.39167,15
12.40000,15
12.40833,15
12.41667,15
12.42500,15
12.43333,15
12.44167,15
12.45000,15
12.45833,15
12.46667,16
12.47500,16
12.48333,16
12.49167,17
12.50000,17
12.50833,17
12.51667,17
12.52500,18
12.53333,18
12.54167,18
12.55000,19
12.55833,19
12.56667,20
12.57500,21
12.58333,23
12.59167,24
12.60000,26
12.60833,29
12.61667,32
12.62500,35
12.63333,39
12.64167,45
12.65000,52
12.65833,60
12.66667,70
12.67500,82
12.68333,96
12.69167,112
12.70000,132
12.70833,154
12.71667,180
12.72500,211
12.73333,246
12.74167,285
12.75000,330
12.75833,379
12.76667,434
12.77500,495
12.78333,562
12.79167,636
12.80000,716
12.80833,801
12.81667,893
12.82500,992
12.83333,1097
12.84167,1209
12.85000,1327
12.85833,1451
12.86667,1581
12.87500,1717
12.88333,1858
12.89167,2006
12.90000,2158
12.90833,2316
12.91667,2479
12.92500,2647
12.93333,2819
12.94167,2996
12.95000,3176
12.95833,3361
12.96667,3550
12.97500,3742
12.98333,3937
12.99167,4136
13.00000,4337
13.00833,4542
13.01667,4750
13.02500,4959
13.03333,5171
13.04167,5386
13.05000,5602
13.05833,5821
13.06667,6041
13.07500,6263
13.08333,6486
13.09167,6710
13.10000,6935
13.10833,7161
13.11667,7388
13.12500,7614
13.13333,7840
13.14167,8065
13.15000,8288
13.15833,8508
13.16667,8722
13.17500,8930
13.18333,9127
13.19167,9310
13.20000,9474
13.20833,9614
13.21667,9724
13.22500,9795
13.23333,9821
13.24167,9797
13.25000,9717
13.25833,9577
13.26667,9377
13.27500,9116
13.28333,8797
13.29167,8426
13.30000,8010
13.30833,7558
13.31667,7080
13.32500,6586
13.33333,6085
13.34167,5587
13.35000,5099
13.35833,4629
13.36667,4182
13.37500,3762
13.38333,3372
13.39167,3013
13.40000,2685
13.40833,2388
13.41667,2120
13.42500,1880
13.43333,1667
13.44167,1478
13.45000,1311
13.45833,1164
13.46667,1034
13.47500,921
13.48333,821
13.49167,734
13.50000,658
13.50833,592
13.51667,534
13.52500,483
13.53333,438
13.54167,398
13.55000,364
13.55833,334
13.56667,307
13.57500,284
13.58333,263
13.59167,244
13.60000,228
13.60833,214
13.61667,201
13.62500,189
13.63333,179
13.64167,170
13.65000,162
13.65833,154
13.66667,147
13.67500,141
13.68333,136
13.69167,130
13.70000,126
13.70833,121
13.71667,117
13.72500,113
13.73333,110
13.74167,107
13.75000,104
13.75833,101
13.76667,99
13.77500,97
13.78333,95
13.79167,93
13.80000,92
13.80833,91
13.81667,90
13.82500,89
13.83333,88
13.84167,87
13.85000,86
13.85833,85
13.86667,84
13.87500,84
13.88333,84
13.89167,83
13.90000,83
13.90833,83
13.91667,83
13.92500,83
13.93333,83
13.94167,84
13.95000,84
13.95833,84
13.96667,85
13.97500,85
13.98333,85
13.99167,85
14.00000,86
14.00833,86
14.01667,86
14.02500,86
14.03333,86
14.04167,86
14.05000,86
14.05833,86
14.06667,87
14.07500,87
14.08333,87
14.09167,87
14.10000,87
14.10833,87
14.11667,87
14.12500,86
14.13333,86
14.14167,85
14.15000,85
14.15833,84
14.16667,83
14.17500,82
14.18333,81
14.19167,80
14.20000,79
14.20833,78
14.21667,77
14.22500,76
14.23333,75
14.24167,74
14.25000,73
14.25833,72
14.26667,71
14.27500,69
14.28333,68
14.29167,66
14.30000,65
14.30833,64
14.31667,62
14.32500,61
14.33333,59
14.34167,57
14.35000,55
14.35833,54
14.36667,53
14.37500,51
14.38333,50
14.39167,49
14.40000,47
14.40833,46
14.41667,45
14.42500,44
14.43333,43
14.44167,42
14.45000,41
14.45833,39
14.46667,38
14.47500,37
14.48333,37
14.49167,36
14.50000,36
14.50833,35
14.51667,34
14.52500,33
14.53333,32
14.54167,31
14.55000,31
14.55833,31
14.56667,30
14.57500,30
14.58333,30
14.59167,30
14.60000,30
14.60833,30
14.61667,30
14.62500,29
14.63333,29
14.64167,29
14.65000,28
14.65833,28
14.66667,28
14.67500,28
14.68333,28
14.69167,28
14.70000,29
14.70833,29
14.71667,29
14.72500,29
14.73333,29
14.74167,28
14.75000,28
14.75833,29
14.76667,29
14.77500,29
14.78333,29
14.79167,29
14.80000,29
14.80833,28
14.81667,28
14.82500,28
14.83333,28
14.84167,28
14.85000,28
14.85833,27
14.86667,27
14.87500,26
14.88333,26
14.89167,26
14.90000,25
14.90833,25
14.91667,25
14.92500,24
14.93333,24
14.94167,23
14.95000,23
14.95833,23
14.96667,23
14.97500,23
14.98333,23
14.99167,22
15.00000,22
15.00833,22
15.01667,22
15.02500,22
15.03333,22
15.04167,22
15.05000,23
15.05833,24
15.06667,24
15.07500,25
15.08333,26
15.09167,27
15.10000,28
15.10833,29
15.11667,30
15.12500,32
15.13333,35
15.14167,38
15.15000,42
15.15833,47
15.16667,52
15.17500,59
15.18333,66
15.19167,75
15.20000,84
15.20833,96
15.21667,109
15.22500,123
15.23333,140
15.24167,159
15.25000,181
15.25833,205
15.26667,232
15.27500,262
15.28333,295
15.29167,332
15.30000,372
15.30833,415
15.31667,462
15.32500,512
15.33333,567
15.34167,625
15.35000,686
15.35833,751
15.36667,819
15.37500,889
15.38333,962
15.39167,1038
15.40000,1115
15.40833,1193
15.41667,1272
15.42500,1351
15.43333,1429
15.44167,1507
15.45000,1584
15.45833,1657
15.46667,1729
15.47500,1797
15.48333,1861
15.49167,1921
15.50000,1976
15.50833,2026
15.51667,2071
15.52500,2109
15.53333,2142
15.54167,2168
15.55000,2188
15.55833,2201
15.56667,2208
15.57500,2208
15.58333,2202
15.59167,2189
15.60000,2171
15.60833,2146
15.61667,2116
15.62500,2081
15.63333,2042
15.64167,1997
15.65000,1949
15.65833,1898
15.66667,1843
15.67500,1786
15.68333,1726
15.69167,1665
15.70000,1602
15.70833,1539
15.71667,1475
15.72500,1411
15.73333,1347
15.74167,1283
15.75000,1221
15.75833,1160
15.76667,1099
15.77500,1040
15.78333,983
15.79167,927
15.80000,874
15.80833,822
15.81667,772
15.82500,724
15.83333,678
15.84167,635
15.85000,593
15.85833,554
15.86667,517
15.87500,483
15.88333,450
15.89167,420
15.90000,391
15.90833,364
15.91667,339
15.92500,315
15.93333,294
15.94167,274
15.95000,255
15.95833,238
15.96667,222
15.97500,207
15.98333,193
15.99167,180
16.00000,168
16.00833,157
16.01667,148
16.02500,139
16.03333,131
16.04167,123
16.05000,116
16.05833,110
16.06667,104
16.07500,98
16.08333,93
16.09167,89
16.10000,85
16.10833,81
16.11667,77
16.12500,74
16.13333,71
16.14167,69
16.15000,66
16.15833,64
16.16667,62
16.17500,60
16.18333,58
16.19167,56
16.20000,54
16.20833,52
16.21667,50
16.22500,48
16.23333,46
16.24167,45
16.25000,43
16.25833,42
16.26667,41
16.27500,40
16.28333,39
16.29167,38
16.30000,37
16.30833,36
16.31667,36
16.32500,35
16.33333,34
16.34167,33
16.35000,32
16.35833,32
16.36667,31
16.37500,31
16.38333,30
16.39167,30
16.40000,30
16.40833,29
16.41667,29
16.42500,29
16.43333,28
16.44167,28
16.45000,28
16.45833,27
16.46667,27
16.47500,27
16.48333,27
16.49167,26
16.50000,26
16.50833,26
16.51667,26
16.52500,25
16.53333,25
16.54167,26
16.55000,25
16.55833,25
16.56667,25
16.57500,25
16.58333,25
16.59167,25
16.60000,25
16.60833,25
16.61667,25
16.62500,24
16.63333,24
16.64167,24
16.65000,24
16.65833,24
16.66667,25
16.67500,25
16.68333,25
16.69167,25
16.70000,25
16.70833,25
16.71667,25
16.72500,25
16.73333,25
16.74167,25
16.75000,25
16.75833,25
16.76667,24
16.77500,25
16.78333,25
16.79167,25
16.80000,25
16.80833,26
16.81667,26
16.82500,26
16.83333,26
16.84167,26
16.85000,25
16.85833,25
16.86667,25
16.87500,25
16.88333,24
16.89167,24
16.90000,24
16.90833,24
16.91667,24
16.92500,24
16.93333,24
16.94167,23
16.95000,23
16.95833,24
16.96667,24
16.97500,24
16.98333,24
16.99167,24
17.00000,24
17.00833,24
17.01667,24
17.02500,24
17.03333,24
17.04167,23
17.05000,23
17.05833,23
17.06667,22
17.07500,22
17.08333,22
17.09167,23
17.10000,23
17.10833,22
17.11667,22
17.12500,22
17.13333,22
17.14167,22
17.15000,22
17.15833,22
17.16667,22
17.17500,22
17.18333,22
17.19167,22
17.20000,21
17.20833,21
17.21667,21
17.22500,22
17.23333,22
17.24167,22
17.25000,21
17.25833,21
17.26667,21
17.27500,21
17.28333,21
17.29167,21
17.30000,21
17.30833,20
17.31667,20
17.32500,21
17.33333,21
17.34167,22
17.35000,22
17.35833,22
17.36667,22
17.37500,22
17.38333,22
17.39167,21
17.40000,21
17.40833,21
17.41667,22
17.42500,22
17.43333,21
17.44167,21
17.45000,21
17.45833,21
17.46667,21
17.47500,21
17.48333,21
17.49167,21
17.50000,21
17.50833,21
17.51667,21
17.52500,21
17.53333,21
17.54167,21
17.55000,20
17.55833,20
17.56667,20
17.57500,20
17.58333,19
17.59167,19
17.60000,19
17.60833,19
17.61667,19
17.62500,19
17.63333,19
17.64167,19
17.65000,19
17.65833,19
17.66667,19
17.67500,19
17.68333,19
17.69167,19
17.70000,19
17.70833,19
17.71667,19
17.72500,20
17.73333,20
17.74167,20
17.75000,20
17.75833,20
17.76667,20
17.77500,20
17.78333,20
17.79167,20
17.80000,20
17.80833,20
17.81667,21
17.82500,21
17.83333,21
17.84167,21
17.85000,21
17.85833,21
17.86667,22
17.87500,22
17.88333,23
17.89167,23
17.90000,24
17.90833,24
17.91667,25
17.92500,25
17.93333,25
17.94167,25
17.95000,25
17.95833,25
17.96667,25
17.97500,26
17.98333,26
17.99167,27
18.00000,27
18.00833,27
18.01667,27
18.02500,28
18.03333,28
18.04167,28
18.05000,28
18.05833,28
18.06667,28
18.07500,29
18.08333,29
18.09167,30
18.10000,30
18.10833,30
18.11667,30
18.12500,30
18.13333,30
18.14167,30
18.15000,30
18.15833,30
18.16667,30
18.17500,30
18.18333,30
18.19167,30
18.20000,30
18.20833,30
18.21667,30
18.22500,30
18.23333,30
18.24167,29
18.25000,29
18.25833,29
18.26667,29
18.27500,29
18.28333,28
18.29167,28
18.30000,27
18.30833,27
18.31667,26
18.32500,26
18.33333,26
18.34167,26
18.35000,26
18.35833,26
18.36667,25
18.37500,25
18.38333,24
18.39167,23
18.40000,22
18.40833,22
18.41667,21
18.42500,20
18.43333,20
18.44167,20
18.45000,19
18.45833,18
18.46667,18
18.47500,18
18.48333,17
18.49167,16
18.50000,16
18.50833,15
18.51667,14
18.52500,14
18.53333,13
18.54167,13
18.55000,13
18.55833,13
18.56667,12
18.57500,12
18.58333,12
18.59167,11
18.60000,10
18.60833,10
18.61667,10
18.62500,9
18.63333,9
18.64167,8
18.65000,8
18.65833,8
18.66667,8
18.67500,8
18.68333,8
18.69167,8
18.70000,8
18.70833,7
18.71667,7
18.72500,7
18.73333,7
18.74167,7
18.75000,7
18.75833,7
18.76667,7
18.77500,7
18.78333,7
18.79167,7
18.80000,7
18.80833,7
18.81667,7
18.82500,7
18.83333,7
18.84167,7
18.85000,7
18.85833,7
18.86667,7
18.87500,7
18.88333,7
18.89167,8
18.90000,8
18.90833,8
18.91667,8
18.92500,9
18.93333,9
18.94167,9
18.95000,10
18.95833,10
18.96667,10
18.97500,10
18.98333,10
18.99167,11
19.00000,11
19.00833,12
19.01667,12
19.02500,13
19.03333,13
19.04167,14
19.05000,14
19.05833,15
19.06667,15
19.07500,16
19.08333,16
19.09167,16
19.10000,16
19.10833,17
19.11667,17
19.12500,17
19.13333,18
19.14167,18
19.15000,19
19.15833,20
19.16667,20
19.17500,21
19.18333,21
19.19167,21
19.20000,22
19.20833,22
19.21667,23
19.22500,24
19.23333,24
19.24167,25
19.25000,25
19.25833,26
19.26667,26
19.27500,26
19.28333,27
19.29167,27
19.30000,27
19.30833,28
19.31667,28
19.32500,29
19.33333,29
19.34167,30
19.35000,30
19.35833,31
19.36667,31
19.37500,31
19.38333,31
19.39167,31
19.40000,31
19.40833,31
19.41667,31
19.42500,31
19.43333,31
19.44167,31
19.45000,31
19.45833,31
19.46667,31
19.47500,31
19.48333,30
19.49167,30
19.50000,30
19.50833,30
19.51667,30
19.52500,29
19.53333,29
19.54167,28
19.55000,28
19.55833,27
19.56667,26
19.57500,26
19.58333,25
19.59167,25
19.60000,24
19.60833,23
19.61667,23
19.62500,22
19.63333,21
19.64167,20
19.65000,19
19.65833,19
19.66667,18
19.67500,17
19.68333,16
19.69167,16
19.70000,15
19.70833,14
19.71667,14
19.72500,14
19.73333,13
19.74167,13
19.75000,12
19.75833,12
19.76667,11
19.77500,10
19.78333,9
19.79167,9
19.80000,8
19.80833,7
19.81667,7
19.82500,7
19.83333,6
19.84167,6
19.85000,5
19.85833,4
19.86667,4
19.87500,3
19.88333,3
19.89167,2
19.90000,2
19.90833,2
19.91667,2
19.92500,2
19.93333,2
19.94167,2
19.95000,1
19.95833,1
19.96667,1
19.97500,1
19.98333,1
19.99167,1
20.00000,1
20.00833,2
20.01667,2
20.02500,2
20.03333,3
20.04167,3
20.05000,3
20.05833,3
20.06667,3
20.07500,4
20.08333,4
20.09167,5
20.10000,5
20.10833,5
20.11667,5
20.12500,5
20.13333,5
20.14167,5
20.15000,6
20.15833,6
20.16667,7
20.17500,7
20.18333,7
20.19167,8
20.20000,8
20.20833,9
20.21667,9
20.22500,10
20.23333,10
20.24167,10
20.25000,10
20.25833,11
20.26667,11
20.27500,12
20.28333,12
20.29167,12
20.30000,12
20.30833,11
20.31667,11
20.32500,11
20.33333,11
20.34167,12
20.35000,12
20.35833,12
20.36667,11
20.37500,11
20.38333,11
20.39167,10
20.40000,10
20.40833,10
20.41667,9
20.42500,9
20.43333,9
20.44167,8
20.45000,8
20.45833,7
20.46667,7
20.47500,7
20.48333,7
20.49167,6
20.50000,6
20.50833,6
20.51667,6
20.52500,5
20.53333,5
20.54167,5
20.55000,4
20.55833,4
20.56667,4
20.57500,4
20.58333,3
20.59167,3
20.60000,3
20.60833,3
20.61667,3
20.62500,3
20.63333,3
20.64167,3
20.65000,2
20.65833,2
20.66667,2
20.67500,2
20.68333,2
20.69167,2
20.70000,2
20.70833,2
20.71667,2
20.72500,2
20.73333,3
20.74167,3
20.75000,3
20.75833,3
20.76667,3
20.77500,4
20.78333,4
20.79167,5
20.80000,5
20.80833,6
20.81667,7
20.82500,8
20.83333,9
20.84167,9
20.85000,10
20.85833,10
20.86667,10
20.87500,11
20.88333,12
20.89167,12
20.90000,13
20.90833,13
20.91667,14
20.92500,15
20.93333,16
20.94167,17
20.95000,18
20.95833,18
20.96667,19
20.97500,20
20.98333,21
20.99167,22
21.00000,23
21.00833,24
21.01667,25
21.02500,26
21.03333,28
21.04167,29
21.05000,30
21.05833,31
21.06667,32
21.07500,33
21.08333,34
21.09167,35
21.10000,36
21.10833,37
21.11667,38
21.12500,38
21.13333,39
21.14167,40
21.15000,41
21.15833,42
21.16667,43
21.17500,43
21.18333,44
21.19167,44
21.20000,45
21.20833,45
21.21667,45
21.22500,44
21.23333,44
21.24167,44
21.25000,43
21.25833,43
21.26667,43
21.27500,43
21.28333,43
21.29167,42
21.30000,41
21.30833,40
21.31667,40
21.32500,39
21.33333,38
21.34167,37
21.35000,36
21.35833,35
21.36667,33
21.37500,32
21.38333,31
21.39167,30
21.40000,29
21.40833,27
21.41667,26
21.42500,24
21.43333,23
21.44167,21
21.45000,19
21.45833,18
21.46667,16
21.47500,15
21.48333,13
21.49167,11
21.50000,10
21.50833,8
21.51667,7
21.52500,5
21.53333,4
21.54167,2
21.55000,1
21.55833,-1
21.56667,-2
21.57500,-3
21.58333,-4
21.59167,-6
21.60000,-7
21.60833,-8
21.61667,-9
21.62500,-10
21.63333,-10
21.64167,-11
21.65000,-12
21.65833,-12
21.66667,-13
21.67500,-14
21.68333,-15
21.69167,-15
21.70000,-16
21.70833,-16
21.71667,-17
21.72500,-17
21.73333,-17
21.74167,-17
21.75000,-17
21.75833,-18
21.76667,-18
21.77500,-19
21.78333,-19
21.79167,-19
21.80000,-19
21.80833,-19
21.81667,-19
21.82500,-19
21.83333,-19
21.84167,-18
21.85000,-18
21.85833,-18
21.86667,-17
21.87500,-17
21.88333,-17
21.89167,-17
21.90000,-16
21.90833,-15
21.91667,-15
21.92500,-15
21.93333,-15
21.94167,-14
21.95000,-14
21.95833,-14
21.96667,-13
21.97500,-13
21.98333,-13
21.99167,-12
22.00000,-11
22.00833,-11
22.01667,-11
22.02500,-10
22.03333,-10
22.04167,-10
22.05000,-9
22.05833,-8
22.06667,-8
22.07500,-8
22.08333,-7
22.09167,-6
22.10000,-6
22.10833,-5
22.11667,-5
22.12500,-4
22.13333,-4
22.14167,-3
22.15000,-3
22.15833,-2
22.16667,-2
22.17500,-1
22.18333,-0
22.19167,-0
22.20000,0
22.20833,0
22.21667,1
22.22500,1
22.23333,2
22.24167,2
22.25000,3
22.25833,3
22.26667,4
22.27500,5
22.28333,5
22.29167,5
22.30000,6
22.30833,6
22.31667,7
22.32500,7
22.33333,8
22.34167,8
22.35000,8
22.35833,9
22.36667,9
22.37500,10
22.38333,10
22.39167,10
22.40000,10
22.40833,11
22.41667,11
22.42500,11
22.43333,12
22.44167,12
22.45000,12
22.45833,12
22.46667,12
22.47500,12
22.48333,12
22.49167,13
22.50000,13
22.50833,13
22.51667,14
22.52500,14
22.53333,13
22.54167,13
22.55000,13
22.55833,12
22.56667,12
22.57500,12
22.58333,12
22.59167,12
22.60000,12
22.60833,11
22.61667,12
22.62500,12
22.63333,12
22.64167,11
22.65000,11
22.65833,10
22.66667,10
22.67500,10
22.68333,9
22.69167,9
22.70000,9
22.70833,8
22.71667,8
22.72500,8
22.73333,8
22.74167,8
22.75000,9
22.75833,9
22.76667,9
22.77500,9
22.78333,9
22.79167,8
22.80000,8
22.80833,8
22.81667,7
22.82500,7
22.83333,7
22.84167,7
22.85000,6
22.85833,7
22.86667,7
22.87500,6
22.88333,7
22.89167,7
22.90000,7
22.90833,7
22.91667,7
22.92500,7
22.93333,7
22.94167,8
22.95000,7
22.95833,7
22.96667,7
22.97500,7
22.98333,7
22.99167,7
23.00000,6
23.00833,6
23.01667,7
23.02500,7
23.03333,7
23.04167,7
23.05000,7
23.05833,8
23.06667,8
23.07500,8
23.08333,8
23.09167,9
23.10000,10
23.10833,10
23.11667,11
23.12500,11
23.13333,11
23.14167,11
23.15000,11
23.15833,12
23.16667,12
23.17500,12
23.18333,12
23.19167,11
23.20000,11
23.20833,11
23.21667,11
23.22500,11
23.23333,11
23.24167,11
23.25000,11
23.25833,12
23.26667,12
23.27500,13
23.28333,13
23.29167,14
23.30000,14
23.30833,14
23.31667,15
23.32500,15
23.33333,15
23.34167,15
23.35000,15
23.35833,15
23.36667,15
23.37500,16
23.38333,16
23.39167,16
23.40000,16
23.40833,17
23.41667,17
23.42500,17
23.43333,17
23.44167,18
23.45000,18
23.45833,18
23.46667,18
23.47500,18
23.48333,19
23.49167,19
23.50000,19
23.50833,20
23.51667,21
23.52500,21
23.53333,22
23.54167,22
23.55000,22
23.55833,23
23.56667,23
23.57500,24
23.58333,24
23.59167,25
23.60000,25
23.60833,25
23.61667,26
23.62500,27
23.63333,27
23.64167,27
23.65000,27
23.65833,28
23.66667,28
23.67500,28
23.68333,29
23.69167,29
23.70000,30
23.70833,30
23.71667,31
23.72500,31
23.73333,32
23.74167,32
23.75000,33
23.75833,33
23.76667,33
23.77500,34
23.78333,34
23.79167,34
23.80000,34
23.80833,34
23.81667,34
23.82500,34
23.83333,34
23.84167,34
23.85000,33
23.85833,33
23.86667,34
23.87500,34
23.88333,33
23.89167,33
23.90000,33
23.90833,33
23.91667,33
23.92500,33
23.93333,33
23.94167,32
23.95000,32
23.95833,31
23.96667,31
23.97500,30
23.98333,30
23.99167,29
24.00000,29
24.00833,29
24.01667,29
24.02500,28
24.03333,28
24.04167,27
24.05000,26
24.05833,25
24.06667,25
24.07500,24
24.08333,23
24.09167,23
24.10000,22
24.10833,22
24.11667,21
24.12500,21
24.13333,20
24.14167,19
24.15000,18
24.15833,18
24.16667,18
24.17500,18
24.18333,18
24.19167,17
24.20000,17
24.20833,16
24.21667,16
24.22500,16
24.23333,16
24.24167,16
24.25000,16
24.25833,16
24.26667,16
24.27500,17
24.28333,17
24.29167,17
24.30000,18
24.30833,18
24.31667,19
24.32500,20
24.33333,20
24.34167,21
24.35000,22
24.35833,23
24.36667,25
24.37500,26
24.38333,28
24.39167,30
24.40000,32
24.40833,33
24.41667,35
24.42500,38
24.43333,40
24.44167,43
24.45000,46
24.45833,49
24.46667,53
24.47500,56
24.48333,60
24.49167,65
24.50000,71
24.50833,76
24.51667,82
24.52500,89
24.53333,96
24.54167,103
24.55000,111
24.55833,119
24.56667,128
24.57500,138
24.58333,148
24.59167,159
24.60000,171
24.60833,183
24.61667,196
24.62500,209
24.63333,223
24.64167,238
24.65000,253
24.65833,269
24.66667,285
24.67500,302
24.68333,319
24.69167,337
24.70000,355
24.70833,373
24.71667,391
24.72500,410
24.73333,429
24.74167,448
24.75000,466
24.75833,484
24.76667,502
24.77500,520
24.78333,538
24.79167,555
24.80000,571
24.80833,587
24.81667,602
24.82500,615
24.83333,628
24.84167,640
24.85000,651
24.85833,660
24.86667,669
24.87500,677
24.88333,683
24.89167,688
24.90000,691
24.90833,694
24.91667,694
24.92500,694
24.93333,692
24.94167,689
24.95000,685
24.95833,679
24.96667,672
24.97500,665
24.98333,656
24.99167,646
25.00000,634
25.00833,622
25.01667,609
25.02500,595
25.03333,581
25.04167,566
25.05000,550
25.05833,534
25.06667,518
25.07500,501
25.08333,485
25.09167,468
25.10000,451
25.10833,433
25.11667,416
25.12500,400
25.13333,383
25.14167,366
25.15000,350
25.15833,334
25.16667,319
25.17500,304
25.18333,289
25.19167,275
25.20000,261
25.20833,248
25.21667,236
25.22500,224
25.23333,212
25.24167,201
25.25000,191
25.25833,181
25.26667,171
25.27500,162
25.28333,154
25.29167,146
25.30000,138
25.30833,131
25.31667,125
25.32500,118
25.33333,112
25.34167,107
25.35000,102
25.35833,97
25.36667,93
25.37500,89
25.38333,86
25.39167,82
25.40000,78
25.40833,75
25.41667,72
25.42500,69
25.43333,67
25.44167,64
25.45000,62
25.45833,59
25.46667,57
25.47500,55
25.48333,53
25.49167,51
25.50000,50
25.50833,48
25.51667,47
25.52500,46
25.53333,44
25.54167,43
25.55000,42
25.55833,41
25.56667,40
25.57500,39
25.58333,38
25.59167,37
25.60000,35
25.60833,34
25.61667,32
25.62500,31
25.63333,30
25.64167,29
25.65000,29
25.65833,28
25.66667,27
25.67500,26
25.68333,26
25.69167,25
25.70000,24
25.70833,24
25.71667,23
25.72500,23
25.73333,23
25.74167,23
25.75000,22
25.75833,22
25.76667,22
25.77500,21
25.78333,21
25.79167,21
25.80000,21
25.80833,21
25.81667,20
25.82500,20
25.83333,20
25.84167,20
25.85000,20
25.85833,19
25.86667,19
25.87500,19
25.88333,18
25.89167,18
25.90000,18
25.90833,18
25.91667,18
25.92500,18
25.93333,18
25.94167,18
25.95000,18
25.95833,18
25.96667,18
25.97500,18
25.98333,18
25.99167,18
26.00000,17
26.00833,16
26.01667,16
26.02500,16
26.03333,16
26.04167,15
26.05000,15
26.05833,14
26.06667,14
26.07500,14
26.08333,14
26.09167,13
26.10000,13
26.10833,12
26.11667,12
26.12500,12
26.13333,11
26.14167,11
26.15000,10
26.15833,9
26.16667,9
26.17500,8
26.18333,8
26.19167,7
26.20000,6
26.20833,6
26.21667,5
26.22500,5
26.23333,4
26.24167,3
26.25000,3
26.25833,2
26.26667,2
26.27500,2
26.28333,2
26.29167,1
26.30000,1
26.30833,0
26.31667,-0
26.32500,-0
26.33333,-0
26.34167,-1
26.35000,-1
26.35833,-1
26.36667,-1
26.37500,-1
26.38333,-1
26.39167,-1
26.40000,-1
26.40833,-1
26.41667,-1
26.42500,-1
26.43333,-1
26.44167,-1
26.45000,-1
26.45833,-1
26.46667,-1
26.47500,-1
26.48333,-1
26.49167,-1
26.50000,-1
26.50833,-1
26.51667,-0
26.52500,0
26.53333,1
26.54167,1
26.55000,1
26.55833,2
26.56667,2
26.57500,2
26.58333,2
26.59167,2
26.60000,3
26.60833,3
26.61667,4
26.62500,4
26.63333,4
26.64167,5
26.65000,5
26.65833,5
26.66667,5
26.67500,6
26.68333,6
26.69167,7
26.70000,7
26.70833,7
26.71667,7
26.72500,8
26.73333,8
26.74167,8
26.75000,9
26.75833,9
26.76667,9
26.77500,10
26.78333,10
26.79167,10
26.80000,11
26.80833,11
26.81667,11
26.82500,11
26.83333,12
26.84167,12
26.85000,12
26.85833,12
26.86667,12
26.87500,12
26.88333,13
26.89167,13
26.90000,13
26.90833,13
26.91667,14
26.92500,14
26.93333,14
26.94167,14
26.95000,15
26.95833,15
26.96667,15
26.97500,15
26.98333,15
26.99167,15
27.00000,14
27.00833,14
27.01667,14
27.02500,14
27.03333,15
27.04167,14
27.05000,14
27.05833,14
27.06667,14
27.07500,14
27.08333,13
27.09167,13
27.10000,12
27.10833,12
27.11667,11
27.12500,11
27.13333,11
27.14167,11
27.15000,11
27.15833,10
27.16667,10
27.17500,9
27.18333,9
27.19167,9
27.20000,8
27.20833,8
27.21667,8
27.22500,7
27.23333,7
27.24167,7
27.25000,7
27.25833,7
27.26667,6
27.27500,5
27.28333,5
27.29167,4
27.30000,4
27.30833,4
27.31667,4
27.32500,4
27.33333,3
27.34167,3
27.35000,3
27.35833,3
27.36667,3
27.37500,3
27.38333,3
27.39167,3
27.40000,3
27.40833,3
27.41667,4
27.42500,4
27.43333,4
27.44167,4
27.45000,4
27.45833,4
27.46667,4
27.47500,4
27.48333,4
27.49167,5
27.50000,5
27.50833,5
27.51667,6
27.52500,6
27.53333,6
27.54167,7
27.55000,7
27.55833,7
27.56667,8
27.57500,8
27.58333,8
27.59167,8
27.60000,8
27.60833,8
27.61667,9
27.62500,9
27.63333,10
27.64167,10
27.65000,11
27.65833,11
27.66667,12
27.67500,12
27.68333,12
27.69167,12
27.70000,13
27.70833,13
27.71667,13
27.72500,13
27.73333,13
27.74167,13
27.75000,12
27.75833,12
27.76667,12
27.77500,11
27.78333,11
27.79167,11
27.80000,10
27.80833,10
27.81667,9
27.82500,8
27.83333,7
27.84167,6
27.85000,5
27.85833,3
27.86667,1
27.87500,-1
27.88333,-3
27.89167,-5
27.90000,-7
27.90833,-10
27.91667,-13
27.92500,-16
27.93333,-19
27.94167,-23
27.95000,-27
27.95833,-31
27.96667,-36
27.97500,-41
27.98333,-46
27.99167,-52
28.00000,-58
28.00833,-64
28.01667,-72
28.02500,-79
28.03333,-86
28.04167,-94
28.05000,-103
28.05833,-112
28.06667,-121
28.07500,-131
28.08333,-142
28.09167,-152
28.10000,-164
28.10833,-175
28.11667,-187
28.12500,-200
28.13333,-213
28.14167,-227
28.15000,-240
28.15833,-255
28.16667,-270
28.17500,-285
28.18333,-301
28.19167,-317
28.20000,-334
28.20833,-352
28.21667,-370
28.22500,-388
28.23333,-407
28.24167,-425
28.25000,-444
28.25833,-463
28.26667,-482
28.27500,-501
28.28333,-521
28.29167,-541
28.30000,-560
28.30833,-580
28.31667,-600
28.32500,-620
28.33333,-640
28.34167,-660
28.35000,-680
28.35833,-699
28.36667,-717
28.37500,-736
28.38333,-754
28.39167,-771
28.40000,-789
28.40833,-806
28.41667,-822
28.42500,-838
28.43333,-853
28.44167,-868
28.45000,-883
28.45833,-897
28.46667,-910
28.47500,-922
28.48333,-934
28.49167,-945
28.50000,-955
28.50833,-964
28.51667,-973
28.52500,-981
28.53333,-988
28.54167,-995
28.55000,-1000
28.55833,-1005
28.56667,-1010
28.57500,-1014
28.58333,-1017
28.59167,-1019
28.60000,-1021
28.60833,-1022
28.61667,-1022
28.62500,-1022
28.63333,-1021
28.64167,-1019
28.65000,-1018
28.65833,-1015
28.66667,-1013
28.67500,-1010
28.68333,-1006
28.69167,-1003
28.70000,-998
28.70833,-994
28.71667,-989
28.72500,-984
28.73333,-979
28.74167,-973
28.75000,-967
28.75833,-961
28.76667,-955
28.77500,-949
28.78333,-943
28.79167,-937
28.80000,-930
28.80833,-924
28.81667,-918
28.82500,-911
28.83333,-905
28.84167,-898
28.85000,-892
28.85833,-886
28.86667,-880
28.87500,-874
28.88333,-868
28.89167,-863
28.90000,-857
28.90833,-851
28.91667,-846
28.92500,-840
28.93333,-835
28.94167,-830
28.95000,-824
28.95833,-819
28.96667,-814
28.97500,-809
28.98333,-804
28.99167,-800
29.00000,-795
29.00833,-791
29.01667,-787
29.02500,-782
29.03333,-778
29.04167,-774
29.05000,-770
29.05833,-767
29.06667,-763
29.07500,-760
29.08333,-757
29.09167,-753
29.10000,-750
29.10833,-746
29.11667,-743
29.12500,-740
29.13333,-737
29.14167,-735
29.15000,-732
29.15833,-729
29.16667,-726
29.17500,-723
29.18333,-721
29.19167,-718
29.20000,-715
29.20833,-712
29.21667,-710
29.22500,-708
29.23333,-706
29.24167,-704
29.25000,-702
29.25833,-700
29.26667,-698
29.27500,-696
29.28333,-694
29.29167,-692
29.30000,-690
29.30833,-688
29.31667,-686
29.32500,-684
29.33333,-682
29.34167,-680
29.35000,-678
29.35833,-677
29.36667,-675
29.37500,-674
29.38333,-672
29.39167,-671
29.40000,-669
29.40833,-668
29.41667,-666
29.42500,-664
29.43333,-663
29.44167,-661
29.45000,-659
29.45833,-657
29.46667,-656
29.47500,-654
29.48333,-653
29.49167,-651
29.50000,-649
29.50833,-647
29.51667,-645
29.52500,-643
29.53333,-642
29.54167,-640
29.55000,-638
29.55833,-636
29.56667,-634
29.57500,-632
29.58333,-631
29.59167,-629
29.60000,-628
29.60833,-627
29.61667,-625
29.62500,-623
29.63333,-622
29.64167,-621
29.65000,-619
29.65833,-618
29.66667,-617
29.67500,-615
29.68333,-614
29.69167,-613
29.70000,-613
29.70833,-612
29.71667,-610
29.72500,-609
29.73333,-609
29.74167,-608
29.75000,-608
29.75833,-608
29.76667,-608
29.77500,-608
29.78333,-608
29.79167,-609
29.80000,-609
29.80833,-610
29.81667,-611
29.82500,-612
29.83333,-612
29.84167,-614
29.85000,-615
29.85833,-617
29.86667,-619
29.87500,-621
29.88333,-623
29.89167,-625
29.90000,-628
29.90833,-630
29.91667,-633
29.92500,-636
29.93333,-639
29.94167,-643
29.95000,-647
29.95833,-651
29.96667,-655
29.97500,-658
29.98333,-662
29.99167,-667
30.00000,-672

