[Header]
Application Name,LabSolutions
Version,5.97 SP1
Data File Name,C:\Users\cremerlab\Desktop\griffin\2021-04-06_REL606_DM_glucose_turnover\2021-04-06_REL606_DM_glucose_turnover_462021_001_008.lcd
Output Date,4/6/2021
Output Time,11:19:19 PM

[File Information]
Type,Data File
Generated,4/6/2021 10:38:59 PM
Generated by,System Administrator
Modified,4/6/2021 11:19:19 PM
Modified by,System Administrator

[Sample Information]
Operator Name,System Administrator
Acquired,4/6/2021 10:39:18 PM
Sample Type,1:Standard
Level,1
Sample Name,2021-04-04_REL606_replicate_002_timepoint_001
Sample ID,001
ISTD Amount1,1
ISTD Amount2,1
ISTD Amount3,1
ISTD Amount4,1
ISTD Amount5,1
ISTD Amount6,1
ISTD Amount7,1
ISTD Amount8,1
ISTD Amount9,1
ISTD Amount10,1
ISTD Amount11,1
ISTD Amount12,1
ISTD Amount13,1
ISTD Amount14,1
ISTD Amount15,1
ISTD Amount16,1
ISTD Amount17,1
ISTD Amount18,1
ISTD Amount19,1
ISTD Amount20,1
ISTD Amount21,1
ISTD Amount22,1
ISTD Amount23,1
ISTD Amount24,1
ISTD Amount25,1
ISTD Amount26,1
ISTD Amount27,1
ISTD Amount28,1
ISTD Amount29,1
ISTD Amount30,1
ISTD Amount31,1
ISTD Amount32,1
Sample Amount,1
Dilution Factor,1
Vial#,10
Injection Volume,20

[Original Files]
Data File,C:\Users\cremerlab\Desktop\griffin\2021-04-06_REL606_DM_glucose_turnover\2021-04-06_REL606_DM_glucose_turnover_462021_001_008.lcd
Method File,C:\Users\cremerlab\Desktop\griffin\2.5mM_H2SO4_mobile_phase.lcm
Batch File,C:\Users\cremerlab\Desktop\griffin\2021-04-06_REL606_DM_glucose_turnover\2021-04-06_REL606_DM_glucose_turnover.lcb
Report Format File,c:\LabSolutions\System\DEFAULT.lsr

[File Description]


[Configuration]
Instrument Name,HPLC-PC-Instrument1
Instrument #,1
Line #,1
# of Detectors,2
Detector ID,Detector A,Detector B
Detector Name,Detector A,Detector B
# of Channels,1,1

[Peak Table(Detector A)]
# of Peaks,0

[Peak Table(Detector B)]
# of Peaks,7
Peak#,R.Time,I.Time,F.Time,Area,Height,A/H,Conc.,Mark,ID#,Name,k',Plate #,Plate Ht.,Tailing,Resolution,Sep.Factor,Area Ratio,Height Ratio,Conc. %,Norm Conc.
1,10.885,10.417,11.308,254599,14715,17.302,0.000,   ,,,0.000,9077,16.525,1.088,0.000,0.000,0,0,0.000,0.000
2,11.613,11.308,12.575,28152,668,42.162,0.000, V ,,,0.067,905,165.789,0.000,0.727,0.000,0,0,0.000,0.000
3,13.939,12.575,14.208,1733801,45862,37.805,0.000, V ,,,0.281,3119,48.091,0.000,1.830,4.197,0,0,0.000,0.000
4,14.327,14.208,14.975,166436,9328,17.843,0.000, V ,,,0.316,5079,29.532,0.000,0.431,1.127,0,0,0.000,0.000
5,15.673,14.975,17.492,1084259,43232,25.080,0.000, V ,,,0.440,9166,16.365,1.152,1.845,1.391,0,0,0.000,0.000
6,19.077,18.750,19.600,2471,110,22.465,0.000,   ,,,0.753,15220,9.855,1.151,5.345,1.711,0,0,0.000,0.000
7,25.027,24.642,25.592,2613,97,26.814,0.000,   ,,,1.299,19137,7.838,1.157,8.867,1.726,0,0,0.000,0.000

[LC Chromatogram(Detector B-Ch1)]
Interval(msec),500
# of Points,4801
Start Time(min),0.000
End Time(min),40.000
Intensity Units,mV
Intensity Multiplier,0.001
R.Time (min),Intensity
0.00000,58
0.00833,58
0.01667,3
0.02500,5
0.03333,7
0.04167,9
0.05000,10
0.05833,12
0.06667,13
0.07500,14
0.08333,16
0.09167,18
0.10000,19
0.10833,20
0.11667,21
0.12500,23
0.13333,24
0.14167,25
0.15000,25
0.15833,26
0.16667,27
0.17500,27
0.18333,28
0.19167,29
0.20000,30
0.20833,31
0.21667,33
0.22500,34
0.23333,34
0.24167,34
0.25000,35
0.25833,35
0.26667,35
0.27500,36
0.28333,36
0.29167,37
0.30000,37
0.30833,37
0.31667,38
0.32500,38
0.33333,38
0.34167,38
0.35000,38
0.35833,38
0.36667,38
0.37500,38
0.38333,39
0.39167,39
0.40000,39
0.40833,39
0.41667,39
0.42500,39
0.43333,39
0.44167,39
0.45000,39
0.45833,39
0.46667,38
0.47500,38
0.48333,38
0.49167,38
0.50000,38
0.50833,38
0.51667,37
0.52500,37
0.53333,37
0.54167,37
0.55000,36
0.55833,36
0.56667,35
0.57500,35
0.58333,35
0.59167,34
0.60000,34
0.60833,34
0.61667,34
0.62500,34
0.63333,33
0.64167,33
0.65000,33
0.65833,32
0.66667,32
0.67500,32
0.68333,31
0.69167,31
0.70000,31
0.70833,30
0.71667,30
0.72500,30
0.73333,29
0.74167,29
0.75000,28
0.75833,28
0.76667,28
0.77500,28
0.78333,27
0.79167,27
0.80000,26
0.80833,26
0.81667,25
0.82500,25
0.83333,25
0.84167,25
0.85000,24
0.85833,23
0.86667,23
0.87500,22
0.88333,22
0.89167,21
0.90000,21
0.90833,20
0.91667,20
0.92500,19
0.93333,19
0.94167,18
0.95000,17
0.95833,17
0.96667,16
0.97500,16
0.98333,15
0.99167,15
1.00000,15
1.00833,14
1.01667,13
1.02500,13
1.03333,12
1.04167,11
1.05000,11
1.05833,10
1.06667,10
1.07500,9
1.08333,8
1.09167,8
1.10000,7
1.10833,7
1.11667,6
1.12500,6
1.13333,6
1.14167,5
1.15000,5
1.15833,4
1.16667,4
1.17500,4
1.18333,4
1.19167,3
1.20000,3
1.20833,3
1.21667,2
1.22500,2
1.23333,1
1.24167,1
1.25000,1
1.25833,1
1.26667,1
1.27500,1
1.28333,1
1.29167,1
1.30000,0
1.30833,0
1.31667,0
1.32500,0
1.33333,-0
1.34167,-1
1.35000,-2
1.35833,-2
1.36667,-2
1.37500,-2
1.38333,-2
1.39167,-2
1.40000,-3
1.40833,-3
1.41667,-3
1.42500,-3
1.43333,-3
1.44167,-4
1.45000,-4
1.45833,-4
1.46667,-4
1.47500,-4
1.48333,-5
1.49167,-5
1.50000,-5
1.50833,-5
1.51667,-6
1.52500,-6
1.53333,-7
1.54167,-7
1.55000,-7
1.55833,-7
1.56667,-7
1.57500,-7
1.58333,-7
1.59167,-7
1.60000,-7
1.60833,-7
1.61667,-7
1.62500,-7
1.63333,-7
1.64167,-7
1.65000,-7
1.65833,-7
1.66667,-8
1.67500,-8
1.68333,-8
1.69167,-9
1.70000,-9
1.70833,-9
1.71667,-9
1.72500,-9
1.73333,-9
1.74167,-9
1.75000,-9
1.75833,-9
1.76667,-9
1.77500,-9
1.78333,-9
1.79167,-9
1.80000,-9
1.80833,-9
1.81667,-9
1.82500,-9
1.83333,-10
1.84167,-9
1.85000,-9
1.85833,-9
1.86667,-9
1.87500,-9
1.88333,-9
1.89167,-9
1.90000,-9
1.90833,-9
1.91667,-9
1.92500,-10
1.93333,-10
1.94167,-10
1.95000,-11
1.95833,-11
1.96667,-11
1.97500,-11
1.98333,-10
1.99167,-10
2.00000,-10
2.00833,-10
2.01667,-11
2.02500,-11
2.03333,-11
2.04167,-11
2.05000,-11
2.05833,-11
2.06667,-11
2.07500,-11
2.08333,-12
2.09167,-12
2.10000,-12
2.10833,-13
2.11667,-13
2.12500,-13
2.13333,-13
2.14167,-14
2.15000,-14
2.15833,-14
2.16667,-15
2.17500,-15
2.18333,-15
2.19167,-16
2.20000,-16
2.20833,-16
2.21667,-16
2.22500,-16
2.23333,-16
2.24167,-16
2.25000,-17
2.25833,-17
2.26667,-18
2.27500,-18
2.28333,-18
2.29167,-19
2.30000,-20
2.30833,-20
2.31667,-21
2.32500,-21
2.33333,-21
2.34167,-21
2.35000,-22
2.35833,-22
2.36667,-23
2.37500,-23
2.38333,-24
2.39167,-24
2.40000,-24
2.40833,-25
2.41667,-26
2.42500,-26
2.43333,-26
2.44167,-26
2.45000,-27
2.45833,-28
2.46667,-28
2.47500,-29
2.48333,-30
2.49167,-31
2.50000,-32
2.50833,-34
2.51667,-35
2.52500,-36
2.53333,-38
2.54167,-39
2.55000,-41
2.55833,-42
2.56667,-44
2.57500,-45
2.58333,-47
2.59167,-49
2.60000,-51
2.60833,-53
2.61667,-56
2.62500,-58
2.63333,-61
2.64167,-64
2.65000,-67
2.65833,-71
2.66667,-75
2.67500,-79
2.68333,-82
2.69167,-86
2.70000,-90
2.70833,-95
2.71667,-100
2.72500,-105
2.73333,-110
2.74167,-115
2.75000,-121
2.75833,-127
2.76667,-134
2.77500,-141
2.78333,-148
2.79167,-156
2.80000,-164
2.80833,-172
2.81667,-180
2.82500,-188
2.83333,-197
2.84167,-206
2.85000,-216
2.85833,-225
2.86667,-235
2.87500,-245
2.88333,-256
2.89167,-266
2.90000,-277
2.90833,-288
2.91667,-299
2.92500,-311
2.93333,-323
2.94167,-335
2.95000,-348
2.95833,-360
2.96667,-373
2.97500,-387
2.98333,-400
2.99167,-413
3.00000,-427
3.00833,-441
3.01667,-455
3.02500,-469
3.03333,-482
3.04167,-496
3.05000,-510
3.05833,-524
3.06667,-538
3.07500,-553
3.08333,-567
3.09167,-581
3.10000,-595
3.10833,-609
3.11667,-622
3.12500,-636
3.13333,-650
3.14167,-664
3.15000,-678
3.15833,-691
3.16667,-705
3.17500,-718
3.18333,-730
3.19167,-743
3.20000,-754
3.20833,-767
3.21667,-779
3.22500,-790
3.23333,-802
3.24167,-813
3.25000,-824
3.25833,-835
3.26667,-846
3.27500,-856
3.28333,-867
3.29167,-877
3.30000,-886
3.30833,-895
3.31667,-904
3.32500,-913
3.33333,-921
3.34167,-929
3.35000,-937
3.35833,-945
3.36667,-953
3.37500,-960
3.38333,-966
3.39167,-973
3.40000,-979
3.40833,-985
3.41667,-991
3.42500,-997
3.43333,-1003
3.44167,-1008
3.45000,-1013
3.45833,-1019
3.46667,-1024
3.47500,-1029
3.48333,-1033
3.49167,-1038
3.50000,-1042
3.50833,-1046
3.51667,-1050
3.52500,-1054
3.53333,-1058
3.54167,-1062
3.55000,-1066
3.55833,-1069
3.56667,-1072
3.57500,-1076
3.58333,-1079
3.59167,-1082
3.60000,-1086
3.60833,-1089
3.61667,-1091
3.62500,-1094
3.63333,-1097
3.64167,-1100
3.65000,-1103
3.65833,-1106
3.66667,-1108
3.67500,-1111
3.68333,-1114
3.69167,-1117
3.70000,-1120
3.70833,-1123
3.71667,-1126
3.72500,-1128
3.73333,-1131
3.74167,-1134
3.75000,-1136
3.75833,-1139
3.76667,-1141
3.77500,-1144
3.78333,-1147
3.79167,-1149
3.80000,-1151
3.80833,-1153
3.81667,-1156
3.82500,-1158
3.83333,-1161
3.84167,-1163
3.85000,-1165
3.85833,-1167
3.86667,-1169
3.87500,-1171
3.88333,-1173
3.89167,-1175
3.90000,-1177
3.90833,-1179
3.91667,-1181
3.92500,-1183
3.93333,-1184
3.94167,-1185
3.95000,-1186
3.95833,-1188
3.96667,-1189
3.97500,-1190
3.98333,-1191
3.99167,-1191
4.00000,-1192
4.00833,-1192
4.01667,-1193
4.02500,-1193
4.03333,-1193
4.04167,-1193
4.05000,-1193
4.05833,-1193
4.06667,-1192
4.07500,-1192
4.08333,-1191
4.09167,-1189
4.10000,-1188
4.10833,-1187
4.11667,-1185
4.12500,-1183
4.13333,-1181
4.14167,-1179
4.15000,-1177
4.15833,-1175
4.16667,-1172
4.17500,-1170
4.18333,-1167
4.19167,-1164
4.20000,-1161
4.20833,-1158
4.21667,-1155
4.22500,-1152
4.23333,-1149
4.24167,-1145
4.25000,-1142
4.25833,-1138
4.26667,-1134
4.27500,-1130
4.28333,-1125
4.29167,-1121
4.30000,-1117
4.30833,-1113
4.31667,-1109
4.32500,-1105
4.33333,-1100
4.34167,-1095
4.35000,-1091
4.35833,-1086
4.36667,-1082
4.37500,-1077
4.38333,-1072
4.39167,-1068
4.40000,-1064
4.40833,-1059
4.41667,-1054
4.42500,-1050
4.43333,-1045
4.44167,-1041
4.45000,-1036
4.45833,-1032
4.46667,-1028
4.47500,-1024
4.48333,-1020
4.49167,-1015
4.50000,-1011
4.50833,-1007
4.51667,-1003
4.52500,-999
4.53333,-995
4.54167,-991
4.55000,-988
4.55833,-985
4.56667,-982
4.57500,-979
4.58333,-976
4.59167,-973
4.60000,-971
4.60833,-969
4.61667,-966
4.62500,-964
4.63333,-961
4.64167,-959
4.65000,-957
4.65833,-955
4.66667,-953
4.67500,-952
4.68333,-951
4.69167,-949
4.70000,-948
4.70833,-947
4.71667,-946
4.72500,-945
4.73333,-944
4.74167,-943
4.75000,-942
4.75833,-941
4.76667,-941
4.77500,-941
4.78333,-941
4.79167,-940
4.80000,-940
4.80833,-940
4.81667,-940
4.82500,-940
4.83333,-941
4.84167,-941
4.85000,-941
4.85833,-942
4.86667,-942
4.87500,-943
4.88333,-943
4.89167,-943
4.90000,-944
4.90833,-945
4.91667,-945
4.92500,-946
4.93333,-946
4.94167,-947
4.95000,-947
4.95833,-948
4.96667,-948
4.97500,-949
4.98333,-950
4.99167,-950
5.00000,-951
5.00833,-951
5.01667,-951
5.02500,-951
5.03333,-952
5.04167,-952
5.05000,-952
5.05833,-952
5.06667,-953
5.07500,-953
5.08333,-953
5.09167,-952
5.10000,-952
5.10833,-952
5.11667,-952
5.12500,-952
5.13333,-952
5.14167,-951
5.15000,-951
5.15833,-951
5.16667,-950
5.17500,-949
5.18333,-948
5.19167,-948
5.20000,-947
5.20833,-946
5.21667,-946
5.22500,-945
5.23333,-944
5.24167,-943
5.25000,-942
5.25833,-941
5.26667,-940
5.27500,-940
5.28333,-939
5.29167,-938
5.30000,-937
5.30833,-936
5.31667,-935
5.32500,-934
5.33333,-933
5.34167,-932
5.35000,-931
5.35833,-930
5.36667,-928
5.37500,-927
5.38333,-925
5.39167,-924
5.40000,-923
5.40833,-922
5.41667,-921
5.42500,-920
5.43333,-918
5.44167,-917
5.45000,-916
5.45833,-914
5.46667,-913
5.47500,-911
5.48333,-910
5.49167,-909
5.50000,-908
5.50833,-906
5.51667,-905
5.52500,-903
5.53333,-902
5.54167,-901
5.55000,-900
5.55833,-898
5.56667,-897
5.57500,-896
5.58333,-894
5.59167,-893
5.60000,-891
5.60833,-890
5.61667,-889
5.62500,-887
5.63333,-886
5.64167,-884
5.65000,-882
5.65833,-881
5.66667,-879
5.67500,-878
5.68333,-877
5.69167,-875
5.70000,-874
5.70833,-873
5.71667,-872
5.72500,-871
5.73333,-869
5.74167,-867
5.75000,-865
5.75833,-863
5.76667,-862
5.77500,-860
5.78333,-858
5.79167,-856
5.80000,-854
5.80833,-852
5.81667,-850
5.82500,-848
5.83333,-846
5.84167,-844
5.85000,-842
5.85833,-841
5.86667,-839
5.87500,-836
5.88333,-834
5.89167,-832
5.90000,-829
5.90833,-827
5.91667,-825
5.92500,-823
5.93333,-820
5.94167,-818
5.95000,-815
5.95833,-813
5.96667,-810
5.97500,-807
5.98333,-804
5.99167,-802
6.00000,-799
6.00833,-796
6.01667,-793
6.02500,-790
6.03333,-787
6.04167,-784
6.05000,-781
6.05833,-778
6.06667,-775
6.07500,-772
6.08333,-769
6.09167,-766
6.10000,-762
6.10833,-759
6.11667,-755
6.12500,-751
6.13333,-748
6.14167,-745
6.15000,-742
6.15833,-738
6.16667,-735
6.17500,-731
6.18333,-728
6.19167,-724
6.20000,-720
6.20833,-717
6.21667,-713
6.22500,-710
6.23333,-706
6.24167,-702
6.25000,-698
6.25833,-694
6.26667,-690
6.27500,-686
6.28333,-682
6.29167,-678
6.30000,-674
6.30833,-670
6.31667,-666
6.32500,-663
6.33333,-659
6.34167,-655
6.35000,-651
6.35833,-648
6.36667,-644
6.37500,-640
6.38333,-636
6.39167,-632
6.40000,-628
6.40833,-624
6.41667,-620
6.42500,-615
6.43333,-611
6.44167,-606
6.45000,-602
6.45833,-598
6.46667,-594
6.47500,-590
6.48333,-586
6.49167,-582
6.50000,-578
6.50833,-574
6.51667,-570
6.52500,-566
6.53333,-562
6.54167,-558
6.55000,-554
6.55833,-550
6.56667,-545
6.57500,-541
6.58333,-537
6.59167,-533
6.60000,-529
6.60833,-525
6.61667,-521
6.62500,-517
6.63333,-513
6.64167,-510
6.65000,-506
6.65833,-502
6.66667,-498
6.67500,-494
6.68333,-490
6.69167,-486
6.70000,-482
6.70833,-479
6.71667,-475
6.72500,-472
6.73333,-468
6.74167,-465
6.75000,-461
6.75833,-458
6.76667,-454
6.77500,-451
6.78333,-447
6.79167,-443
6.80000,-440
6.80833,-437
6.81667,-434
6.82500,-430
6.83333,-427
6.84167,-423
6.85000,-420
6.85833,-417
6.86667,-413
6.87500,-410
6.88333,-408
6.89167,-404
6.90000,-401
6.90833,-398
6.91667,-395
6.92500,-392
6.93333,-388
6.94167,-385
6.95000,-382
6.95833,-379
6.96667,-376
6.97500,-373
6.98333,-370
6.99167,-368
7.00000,-365
7.00833,-363
7.01667,-360
7.02500,-357
7.03333,-354
7.04167,-352
7.05000,-349
7.05833,-346
7.06667,-343
7.07500,-340
7.08333,-338
7.09167,-336
7.10000,-333
7.10833,-331
7.11667,-329
7.12500,-326
7.13333,-324
7.14167,-321
7.15000,-319
7.15833,-317
7.16667,-314
7.17500,-312
7.18333,-310
7.19167,-308
7.20000,-306
7.20833,-304
7.21667,-302
7.22500,-300
7.23333,-298
7.24167,-297
7.25000,-295
7.25833,-293
7.26667,-292
7.27500,-290
7.28333,-289
7.29167,-287
7.30000,-285
7.30833,-284
7.31667,-282
7.32500,-281
7.33333,-279
7.34167,-278
7.35000,-277
7.35833,-276
7.36667,-274
7.37500,-273
7.38333,-272
7.39167,-270
7.40000,-269
7.40833,-268
7.41667,-267
7.42500,-266
7.43333,-265
7.44167,-264
7.45000,-263
7.45833,-262
7.46667,-261
7.47500,-261
7.48333,-260
7.49167,-259
7.50000,-258
7.50833,-257
7.51667,-257
7.52500,-256
7.53333,-254
7.54167,-253
7.55000,-252
7.55833,-252
7.56667,-251
7.57500,-250
7.58333,-249
7.59167,-249
7.60000,-248
7.60833,-248
7.61667,-247
7.62500,-246
7.63333,-246
7.64167,-245
7.65000,-244
7.65833,-244
7.66667,-243
7.67500,-243
7.68333,-242
7.69167,-242
7.70000,-241
7.70833,-241
7.71667,-241
7.72500,-240
7.73333,-240
7.74167,-240
7.75000,-240
7.75833,-240
7.76667,-239
7.77500,-239
7.78333,-239
7.79167,-238
7.80000,-238
7.80833,-238
7.81667,-238
7.82500,-238
7.83333,-237
7.84167,-237
7.85000,-237
7.85833,-237
7.86667,-237
7.87500,-236
7.88333,-236
7.89167,-236
7.90000,-236
7.90833,-236
7.91667,-236
7.92500,-236
7.93333,-236
7.94167,-236
7.95000,-236
7.95833,-237
7.96667,-237
7.97500,-237
7.98333,-237
7.99167,-237
8.00000,-237
8.00833,-236
8.01667,-236
8.02500,-236
8.03333,-236
8.04167,-237
8.05000,-237
8.05833,-237
8.06667,-237
8.07500,-238
8.08333,-238
8.09167,-238
8.10000,-238
8.10833,-238
8.11667,-238
8.12500,-239
8.13333,-238
8.14167,-238
8.15000,-238
8.15833,-238
8.16667,-239
8.17500,-239
8.18333,-239
8.19167,-239
8.20000,-239
8.20833,-239
8.21667,-239
8.22500,-238
8.23333,-238
8.24167,-238
8.25000,-238
8.25833,-238
8.26667,-237
8.27500,-237
8.28333,-237
8.29167,-237
8.30000,-237
8.30833,-237
8.31667,-237
8.32500,-237
8.33333,-237
8.34167,-236
8.35000,-236
8.35833,-236
8.36667,-235
8.37500,-235
8.38333,-234
8.39167,-234
8.40000,-233
8.40833,-233
8.41667,-232
8.42500,-231
8.43333,-231
8.44167,-230
8.45000,-230
8.45833,-230
8.46667,-229
8.47500,-229
8.48333,-229
8.49167,-228
8.50000,-228
8.50833,-227
8.51667,-227
8.52500,-226
8.53333,-226
8.54167,-225
8.55000,-224
8.55833,-224
8.56667,-224
8.57500,-223
8.58333,-222
8.59167,-222
8.60000,-221
8.60833,-220
8.61667,-219
8.62500,-218
8.63333,-217
8.64167,-216
8.65000,-216
8.65833,-215
8.66667,-215
8.67500,-214
8.68333,-214
8.69167,-213
8.70000,-213
8.70833,-212
8.71667,-211
8.72500,-210
8.73333,-209
8.74167,-209
8.75000,-208
8.75833,-207
8.76667,-206
8.77500,-206
8.78333,-205
8.79167,-204
8.80000,-204
8.80833,-203
8.81667,-202
8.82500,-201
8.83333,-200
8.84167,-199
8.85000,-199
8.85833,-198
8.86667,-197
8.87500,-196
8.88333,-196
8.89167,-195
8.90000,-195
8.90833,-194
8.91667,-194
8.92500,-194
8.93333,-193
8.94167,-193
8.95000,-192
8.95833,-191
8.96667,-190
8.97500,-190
8.98333,-190
8.99167,-189
9.00000,-189
9.00833,-188
9.01667,-188
9.02500,-188
9.03333,-187
9.04167,-187
9.05000,-186
9.05833,-185
9.06667,-185
9.07500,-185
9.08333,-184
9.09167,-184
9.10000,-183
9.10833,-183
9.11667,-182
9.12500,-182
9.13333,-182
9.14167,-181
9.15000,-181
9.15833,-180
9.16667,-179
9.17500,-179
9.18333,-178
9.19167,-177
9.20000,-177
9.20833,-177
9.21667,-176
9.22500,-176
9.23333,-176
9.24167,-176
9.25000,-176
9.25833,-176
9.26667,-176
9.27500,-176
9.28333,-175
9.29167,-175
9.30000,-174
9.30833,-174
9.31667,-173
9.32500,-173
9.33333,-173
9.34167,-173
9.35000,-173
9.35833,-173
9.36667,-173
9.37500,-172
9.38333,-172
9.39167,-172
9.40000,-171
9.40833,-171
9.41667,-171
9.42500,-171
9.43333,-170
9.44167,-170
9.45000,-169
9.45833,-169
9.46667,-168
9.47500,-168
9.48333,-167
9.49167,-167
9.50000,-167
9.50833,-167
9.51667,-167
9.52500,-166
9.53333,-166
9.54167,-166
9.55000,-165
9.55833,-165
9.56667,-165
9.57500,-165
9.58333,-164
9.59167,-164
9.60000,-163
9.60833,-163
9.61667,-162
9.62500,-162
9.63333,-161
9.64167,-161
9.65000,-160
9.65833,-160
9.66667,-160
9.67500,-159
9.68333,-159
9.69167,-158
9.70000,-158
9.70833,-157
9.71667,-157
9.72500,-157
9.73333,-156
9.74167,-156
9.75000,-156
9.75833,-155
9.76667,-155
9.77500,-154
9.78333,-153
9.79167,-153
9.80000,-152
9.80833,-151
9.81667,-151
9.82500,-150
9.83333,-150
9.84167,-149
9.85000,-149
9.85833,-148
9.86667,-147
9.87500,-147
9.88333,-146
9.89167,-145
9.90000,-144
9.90833,-143
9.91667,-142
9.92500,-142
9.93333,-141
9.94167,-140
9.95000,-139
9.95833,-138
9.96667,-138
9.97500,-137
9.98333,-136
9.99167,-136
10.00000,-135
10.00833,-134
10.01667,-134
10.02500,-133
10.03333,-132
10.04167,-131
10.05000,-130
10.05833,-129
10.06667,-128
10.07500,-127
10.08333,-126
10.09167,-125
10.10000,-124
10.10833,-123
10.11667,-123
10.12500,-123
10.13333,-122
10.14167,-121
10.15000,-120
10.15833,-119
10.16667,-118
10.17500,-117
10.18333,-117
10.19167,-116
10.20000,-116
10.20833,-115
10.21667,-114
10.22500,-114
10.23333,-113
10.24167,-112
10.25000,-112
10.25833,-111
10.26667,-111
10.27500,-110
10.28333,-110
10.29167,-109
10.30000,-108
10.30833,-108
10.31667,-108
10.32500,-107
10.33333,-106
10.34167,-105
10.35000,-105
10.35833,-105
10.36667,-104
10.37500,-104
10.38333,-103
10.39167,-103
10.40000,-102
10.40833,-102
10.41667,-101
10.42500,-100
10.43333,-99
10.44167,-98
10.45000,-96
10.45833,-94
10.46667,-92
10.47500,-89
10.48333,-85
10.49167,-80
10.50000,-73
10.50833,-64
10.51667,-52
10.52500,-36
10.53333,-16
10.54167,10
10.55000,42
10.55833,82
10.56667,130
10.57500,189
10.58333,261
10.59167,348
10.60000,451
10.60833,572
10.61667,715
10.62500,881
10.63333,1072
10.64167,1292
10.65000,1540
10.65833,1820
10.66667,2132
10.67500,2477
10.68333,2858
10.69167,3273
10.70000,3723
10.70833,4207
10.71667,4723
10.72500,5271
10.73333,5846
10.74167,6446
10.75000,7067
10.75833,7704
10.76667,8352
10.77500,9006
10.78333,9657
10.79167,10301
10.80000,10928
10.80833,11531
10.81667,12102
10.82500,12633
10.83333,13116
10.84167,13544
10.85000,13908
10.85833,14203
10.86667,14424
10.87500,14566
10.88333,14627
10.89167,14604
10.90000,14498
10.90833,14309
10.91667,14042
10.92500,13702
10.93333,13293
10.94167,12823
10.95000,12300
10.95833,11733
10.96667,11131
10.97500,10503
10.98333,9860
10.99167,9208
11.00000,8558
11.00833,7915
11.01667,7288
11.02500,6681
11.03333,6100
11.04167,5548
11.05000,5028
11.05833,4541
11.06667,4089
11.07500,3672
11.08333,3289
11.09167,2940
11.10000,2623
11.10833,2337
11.11667,2081
11.12500,1852
11.13333,1648
11.14167,1467
11.15000,1307
11.15833,1167
11.16667,1045
11.17500,939
11.18333,847
11.19167,767
11.20000,700
11.20833,642
11.21667,594
11.22500,553
11.23333,520
11.24167,493
11.25000,471
11.25833,454
11.26667,441
11.27500,432
11.28333,425
11.29167,422
11.30000,420
11.30833,420
11.31667,422
11.32500,425
11.33333,429
11.34167,435
11.35000,441
11.35833,447
11.36667,454
11.37500,461
11.38333,469
11.39167,476
11.40000,484
11.40833,491
11.41667,499
11.42500,507
11.43333,514
11.44167,521
11.45000,528
11.45833,534
11.46667,540
11.47500,546
11.48333,552
11.49167,557
11.50000,562
11.50833,567
11.51667,572
11.52500,576
11.53333,579
11.54167,583
11.55000,586
11.55833,589
11.56667,591
11.57500,594
11.58333,596
11.59167,597
11.60000,598
11.60833,599
11.61667,599
11.62500,598
11.63333,597
11.64167,596
11.65000,595
11.65833,593
11.66667,591
11.67500,588
11.68333,586
11.69167,583
11.70000,579
11.70833,575
11.71667,571
11.72500,567
11.73333,562
11.74167,557
11.75000,552
11.75833,546
11.76667,540
11.77500,533
11.78333,526
11.79167,519
11.80000,512
11.80833,504
11.81667,496
11.82500,488
11.83333,480
11.84167,472
11.85000,464
11.85833,455
11.86667,446
11.87500,438
11.88333,428
11.89167,419
11.90000,410
11.90833,401
11.91667,392
11.92500,383
11.93333,373
11.94167,364
11.95000,354
11.95833,345
11.96667,335
11.97500,326
11.98333,317
11.99167,308
12.00000,299
12.00833,290
12.01667,280
12.02500,271
12.03333,262
12.04167,253
12.05000,245
12.05833,236
12.06667,228
12.07500,219
12.08333,211
12.09167,202
12.10000,194
12.10833,187
12.11667,179
12.12500,172
12.13333,164
12.14167,157
12.15000,150
12.15833,143
12.16667,136
12.17500,129
12.18333,123
12.19167,117
12.20000,110
12.20833,104
12.21667,98
12.22500,92
12.23333,87
12.24167,82
12.25000,76
12.25833,71
12.26667,66
12.27500,61
12.28333,57
12.29167,52
12.30000,48
12.30833,44
12.31667,39
12.32500,36
12.33333,32
12.34167,29
12.35000,25
12.35833,22
12.36667,18
12.37500,15
12.38333,11
12.39167,8
12.40000,6
12.40833,3
12.41667,0
12.42500,-2
12.43333,-4
12.44167,-6
12.45000,-9
12.45833,-11
12.46667,-12
12.47500,-14
12.48333,-16
12.49167,-18
12.50000,-20
12.50833,-22
12.51667,-24
12.52500,-25
12.53333,-27
12.54167,-27
12.55000,-28
12.55833,-29
12.56667,-29
12.57500,-29
12.58333,-29
12.59167,-29
12.60000,-27
12.60833,-26
12.61667,-23
12.62500,-20
12.63333,-16
12.64167,-11
12.65000,-4
12.65833,4
12.66667,15
12.67500,28
12.68333,43
12.69167,62
12.70000,84
12.70833,109
12.71667,139
12.72500,173
12.73333,211
12.74167,254
12.75000,303
12.75833,357
12.76667,418
12.77500,485
12.78333,557
12.79167,637
12.80000,722
12.80833,815
12.81667,915
12.82500,1021
12.83333,1134
12.84167,1254
12.85000,1381
12.85833,1514
12.86667,1654
12.87500,1801
12.88333,1953
12.89167,2112
12.90000,2276
12.90833,2447
12.91667,2622
12.92500,2804
12.93333,2990
12.94167,3182
12.95000,3378
12.95833,3579
12.96667,3784
12.97500,3994
12.98333,4208
12.99167,4426
13.00000,4648
13.00833,4874
13.01667,5103
13.02500,5336
13.03333,5573
13.04167,5813
13.05000,6057
13.05833,6304
13.06667,6553
13.07500,6806
13.08333,7061
13.09167,7320
13.10000,7582
13.10833,7846
13.11667,8112
13.12500,8382
13.13333,8654
13.14167,8928
13.15000,9205
13.15833,9485
13.16667,9767
13.17500,10052
13.18333,10339
13.19167,10629
13.20000,10922
13.20833,11216
13.21667,11513
13.22500,11813
13.23333,12114
13.24167,12418
13.25000,12725
13.25833,13033
13.26667,13345
13.27500,13658
13.28333,13974
13.29167,14292
13.30000,14612
13.30833,14935
13.31667,15260
13.32500,15588
13.33333,15918
13.34167,16250
13.35000,16584
13.35833,16921
13.36667,17261
13.37500,17603
13.38333,17947
13.39167,18294
13.40000,18643
13.40833,18995
13.41667,19349
13.42500,19706
13.43333,20065
13.44167,20427
13.45000,20791
13.45833,21159
13.46667,21528
13.47500,21901
13.48333,22276
13.49167,22653
13.50000,23033
13.50833,23416
13.51667,23801
13.52500,24190
13.53333,24581
13.54167,24974
13.55000,25371
13.55833,25770
13.56667,26173
13.57500,26578
13.58333,26986
13.59167,27397
13.60000,27811
13.60833,28227
13.61667,28647
13.62500,29069
13.63333,29495
13.64167,29923
13.65000,30355
13.65833,30789
13.66667,31227
13.67500,31668
13.68333,32112
13.69167,32559
13.70000,33009
13.70833,33463
13.71667,33919
13.72500,34379
13.73333,34842
13.74167,35308
13.75000,35778
13.75833,36250
13.76667,36727
13.77500,37206
13.78333,37689
13.79167,38176
13.80000,38665
13.80833,39158
13.81667,39654
13.82500,40154
13.83333,40657
13.84167,41163
13.85000,41671
13.85833,42180
13.86667,42689
13.87500,43193
13.88333,43689
13.89167,44168
13.90000,44619
13.90833,45030
13.91667,45381
13.92500,45652
13.93333,45819
13.94167,45855
13.95000,45733
13.95833,45426
13.96667,44914
13.97500,44178
13.98333,43209
13.99167,42005
14.00000,40572
14.00833,38926
14.01667,37094
14.02500,35105
14.03333,32999
14.04167,30816
14.05000,28597
14.05833,26384
14.06667,24215
14.07500,22125
14.08333,20142
14.09167,18290
14.10000,16585
14.10833,15038
14.11667,13656
14.12500,12439
14.13333,11383
14.14167,10485
14.15000,9734
14.15833,9122
14.16667,8637
14.17500,8269
14.18333,8004
14.19167,7832
14.20000,7740
14.20833,7716
14.21667,7750
14.22500,7830
14.23333,7947
14.24167,8090
14.25000,8251
14.25833,8421
14.26667,8593
14.27500,8758
14.28333,8912
14.29167,9047
14.30000,9161
14.30833,9248
14.31667,9306
14.32500,9332
14.33333,9325
14.34167,9284
14.35000,9209
14.35833,9100
14.36667,8960
14.37500,8790
14.38333,8591
14.39167,8366
14.40000,8119
14.40833,7852
14.41667,7568
14.42500,7271
14.43333,6963
14.44167,6647
14.45000,6327
14.45833,6006
14.46667,5685
14.47500,5367
14.48333,5055
14.49167,4749
14.50000,4453
14.50833,4166
14.51667,3889
14.52500,3625
14.53333,3373
14.54167,3134
14.55000,2908
14.55833,2695
14.56667,2495
14.57500,2308
14.58333,2134
14.59167,1972
14.60000,1821
14.60833,1682
14.61667,1553
14.62500,1435
14.63333,1326
14.64167,1226
14.65000,1133
14.65833,1049
14.66667,972
14.67500,901
14.68333,837
14.69167,778
14.70000,725
14.70833,676
14.71667,632
14.72500,592
14.73333,555
14.74167,521
14.75000,491
14.75833,463
14.76667,439
14.77500,416
14.78333,395
14.79167,376
14.80000,359
14.80833,343
14.81667,329
14.82500,316
14.83333,304
14.84167,293
14.85000,284
14.85833,275
14.86667,267
14.87500,260
14.88333,254
14.89167,249
14.90000,244
14.90833,240
14.91667,237
14.92500,233
14.93333,231
14.94167,229
14.95000,228
14.95833,227
14.96667,226
14.97500,226
14.98333,226
14.99167,227
15.00000,228
15.00833,229
15.01667,231
15.02500,233
15.03333,236
15.04167,239
15.05000,243
15.05833,247
15.06667,251
15.07500,256
15.08333,261
15.09167,266
15.10000,272
15.10833,279
15.11667,286
15.12500,293
15.13333,302
15.14167,313
15.15000,325
15.15833,339
15.16667,355
15.17500,374
15.18333,397
15.19167,425
15.20000,458
15.20833,497
15.21667,544
15.22500,599
15.23333,666
15.24167,744
15.25000,837
15.25833,945
15.26667,1073
15.27500,1222
15.28333,1396
15.29167,1595
15.30000,1825
15.30833,2088
15.31667,2389
15.32500,2729
15.33333,3113
15.34167,3544
15.35000,4025
15.35833,4560
15.36667,5152
15.37500,5803
15.38333,6514
15.39167,7290
15.40000,8130
15.40833,9035
15.41667,10006
15.42500,11042
15.43333,12142
15.44167,13303
15.45000,14522
15.45833,15797
15.46667,17121
15.47500,18490
15.48333,19897
15.49167,21335
15.50000,22797
15.50833,24274
15.51667,25758
15.52500,27239
15.53333,28707
15.54167,30153
15.55000,31567
15.55833,32938
15.56667,34258
15.57500,35516
15.58333,36704
15.59167,37813
15.60000,38835
15.60833,39764
15.61667,40593
15.62500,41316
15.63333,41931
15.64167,42432
15.65000,42818
15.65833,43086
15.66667,43237
15.67500,43272
15.68333,43191
15.69167,42998
15.70000,42696
15.70833,42288
15.71667,41780
15.72500,41176
15.73333,40484
15.74167,39708
15.75000,38857
15.75833,37937
15.76667,36955
15.77500,35918
15.78333,34835
15.79167,33713
15.80000,32558
15.80833,31379
15.81667,30181
15.82500,28972
15.83333,27758
15.84167,26545
15.85000,25338
15.85833,24142
15.86667,22962
15.87500,21802
15.88333,20665
15.89167,19556
15.90000,18477
15.90833,17430
15.91667,16419
15.92500,15444
15.93333,14506
15.94167,13607
15.95000,12747
15.95833,11926
15.96667,11145
15.97500,10403
15.98333,9700
15.99167,9035
16.00000,8408
16.00833,7818
16.01667,7263
16.02500,6743
16.03333,6255
16.04167,5799
16.05000,5373
16.05833,4976
16.06667,4607
16.07500,4264
16.08333,3946
16.09167,3651
16.10000,3378
16.10833,3125
16.11667,2892
16.12500,2677
16.13333,2479
16.14167,2296
16.15000,2128
16.15833,1973
16.16667,1831
16.17500,1700
16.18333,1580
16.19167,1470
16.20000,1369
16.20833,1277
16.21667,1192
16.22500,1113
16.23333,1042
16.24167,976
16.25000,916
16.25833,862
16.26667,811
16.27500,765
16.28333,723
16.29167,683
16.30000,647
16.30833,615
16.31667,585
16.32500,557
16.33333,531
16.34167,508
16.35000,486
16.35833,466
16.36667,447
16.37500,430
16.38333,414
16.39167,399
16.40000,386
16.40833,373
16.41667,361
16.42500,349
16.43333,339
16.44167,330
16.45000,321
16.45833,312
16.46667,304
16.47500,296
16.48333,289
16.49167,283
16.50000,277
16.50833,271
16.51667,266
16.52500,261
16.53333,257
16.54167,253
16.55000,249
16.55833,245
16.56667,241
16.57500,237
16.58333,234
16.59167,231
16.60000,228
16.60833,225
16.61667,222
16.62500,220
16.63333,217
16.64167,215
16.65000,213
16.65833,210
16.66667,208
16.67500,206
16.68333,204
16.69167,202
16.70000,200
16.70833,199
16.71667,197
16.72500,195
16.73333,194
16.74167,192
16.75000,190
16.75833,189
16.76667,187
16.77500,186
16.78333,184
16.79167,183
16.80000,181
16.80833,180
16.81667,178
16.82500,176
16.83333,175
16.84167,173
16.85000,172
16.85833,170
16.86667,169
16.87500,168
16.88333,167
16.89167,165
16.90000,164
16.90833,162
16.91667,161
16.92500,159
16.93333,158
16.94167,156
16.95000,155
16.95833,154
16.96667,153
16.97500,151
16.98333,150
16.99167,148
17.00000,147
17.00833,146
17.01667,145
17.02500,143
17.03333,142
17.04167,140
17.05000,139
17.05833,138
17.06667,137
17.07500,136
17.08333,135
17.09167,134
17.10000,132
17.10833,131
17.11667,130
17.12500,128
17.13333,127
17.14167,126
17.15000,125
17.15833,124
17.16667,123
17.17500,121
17.18333,120
17.19167,119
17.20000,118
17.20833,117
17.21667,116
17.22500,115
17.23333,114
17.24167,113
17.25000,112
17.25833,112
17.26667,111
17.27500,109
17.28333,108
17.29167,107
17.30000,107
17.30833,106
17.31667,106
17.32500,105
17.33333,104
17.34167,103
17.35000,102
17.35833,101
17.36667,101
17.37500,100
17.38333,100
17.39167,98
17.40000,97
17.40833,95
17.41667,94
17.42500,93
17.43333,92
17.44167,92
17.45000,91
17.45833,90
17.46667,89
17.47500,89
17.48333,89
17.49167,89
17.50000,88
17.50833,87
17.51667,87
17.52500,86
17.53333,85
17.54167,85
17.55000,84
17.55833,84
17.56667,83
17.57500,82
17.58333,81
17.59167,81
17.60000,81
17.60833,80
17.61667,79
17.62500,79
17.63333,78
17.64167,78
17.65000,77
17.65833,77
17.66667,77
17.67500,76
17.68333,76
17.69167,75
17.70000,74
17.70833,74
17.71667,74
17.72500,74
17.73333,74
17.74167,73
17.75000,73
17.75833,72
17.76667,72
17.77500,72
17.78333,72
17.79167,72
17.80000,72
17.80833,72
17.81667,71
17.82500,70
17.83333,70
17.84167,69
17.85000,69
17.85833,68
17.86667,68
17.87500,68
17.88333,67
17.89167,67
17.90000,67
17.90833,67
17.91667,67
17.92500,66
17.93333,66
17.94167,65
17.95000,65
17.95833,64
17.96667,64
17.97500,63
17.98333,63
17.99167,62
18.00000,62
18.00833,61
18.01667,61
18.02500,60
18.03333,60
18.04167,59
18.05000,58
18.05833,58
18.06667,58
18.07500,57
18.08333,57
18.09167,57
18.10000,57
18.10833,57
18.11667,57
18.12500,57
18.13333,56
18.14167,55
18.15000,55
18.15833,54
18.16667,54
18.17500,54
18.18333,54
18.19167,54
18.20000,54
18.20833,54
18.21667,54
18.22500,53
18.23333,53
18.24167,53
18.25000,52
18.25833,52
18.26667,52
18.27500,51
18.28333,51
18.29167,50
18.30000,50
18.30833,50
18.31667,50
18.32500,50
18.33333,50
18.34167,49
18.35000,49
18.35833,49
18.36667,49
18.37500,48
18.38333,48
18.39167,47
18.40000,47
18.40833,47
18.41667,46
18.42500,46
18.43333,46
18.44167,46
18.45000,46
18.45833,46
18.46667,46
18.47500,45
18.48333,45
18.49167,44
18.50000,44
18.50833,44
18.51667,43
18.52500,43
18.53333,43
18.54167,42
18.55000,42
18.55833,42
18.56667,42
18.57500,42
18.58333,42
18.59167,42
18.60000,42
18.60833,42
18.61667,43
18.62500,43
18.63333,42
18.64167,42
18.65000,42
18.65833,42
18.66667,42
18.67500,43
18.68333,43
18.69167,43
18.70000,44
18.70833,44
18.71667,45
18.72500,46
18.73333,47
18.74167,48
18.75000,49
18.75833,50
18.76667,51
18.77500,53
18.78333,54
18.79167,56
18.80000,58
18.80833,60
18.81667,63
18.82500,65
18.83333,68
18.84167,71
18.85000,74
18.85833,78
18.86667,81
18.87500,85
18.88333,88
18.89167,92
18.90000,95
18.90833,99
18.91667,102
18.92500,105
18.93333,109
18.94167,112
18.95000,116
18.95833,119
18.96667,122
18.97500,126
18.98333,129
18.99167,132
19.00000,134
19.00833,137
19.01667,139
19.02500,141
19.03333,142
19.04167,144
19.05000,145
19.05833,146
19.06667,146
19.07500,147
19.08333,147
19.09167,146
19.10000,145
19.10833,144
19.11667,143
19.12500,141
19.13333,139
19.14167,137
19.15000,135
19.15833,132
19.16667,129
19.17500,126
19.18333,123
19.19167,120
19.20000,116
19.20833,113
19.21667,109
19.22500,106
19.23333,102
19.24167,98
19.25000,94
19.25833,90
19.26667,87
19.27500,83
19.28333,80
19.29167,77
19.30000,74
19.30833,70
19.31667,67
19.32500,64
19.33333,60
19.34167,57
19.35000,55
19.35833,52
19.36667,49
19.37500,47
19.38333,44
19.39167,42
19.40000,40
19.40833,38
19.41667,36
19.42500,34
19.43333,33
19.44167,31
19.45000,30
19.45833,29
19.46667,28
19.47500,27
19.48333,26
19.49167,25
19.50000,24
19.50833,23
19.51667,22
19.52500,22
19.53333,21
19.54167,21
19.55000,20
19.55833,20
19.56667,19
19.57500,19
19.58333,18
19.59167,18
19.60000,18
19.60833,17
19.61667,17
19.62500,18
19.63333,18
19.64167,18
19.65000,18
19.65833,18
19.66667,18
19.67500,18
19.68333,18
19.69167,18
19.70000,18
19.70833,18
19.71667,18
19.72500,18
19.73333,18
19.74167,17
19.75000,17
19.75833,17
19.76667,17
19.77500,17
19.78333,17
19.79167,18
19.80000,18
19.80833,18
19.81667,19
19.82500,19
19.83333,20
19.84167,20
19.85000,20
19.85833,20
19.86667,20
19.87500,20
19.88333,20
19.89167,21
19.90000,21
19.90833,21
19.91667,20
19.92500,20
19.93333,20
19.94167,20
19.95000,20
19.95833,20
19.96667,20
19.97500,20
19.98333,20
19.99167,20
20.00000,21
20.00833,21
20.01667,21
20.02500,21
20.03333,21
20.04167,21
20.05000,21
20.05833,22
20.06667,22
20.07500,22
20.08333,22
20.09167,22
20.10000,22
20.10833,22
20.11667,22
20.12500,21
20.13333,21
20.14167,21
20.15000,21
20.15833,21
20.16667,21
20.17500,21
20.18333,21
20.19167,21
20.20000,21
20.20833,21
20.21667,20
20.22500,20
20.23333,20
20.24167,20
20.25000,20
20.25833,20
20.26667,20
20.27500,20
20.28333,20
20.29167,20
20.30000,20
20.30833,20
20.31667,20
20.32500,20
20.33333,20
20.34167,20
20.35000,20
20.35833,20
20.36667,20
20.37500,20
20.38333,20
20.39167,20
20.40000,19
20.40833,19
20.41667,19
20.42500,18
20.43333,18
20.44167,17
20.45000,17
20.45833,17
20.46667,17
20.47500,17
20.48333,17
20.49167,17
20.50000,17
20.50833,17
20.51667,17
20.52500,16
20.53333,16
20.54167,16
20.55000,16
20.55833,17
20.56667,16
20.57500,16
20.58333,16
20.59167,16
20.60000,16
20.60833,16
20.61667,15
20.62500,15
20.63333,15
20.64167,15
20.65000,15
20.65833,14
20.66667,14
20.67500,14
20.68333,13
20.69167,13
20.70000,13
20.70833,14
20.71667,14
20.72500,14
20.73333,14
20.74167,14
20.75000,13
20.75833,13
20.76667,12
20.77500,12
20.78333,12
20.79167,12
20.80000,12
20.80833,11
20.81667,11
20.82500,11
20.83333,10
20.84167,10
20.85000,10
20.85833,10
20.86667,10
20.87500,10
20.88333,10
20.89167,10
20.90000,10
20.90833,9
20.91667,9
20.92500,9
20.93333,9
20.94167,9
20.95000,9
20.95833,9
20.96667,8
20.97500,7
20.98333,7
20.99167,7
21.00000,7
21.00833,8
21.01667,8
21.02500,8
21.03333,8
21.04167,7
21.05000,7
21.05833,7
21.06667,7
21.07500,6
21.08333,7
21.09167,7
21.10000,7
21.10833,7
21.11667,8
21.12500,8
21.13333,8
21.14167,9
21.15000,9
21.15833,9
21.16667,9
21.17500,9
21.18333,9
21.19167,9
21.20000,9
21.20833,10
21.21667,11
21.22500,11
21.23333,11
21.24167,11
21.25000,11
21.25833,10
21.26667,10
21.27500,10
21.28333,10
21.29167,10
21.30000,10
21.30833,10
21.31667,10
21.32500,10
21.33333,10
21.34167,10
21.35000,10
21.35833,10
21.36667,10
21.37500,10
21.38333,11
21.39167,11
21.40000,11
21.40833,11
21.41667,11
21.42500,11
21.43333,11
21.44167,11
21.45000,12
21.45833,12
21.46667,13
21.47500,13
21.48333,13
21.49167,13
21.50000,13
21.50833,13
21.51667,13
21.52500,14
21.53333,14
21.54167,14
21.55000,15
21.55833,15
21.56667,15
21.57500,16
21.58333,15
21.59167,15
21.60000,15
21.60833,15
21.61667,15
21.62500,15
21.63333,15
21.64167,15
21.65000,15
21.65833,15
21.66667,16
21.67500,16
21.68333,16
21.69167,16
21.70000,16
21.70833,17
21.71667,17
21.72500,17
21.73333,17
21.74167,18
21.75000,18
21.75833,19
21.76667,19
21.77500,19
21.78333,19
21.79167,19
21.80000,19
21.80833,19
21.81667,20
21.82500,20
21.83333,20
21.84167,21
21.85000,21
21.85833,21
21.86667,21
21.87500,20
21.88333,20
21.89167,20
21.90000,20
21.90833,21
21.91667,21
21.92500,21
21.93333,21
21.94167,21
21.95000,21
21.95833,21
21.96667,21
21.97500,21
21.98333,21
21.99167,21
22.00000,21
22.00833,20
22.01667,20
22.02500,20
22.03333,20
22.04167,20
22.05000,20
22.05833,19
22.06667,19
22.07500,19
22.08333,19
22.09167,18
22.10000,18
22.10833,17
22.11667,17
22.12500,17
22.13333,17
22.14167,17
22.15000,16
22.15833,16
22.16667,16
22.17500,16
22.18333,16
22.19167,16
22.20000,16
22.20833,15
22.21667,15
22.22500,15
22.23333,15
22.24167,14
22.25000,14
22.25833,14
22.26667,13
22.27500,13
22.28333,13
22.29167,13
22.30000,12
22.30833,12
22.31667,12
22.32500,12
22.33333,12
22.34167,12
22.35000,12
22.35833,11
22.36667,11
22.37500,11
22.38333,11
22.39167,11
22.40000,12
22.40833,12
22.41667,12
22.42500,11
22.43333,11
22.44167,11
22.45000,10
22.45833,10
22.46667,10
22.47500,10
22.48333,10
22.49167,10
22.50000,10
22.50833,10
22.51667,10
22.52500,10
22.53333,10
22.54167,11
22.55000,11
22.55833,12
22.56667,13
22.57500,13
22.58333,13
22.59167,14
22.60000,14
22.60833,15
22.61667,16
22.62500,16
22.63333,16
22.64167,17
22.65000,17
22.65833,18
22.66667,18
22.67500,19
22.68333,20
22.69167,20
22.70000,21
22.70833,22
22.71667,23
22.72500,24
22.73333,24
22.74167,25
22.75000,26
22.75833,27
22.76667,28
22.77500,29
22.78333,30
22.79167,31
22.80000,32
22.80833,32
22.81667,33
22.82500,33
22.83333,34
22.84167,35
22.85000,36
22.85833,37
22.86667,37
22.87500,37
22.88333,38
22.89167,38
22.90000,38
22.90833,38
22.91667,38
22.92500,38
22.93333,38
22.94167,38
22.95000,38
22.95833,38
22.96667,39
22.97500,39
22.98333,39
22.99167,39
23.00000,39
23.00833,39
23.01667,38
23.02500,38
23.03333,38
23.04167,38
23.05000,37
23.05833,37
23.06667,36
23.07500,35
23.08333,35
23.09167,35
23.10000,35
23.10833,34
23.11667,34
23.12500,33
23.13333,33
23.14167,32
23.15000,32
23.15833,32
23.16667,32
23.17500,32
23.18333,31
23.19167,31
23.20000,31
23.20833,30
23.21667,30
23.22500,30
23.23333,29
23.24167,29
23.25000,29
23.25833,28
23.26667,28
23.27500,28
23.28333,28
23.29167,27
23.30000,27
23.30833,27
23.31667,27
23.32500,27
23.33333,27
23.34167,27
23.35000,27
23.35833,27
23.36667,27
23.37500,26
23.38333,26
23.39167,26
23.40000,26
23.40833,26
23.41667,26
23.42500,26
23.43333,26
23.44167,25
23.45000,25
23.45833,25
23.46667,24
23.47500,24
23.48333,24
23.49167,24
23.50000,24
23.50833,23
23.51667,23
23.52500,24
23.53333,23
23.54167,23
23.55000,23
23.55833,23
23.56667,23
23.57500,22
23.58333,22
23.59167,22
23.60000,21
23.60833,21
23.61667,21
23.62500,21
23.63333,21
23.64167,21
23.65000,20
23.65833,20
23.66667,20
23.67500,20
23.68333,20
23.69167,21
23.70000,20
23.70833,20
23.71667,20
23.72500,20
23.73333,20
23.74167,21
23.75000,21
23.75833,21
23.76667,21
23.77500,20
23.78333,20
23.79167,20
23.80000,20
23.80833,20
23.81667,20
23.82500,20
23.83333,20
23.84167,20
23.85000,20
23.85833,20
23.86667,21
23.87500,21
23.88333,21
23.89167,22
23.90000,22
23.90833,23
23.91667,23
23.92500,23
23.93333,23
23.94167,23
23.95000,23
23.95833,22
23.96667,22
23.97500,23
23.98333,23
23.99167,23
24.00000,23
24.00833,23
24.01667,24
24.02500,24
24.03333,24
24.04167,24
24.05000,24
24.05833,24
24.06667,25
24.07500,24
24.08333,24
24.09167,24
24.10000,24
24.10833,24
24.11667,24
24.12500,24
24.13333,25
24.14167,25
24.15000,25
24.15833,26
24.16667,26
24.17500,26
24.18333,26
24.19167,26
24.20000,26
24.20833,26
24.21667,26
24.22500,26
24.23333,26
24.24167,26
24.25000,25
24.25833,25
24.26667,26
24.27500,25
24.28333,26
24.29167,26
24.30000,26
24.30833,27
24.31667,27
24.32500,27
24.33333,28
24.34167,28
24.35000,29
24.35833,29
24.36667,28
24.37500,28
24.38333,28
24.39167,28
24.40000,28
24.40833,28
24.41667,29
24.42500,29
24.43333,29
24.44167,30
24.45000,30
24.45833,30
24.46667,30
24.47500,30
24.48333,30
24.49167,30
24.50000,30
24.50833,30
24.51667,30
24.52500,31
24.53333,31
24.54167,31
24.55000,31
24.55833,32
24.56667,32
24.57500,33
24.58333,33
24.59167,34
24.60000,35
24.60833,35
24.61667,36
24.62500,37
24.63333,38
24.64167,39
24.65000,40
24.65833,41
24.66667,42
24.67500,44
24.68333,45
24.69167,47
24.70000,49
24.70833,51
24.71667,53
24.72500,55
24.73333,57
24.74167,59
24.75000,61
24.75833,63
24.76667,66
24.77500,68
24.78333,71
24.79167,73
24.80000,76
24.80833,79
24.81667,81
24.82500,84
24.83333,87
24.84167,90
24.85000,93
24.85833,96
24.86667,99
24.87500,101
24.88333,104
24.89167,106
24.90000,109
24.90833,111
24.91667,114
24.92500,116
24.93333,118
24.94167,120
24.95000,121
24.95833,123
24.96667,125
24.97500,126
24.98333,127
24.99167,129
25.00000,129
25.00833,130
25.01667,131
25.02500,131
25.03333,131
25.04167,131
25.05000,130
25.05833,129
25.06667,128
25.07500,127
25.08333,126
25.09167,125
25.10000,123
25.10833,122
25.11667,120
25.12500,119
25.13333,117
25.14167,115
25.15000,113
25.15833,111
25.16667,109
25.17500,107
25.18333,104
25.19167,102
25.20000,100
25.20833,98
25.21667,95
25.22500,92
25.23333,90
25.24167,87
25.25000,84
25.25833,81
25.26667,78
25.27500,76
25.28333,73
25.29167,70
25.30000,67
25.30833,65
25.31667,63
25.32500,61
25.33333,59
25.34167,57
25.35000,55
25.35833,53
25.36667,52
25.37500,50
25.38333,48
25.39167,47
25.40000,45
25.40833,44
25.41667,42
25.42500,41
25.43333,40
25.44167,39
25.45000,38
25.45833,36
25.46667,36
25.47500,34
25.48333,34
25.49167,33
25.50000,32
25.50833,31
25.51667,31
25.52500,30
25.53333,30
25.54167,29
25.55000,29
25.55833,28
25.56667,28
25.57500,28
25.58333,27
25.59167,26
25.60000,26
25.60833,26
25.61667,26
25.62500,26
25.63333,26
25.64167,25
25.65000,25
25.65833,25
25.66667,25
25.67500,25
25.68333,25
25.69167,25
25.70000,25
25.70833,25
25.71667,25
25.72500,25
25.73333,25
25.74167,25
25.75000,25
25.75833,25
25.76667,26
25.77500,26
25.78333,26
25.79167,26
25.80000,26
25.80833,26
25.81667,26
25.82500,26
25.83333,26
25.84167,26
25.85000,26
25.85833,26
25.86667,26
25.87500,26
25.88333,26
25.89167,26
25.90000,27
25.90833,27
25.91667,27
25.92500,27
25.93333,28
25.94167,28
25.95000,28
25.95833,28
25.96667,28
25.97500,29
25.98333,29
25.99167,29
26.00000,29
26.00833,30
26.01667,30
26.02500,31
26.03333,31
26.04167,31
26.05000,31
26.05833,31
26.06667,31
26.07500,31
26.08333,32
26.09167,32
26.10000,31
26.10833,31
26.11667,32
26.12500,32
26.13333,32
26.14167,32
26.15000,32
26.15833,33
26.16667,33
26.17500,34
26.18333,34
26.19167,35
26.20000,35
26.20833,36
26.21667,36
26.22500,36
26.23333,37
26.24167,37
26.25000,37
26.25833,37
26.26667,37
26.27500,38
26.28333,38
26.29167,38
26.30000,39
26.30833,39
26.31667,39
26.32500,39
26.33333,39
26.34167,40
26.35000,40
26.35833,41
26.36667,41
26.37500,41
26.38333,41
26.39167,41
26.40000,41
26.40833,41
26.41667,41
26.42500,41
26.43333,42
26.44167,42
26.45000,42
26.45833,42
26.46667,43
26.47500,43
26.48333,43
26.49167,43
26.50000,44
26.50833,44
26.51667,44
26.52500,44
26.53333,44
26.54167,44
26.55000,43
26.55833,43
26.56667,43
26.57500,44
26.58333,44
26.59167,44
26.60000,44
26.60833,44
26.61667,44
26.62500,44
26.63333,44
26.64167,44
26.65000,44
26.65833,44
26.66667,44
26.67500,44
26.68333,44
26.69167,43
26.70000,43
26.70833,43
26.71667,44
26.72500,43
26.73333,43
26.74167,43
26.75000,43
26.75833,43
26.76667,43
26.77500,43
26.78333,43
26.79167,42
26.80000,42
26.80833,43
26.81667,43
26.82500,43
26.83333,43
26.84167,43
26.85000,42
26.85833,42
26.86667,42
26.87500,42
26.88333,41
26.89167,41
26.90000,41
26.90833,40
26.91667,40
26.92500,40
26.93333,40
26.94167,39
26.95000,39
26.95833,39
26.96667,39
26.97500,39
26.98333,39
26.99167,39
27.00000,39
27.00833,39
27.01667,39
27.02500,38
27.03333,38
27.04167,38
27.05000,38
27.05833,37
27.06667,37
27.07500,36
27.08333,36
27.09167,36
27.10000,36
27.10833,36
27.11667,36
27.12500,37
27.13333,37
27.14167,37
27.15000,37
27.15833,36
27.16667,36
27.17500,36
27.18333,36
27.19167,36
27.20000,36
27.20833,36
27.21667,35
27.22500,35
27.23333,35
27.24167,35
27.25000,35
27.25833,35
27.26667,35
27.27500,35
27.28333,35
27.29167,35
27.30000,35
27.30833,35
27.31667,35
27.32500,35
27.33333,35
27.34167,35
27.35000,35
27.35833,35
27.36667,34
27.37500,34
27.38333,34
27.39167,34
27.40000,34
27.40833,35
27.41667,35
27.42500,35
27.43333,35
27.44167,35
27.45000,35
27.45833,35
27.46667,35
27.47500,35
27.48333,34
27.49167,35
27.50000,35
27.50833,35
27.51667,35
27.52500,35
27.53333,35
27.54167,36
27.55000,36
27.55833,36
27.56667,36
27.57500,35
27.58333,35
27.59167,35
27.60000,36
27.60833,36
27.61667,36
27.62500,36
27.63333,36
27.64167,37
27.65000,37
27.65833,36
27.66667,36
27.67500,36
27.68333,36
27.69167,36
27.70000,35
27.70833,35
27.71667,35
27.72500,35
27.73333,35
27.74167,34
27.75000,34
27.75833,34
27.76667,34
27.77500,33
27.78333,33
27.79167,32
27.80000,32
27.80833,31
27.81667,30
27.82500,29
27.83333,28
27.84167,27
27.85000,26
27.85833,25
27.86667,24
27.87500,22
27.88333,21
27.89167,20
27.90000,18
27.90833,17
27.91667,15
27.92500,14
27.93333,12
27.94167,10
27.95000,8
27.95833,6
27.96667,3
27.97500,1
27.98333,-1
27.99167,-3
28.00000,-6
28.00833,-8
28.01667,-11
28.02500,-14
28.03333,-16
28.04167,-19
28.05000,-22
28.05833,-25
28.06667,-28
28.07500,-31
28.08333,-34
28.09167,-38
28.10000,-41
28.10833,-44
28.11667,-47
28.12500,-51
28.13333,-54
28.14167,-57
28.15000,-60
28.15833,-63
28.16667,-67
28.17500,-70
28.18333,-73
28.19167,-75
28.20000,-78
28.20833,-81
28.21667,-84
28.22500,-87
28.23333,-89
28.24167,-92
28.25000,-94
28.25833,-96
28.26667,-98
28.27500,-100
28.28333,-102
28.29167,-103
28.30000,-104
28.30833,-106
28.31667,-107
28.32500,-108
28.33333,-109
28.34167,-109
28.35000,-110
28.35833,-110
28.36667,-110
28.37500,-109
28.38333,-109
28.39167,-108
28.40000,-107
28.40833,-107
28.41667,-106
28.42500,-105
28.43333,-104
28.44167,-102
28.45000,-101
28.45833,-99
28.46667,-97
28.47500,-96
28.48333,-94
28.49167,-92
28.50000,-90
28.50833,-88
28.51667,-85
28.52500,-83
28.53333,-80
28.54167,-78
28.55000,-76
28.55833,-73
28.56667,-70
28.57500,-67
28.58333,-65
28.59167,-62
28.60000,-59
28.60833,-56
28.61667,-53
28.62500,-50
28.63333,-47
28.64167,-44
28.65000,-42
28.65833,-40
28.66667,-37
28.67500,-35
28.68333,-32
28.69167,-30
28.70000,-27
28.70833,-25
28.71667,-23
28.72500,-20
28.73333,-18
28.74167,-16
28.75000,-13
28.75833,-11
28.76667,-9
28.77500,-7
28.78333,-6
28.79167,-4
28.80000,-2
28.80833,0
28.81667,2
28.82500,3
28.83333,5
28.84167,6
28.85000,7
28.85833,9
28.86667,10
28.87500,11
28.88333,12
28.89167,13
28.90000,14
28.90833,15
28.91667,16
28.92500,17
28.93333,18
28.94167,19
28.95000,20
28.95833,21
28.96667,21
28.97500,22
28.98333,23
28.99167,23
29.00000,23
29.00833,24
29.01667,24
29.02500,25
29.03333,26
29.04167,26
29.05000,27
29.05833,27
29.06667,27
29.07500,28
29.08333,28
29.09167,29
29.10000,29
29.10833,30
29.11667,30
29.12500,31
29.13333,31
29.14167,31
29.15000,32
29.15833,32
29.16667,32
29.17500,33
29.18333,33
29.19167,33
29.20000,34
29.20833,34
29.21667,34
29.22500,35
29.23333,35
29.24167,36
29.25000,36
29.25833,36
29.26667,36
29.27500,37
29.28333,37
29.29167,37
29.30000,37
29.30833,37
29.31667,38
29.32500,38
29.33333,38
29.34167,39
29.35000,39
29.35833,40
29.36667,40
29.37500,41
29.38333,41
29.39167,41
29.40000,41
29.40833,41
29.41667,41
29.42500,41
29.43333,41
29.44167,41
29.45000,41
29.45833,41
29.46667,41
29.47500,41
29.48333,41
29.49167,41
29.50000,41
29.50833,41
29.51667,40
29.52500,40
29.53333,40
29.54167,40
29.55000,40
29.55833,39
29.56667,39
29.57500,38
29.58333,38
29.59167,37
29.60000,37
29.60833,36
29.61667,36
29.62500,35
29.63333,35
29.64167,34
29.65000,33
29.65833,33
29.66667,32
29.67500,32
29.68333,31
29.69167,30
29.70000,29
29.70833,28
29.71667,27
29.72500,25
29.73333,24
29.74167,22
29.75000,21
29.75833,20
29.76667,19
29.77500,17
29.78333,16
29.79167,14
29.80000,13
29.80833,12
29.81667,10
29.82500,9
29.83333,7
29.84167,6
29.85000,5
29.85833,4
29.86667,2
29.87500,1
29.88333,-0
29.89167,-2
29.90000,-3
29.90833,-4
29.91667,-6
29.92500,-7
29.93333,-9
29.94167,-10
29.95000,-12
29.95833,-13
29.96667,-14
29.97500,-15
29.98333,-16
29.99167,-17
30.00000,-18
30.00833,-19
30.01667,-20
30.02500,-21
30.03333,-22
30.04167,-23
30.05000,-23
30.05833,-24
30.06667,-24
30.07500,-25
30.08333,-25
30.09167,-26
30.10000,-26
30.10833,-26
30.11667,-26
30.12500,-27
30.13333,-27
30.14167,-27
30.15000,-27
30.15833,-27
30.16667,-26
30.17500,-26
30.18333,-26
30.19167,-25
30.20000,-24
30.20833,-24
30.21667,-23
30.22500,-23
30.23333,-22
30.24167,-22
30.25000,-21
30.25833,-20
30.26667,-19
30.27500,-18
30.28333,-17
30.29167,-16
30.30000,-15
30.30833,-14
30.31667,-13
30.32500,-12
30.33333,-11
30.34167,-10
30.35000,-9
30.35833,-8
30.36667,-7
30.37500,-6
30.38333,-4
30.39167,-3
30.40000,-2
30.40833,-0
30.41667,1
30.42500,2
30.43333,3
30.44167,4
30.45000,5
30.45833,6
30.46667,7
30.47500,8
30.48333,9
30.49167,10
30.50000,11
30.50833,12
30.51667,13
30.52500,14
30.53333,15
30.54167,16
30.55000,16
30.55833,17
30.56667,18
30.57500,18
30.58333,19
30.59167,20
30.60000,20
30.60833,21
30.61667,21
30.62500,22
30.63333,22
30.64167,23
30.65000,24
30.65833,25
30.66667,25
30.67500,26
30.68333,26
30.69167,27
30.70000,27
30.70833,27
30.71667,28
30.72500,28
30.73333,28
30.74167,29
30.75000,29
30.75833,29
30.76667,30
30.77500,30
30.78333,30
30.79167,30
30.80000,30
30.80833,31
30.81667,31
30.82500,31
30.83333,31
30.84167,31
30.85000,31
30.85833,32
30.86667,32
30.87500,33
30.88333,33
30.89167,33
30.90000,33
30.90833,33
30.91667,33
30.92500,33
30.93333,34
30.94167,34
30.95000,34
30.95833,34
30.96667,35
30.97500,35
30.98333,35
30.99167,35
31.00000,35
31.00833,36
31.01667,36
31.02500,37
31.03333,37
31.04167,37
31.05000,38
31.05833,38
31.06667,38
31.07500,39
31.08333,39
31.09167,40
31.10000,40
31.10833,41
31.11667,41
31.12500,42
31.13333,42
31.14167,42
31.15000,42
31.15833,43
31.16667,43
31.17500,44
31.18333,44
31.19167,45
31.20000,45
31.20833,45
31.21667,46
31.22500,46
31.23333,46
31.24167,46
31.25000,46
31.25833,47
31.26667,47
31.27500,47
31.28333,48
31.29167,48
31.30000,49
31.30833,50
31.31667,50
31.32500,50
31.33333,51
31.34167,51
31.35000,51
31.35833,51
31.36667,51
31.37500,51
31.38333,51
31.39167,52
31.40000,52
31.40833,52
31.41667,53
31.42500,53
31.43333,54
31.44167,54
31.45000,54
31.45833,54
31.46667,54
31.47500,54
31.48333,54
31.49167,54
31.50000,55
31.50833,55
31.51667,55
31.52500,55
31.53333,55
31.54167,55
31.55000,55
31.55833,55
31.56667,55
31.57500,55
31.58333,55
31.59167,55
31.60000,55
31.60833,55
31.61667,55
31.62500,55
31.63333,55
31.64167,55
31.65000,55
31.65833,55
31.66667,55
31.67500,55
31.68333,54
31.69167,54
31.70000,54
31.70833,53
31.71667,53
31.72500,54
31.73333,54
31.74167,54
31.75000,54
31.75833,54
31.76667,53
31.77500,53
31.78333,53
31.79167,53
31.80000,53
31.80833,53
31.81667,53
31.82500,53
31.83333,53
31.84167,53
31.85000,52
31.85833,52
31.86667,52
31.87500,52
31.88333,52
31.89167,52
31.90000,52
31.90833,52
31.91667,52
31.92500,53
31.93333,53
31.94167,53
31.95000,53
31.95833,53
31.96667,53
31.97500,53
31.98333,53
31.99167,52
32.00000,52
32.00833,52
32.01667,53
32.02500,53
32.03333,53
32.04167,53
32.05000,53
32.05833,53
32.06667,53
32.07500,54
32.08333,54
32.09167,54
32.10000,54
32.10833,54
32.11667,54
32.12500,54
32.13333,54
32.14167,55
32.15000,55
32.15833,55
32.16667,55
32.17500,55
32.18333,55
32.19167,55
32.20000,56
32.20833,56
32.21667,56
32.22500,56
32.23333,56
32.24167,57
32.25000,57
32.25833,57
32.26667,56
32.27500,57
32.28333,57
32.29167,57
32.30000,57
32.30833,57
32.31667,58
32.32500,58
32.33333,58
32.34167,58
32.35000,58
32.35833,58
32.36667,59
32.37500,59
32.38333,60
32.39167,60
32.40000,60
32.40833,61
32.41667,61
32.42500,61
32.43333,61
32.44167,62
32.45000,62
32.45833,62
32.46667,62
32.47500,62
32.48333,62
32.49167,62
32.50000,63
32.50833,63
32.51667,63
32.52500,64
32.53333,65
32.54167,65
32.55000,65
32.55833,65
32.56667,65
32.57500,65
32.58333,65
32.59167,66
32.60000,66
32.60833,66
32.61667,66
32.62500,66
32.63333,66
32.64167,66
32.65000,66
32.65833,66
32.66667,66
32.67500,66
32.68333,66
32.69167,66
32.70000,66
32.70833,66
32.71667,66
32.72500,66
32.73333,66
32.74167,66
32.75000,67
32.75833,66
32.76667,66
32.77500,66
32.78333,65
32.79167,65
32.80000,65
32.80833,65
32.81667,64
32.82500,64
32.83333,63
32.84167,63
32.85000,63
32.85833,63
32.86667,63
32.87500,63
32.88333,63
32.89167,63
32.90000,63
32.90833,62
32.91667,62
32.92500,62
32.93333,62
32.94167,61
32.95000,61
32.95833,60
32.96667,60
32.97500,60
32.98333,60
32.99167,60
33.00000,60
33.00833,60
33.01667,59
33.02500,59
33.03333,59
33.04167,59
33.05000,59
33.05833,59
33.06667,59
33.07500,59
33.08333,58
33.09167,58
33.10000,58
33.10833,58
33.11667,57
33.12500,57
33.13333,57
33.14167,57
33.15000,57
33.15833,57
33.16667,57
33.17500,57
33.18333,57
33.19167,57
33.20000,56
33.20833,56
33.21667,56
33.22500,56
33.23333,56
33.24167,56
33.25000,56
33.25833,56
33.26667,56
33.27500,56
33.28333,56
33.29167,56
33.30000,56
33.30833,56
33.31667,56
33.32500,56
33.33333,56
33.34167,56
33.35000,56
33.35833,56
33.36667,56
33.37500,56
33.38333,56
33.39167,57
33.40000,57
33.40833,57
33.41667,56
33.42500,56
33.43333,56
33.44167,56
33.45000,56
33.45833,56
33.46667,56
33.47500,56
33.48333,56
33.49167,57
33.50000,57
33.50833,57
33.51667,57
33.52500,58
33.53333,58
33.54167,58
33.55000,58
33.55833,59
33.56667,59
33.57500,59
33.58333,59
33.59167,59
33.60000,60
33.60833,60
33.61667,60
33.62500,60
33.63333,60
33.64167,60
33.65000,60
33.65833,60
33.66667,59
33.67500,59
33.68333,60
33.69167,60
33.70000,61
33.70833,61
33.71667,61
33.72500,61
33.73333,61
33.74167,61
33.75000,61
33.75833,61
33.76667,61
33.77500,61
33.78333,61
33.79167,62
33.80000,62
33.80833,62
33.81667,62
33.82500,62
33.83333,62
33.84167,63
33.85000,63
33.85833,64
33.86667,64
33.87500,64
33.88333,65
33.89167,65
33.90000,65
33.90833,65
33.91667,65
33.92500,66
33.93333,66
33.94167,66
33.95000,66
33.95833,67
33.96667,67
33.97500,67
33.98333,67
33.99167,67
34.00000,67
34.00833,67
34.01667,68
34.02500,68
34.03333,68
34.04167,68
34.05000,68
34.05833,68
34.06667,68
34.07500,68
34.08333,68
34.09167,69
34.10000,69
34.10833,69
34.11667,69
34.12500,69
34.13333,69
34.14167,69
34.15000,70
34.15833,70
34.16667,71
34.17500,71
34.18333,71
34.19167,71
34.20000,71
34.20833,71
34.21667,71
34.22500,71
34.23333,71
34.24167,70
34.25000,70
34.25833,70
34.26667,70
34.27500,70
34.28333,71
34.29167,71
34.30000,71
34.30833,71
34.31667,71
34.32500,71
34.33333,71
34.34167,71
34.35000,70
34.35833,70
34.36667,70
34.37500,70
34.38333,70
34.39167,70
34.40000,70
34.40833,70
34.41667,70
34.42500,70
34.43333,71
34.44167,71
34.45000,71
34.45833,71
34.46667,71
34.47500,71
34.48333,70
34.49167,70
34.50000,69
34.50833,70
34.51667,70
34.52500,70
34.53333,70
34.54167,70
34.55000,70
34.55833,70
34.56667,70
34.57500,69
34.58333,69
34.59167,69
34.60000,69
34.60833,69
34.61667,68
34.62500,68
34.63333,68
34.64167,68
34.65000,68
34.65833,68
34.66667,69
34.67500,69
34.68333,68
34.69167,68
34.70000,68
34.70833,68
34.71667,67
34.72500,67
34.73333,67
34.74167,67
34.75000,66
34.75833,66
34.76667,66
34.77500,66
34.78333,65
34.79167,65
34.80000,65
34.80833,65
34.81667,65
34.82500,65
34.83333,65
34.84167,64
34.85000,64
34.85833,64
34.86667,64
34.87500,64
34.88333,64
34.89167,64
34.90000,64
34.90833,64
34.91667,64
34.92500,64
34.93333,64
34.94167,64
34.95000,64
34.95833,64
34.96667,64
34.97500,64
34.98333,64
34.99167,65
35.00000,65
35.00833,65
35.01667,65
35.02500,65
35.03333,66
35.04167,66
35.05000,66
35.05833,67
35.06667,67
35.07500,67
35.08333,68
35.09167,68
35.10000,68
35.10833,68
35.11667,68
35.12500,69
35.13333,69
35.14167,69
35.15000,69
35.15833,69
35.16667,69
35.17500,69
35.18333,69
35.19167,69
35.20000,69
35.20833,69
35.21667,69
35.22500,69
35.23333,69
35.24167,69
35.25000,69
35.25833,69
35.26667,70
35.27500,70
35.28333,70
35.29167,70
35.30000,71
35.30833,71
35.31667,71
35.32500,71
35.33333,71
35.34167,72
35.35000,72
35.35833,72
35.36667,72
35.37500,72
35.38333,72
35.39167,72
35.40000,72
35.40833,72
35.41667,72
35.42500,72
35.43333,72
35.44167,72
35.45000,72
35.45833,73
35.46667,73
35.47500,73
35.48333,73
35.49167,72
35.50000,72
35.50833,72
35.51667,73
35.52500,73
35.53333,73
35.54167,73
35.55000,73
35.55833,73
35.56667,73
35.57500,72
35.58333,73
35.59167,73
35.60000,73
35.60833,73
35.61667,74
35.62500,74
35.63333,74
35.64167,74
35.65000,74
35.65833,73
35.66667,73
35.67500,73
35.68333,73
35.69167,73
35.70000,73
35.70833,72
35.71667,72
35.72500,72
35.73333,72
35.74167,72
35.75000,72
35.75833,72
35.76667,72
35.77500,72
35.78333,72
35.79167,72
35.80000,72
35.80833,72
35.81667,72
35.82500,72
35.83333,72
35.84167,72
35.85000,72
35.85833,71
35.86667,71
35.87500,71
35.88333,71
35.89167,70
35.90000,70
35.90833,70
35.91667,71
35.92500,71
35.93333,71
35.94167,71
35.95000,70
35.95833,70
35.96667,70
35.97500,70
35.98333,70
35.99167,70
36.00000,70
36.00833,69
36.01667,69
36.02500,69
36.03333,69
36.04167,69
36.05000,69
36.05833,69
36.06667,69
36.07500,69
36.08333,69
36.09167,70
36.10000,70
36.10833,70
36.11667,70
36.12500,70
36.13333,70
36.14167,70
36.15000,70
36.15833,70
36.16667,70
36.17500,69
36.18333,69
36.19167,69
36.20000,69
36.20833,70
36.21667,70
36.22500,71
36.23333,71
36.24167,71
36.25000,71
36.25833,71
36.26667,71
36.27500,70
36.28333,70
36.29167,70
36.30000,70
36.30833,70
36.31667,70
36.32500,70
36.33333,70
36.34167,71
36.35000,70
36.35833,70
36.36667,70
36.37500,70
36.38333,70
36.39167,70
36.40000,70
36.40833,70
36.41667,70
36.42500,70
36.43333,70
36.44167,69
36.45000,69
36.45833,69
36.46667,69
36.47500,69
36.48333,69
36.49167,69
36.50000,69
36.50833,68
36.51667,68
36.52500,68
36.53333,68
36.54167,68
36.55000,68
36.55833,68
36.56667,68
36.57500,68
36.58333,68
36.59167,68
36.60000,68
36.60833,68
36.61667,68
36.62500,67
36.63333,67
36.64167,67
36.65000,67
36.65833,67
36.66667,68
36.67500,68
36.68333,68
36.69167,69
36.70000,69
36.70833,69
36.71667,70
36.72500,70
36.73333,70
36.74167,70
36.75000,71
36.75833,71
36.76667,71
36.77500,71
36.78333,71
36.79167,71
36.80000,71
36.80833,72
36.81667,71
36.82500,72
36.83333,72
36.84167,72
36.85000,72
36.85833,73
36.86667,73
36.87500,73
36.88333,73
36.89167,73
36.90000,73
36.90833,73
36.91667,74
36.92500,74
36.93333,74
36.94167,74
36.95000,74
36.95833,74
36.96667,74
36.97500,75
36.98333,75
36.99167,75
37.00000,76
37.00833,77
37.01667,77
37.02500,77
37.03333,78
37.04167,77
37.05000,77
37.05833,77
37.06667,77
37.07500,77
37.08333,77
37.09167,77
37.10000,77
37.10833,77
37.11667,77
37.12500,77
37.13333,77
37.14167,77
37.15000,77
37.15833,77
37.16667,77
37.17500,77
37.18333,77
37.19167,77
37.20000,77
37.20833,76
37.21667,76
37.22500,76
37.23333,75
37.24167,75
37.25000,75
37.25833,75
37.26667,75
37.27500,74
37.28333,74
37.29167,74
37.30000,74
37.30833,73
37.31667,73
37.32500,72
37.33333,73
37.34167,73
37.35000,73
37.35833,72
37.36667,72
37.37500,72
37.38333,72
37.39167,71
37.40000,71
37.40833,71
37.41667,71
37.42500,71
37.43333,71
37.44167,71
37.45000,70
37.45833,70
37.46667,70
37.47500,70
37.48333,70
37.49167,70
37.50000,70
37.50833,70
37.51667,69
37.52500,70
37.53333,70
37.54167,70
37.55000,70
37.55833,70
37.56667,70
37.57500,70
37.58333,70
37.59167,70
37.60000,70
37.60833,70
37.61667,69
37.62500,69
37.63333,69
37.64167,69
37.65000,69
37.65833,69
37.66667,69
37.67500,69
37.68333,69
37.69167,70
37.70000,70
37.70833,70
37.71667,70
37.72500,70
37.73333,70
37.74167,70
37.75000,70
37.75833,70
37.76667,70
37.77500,70
37.78333,69
37.79167,70
37.80000,70
37.80833,70
37.81667,69
37.82500,69
37.83333,69
37.84167,70
37.85000,70
37.85833,70
37.86667,70
37.87500,70
37.88333,70
37.89167,70
37.90000,70
37.90833,69
37.91667,69
37.92500,69
37.93333,69
37.94167,69
37.95000,69
37.95833,69
37.96667,69
37.97500,69
37.98333,69
37.99167,69
38.00000,69
38.00833,69
38.01667,69
38.02500,69
38.03333,69
38.04167,69
38.05000,69
38.05833,69
38.06667,69
38.07500,69
38.08333,69
38.09167,69
38.10000,69
38.10833,70
38.11667,70
38.12500,70
38.13333,70
38.14167,70
38.15000,70
38.15833,71
38.16667,71
38.17500,71
38.18333,72
38.19167,72
38.20000,72
38.20833,72
38.21667,71
38.22500,71
38.23333,72
38.24167,72
38.25000,72
38.25833,72
38.26667,73
38.27500,73
38.28333,73
38.29167,74
38.30000,74
38.30833,74
38.31667,74
38.32500,74
38.33333,75
38.34167,75
38.35000,76
38.35833,76
38.36667,77
38.37500,77
38.38333,77
38.39167,77
38.40000,77
38.40833,77
38.41667,77
38.42500,77
38.43333,77
38.44167,78
38.45000,78
38.45833,78
38.46667,78
38.47500,78
38.48333,79
38.49167,79
38.50000,80
38.50833,80
38.51667,80
38.52500,80
38.53333,81
38.54167,81
38.55000,81
38.55833,81
38.56667,81
38.57500,82
38.58333,83
38.59167,83
38.60000,83
38.60833,83
38.61667,83
38.62500,84
38.63333,84
38.64167,85
38.65000,85
38.65833,84
38.66667,84
38.67500,84
38.68333,84
38.69167,85
38.70000,85
38.70833,85
38.71667,86
38.72500,86
38.73333,86
38.74167,86
38.75000,86
38.75833,86
38.76667,86
38.77500,87
38.78333,87
38.79167,87
38.80000,88
38.80833,88
38.81667,88
38.82500,87
38.83333,88
38.84167,88
38.85000,87
38.85833,88
38.86667,88
38.87500,88
38.88333,89
38.89167,88
38.90000,88
38.90833,88
38.91667,88
38.92500,87
38.93333,88
38.94167,87
38.95000,87
38.95833,87
38.96667,87
38.97500,87
38.98333,87
38.99167,87
39.00000,87
39.00833,87
39.01667,87
39.02500,86
39.03333,86
39.04167,86
39.05000,85
39.05833,85
39.06667,85
39.07500,85
39.08333,84
39.09167,84
39.10000,84
39.10833,84
39.11667,84
39.12500,84
39.13333,83
39.14167,83
39.15000,83
39.15833,83
39.16667,82
39.17500,82
39.18333,81
39.19167,81
39.20000,81
39.20833,80
39.21667,80
39.22500,80
39.23333,80
39.24167,80
39.25000,80
39.25833,80
39.26667,80
39.27500,79
39.28333,79
39.29167,79
39.30000,79
39.30833,78
39.31667,78
39.32500,78
39.33333,78
39.34167,78
39.35000,78
39.35833,78
39.36667,78
39.37500,78
39.38333,78
39.39167,78
39.40000,77
39.40833,77
39.41667,76
39.42500,76
39.43333,75
39.44167,75
39.45000,75
39.45833,75
39.46667,75
39.47500,76
39.48333,76
39.49167,76
39.50000,76
39.50833,76
39.51667,76
39.52500,76
39.53333,76
39.54167,76
39.55000,76
39.55833,76
39.56667,76
39.57500,76
39.58333,76
39.59167,76
39.60000,76
39.60833,76
39.61667,76
39.62500,76
39.63333,77
39.64167,77
39.65000,77
39.65833,77
39.66667,78
39.67500,78
39.68333,79
39.69167,79
39.70000,79
39.70833,79
39.71667,79
39.72500,79
39.73333,80
39.74167,80
39.75000,80
39.75833,80
39.76667,81
39.77500,81
39.78333,81
39.79167,81
39.80000,81
39.80833,82
39.81667,82
39.82500,82
39.83333,82
39.84167,82
39.85000,82
39.85833,83
39.86667,84
39.87500,84
39.88333,84
39.89167,84
39.90000,85
39.90833,85
39.91667,85
39.92500,85
39.93333,85
39.94167,86
39.95000,86
39.95833,86
39.96667,86
39.97500,87
39.98333,87
39.99167,87
40.00000,87

