[Header]
Application Name,LabSolutions
Version,5.97 SP1
Data File Name,C:\Users\cremerlab\Desktop\griffin\2021-04-06_REL606_DM_glucose_turnover\2021-04-06_REL606_DM_glucose_turnover_462021_007_021.lcd
Output Date,4/7/2021
Output Time,8:44:23 AM

[File Information]
Type,Data File
Generated,4/7/2021 8:04:04 AM
Generated by,System Administrator
Modified,4/7/2021 8:44:23 AM
Modified by,System Administrator

[Sample Information]
Operator Name,System Administrator
Acquired,4/7/2021 8:04:22 AM
Sample Type,1:Standard
Level,7
Sample Name,2021-04-04_REL606_replicate_003_timepoint_007
Sample ID,007
ISTD Amount1,1
ISTD Amount2,1
ISTD Amount3,1
ISTD Amount4,1
ISTD Amount5,1
ISTD Amount6,1
ISTD Amount7,1
ISTD Amount8,1
ISTD Amount9,1
ISTD Amount10,1
ISTD Amount11,1
ISTD Amount12,1
ISTD Amount13,1
ISTD Amount14,1
ISTD Amount15,1
ISTD Amount16,1
ISTD Amount17,1
ISTD Amount18,1
ISTD Amount19,1
ISTD Amount20,1
ISTD Amount21,1
ISTD Amount22,1
ISTD Amount23,1
ISTD Amount24,1
ISTD Amount25,1
ISTD Amount26,1
ISTD Amount27,1
ISTD Amount28,1
ISTD Amount29,1
ISTD Amount30,1
ISTD Amount31,1
ISTD Amount32,1
Sample Amount,1
Dilution Factor,1
Vial#,25
Injection Volume,20

[Original Files]
Data File,C:\Users\cremerlab\Desktop\griffin\2021-04-06_REL606_DM_glucose_turnover\2021-04-06_REL606_DM_glucose_turnover_462021_007_021.lcd
Method File,C:\Users\cremerlab\Desktop\griffin\2.5mM_H2SO4_mobile_phase.lcm
Batch File,C:\Users\cremerlab\Desktop\griffin\2021-04-06_REL606_DM_glucose_turnover\2021-04-06_REL606_DM_glucose_turnover.lcb
Report Format File,c:\LabSolutions\System\DEFAULT.lsr

[File Description]


[Configuration]
Instrument Name,HPLC-PC-Instrument1
Instrument #,1
Line #,1
# of Detectors,2
Detector ID,Detector A,Detector B
Detector Name,Detector A,Detector B
# of Channels,1,1

[Peak Table(Detector A)]
# of Peaks,0

[Peak Table(Detector B)]
# of Peaks,6
Peak#,R.Time,I.Time,F.Time,Area,Height,A/H,Conc.,Mark,ID#,Name,k',Plate #,Plate Ht.,Tailing,Resolution,Sep.Factor,Area Ratio,Height Ratio,Conc. %,Norm Conc.
1,10.884,10.400,12.058,229247,13382,17.131,7.968,   ,,,0.000,9237,16.239,1.045,0.000,0.000,0,0,0.000,0.000
2,13.902,12.533,14.175,1588216,43066,36.878,55.200,   ,,,0.277,3216,46.642,0.000,4.210,0.000,0,0,0.000,0.000
3,14.330,14.175,14.967,159814,8293,19.271,5.554, V ,,,0.317,7624,19.675,0.000,0.523,1.142,0,0,0.000,0.000
4,15.677,14.967,17.650,887771,35443,25.048,30.855, V ,,,0.440,9266,16.189,1.148,2.060,1.391,0,0,0.000,0.000
5,19.083,18.775,19.550,1980,91,21.644,0.069,   ,,,0.753,16567,9.054,1.132,5.473,1.711,0,0,0.000,0.000
6,25.038,24.508,25.700,10182,346,29.461,0.354,   ,,,1.300,16047,9.348,1.051,8.608,1.726,0,0,0.000,0.000

[LC Chromatogram(Detector B-Ch1)]
Interval(msec),500
# of Points,4801
Start Time(min),0.000
End Time(min),40.000
Intensity Units,mV
Intensity Multiplier,0.001
R.Time (min),Intensity
0.00000,4
0.00833,4
0.01667,0
0.02500,1
0.03333,1
0.04167,1
0.05000,1
0.05833,2
0.06667,2
0.07500,2
0.08333,1
0.09167,1
0.10000,1
0.10833,1
0.11667,2
0.12500,2
0.13333,1
0.14167,1
0.15000,1
0.15833,1
0.16667,1
0.17500,2
0.18333,1
0.19167,1
0.20000,1
0.20833,1
0.21667,1
0.22500,1
0.23333,1
0.24167,1
0.25000,1
0.25833,1
0.26667,1
0.27500,0
0.28333,0
0.29167,-0
0.30000,-0
0.30833,-1
0.31667,-1
0.32500,-1
0.33333,-1
0.34167,-1
0.35000,-2
0.35833,-2
0.36667,-3
0.37500,-3
0.38333,-3
0.39167,-3
0.40000,-3
0.40833,-4
0.41667,-4
0.42500,-4
0.43333,-5
0.44167,-6
0.45000,-6
0.45833,-6
0.46667,-7
0.47500,-7
0.48333,-8
0.49167,-8
0.50000,-8
0.50833,-8
0.51667,-9
0.52500,-9
0.53333,-9
0.54167,-9
0.55000,-9
0.55833,-9
0.56667,-9
0.57500,-9
0.58333,-9
0.59167,-9
0.60000,-9
0.60833,-9
0.61667,-9
0.62500,-9
0.63333,-9
0.64167,-9
0.65000,-10
0.65833,-10
0.66667,-10
0.67500,-10
0.68333,-10
0.69167,-10
0.70000,-10
0.70833,-10
0.71667,-10
0.72500,-10
0.73333,-10
0.74167,-11
0.75000,-11
0.75833,-11
0.76667,-11
0.77500,-11
0.78333,-11
0.79167,-11
0.80000,-11
0.80833,-11
0.81667,-11
0.82500,-11
0.83333,-11
0.84167,-11
0.85000,-11
0.85833,-11
0.86667,-11
0.87500,-11
0.88333,-11
0.89167,-11
0.90000,-11
0.90833,-11
0.91667,-11
0.92500,-11
0.93333,-11
0.94167,-11
0.95000,-11
0.95833,-12
0.96667,-12
0.97500,-12
0.98333,-12
0.99167,-12
1.00000,-12
1.00833,-12
1.01667,-12
1.02500,-12
1.03333,-12
1.04167,-12
1.05000,-12
1.05833,-12
1.06667,-12
1.07500,-12
1.08333,-12
1.09167,-12
1.10000,-12
1.10833,-12
1.11667,-12
1.12500,-11
1.13333,-11
1.14167,-11
1.15000,-11
1.15833,-12
1.16667,-11
1.17500,-11
1.18333,-11
1.19167,-11
1.20000,-11
1.20833,-11
1.21667,-11
1.22500,-10
1.23333,-10
1.24167,-10
1.25000,-10
1.25833,-10
1.26667,-10
1.27500,-10
1.28333,-9
1.29167,-9
1.30000,-9
1.30833,-8
1.31667,-8
1.32500,-8
1.33333,-8
1.34167,-8
1.35000,-8
1.35833,-8
1.36667,-8
1.37500,-8
1.38333,-7
1.39167,-7
1.40000,-7
1.40833,-7
1.41667,-7
1.42500,-7
1.43333,-6
1.44167,-6
1.45000,-6
1.45833,-5
1.46667,-5
1.47500,-5
1.48333,-5
1.49167,-5
1.50000,-5
1.50833,-5
1.51667,-5
1.52500,-5
1.53333,-5
1.54167,-5
1.55000,-5
1.55833,-6
1.56667,-6
1.57500,-5
1.58333,-5
1.59167,-5
1.60000,-4
1.60833,-4
1.61667,-4
1.62500,-3
1.63333,-3
1.64167,-2
1.65000,-2
1.65833,-1
1.66667,-1
1.67500,-2
1.68333,-2
1.69167,-1
1.70000,-1
1.70833,-1
1.71667,-1
1.72500,0
1.73333,1
1.74167,1
1.75000,1
1.75833,2
1.76667,2
1.77500,3
1.78333,4
1.79167,4
1.80000,4
1.80833,4
1.81667,5
1.82500,5
1.83333,6
1.84167,6
1.85000,7
1.85833,7
1.86667,7
1.87500,8
1.88333,8
1.89167,8
1.90000,8
1.90833,9
1.91667,9
1.92500,9
1.93333,10
1.94167,10
1.95000,11
1.95833,11
1.96667,11
1.97500,11
1.98333,11
1.99167,11
2.00000,11
2.00833,11
2.01667,11
2.02500,10
2.03333,10
2.04167,10
2.05000,11
2.05833,11
2.06667,11
2.07500,11
2.08333,10
2.09167,10
2.10000,9
2.10833,8
2.11667,8
2.12500,8
2.13333,8
2.14167,7
2.15000,6
2.15833,5
2.16667,5
2.17500,4
2.18333,3
2.19167,3
2.20000,2
2.20833,2
2.21667,1
2.22500,-0
2.23333,-1
2.24167,-2
2.25000,-3
2.25833,-4
2.26667,-5
2.27500,-6
2.28333,-7
2.29167,-8
2.30000,-9
2.30833,-10
2.31667,-11
2.32500,-12
2.33333,-14
2.34167,-15
2.35000,-15
2.35833,-16
2.36667,-17
2.37500,-18
2.38333,-19
2.39167,-20
2.40000,-21
2.40833,-23
2.41667,-24
2.42500,-25
2.43333,-26
2.44167,-27
2.45000,-28
2.45833,-29
2.46667,-29
2.47500,-30
2.48333,-31
2.49167,-31
2.50000,-32
2.50833,-32
2.51667,-33
2.52500,-33
2.53333,-34
2.54167,-34
2.55000,-35
2.55833,-36
2.56667,-36
2.57500,-36
2.58333,-37
2.59167,-37
2.60000,-37
2.60833,-38
2.61667,-38
2.62500,-38
2.63333,-38
2.64167,-38
2.65000,-37
2.65833,-37
2.66667,-37
2.67500,-36
2.68333,-36
2.69167,-36
2.70000,-35
2.70833,-35
2.71667,-34
2.72500,-34
2.73333,-33
2.74167,-33
2.75000,-33
2.75833,-32
2.76667,-31
2.77500,-31
2.78333,-30
2.79167,-29
2.80000,-28
2.80833,-28
2.81667,-27
2.82500,-26
2.83333,-26
2.84167,-25
2.85000,-24
2.85833,-24
2.86667,-22
2.87500,-21
2.88333,-21
2.89167,-20
2.90000,-19
2.90833,-18
2.91667,-17
2.92500,-17
2.93333,-17
2.94167,-16
2.95000,-15
2.95833,-14
2.96667,-13
2.97500,-12
2.98333,-11
2.99167,-11
3.00000,-10
3.00833,-9
3.01667,-8
3.02500,-7
3.03333,-6
3.04167,-6
3.05000,-5
3.05833,-4
3.06667,-3
3.07500,-3
3.08333,-2
3.09167,-2
3.10000,-1
3.10833,-1
3.11667,-1
3.12500,-0
3.13333,0
3.14167,1
3.15000,2
3.15833,2
3.16667,2
3.17500,3
3.18333,4
3.19167,4
3.20000,5
3.20833,5
3.21667,5
3.22500,5
3.23333,6
3.24167,6
3.25000,6
3.25833,6
3.26667,6
3.27500,6
3.28333,6
3.29167,6
3.30000,6
3.30833,6
3.31667,6
3.32500,6
3.33333,6
3.34167,6
3.35000,6
3.35833,6
3.36667,6
3.37500,6
3.38333,6
3.39167,7
3.40000,7
3.40833,6
3.41667,6
3.42500,6
3.43333,6
3.44167,6
3.45000,5
3.45833,5
3.46667,5
3.47500,5
3.48333,4
3.49167,4
3.50000,4
3.50833,4
3.51667,4
3.52500,4
3.53333,4
3.54167,4
3.55000,3
3.55833,3
3.56667,3
3.57500,3
3.58333,3
3.59167,3
3.60000,3
3.60833,3
3.61667,3
3.62500,3
3.63333,3
3.64167,3
3.65000,3
3.65833,3
3.66667,2
3.67500,2
3.68333,2
3.69167,2
3.70000,2
3.70833,2
3.71667,2
3.72500,2
3.73333,2
3.74167,2
3.75000,2
3.75833,2
3.76667,1
3.77500,1
3.78333,1
3.79167,1
3.80000,1
3.80833,1
3.81667,1
3.82500,1
3.83333,1
3.84167,1
3.85000,1
3.85833,1
3.86667,1
3.87500,1
3.88333,1
3.89167,1
3.90000,0
3.90833,-0
3.91667,-1
3.92500,-1
3.93333,-0
3.94167,-0
3.95000,-0
3.95833,-0
3.96667,-0
3.97500,-1
3.98333,-1
3.99167,-1
4.00000,-2
4.00833,-2
4.01667,-2
4.02500,-2
4.03333,-2
4.04167,-3
4.05000,-3
4.05833,-3
4.06667,-3
4.07500,-3
4.08333,-3
4.09167,-3
4.10000,-3
4.10833,-3
4.11667,-4
4.12500,-4
4.13333,-4
4.14167,-4
4.15000,-5
4.15833,-5
4.16667,-5
4.17500,-6
4.18333,-6
4.19167,-6
4.20000,-6
4.20833,-6
4.21667,-5
4.22500,-5
4.23333,-5
4.24167,-6
4.25000,-6
4.25833,-7
4.26667,-7
4.27500,-7
4.28333,-7
4.29167,-7
4.30000,-7
4.30833,-7
4.31667,-6
4.32500,-6
4.33333,-6
4.34167,-6
4.35000,-5
4.35833,-6
4.36667,-6
4.37500,-5
4.38333,-5
4.39167,-5
4.40000,-5
4.40833,-5
4.41667,-5
4.42500,-4
4.43333,-4
4.44167,-4
4.45000,-4
4.45833,-3
4.46667,-3
4.47500,-3
4.48333,-2
4.49167,-1
4.50000,-1
4.50833,-0
4.51667,0
4.52500,0
4.53333,0
4.54167,0
4.55000,0
4.55833,0
4.56667,0
4.57500,1
4.58333,1
4.59167,1
4.60000,1
4.60833,1
4.61667,1
4.62500,1
4.63333,2
4.64167,2
4.65000,2
4.65833,2
4.66667,2
4.67500,2
4.68333,2
4.69167,2
4.70000,2
4.70833,2
4.71667,1
4.72500,1
4.73333,1
4.74167,1
4.75000,1
4.75833,1
4.76667,1
4.77500,1
4.78333,0
4.79167,0
4.80000,0
4.80833,-0
4.81667,-0
4.82500,-1
4.83333,-2
4.84167,-2
4.85000,-3
4.85833,-3
4.86667,-3
4.87500,-3
4.88333,-2
4.89167,-2
4.90000,-3
4.90833,-3
4.91667,-3
4.92500,-3
4.93333,-3
4.94167,-4
4.95000,-4
4.95833,-4
4.96667,-5
4.97500,-5
4.98333,-5
4.99167,-5
5.00000,-5
5.00833,-6
5.01667,-5
5.02500,-6
5.03333,-6
5.04167,-6
5.05000,-6
5.05833,-7
5.06667,-7
5.07500,-7
5.08333,-8
5.09167,-8
5.10000,-8
5.10833,-7
5.11667,-7
5.12500,-6
5.13333,-6
5.14167,-6
5.15000,-6
5.15833,-6
5.16667,-5
5.17500,-5
5.18333,-5
5.19167,-4
5.20000,-4
5.20833,-4
5.21667,-3
5.22500,-3
5.23333,-3
5.24167,-3
5.25000,-3
5.25833,-2
5.26667,-2
5.27500,-2
5.28333,-1
5.29167,-1
5.30000,-0
5.30833,0
5.31667,1
5.32500,1
5.33333,2
5.34167,2
5.35000,3
5.35833,3
5.36667,4
5.37500,4
5.38333,4
5.39167,4
5.40000,4
5.40833,5
5.41667,5
5.42500,5
5.43333,5
5.44167,6
5.45000,6
5.45833,7
5.46667,7
5.47500,7
5.48333,7
5.49167,7
5.50000,7
5.50833,7
5.51667,8
5.52500,8
5.53333,8
5.54167,8
5.55000,8
5.55833,8
5.56667,8
5.57500,8
5.58333,8
5.59167,8
5.60000,8
5.60833,8
5.61667,7
5.62500,7
5.63333,7
5.64167,7
5.65000,7
5.65833,7
5.66667,7
5.67500,6
5.68333,6
5.69167,5
5.70000,5
5.70833,5
5.71667,4
5.72500,4
5.73333,4
5.74167,4
5.75000,4
5.75833,3
5.76667,3
5.77500,3
5.78333,2
5.79167,2
5.80000,1
5.80833,1
5.81667,1
5.82500,1
5.83333,1
5.84167,1
5.85000,1
5.85833,1
5.86667,1
5.87500,0
5.88333,0
5.89167,-0
5.90000,-1
5.90833,-1
5.91667,-2
5.92500,-2
5.93333,-2
5.94167,-2
5.95000,-2
5.95833,-2
5.96667,-2
5.97500,-2
5.98333,-2
5.99167,-2
6.00000,-2
6.00833,-3
6.01667,-3
6.02500,-3
6.03333,-3
6.04167,-3
6.05000,-3
6.05833,-3
6.06667,-3
6.07500,-3
6.08333,-2
6.09167,-2
6.10000,-2
6.10833,-2
6.11667,-3
6.12500,-3
6.13333,-3
6.14167,-3
6.15000,-3
6.15833,-3
6.16667,-4
6.17500,-3
6.18333,-3
6.19167,-3
6.20000,-3
6.20833,-3
6.21667,-3
6.22500,-3
6.23333,-3
6.24167,-3
6.25000,-3
6.25833,-3
6.26667,-3
6.27500,-3
6.28333,-3
6.29167,-3
6.30000,-3
6.30833,-3
6.31667,-3
6.32500,-3
6.33333,-3
6.34167,-3
6.35000,-4
6.35833,-4
6.36667,-4
6.37500,-4
6.38333,-4
6.39167,-4
6.40000,-4
6.40833,-4
6.41667,-5
6.42500,-5
6.43333,-5
6.44167,-5
6.45000,-5
6.45833,-5
6.46667,-5
6.47500,-5
6.48333,-5
6.49167,-5
6.50000,-5
6.50833,-5
6.51667,-5
6.52500,-5
6.53333,-5
6.54167,-5
6.55000,-5
6.55833,-5
6.56667,-5
6.57500,-5
6.58333,-4
6.59167,-5
6.60000,-5
6.60833,-4
6.61667,-4
6.62500,-3
6.63333,-3
6.64167,-2
6.65000,-2
6.65833,-1
6.66667,-1
6.67500,-2
6.68333,-1
6.69167,-1
6.70000,-0
6.70833,0
6.71667,1
6.72500,1
6.73333,2
6.74167,2
6.75000,2
6.75833,3
6.76667,3
6.77500,3
6.78333,3
6.79167,3
6.80000,3
6.80833,4
6.81667,4
6.82500,5
6.83333,5
6.84167,6
6.85000,6
6.85833,7
6.86667,7
6.87500,8
6.88333,8
6.89167,8
6.90000,8
6.90833,8
6.91667,8
6.92500,8
6.93333,8
6.94167,8
6.95000,9
6.95833,9
6.96667,9
6.97500,9
6.98333,9
6.99167,9
7.00000,9
7.00833,9
7.01667,9
7.02500,9
7.03333,9
7.04167,9
7.05000,9
7.05833,9
7.06667,9
7.07500,8
7.08333,9
7.09167,9
7.10000,8
7.10833,8
7.11667,8
7.12500,8
7.13333,8
7.14167,8
7.15000,8
7.15833,8
7.16667,7
7.17500,7
7.18333,7
7.19167,6
7.20000,6
7.20833,5
7.21667,5
7.22500,5
7.23333,5
7.24167,5
7.25000,5
7.25833,4
7.26667,4
7.27500,4
7.28333,4
7.29167,3
7.30000,3
7.30833,3
7.31667,3
7.32500,3
7.33333,2
7.34167,2
7.35000,1
7.35833,1
7.36667,1
7.37500,1
7.38333,1
7.39167,1
7.40000,0
7.40833,0
7.41667,0
7.42500,0
7.43333,0
7.44167,0
7.45000,0
7.45833,-0
7.46667,-1
7.47500,-1
7.48333,-1
7.49167,-1
7.50000,-2
7.50833,-2
7.51667,-2
7.52500,-2
7.53333,-2
7.54167,-2
7.55000,-2
7.55833,-2
7.56667,-1
7.57500,-1
7.58333,-1
7.59167,-1
7.60000,-0
7.60833,-0
7.61667,-0
7.62500,0
7.63333,0
7.64167,0
7.65000,1
7.65833,1
7.66667,1
7.67500,2
7.68333,2
7.69167,3
7.70000,3
7.70833,4
7.71667,4
7.72500,4
7.73333,4
7.74167,4
7.75000,4
7.75833,5
7.76667,5
7.77500,6
7.78333,6
7.79167,6
7.80000,7
7.80833,6
7.81667,6
7.82500,6
7.83333,7
7.84167,7
7.85000,7
7.85833,8
7.86667,8
7.87500,7
7.88333,8
7.89167,7
7.90000,7
7.90833,7
7.91667,7
7.92500,7
7.93333,7
7.94167,7
7.95000,6
7.95833,6
7.96667,6
7.97500,5
7.98333,5
7.99167,4
8.00000,4
8.00833,4
8.01667,3
8.02500,3
8.03333,3
8.04167,2
8.05000,2
8.05833,1
8.06667,1
8.07500,0
8.08333,-0
8.09167,-1
8.10000,-1
8.10833,-1
8.11667,-1
8.12500,-1
8.13333,-1
8.14167,-2
8.15000,-2
8.15833,-2
8.16667,-2
8.17500,-2
8.18333,-2
8.19167,-2
8.20000,-3
8.20833,-2
8.21667,-2
8.22500,-2
8.23333,-2
8.24167,-3
8.25000,-3
8.25833,-3
8.26667,-3
8.27500,-3
8.28333,-3
8.29167,-3
8.30000,-4
8.30833,-4
8.31667,-4
8.32500,-4
8.33333,-4
8.34167,-4
8.35000,-4
8.35833,-4
8.36667,-4
8.37500,-4
8.38333,-4
8.39167,-3
8.40000,-3
8.40833,-3
8.41667,-3
8.42500,-3
8.43333,-3
8.44167,-3
8.45000,-3
8.45833,-3
8.46667,-2
8.47500,-2
8.48333,-2
8.49167,-2
8.50000,-2
8.50833,-2
8.51667,-3
8.52500,-3
8.53333,-3
8.54167,-3
8.55000,-3
8.55833,-3
8.56667,-3
8.57500,-3
8.58333,-3
8.59167,-3
8.60000,-3
8.60833,-3
8.61667,-4
8.62500,-4
8.63333,-4
8.64167,-4
8.65000,-4
8.65833,-4
8.66667,-4
8.67500,-4
8.68333,-4
8.69167,-3
8.70000,-3
8.70833,-3
8.71667,-2
8.72500,-2
8.73333,-2
8.74167,-2
8.75000,-2
8.75833,-2
8.76667,-1
8.77500,-1
8.78333,-0
8.79167,-0
8.80000,-0
8.80833,0
8.81667,0
8.82500,0
8.83333,1
8.84167,1
8.85000,1
8.85833,2
8.86667,3
8.87500,3
8.88333,4
8.89167,4
8.90000,4
8.90833,4
8.91667,4
8.92500,5
8.93333,5
8.94167,5
8.95000,6
8.95833,6
8.96667,6
8.97500,6
8.98333,6
8.99167,6
9.00000,6
9.00833,6
9.01667,6
9.02500,6
9.03333,6
9.04167,6
9.05000,6
9.05833,6
9.06667,6
9.07500,6
9.08333,5
9.09167,5
9.10000,5
9.10833,5
9.11667,4
9.12500,4
9.13333,4
9.14167,4
9.15000,4
9.15833,3
9.16667,3
9.17500,3
9.18333,3
9.19167,3
9.20000,3
9.20833,3
9.21667,3
9.22500,3
9.23333,3
9.24167,3
9.25000,3
9.25833,4
9.26667,4
9.27500,5
9.28333,5
9.29167,5
9.30000,6
9.30833,6
9.31667,6
9.32500,7
9.33333,7
9.34167,8
9.35000,8
9.35833,9
9.36667,9
9.37500,10
9.38333,10
9.39167,11
9.40000,12
9.40833,12
9.41667,13
9.42500,13
9.43333,14
9.44167,14
9.45000,15
9.45833,16
9.46667,17
9.47500,18
9.48333,18
9.49167,19
9.50000,19
9.50833,20
9.51667,20
9.52500,20
9.53333,21
9.54167,21
9.55000,22
9.55833,22
9.56667,23
9.57500,23
9.58333,23
9.59167,24
9.60000,24
9.60833,25
9.61667,25
9.62500,25
9.63333,24
9.64167,25
9.65000,25
9.65833,25
9.66667,25
9.67500,25
9.68333,25
9.69167,25
9.70000,25
9.70833,25
9.71667,24
9.72500,24
9.73333,24
9.74167,24
9.75000,24
9.75833,24
9.76667,23
9.77500,23
9.78333,22
9.79167,22
9.80000,22
9.80833,22
9.81667,21
9.82500,21
9.83333,21
9.84167,20
9.85000,20
9.85833,20
9.86667,19
9.87500,19
9.88333,19
9.89167,19
9.90000,19
9.90833,19
9.91667,19
9.92500,19
9.93333,18
9.94167,18
9.95000,18
9.95833,18
9.96667,18
9.97500,18
9.98333,18
9.99167,18
10.00000,18
10.00833,18
10.01667,19
10.02500,19
10.03333,19
10.04167,18
10.05000,18
10.05833,18
10.06667,19
10.07500,19
10.08333,20
10.09167,20
10.10000,20
10.10833,20
10.11667,20
10.12500,20
10.13333,20
10.14167,20
10.15000,20
10.15833,20
10.16667,19
10.17500,19
10.18333,19
10.19167,19
10.20000,19
10.20833,19
10.21667,19
10.22500,19
10.23333,19
10.24167,19
10.25000,18
10.25833,18
10.26667,18
10.27500,17
10.28333,17
10.29167,17
10.30000,17
10.30833,17
10.31667,17
10.32500,17
10.33333,16
10.34167,16
10.35000,16
10.35833,16
10.36667,15
10.37500,15
10.38333,16
10.39167,16
10.40000,16
10.40833,17
10.41667,18
10.42500,19
10.43333,20
10.44167,22
10.45000,24
10.45833,26
10.46667,29
10.47500,33
10.48333,37
10.49167,43
10.50000,50
10.50833,60
10.51667,72
10.52500,87
10.53333,106
10.54167,130
10.55000,159
10.55833,195
10.56667,239
10.57500,293
10.58333,357
10.59167,435
10.60000,526
10.60833,634
10.61667,761
10.62500,909
10.63333,1079
10.64167,1274
10.65000,1495
10.65833,1745
10.66667,2024
10.67500,2334
10.68333,2675
10.69167,3048
10.70000,3453
10.70833,3889
10.71667,4357
10.72500,4853
10.73333,5375
10.74167,5922
10.75000,6488
10.75833,7070
10.76667,7663
10.77500,8261
10.78333,8858
10.79167,9447
10.80000,10022
10.80833,10576
10.81667,11100
10.82500,11587
10.83333,12030
10.84167,12420
10.85000,12753
10.85833,13021
10.86667,13219
10.87500,13345
10.88333,13394
10.89167,13365
10.90000,13260
10.90833,13079
10.91667,12825
10.92500,12504
10.93333,12121
10.94167,11683
10.95000,11197
10.95833,10671
10.96667,10115
10.97500,9537
10.98333,8945
10.99167,8347
11.00000,7752
11.00833,7165
11.01667,6593
11.02500,6040
11.03333,5510
11.04167,5008
11.05000,4534
11.05833,4091
11.06667,3680
11.07500,3299
11.08333,2950
11.09167,2630
11.10000,2340
11.10833,2076
11.11667,1839
11.12500,1626
11.13333,1435
11.14167,1265
11.15000,1113
11.15833,979
11.16667,860
11.17500,755
11.18333,663
11.19167,583
11.20000,512
11.20833,451
11.21667,397
11.22500,351
11.23333,311
11.24167,277
11.25000,248
11.25833,223
11.26667,201
11.27500,183
11.28333,167
11.29167,154
11.30000,142
11.30833,133
11.31667,125
11.32500,119
11.33333,113
11.34167,109
11.35000,105
11.35833,102
11.36667,99
11.37500,96
11.38333,93
11.39167,91
11.40000,89
11.40833,88
11.41667,86
11.42500,85
11.43333,84
11.44167,82
11.45000,80
11.45833,79
11.46667,77
11.47500,76
11.48333,74
11.49167,73
11.50000,71
11.50833,69
11.51667,67
11.52500,66
11.53333,64
11.54167,62
11.55000,61
11.55833,59
11.56667,58
11.57500,56
11.58333,53
11.59167,51
11.60000,49
11.60833,47
11.61667,46
11.62500,44
11.63333,42
11.64167,41
11.65000,39
11.65833,38
11.66667,36
11.67500,35
11.68333,34
11.69167,33
11.70000,32
11.70833,31
11.71667,30
11.72500,28
11.73333,27
11.74167,26
11.75000,24
11.75833,23
11.76667,22
11.77500,22
11.78333,21
11.79167,20
11.80000,20
11.80833,19
11.81667,18
11.82500,18
11.83333,17
11.84167,16
11.85000,15
11.85833,14
11.86667,13
11.87500,12
11.88333,11
11.89167,10
11.90000,10
11.90833,9
11.91667,8
11.92500,8
11.93333,7
11.94167,6
11.95000,6
11.95833,5
11.96667,5
11.97500,5
11.98333,4
11.99167,3
12.00000,3
12.00833,2
12.01667,1
12.02500,1
12.03333,0
12.04167,-0
12.05000,-1
12.05833,-1
12.06667,-1
12.07500,-1
12.08333,-1
12.09167,-2
12.10000,-2
12.10833,-3
12.11667,-3
12.12500,-4
12.13333,-4
12.14167,-4
12.15000,-4
12.15833,-4
12.16667,-4
12.17500,-5
12.18333,-5
12.19167,-5
12.20000,-5
12.20833,-5
12.21667,-6
12.22500,-6
12.23333,-6
12.24167,-6
12.25000,-6
12.25833,-5
12.26667,-5
12.27500,-5
12.28333,-4
12.29167,-4
12.30000,-4
12.30833,-3
12.31667,-3
12.32500,-2
12.33333,-2
12.34167,-2
12.35000,-1
12.35833,-1
12.36667,-0
12.37500,1
12.38333,1
12.39167,2
12.40000,3
12.40833,3
12.41667,4
12.42500,5
12.43333,6
12.44167,7
12.45000,8
12.45833,8
12.46667,9
12.47500,10
12.48333,11
12.49167,12
12.50000,12
12.50833,14
12.51667,15
12.52500,15
12.53333,16
12.54167,17
12.55000,19
12.55833,20
12.56667,21
12.57500,23
12.58333,25
12.59167,27
12.60000,30
12.60833,33
12.61667,37
12.62500,41
12.63333,46
12.64167,52
12.65000,60
12.65833,69
12.66667,81
12.67500,95
12.68333,111
12.69167,130
12.70000,152
12.70833,178
12.71667,207
12.72500,240
12.73333,279
12.74167,322
12.75000,371
12.75833,425
12.76667,485
12.77500,551
12.78333,624
12.79167,703
12.80000,788
12.80833,880
12.81667,979
12.82500,1085
12.83333,1197
12.84167,1316
12.85000,1442
12.85833,1574
12.86667,1713
12.87500,1858
12.88333,2009
12.89167,2166
12.90000,2329
12.90833,2497
12.91667,2671
12.92500,2851
12.93333,3036
12.94167,3226
12.95000,3421
12.95833,3621
12.96667,3825
12.97500,4034
12.98333,4246
12.99167,4463
13.00000,4684
13.00833,4908
13.01667,5137
13.02500,5368
13.03333,5603
13.04167,5841
13.05000,6083
13.05833,6328
13.06667,6576
13.07500,6826
13.08333,7080
13.09167,7337
13.10000,7596
13.10833,7858
13.11667,8122
13.12500,8390
13.13333,8660
13.14167,8932
13.15000,9208
13.15833,9485
13.16667,9765
13.17500,10048
13.18333,10333
13.19167,10621
13.20000,10910
13.20833,11202
13.21667,11497
13.22500,11793
13.23333,12092
13.24167,12393
13.25000,12696
13.25833,13003
13.26667,13311
13.27500,13622
13.28333,13936
13.29167,14251
13.30000,14569
13.30833,14889
13.31667,15211
13.32500,15536
13.33333,15863
13.34167,16193
13.35000,16524
13.35833,16858
13.36667,17194
13.37500,17533
13.38333,17874
13.39167,18218
13.40000,18564
13.40833,18913
13.41667,19265
13.42500,19618
13.43333,19975
13.44167,20333
13.45000,20694
13.45833,21058
13.46667,21424
13.47500,21793
13.48333,22164
13.49167,22537
13.50000,22913
13.50833,23292
13.51667,23674
13.52500,24059
13.53333,24446
13.54167,24836
13.55000,25229
13.55833,25624
13.56667,26022
13.57500,26423
13.58333,26827
13.59167,27233
13.60000,27643
13.60833,28055
13.61667,28470
13.62500,28888
13.63333,29309
13.64167,29733
13.65000,30160
13.65833,30590
13.66667,31023
13.67500,31459
13.68333,31898
13.69167,32340
13.70000,32785
13.70833,33233
13.71667,33684
13.72500,34138
13.73333,34595
13.74167,35056
13.75000,35519
13.75833,35987
13.76667,36457
13.77500,36931
13.78333,37407
13.79167,37887
13.80000,38370
13.80833,38855
13.81667,39342
13.82500,39829
13.83333,40314
13.84167,40793
13.85000,41260
13.85833,41707
13.86667,42123
13.87500,42491
13.88333,42793
13.89167,43008
13.90000,43109
13.90833,43072
13.91667,42871
13.92500,42482
13.93333,41887
13.94167,41071
13.95000,40028
13.95833,38762
13.96667,37284
13.97500,35614
13.98333,33779
13.99167,31812
14.00000,29751
14.00833,27637
14.01667,25507
14.02500,23402
14.03333,21354
14.04167,19393
14.05000,17543
14.05833,15821
14.06667,14240
14.07500,12808
14.08333,11527
14.09167,10395
14.10000,9409
14.10833,8564
14.11667,7850
14.12500,7259
14.13333,6783
14.14167,6410
14.15000,6133
14.15833,5941
14.16667,5826
14.17500,5779
14.18333,5791
14.19167,5854
14.20000,5961
14.20833,6103
14.21667,6274
14.22500,6465
14.23333,6671
14.24167,6885
14.25000,7101
14.25833,7312
14.26667,7514
14.27500,7703
14.28333,7874
14.29167,8022
14.30000,8145
14.30833,8241
14.31667,8307
14.32500,8341
14.33333,8344
14.34167,8316
14.35000,8256
14.35833,8165
14.36667,8046
14.37500,7898
14.38333,7725
14.39167,7529
14.40000,7313
14.40833,7078
14.41667,6829
14.42500,6567
14.43333,6295
14.44167,6017
14.45000,5735
14.45833,5451
14.46667,5167
14.47500,4886
14.48333,4609
14.49167,4338
14.50000,4075
14.50833,3820
14.51667,3575
14.52500,3339
14.53333,3115
14.54167,2901
14.55000,2699
14.55833,2509
14.56667,2330
14.57500,2163
14.58333,2006
14.59167,1861
14.60000,1725
14.60833,1600
14.61667,1484
14.62500,1376
14.63333,1278
14.64167,1187
14.65000,1104
14.65833,1027
14.66667,958
14.67500,894
14.68333,835
14.69167,782
14.70000,733
14.70833,689
14.71667,648
14.72500,611
14.73333,577
14.74167,547
14.75000,519
14.75833,494
14.76667,471
14.77500,451
14.78333,432
14.79167,414
14.80000,399
14.80833,384
14.81667,371
14.82500,359
14.83333,349
14.84167,339
14.85000,329
14.85833,321
14.86667,314
14.87500,307
14.88333,302
14.89167,297
14.90000,292
14.90833,288
14.91667,284
14.92500,281
14.93333,279
14.94167,277
14.95000,276
14.95833,275
14.96667,275
14.97500,275
14.98333,275
14.99167,276
15.00000,278
15.00833,280
15.01667,282
15.02500,284
15.03333,287
15.04167,290
15.05000,293
15.05833,296
15.06667,300
15.07500,304
15.08333,308
15.09167,313
15.10000,318
15.10833,324
15.11667,330
15.12500,337
15.13333,344
15.14167,352
15.15000,362
15.15833,372
15.16667,385
15.17500,399
15.18333,416
15.19167,436
15.20000,460
15.20833,488
15.21667,522
15.22500,563
15.23333,611
15.24167,668
15.25000,736
15.25833,816
15.26667,910
15.27500,1021
15.28333,1150
15.29167,1299
15.30000,1471
15.30833,1669
15.31667,1895
15.32500,2153
15.33333,2446
15.34167,2775
15.35000,3145
15.35833,3556
15.36667,4012
15.37500,4516
15.38333,5069
15.39167,5674
15.40000,6332
15.40833,7044
15.41667,7809
15.42500,8629
15.43333,9502
15.44167,10426
15.45000,11400
15.45833,12422
15.46667,13487
15.47500,14592
15.48333,15731
15.49167,16899
15.50000,18090
15.50833,19298
15.51667,20516
15.52500,21735
15.53333,22948
15.54167,24147
15.55000,25324
15.55833,26471
15.56667,27579
15.57500,28640
15.58333,29648
15.59167,30594
15.60000,31472
15.60833,32276
15.61667,33000
15.62500,33639
15.63333,34189
15.64167,34647
15.65000,35010
15.65833,35277
15.66667,35447
15.67500,35521
15.68333,35498
15.69167,35381
15.70000,35171
15.70833,34873
15.71667,34489
15.72500,34025
15.73333,33483
15.74167,32871
15.75000,32193
15.75833,31456
15.76667,30665
15.77500,29826
15.78333,28946
15.79167,28031
15.80000,27087
15.80833,26120
15.81667,25136
15.82500,24140
15.83333,23138
15.84167,22135
15.85000,21135
15.85833,20144
15.86667,19165
15.87500,18201
15.88333,17256
15.89167,16333
15.90000,15434
15.90833,14562
15.91667,13718
15.92500,12905
15.93333,12122
15.94167,11372
15.95000,10655
15.95833,9970
15.96667,9318
15.97500,8699
15.98333,8113
15.99167,7558
16.00000,7035
16.00833,6543
16.01667,6080
16.02500,5646
16.03333,5239
16.04167,4859
16.05000,4505
16.05833,4174
16.06667,3867
16.07500,3582
16.08333,3317
16.09167,3072
16.10000,2845
16.10833,2636
16.11667,2443
16.12500,2264
16.13333,2100
16.14167,1949
16.15000,1810
16.15833,1682
16.16667,1565
16.17500,1457
16.18333,1358
16.19167,1268
16.20000,1185
16.20833,1109
16.21667,1039
16.22500,976
16.23333,918
16.24167,864
16.25000,815
16.25833,770
16.26667,729
16.27500,691
16.28333,657
16.29167,625
16.30000,596
16.30833,570
16.31667,545
16.32500,523
16.33333,503
16.34167,483
16.35000,466
16.35833,449
16.36667,435
16.37500,421
16.38333,408
16.39167,396
16.40000,385
16.40833,375
16.41667,366
16.42500,357
16.43333,348
16.44167,341
16.45000,334
16.45833,327
16.46667,321
16.47500,315
16.48333,310
16.49167,305
16.50000,300
16.50833,295
16.51667,291
16.52500,288
16.53333,284
16.54167,281
16.55000,278
16.55833,275
16.56667,271
16.57500,269
16.58333,266
16.59167,264
16.60000,261
16.60833,259
16.61667,257
16.62500,255
16.63333,253
16.64167,251
16.65000,249
16.65833,247
16.66667,246
16.67500,244
16.68333,243
16.69167,242
16.70000,240
16.70833,239
16.71667,237
16.72500,236
16.73333,234
16.74167,232
16.75000,231
16.75833,229
16.76667,228
16.77500,226
16.78333,225
16.79167,224
16.80000,222
16.80833,220
16.81667,219
16.82500,217
16.83333,216
16.84167,214
16.85000,213
16.85833,212
16.86667,210
16.87500,209
16.88333,207
16.89167,205
16.90000,204
16.90833,202
16.91667,201
16.92500,199
16.93333,198
16.94167,196
16.95000,195
16.95833,193
16.96667,191
16.97500,189
16.98333,188
16.99167,186
17.00000,185
17.00833,184
17.01667,182
17.02500,181
17.03333,179
17.04167,178
17.05000,177
17.05833,176
17.06667,175
17.07500,173
17.08333,172
17.09167,171
17.10000,170
17.10833,169
17.11667,167
17.12500,166
17.13333,165
17.14167,164
17.15000,163
17.15833,162
17.16667,160
17.17500,160
17.18333,159
17.19167,158
17.20000,157
17.20833,156
17.21667,155
17.22500,154
17.23333,154
17.24167,153
17.25000,152
17.25833,151
17.26667,150
17.27500,149
17.28333,148
17.29167,147
17.30000,146
17.30833,145
17.31667,144
17.32500,143
17.33333,143
17.34167,142
17.35000,141
17.35833,140
17.36667,139
17.37500,139
17.38333,138
17.39167,138
17.40000,137
17.40833,136
17.41667,136
17.42500,135
17.43333,134
17.44167,133
17.45000,132
17.45833,131
17.46667,130
17.47500,129
17.48333,129
17.49167,128
17.50000,128
17.50833,127
17.51667,127
17.52500,126
17.53333,125
17.54167,124
17.55000,124
17.55833,123
17.56667,122
17.57500,121
17.58333,120
17.59167,119
17.60000,119
17.60833,118
17.61667,118
17.62500,117
17.63333,117
17.64167,117
17.65000,116
17.65833,116
17.66667,115
17.67500,115
17.68333,115
17.69167,115
17.70000,115
17.70833,114
17.71667,114
17.72500,114
17.73333,113
17.74167,113
17.75000,113
17.75833,112
17.76667,112
17.77500,112
17.78333,111
17.79167,111
17.80000,110
17.80833,110
17.81667,110
17.82500,109
17.83333,109
17.84167,109
17.85000,109
17.85833,109
17.86667,109
17.87500,108
17.88333,108
17.89167,108
17.90000,108
17.90833,108
17.91667,107
17.92500,106
17.93333,106
17.94167,105
17.95000,105
17.95833,104
17.96667,104
17.97500,103
17.98333,103
17.99167,103
18.00000,102
18.00833,102
18.01667,102
18.02500,101
18.03333,101
18.04167,100
18.05000,100
18.05833,100
18.06667,99
18.07500,99
18.08333,99
18.09167,98
18.10000,98
18.10833,97
18.11667,97
18.12500,97
18.13333,96
18.14167,96
18.15000,95
18.15833,95
18.16667,95
18.17500,94
18.18333,94
18.19167,94
18.20000,94
18.20833,94
18.21667,93
18.22500,93
18.23333,92
18.24167,92
18.25000,91
18.25833,91
18.26667,91
18.27500,90
18.28333,91
18.29167,90
18.30000,90
18.30833,90
18.31667,89
18.32500,89
18.33333,89
18.34167,89
18.35000,88
18.35833,88
18.36667,87
18.37500,87
18.38333,87
18.39167,86
18.40000,86
18.40833,86
18.41667,86
18.42500,86
18.43333,87
18.44167,87
18.45000,87
18.45833,87
18.46667,87
18.47500,87
18.48333,86
18.49167,86
18.50000,86
18.50833,86
18.51667,86
18.52500,86
18.53333,86
18.54167,86
18.55000,86
18.55833,87
18.56667,87
18.57500,87
18.58333,88
18.59167,88
18.60000,88
18.60833,88
18.61667,88
18.62500,88
18.63333,88
18.64167,88
18.65000,88
18.65833,88
18.66667,88
18.67500,89
18.68333,89
18.69167,90
18.70000,90
18.70833,91
18.71667,91
18.72500,92
18.73333,92
18.74167,93
18.75000,94
18.75833,95
18.76667,96
18.77500,97
18.78333,98
18.79167,99
18.80000,101
18.80833,102
18.81667,104
18.82500,107
18.83333,109
18.84167,112
18.85000,114
18.85833,117
18.86667,119
18.87500,122
18.88333,125
18.89167,128
18.90000,131
18.90833,133
18.91667,136
18.92500,140
18.93333,143
18.94167,146
18.95000,150
18.95833,153
18.96667,156
18.97500,158
18.98333,161
18.99167,163
19.00000,165
19.00833,167
19.01667,170
19.02500,171
19.03333,173
19.04167,175
19.05000,176
19.05833,176
19.06667,177
19.07500,177
19.08333,177
19.09167,177
19.10000,176
19.10833,176
19.11667,175
19.12500,174
19.13333,172
19.14167,170
19.15000,168
19.15833,166
19.16667,163
19.17500,161
19.18333,158
19.19167,155
19.20000,152
19.20833,149
19.21667,145
19.22500,142
19.23333,139
19.24167,136
19.25000,133
19.25833,130
19.26667,127
19.27500,123
19.28333,120
19.29167,117
19.30000,114
19.30833,111
19.31667,108
19.32500,106
19.33333,103
19.34167,101
19.35000,98
19.35833,96
19.36667,93
19.37500,91
19.38333,88
19.39167,86
19.40000,85
19.40833,83
19.41667,82
19.42500,80
19.43333,79
19.44167,77
19.45000,76
19.45833,75
19.46667,74
19.47500,73
19.48333,73
19.49167,72
19.50000,71
19.50833,71
19.51667,70
19.52500,70
19.53333,69
19.54167,69
19.55000,69
19.55833,68
19.56667,68
19.57500,68
19.58333,69
19.59167,69
19.60000,69
19.60833,69
19.61667,69
19.62500,69
19.63333,68
19.64167,68
19.65000,68
19.65833,68
19.66667,68
19.67500,69
19.68333,69
19.69167,69
19.70000,69
19.70833,69
19.71667,69
19.72500,69
19.73333,69
19.74167,69
19.75000,69
19.75833,69
19.76667,68
19.77500,68
19.78333,68
19.79167,68
19.80000,68
19.80833,68
19.81667,68
19.82500,68
19.83333,68
19.84167,68
19.85000,68
19.85833,67
19.86667,67
19.87500,67
19.88333,67
19.89167,66
19.90000,66
19.90833,66
19.91667,66
19.92500,65
19.93333,65
19.94167,65
19.95000,65
19.95833,64
19.96667,64
19.97500,64
19.98333,63
19.99167,63
20.00000,62
20.00833,62
20.01667,62
20.02500,62
20.03333,62
20.04167,61
20.05000,61
20.05833,60
20.06667,59
20.07500,58
20.08333,58
20.09167,58
20.10000,58
20.10833,58
20.11667,57
20.12500,57
20.13333,57
20.14167,57
20.15000,57
20.15833,56
20.16667,55
20.17500,55
20.18333,55
20.19167,54
20.20000,53
20.20833,52
20.21667,52
20.22500,51
20.23333,51
20.24167,51
20.25000,50
20.25833,50
20.26667,49
20.27500,49
20.28333,49
20.29167,49
20.30000,48
20.30833,48
20.31667,47
20.32500,47
20.33333,46
20.34167,46
20.35000,45
20.35833,45
20.36667,44
20.37500,44
20.38333,43
20.39167,43
20.40000,43
20.40833,43
20.41667,43
20.42500,43
20.43333,42
20.44167,42
20.45000,42
20.45833,41
20.46667,42
20.47500,42
20.48333,42
20.49167,42
20.50000,43
20.50833,43
20.51667,43
20.52500,43
20.53333,42
20.54167,42
20.55000,42
20.55833,43
20.56667,43
20.57500,43
20.58333,43
20.59167,44
20.60000,44
20.60833,44
20.61667,44
20.62500,44
20.63333,44
20.64167,44
20.65000,44
20.65833,44
20.66667,45
20.67500,45
20.68333,45
20.69167,46
20.70000,47
20.70833,47
20.71667,47
20.72500,48
20.73333,48
20.74167,49
20.75000,49
20.75833,50
20.76667,51
20.77500,51
20.78333,51
20.79167,52
20.80000,52
20.80833,52
20.81667,53
20.82500,53
20.83333,53
20.84167,54
20.85000,55
20.85833,55
20.86667,55
20.87500,56
20.88333,56
20.89167,57
20.90000,58
20.90833,58
20.91667,58
20.92500,58
20.93333,59
20.94167,59
20.95000,60
20.95833,60
20.96667,60
20.97500,61
20.98333,61
20.99167,62
21.00000,62
21.00833,62
21.01667,63
21.02500,63
21.03333,63
21.04167,64
21.05000,65
21.05833,65
21.06667,66
21.07500,66
21.08333,66
21.09167,66
21.10000,67
21.10833,67
21.11667,67
21.12500,67
21.13333,67
21.14167,67
21.15000,67
21.15833,68
21.16667,68
21.17500,68
21.18333,69
21.19167,69
21.20000,69
21.20833,69
21.21667,69
21.22500,69
21.23333,69
21.24167,69
21.25000,69
21.25833,68
21.26667,68
21.27500,68
21.28333,68
21.29167,67
21.30000,67
21.30833,66
21.31667,66
21.32500,66
21.33333,66
21.34167,65
21.35000,64
21.35833,64
21.36667,63
21.37500,63
21.38333,62
21.39167,61
21.40000,61
21.40833,61
21.41667,60
21.42500,60
21.43333,59
21.44167,58
21.45000,58
21.45833,57
21.46667,56
21.47500,56
21.48333,55
21.49167,55
21.50000,55
21.50833,54
21.51667,54
21.52500,53
21.53333,53
21.54167,52
21.55000,52
21.55833,51
21.56667,51
21.57500,50
21.58333,50
21.59167,49
21.60000,49
21.60833,49
21.61667,48
21.62500,49
21.63333,49
21.64167,48
21.65000,48
21.65833,48
21.66667,48
21.67500,47
21.68333,47
21.69167,47
21.70000,47
21.70833,47
21.71667,47
21.72500,47
21.73333,48
21.74167,48
21.75000,49
21.75833,49
21.76667,49
21.77500,49
21.78333,50
21.79167,49
21.80000,49
21.80833,49
21.81667,49
21.82500,49
21.83333,50
21.84167,50
21.85000,50
21.85833,50
21.86667,50
21.87500,49
21.88333,49
21.89167,49
21.90000,49
21.90833,49
21.91667,49
21.92500,49
21.93333,49
21.94167,49
21.95000,49
21.95833,49
21.96667,49
21.97500,49
21.98333,49
21.99167,49
22.00000,48
22.00833,48
22.01667,48
22.02500,48
22.03333,48
22.04167,48
22.05000,48
22.05833,48
22.06667,48
22.07500,47
22.08333,47
22.09167,47
22.10000,47
22.10833,47
22.11667,48
22.12500,48
22.13333,48
22.14167,48
22.15000,48
22.15833,48
22.16667,48
22.17500,48
22.18333,47
22.19167,48
22.20000,48
22.20833,48
22.21667,48
22.22500,48
22.23333,48
22.24167,49
22.25000,49
22.25833,49
22.26667,49
22.27500,49
22.28333,49
22.29167,49
22.30000,49
22.30833,49
22.31667,48
22.32500,48
22.33333,48
22.34167,48
22.35000,48
22.35833,48
22.36667,48
22.37500,47
22.38333,47
22.39167,47
22.40000,47
22.40833,46
22.41667,47
22.42500,47
22.43333,47
22.44167,47
22.45000,47
22.45833,47
22.46667,47
22.47500,47
22.48333,47
22.49167,46
22.50000,46
22.50833,46
22.51667,47
22.52500,47
22.53333,47
22.54167,47
22.55000,47
22.55833,47
22.56667,47
22.57500,47
22.58333,47
22.59167,47
22.60000,47
22.60833,47
22.61667,48
22.62500,49
22.63333,49
22.64167,49
22.65000,50
22.65833,50
22.66667,50
22.67500,50
22.68333,51
22.69167,51
22.70000,52
22.70833,53
22.71667,54
22.72500,55
22.73333,56
22.74167,56
22.75000,57
22.75833,58
22.76667,59
22.77500,60
22.78333,61
22.79167,62
22.80000,63
22.80833,63
22.81667,64
22.82500,65
22.83333,66
22.84167,67
22.85000,68
22.85833,69
22.86667,70
22.87500,70
22.88333,71
22.89167,72
22.90000,72
22.90833,73
22.91667,73
22.92500,74
22.93333,74
22.94167,75
22.95000,75
22.95833,75
22.96667,76
22.97500,76
22.98333,77
22.99167,77
23.00000,77
23.00833,77
23.01667,76
23.02500,76
23.03333,76
23.04167,76
23.05000,77
23.05833,77
23.06667,76
23.07500,76
23.08333,76
23.09167,75
23.10000,74
23.10833,74
23.11667,73
23.12500,73
23.13333,72
23.14167,71
23.15000,71
23.15833,71
23.16667,70
23.17500,70
23.18333,69
23.19167,68
23.20000,67
23.20833,66
23.21667,66
23.22500,65
23.23333,65
23.24167,65
23.25000,65
23.25833,64
23.26667,64
23.27500,63
23.28333,62
23.29167,62
23.30000,61
23.30833,60
23.31667,60
23.32500,60
23.33333,60
23.34167,59
23.35000,59
23.35833,59
23.36667,58
23.37500,58
23.38333,57
23.39167,57
23.40000,57
23.40833,57
23.41667,56
23.42500,56
23.43333,56
23.44167,56
23.45000,55
23.45833,55
23.46667,55
23.47500,55
23.48333,55
23.49167,55
23.50000,54
23.50833,54
23.51667,55
23.52500,55
23.53333,55
23.54167,55
23.55000,55
23.55833,55
23.56667,55
23.57500,55
23.58333,55
23.59167,56
23.60000,56
23.60833,56
23.61667,56
23.62500,57
23.63333,57
23.64167,57
23.65000,57
23.65833,57
23.66667,58
23.67500,58
23.68333,59
23.69167,59
23.70000,59
23.70833,59
23.71667,60
23.72500,60
23.73333,60
23.74167,60
23.75000,60
23.75833,61
23.76667,61
23.77500,61
23.78333,61
23.79167,61
23.80000,61
23.80833,62
23.81667,62
23.82500,63
23.83333,63
23.84167,64
23.85000,64
23.85833,64
23.86667,64
23.87500,65
23.88333,65
23.89167,65
23.90000,65
23.90833,66
23.91667,66
23.92500,66
23.93333,66
23.94167,66
23.95000,66
23.95833,66
23.96667,66
23.97500,66
23.98333,66
23.99167,66
24.00000,66
24.00833,65
24.01667,65
24.02500,64
24.03333,64
24.04167,64
24.05000,64
24.05833,64
24.06667,63
24.07500,62
24.08333,62
24.09167,61
24.10000,60
24.10833,59
24.11667,59
24.12500,58
24.13333,58
24.14167,58
24.15000,57
24.15833,56
24.16667,55
24.17500,54
24.18333,53
24.19167,52
24.20000,51
24.20833,50
24.21667,49
24.22500,49
24.23333,48
24.24167,47
24.25000,46
24.25833,46
24.26667,45
24.27500,44
24.28333,44
24.29167,44
24.30000,43
24.30833,43
24.31667,42
24.32500,42
24.33333,41
24.34167,41
24.35000,41
24.35833,41
24.36667,41
24.37500,41
24.38333,41
24.39167,41
24.40000,41
24.40833,41
24.41667,41
24.42500,41
24.43333,42
24.44167,42
24.45000,43
24.45833,44
24.46667,45
24.47500,47
24.48333,48
24.49167,49
24.50000,50
24.50833,52
24.51667,53
24.52500,54
24.53333,56
24.54167,57
24.55000,60
24.55833,62
24.56667,64
24.57500,67
24.58333,70
24.59167,73
24.60000,76
24.60833,79
24.61667,82
24.62500,86
24.63333,89
24.64167,93
24.65000,98
24.65833,103
24.66667,108
24.67500,113
24.68333,118
24.69167,124
24.70000,130
24.70833,136
24.71667,142
24.72500,149
24.73333,156
24.74167,163
24.75000,171
24.75833,179
24.76667,186
24.77500,194
24.78333,203
24.79167,211
24.80000,219
24.80833,228
24.81667,237
24.82500,246
24.83333,255
24.84167,264
24.85000,273
24.85833,282
24.86667,291
24.87500,300
24.88333,309
24.89167,318
24.90000,326
24.90833,334
24.91667,342
24.92500,349
24.93333,356
24.94167,363
24.95000,369
24.95833,375
24.96667,381
24.97500,386
24.98333,391
24.99167,395
25.00000,398
25.00833,400
25.01667,402
25.02500,403
25.03333,403
25.04167,403
25.05000,403
25.05833,401
25.06667,399
25.07500,396
25.08333,393
25.09167,389
25.10000,385
25.10833,380
25.11667,375
25.12500,370
25.13333,364
25.14167,358
25.15000,351
25.15833,344
25.16667,336
25.17500,329
25.18333,321
25.19167,313
25.20000,304
25.20833,296
25.21667,288
25.22500,280
25.23333,271
25.24167,262
25.25000,253
25.25833,245
25.26667,237
25.27500,229
25.28333,221
25.29167,213
25.30000,206
25.30833,199
25.31667,191
25.32500,184
25.33333,178
25.34167,171
25.35000,164
25.35833,158
25.36667,152
25.37500,146
25.38333,141
25.39167,136
25.40000,131
25.40833,126
25.41667,122
25.42500,118
25.43333,114
25.44167,110
25.45000,107
25.45833,103
25.46667,100
25.47500,97
25.48333,94
25.49167,91
25.50000,89
25.50833,87
25.51667,85
25.52500,83
25.53333,81
25.54167,80
25.55000,79
25.55833,77
25.56667,76
25.57500,75
25.58333,74
25.59167,73
25.60000,72
25.60833,71
25.61667,70
25.62500,70
25.63333,69
25.64167,69
25.65000,68
25.65833,67
25.66667,67
25.67500,66
25.68333,66
25.69167,65
25.70000,65
25.70833,65
25.71667,64
25.72500,64
25.73333,64
25.74167,64
25.75000,64
25.75833,64
25.76667,64
25.77500,64
25.78333,64
25.79167,64
25.80000,64
25.80833,64
25.81667,64
25.82500,64
25.83333,64
25.84167,64
25.85000,64
25.85833,64
25.86667,64
25.87500,63
25.88333,63
25.89167,63
25.90000,63
25.90833,63
25.91667,63
25.92500,63
25.93333,62
25.94167,62
25.95000,62
25.95833,63
25.96667,63
25.97500,63
25.98333,64
25.99167,64
26.00000,64
26.00833,63
26.01667,63
26.02500,64
26.03333,64
26.04167,64
26.05000,63
26.05833,63
26.06667,63
26.07500,63
26.08333,63
26.09167,62
26.10000,62
26.10833,62
26.11667,62
26.12500,62
26.13333,62
26.14167,61
26.15000,61
26.15833,61
26.16667,61
26.17500,61
26.18333,61
26.19167,61
26.20000,61
26.20833,61
26.21667,61
26.22500,61
26.23333,61
26.24167,61
26.25000,61
26.25833,61
26.26667,61
26.27500,61
26.28333,60
26.29167,60
26.30000,60
26.30833,60
26.31667,59
26.32500,59
26.33333,59
26.34167,59
26.35000,59
26.35833,59
26.36667,59
26.37500,59
26.38333,59
26.39167,59
26.40000,59
26.40833,59
26.41667,59
26.42500,59
26.43333,59
26.44167,59
26.45000,59
26.45833,59
26.46667,59
26.47500,59
26.48333,59
26.49167,59
26.50000,59
26.50833,60
26.51667,60
26.52500,60
26.53333,59
26.54167,59
26.55000,60
26.55833,60
26.56667,61
26.57500,61
26.58333,62
26.59167,62
26.60000,62
26.60833,62
26.61667,62
26.62500,63
26.63333,63
26.64167,64
26.65000,64
26.65833,64
26.66667,64
26.67500,65
26.68333,65
26.69167,65
26.70000,65
26.70833,66
26.71667,66
26.72500,66
26.73333,66
26.74167,66
26.75000,67
26.75833,67
26.76667,67
26.77500,67
26.78333,67
26.79167,68
26.80000,68
26.80833,68
26.81667,68
26.82500,68
26.83333,69
26.84167,69
26.85000,69
26.85833,69
26.86667,69
26.87500,68
26.88333,68
26.89167,68
26.90000,68
26.90833,67
26.91667,67
26.92500,67
26.93333,67
26.94167,67
26.95000,66
26.95833,66
26.96667,65
26.97500,65
26.98333,65
26.99167,65
27.00000,65
27.00833,65
27.01667,64
27.02500,64
27.03333,64
27.04167,64
27.05000,64
27.05833,63
27.06667,63
27.07500,63
27.08333,63
27.09167,63
27.10000,63
27.10833,63
27.11667,63
27.12500,63
27.13333,63
27.14167,62
27.15000,62
27.15833,61
27.16667,61
27.17500,61
27.18333,61
27.19167,61
27.20000,61
27.20833,62
27.21667,62
27.22500,62
27.23333,62
27.24167,62
27.25000,62
27.25833,62
27.26667,62
27.27500,62
27.28333,62
27.29167,62
27.30000,63
27.30833,63
27.31667,63
27.32500,62
27.33333,62
27.34167,62
27.35000,62
27.35833,62
27.36667,62
27.37500,62
27.38333,62
27.39167,62
27.40000,62
27.40833,62
27.41667,62
27.42500,62
27.43333,62
27.44167,62
27.45000,63
27.45833,63
27.46667,63
27.47500,63
27.48333,63
27.49167,63
27.50000,63
27.50833,63
27.51667,62
27.52500,62
27.53333,62
27.54167,62
27.55000,62
27.55833,61
27.56667,61
27.57500,61
27.58333,60
27.59167,60
27.60000,60
27.60833,59
27.61667,59
27.62500,59
27.63333,58
27.64167,58
27.65000,57
27.65833,57
27.66667,56
27.67500,56
27.68333,55
27.69167,55
27.70000,55
27.70833,54
27.71667,54
27.72500,53
27.73333,52
27.74167,51
27.75000,50
27.75833,49
27.76667,48
27.77500,47
27.78333,46
27.79167,45
27.80000,44
27.80833,43
27.81667,42
27.82500,40
27.83333,39
27.84167,38
27.85000,37
27.85833,35
27.86667,34
27.87500,32
27.88333,31
27.89167,29
27.90000,27
27.90833,25
27.91667,23
27.92500,21
27.93333,18
27.94167,15
27.95000,13
27.95833,10
27.96667,8
27.97500,6
27.98333,3
27.99167,1
28.00000,-2
28.00833,-5
28.01667,-7
28.02500,-10
28.03333,-12
28.04167,-15
28.05000,-18
28.05833,-21
28.06667,-24
28.07500,-27
28.08333,-30
28.09167,-33
28.10000,-36
28.10833,-39
28.11667,-43
28.12500,-46
28.13333,-50
28.14167,-53
28.15000,-57
28.15833,-60
28.16667,-63
28.17500,-65
28.18333,-68
28.19167,-71
28.20000,-74
28.20833,-78
28.21667,-81
28.22500,-83
28.23333,-86
28.24167,-88
28.25000,-90
28.25833,-92
28.26667,-94
28.27500,-95
28.28333,-97
28.29167,-98
28.30000,-100
28.30833,-101
28.31667,-101
28.32500,-102
28.33333,-103
28.34167,-103
28.35000,-103
28.35833,-104
28.36667,-104
28.37500,-103
28.38333,-102
28.39167,-102
28.40000,-101
28.40833,-100
28.41667,-99
28.42500,-97
28.43333,-96
28.44167,-94
28.45000,-93
28.45833,-91
28.46667,-89
28.47500,-87
28.48333,-85
28.49167,-83
28.50000,-80
28.50833,-77
28.51667,-75
28.52500,-72
28.53333,-69
28.54167,-66
28.55000,-63
28.55833,-60
28.56667,-57
28.57500,-54
28.58333,-51
28.59167,-48
28.60000,-45
28.60833,-42
28.61667,-40
28.62500,-37
28.63333,-34
28.64167,-31
28.65000,-28
28.65833,-25
28.66667,-23
28.67500,-20
28.68333,-17
28.69167,-14
28.70000,-11
28.70833,-8
28.71667,-5
28.72500,-2
28.73333,0
28.74167,3
28.75000,6
28.75833,8
28.76667,11
28.77500,14
28.78333,16
28.79167,18
28.80000,20
28.80833,22
28.81667,23
28.82500,25
28.83333,27
28.84167,29
28.85000,31
28.85833,32
28.86667,34
28.87500,35
28.88333,37
28.89167,38
28.90000,39
28.90833,40
28.91667,41
28.92500,42
28.93333,43
28.94167,43
28.95000,44
28.95833,45
28.96667,46
28.97500,47
28.98333,48
28.99167,49
29.00000,49
29.00833,50
29.01667,51
29.02500,51
29.03333,52
29.04167,52
29.05000,53
29.05833,53
29.06667,53
29.07500,53
29.08333,54
29.09167,54
29.10000,54
29.10833,54
29.11667,55
29.12500,55
29.13333,55
29.14167,55
29.15000,55
29.15833,55
29.16667,55
29.17500,56
29.18333,56
29.19167,56
29.20000,56
29.20833,56
29.21667,56
29.22500,56
29.23333,56
29.24167,56
29.25000,56
29.25833,56
29.26667,57
29.27500,57
29.28333,57
29.29167,57
29.30000,58
29.30833,58
29.31667,58
29.32500,58
29.33333,58
29.34167,58
29.35000,58
29.35833,58
29.36667,58
29.37500,58
29.38333,58
29.39167,58
29.40000,58
29.40833,58
29.41667,58
29.42500,58
29.43333,58
29.44167,58
29.45000,58
29.45833,58
29.46667,57
29.47500,57
29.48333,57
29.49167,56
29.50000,56
29.50833,56
29.51667,56
29.52500,56
29.53333,56
29.54167,55
29.55000,55
29.55833,55
29.56667,54
29.57500,54
29.58333,54
29.59167,54
29.60000,53
29.60833,53
29.61667,53
29.62500,52
29.63333,51
29.64167,50
29.65000,49
29.65833,48
29.66667,47
29.67500,47
29.68333,46
29.69167,45
29.70000,44
29.70833,43
29.71667,42
29.72500,41
29.73333,40
29.74167,39
29.75000,38
29.75833,36
29.76667,35
29.77500,33
29.78333,32
29.79167,31
29.80000,30
29.80833,29
29.81667,28
29.82500,27
29.83333,26
29.84167,24
29.85000,23
29.85833,22
29.86667,21
29.87500,20
29.88333,18
29.89167,17
29.90000,15
29.90833,14
29.91667,13
29.92500,12
29.93333,11
29.94167,9
29.95000,8
29.95833,7
29.96667,6
29.97500,6
29.98333,5
29.99167,4
30.00000,3
30.00833,3
30.01667,2
30.02500,1
30.03333,0
30.04167,-0
30.05000,-1
30.05833,-1
30.06667,-2
30.07500,-2
30.08333,-2
30.09167,-2
30.10000,-2
30.10833,-2
30.11667,-2
30.12500,-2
30.13333,-2
30.14167,-2
30.15000,-2
30.15833,-1
30.16667,-0
30.17500,0
30.18333,1
30.19167,2
30.20000,3
30.20833,4
30.21667,5
30.22500,6
30.23333,6
30.24167,7
30.25000,8
30.25833,9
30.26667,10
30.27500,10
30.28333,11
30.29167,12
30.30000,13
30.30833,13
30.31667,14
30.32500,15
30.33333,16
30.34167,17
30.35000,18
30.35833,18
30.36667,20
30.37500,20
30.38333,21
30.39167,21
30.40000,22
30.40833,22
30.41667,22
30.42500,22
30.43333,23
30.44167,23
30.45000,24
30.45833,25
30.46667,25
30.47500,25
30.48333,24
30.49167,24
30.50000,24
30.50833,24
30.51667,24
30.52500,24
30.53333,24
30.54167,24
30.55000,24
30.55833,23
30.56667,23
30.57500,23
30.58333,23
30.59167,22
30.60000,22
30.60833,21
30.61667,21
30.62500,21
30.63333,21
30.64167,20
30.65000,20
30.65833,20
30.66667,20
30.67500,20
30.68333,19
30.69167,19
30.70000,18
30.70833,18
30.71667,17
30.72500,17
30.73333,17
30.74167,17
30.75000,17
30.75833,18
30.76667,18
30.77500,18
30.78333,18
30.79167,18
30.80000,18
30.80833,18
30.81667,18
30.82500,19
30.83333,19
30.84167,20
30.85000,20
30.85833,21
30.86667,21
30.87500,22
30.88333,22
30.89167,23
30.90000,24
30.90833,24
30.91667,25
30.92500,25
30.93333,26
30.94167,27
30.95000,28
30.95833,29
30.96667,30
30.97500,31
30.98333,32
30.99167,33
31.00000,34
31.00833,35
31.01667,36
31.02500,37
31.03333,38
31.04167,38
31.05000,39
31.05833,41
31.06667,42
31.07500,43
31.08333,45
31.09167,46
31.10000,47
31.10833,48
31.11667,49
31.12500,50
31.13333,52
31.14167,53
31.15000,53
31.15833,55
31.16667,56
31.17500,57
31.18333,58
31.19167,60
31.20000,61
31.20833,62
31.21667,63
31.22500,65
31.23333,65
31.24167,66
31.25000,67
31.25833,68
31.26667,69
31.27500,70
31.28333,71
31.29167,72
31.30000,73
31.30833,73
31.31667,74
31.32500,74
31.33333,75
31.34167,75
31.35000,75
31.35833,76
31.36667,76
31.37500,76
31.38333,76
31.39167,75
31.40000,76
31.40833,76
31.41667,76
31.42500,76
31.43333,76
31.44167,76
31.45000,76
31.45833,76
31.46667,75
31.47500,75
31.48333,75
31.49167,74
31.50000,74
31.50833,73
31.51667,72
31.52500,72
31.53333,72
31.54167,71
31.55000,70
31.55833,70
31.56667,69
31.57500,68
31.58333,67
31.59167,67
31.60000,66
31.60833,65
31.61667,65
31.62500,65
31.63333,64
31.64167,64
31.65000,63
31.65833,63
31.66667,62
31.67500,62
31.68333,61
31.69167,60
31.70000,60
31.70833,59
31.71667,59
31.72500,59
31.73333,58
31.74167,58
31.75000,58
31.75833,58
31.76667,58
31.77500,57
31.78333,57
31.79167,56
31.80000,56
31.80833,55
31.81667,55
31.82500,54
31.83333,54
31.84167,54
31.85000,54
31.85833,54
31.86667,54
31.87500,54
31.88333,53
31.89167,53
31.90000,53
31.90833,53
31.91667,53
31.92500,54
31.93333,54
31.94167,54
31.95000,53
31.95833,53
31.96667,53
31.97500,53
31.98333,53
31.99167,53
32.00000,53
32.00833,53
32.01667,53
32.02500,53
32.03333,53
32.04167,53
32.05000,52
32.05833,52
32.06667,52
32.07500,52
32.08333,52
32.09167,52
32.10000,53
32.10833,53
32.11667,53
32.12500,52
32.13333,52
32.14167,52
32.15000,52
32.15833,52
32.16667,52
32.17500,53
32.18333,53
32.19167,53
32.20000,53
32.20833,54
32.21667,54
32.22500,54
32.23333,54
32.24167,54
32.25000,54
32.25833,54
32.26667,55
32.27500,55
32.28333,55
32.29167,55
32.30000,55
32.30833,56
32.31667,55
32.32500,56
32.33333,56
32.34167,56
32.35000,57
32.35833,57
32.36667,57
32.37500,57
32.38333,58
32.39167,58
32.40000,58
32.40833,59
32.41667,59
32.42500,60
32.43333,60
32.44167,61
32.45000,62
32.45833,62
32.46667,62
32.47500,62
32.48333,62
32.49167,63
32.50000,63
32.50833,63
32.51667,63
32.52500,63
32.53333,63
32.54167,63
32.55000,63
32.55833,64
32.56667,63
32.57500,64
32.58333,64
32.59167,64
32.60000,65
32.60833,64
32.61667,64
32.62500,64
32.63333,64
32.64167,64
32.65000,64
32.65833,64
32.66667,64
32.67500,64
32.68333,63
32.69167,63
32.70000,63
32.70833,63
32.71667,63
32.72500,63
32.73333,62
32.74167,62
32.75000,62
32.75833,62
32.76667,62
32.77500,62
32.78333,62
32.79167,62
32.80000,62
32.80833,62
32.81667,62
32.82500,62
32.83333,62
32.84167,62
32.85000,61
32.85833,61
32.86667,61
32.87500,61
32.88333,61
32.89167,60
32.90000,60
32.90833,60
32.91667,60
32.92500,60
32.93333,60
32.94167,60
32.95000,60
32.95833,60
32.96667,60
32.97500,60
32.98333,61
32.99167,61
33.00000,61
33.00833,61
33.01667,61
33.02500,61
33.03333,61
33.04167,62
33.05000,62
33.05833,63
33.06667,63
33.07500,63
33.08333,64
33.09167,65
33.10000,65
33.10833,65
33.11667,66
33.12500,67
33.13333,68
33.14167,68
33.15000,68
33.15833,69
33.16667,69
33.17500,69
33.18333,70
33.19167,70
33.20000,70
33.20833,71
33.21667,71
33.22500,72
33.23333,72
33.24167,73
33.25000,73
33.25833,73
33.26667,73
33.27500,74
33.28333,74
33.29167,75
33.30000,75
33.30833,76
33.31667,76
33.32500,76
33.33333,76
33.34167,76
33.35000,76
33.35833,77
33.36667,77
33.37500,77
33.38333,77
33.39167,77
33.40000,77
33.40833,77
33.41667,77
33.42500,76
33.43333,76
33.44167,75
33.45000,75
33.45833,75
33.46667,75
33.47500,74
33.48333,74
33.49167,74
33.50000,74
33.50833,74
33.51667,74
33.52500,73
33.53333,73
33.54167,72
33.55000,72
33.55833,71
33.56667,71
33.57500,71
33.58333,70
33.59167,70
33.60000,69
33.60833,69
33.61667,68
33.62500,67
33.63333,67
33.64167,67
33.65000,67
33.65833,66
33.66667,66
33.67500,66
33.68333,65
33.69167,65
33.70000,65
33.70833,65
33.71667,64
33.72500,64
33.73333,64
33.74167,64
33.75000,63
33.75833,63
33.76667,63
33.77500,63
33.78333,63
33.79167,63
33.80000,62
33.80833,62
33.81667,62
33.82500,61
33.83333,62
33.84167,62
33.85000,62
33.85833,62
33.86667,62
33.87500,63
33.88333,63
33.89167,63
33.90000,64
33.90833,65
33.91667,65
33.92500,66
33.93333,66
33.94167,67
33.95000,67
33.95833,67
33.96667,68
33.97500,68
33.98333,69
33.99167,70
34.00000,70
34.00833,71
34.01667,71
34.02500,71
34.03333,71
34.04167,71
34.05000,72
34.05833,72
34.06667,73
34.07500,73
34.08333,74
34.09167,74
34.10000,75
34.10833,75
34.11667,76
34.12500,76
34.13333,76
34.14167,76
34.15000,76
34.15833,77
34.16667,77
34.17500,77
34.18333,78
34.19167,78
34.20000,78
34.20833,78
34.21667,78
34.22500,78
34.23333,79
34.24167,79
34.25000,79
34.25833,79
34.26667,79
34.27500,79
34.28333,79
34.29167,79
34.30000,79
34.30833,78
34.31667,78
34.32500,78
34.33333,78
34.34167,78
34.35000,78
34.35833,78
34.36667,78
34.37500,78
34.38333,78
34.39167,78
34.40000,78
34.40833,78
34.41667,78
34.42500,78
34.43333,78
34.44167,78
34.45000,78
34.45833,77
34.46667,77
34.47500,77
34.48333,77
34.49167,77
34.50000,76
34.50833,76
34.51667,76
34.52500,76
34.53333,76
34.54167,76
34.55000,76
34.55833,76
34.56667,75
34.57500,75
34.58333,75
34.59167,75
34.60000,75
34.60833,74
34.61667,74
34.62500,74
34.63333,74
34.64167,74
34.65000,73
34.65833,73
34.66667,72
34.67500,72
34.68333,72
34.69167,72
34.70000,72
34.70833,71
34.71667,71
34.72500,71
34.73333,70
34.74167,70
34.75000,69
34.75833,69
34.76667,69
34.77500,68
34.78333,68
34.79167,67
34.80000,67
34.80833,66
34.81667,66
34.82500,66
34.83333,66
34.84167,66
34.85000,65
34.85833,65
34.86667,64
34.87500,64
34.88333,63
34.89167,63
34.90000,63
34.90833,62
34.91667,62
34.92500,62
34.93333,61
34.94167,61
34.95000,61
34.95833,61
34.96667,60
34.97500,60
34.98333,60
34.99167,60
35.00000,60
35.00833,59
35.01667,59
35.02500,59
35.03333,58
35.04167,58
35.05000,58
35.05833,58
35.06667,57
35.07500,57
35.08333,57
35.09167,57
35.10000,57
35.10833,57
35.11667,57
35.12500,58
35.13333,58
35.14167,58
35.15000,58
35.15833,58
35.16667,59
35.17500,58
35.18333,59
35.19167,59
35.20000,59
35.20833,59
35.21667,59
35.22500,59
35.23333,59
35.24167,59
35.25000,59
35.25833,59
35.26667,59
35.27500,59
35.28333,59
35.29167,60
35.30000,61
35.30833,61
35.31667,61
35.32500,61
35.33333,61
35.34167,62
35.35000,62
35.35833,62
35.36667,62
35.37500,62
35.38333,62
35.39167,62
35.40000,62
35.40833,62
35.41667,62
35.42500,62
35.43333,62
35.44167,63
35.45000,63
35.45833,63
35.46667,63
35.47500,63
35.48333,63
35.49167,63
35.50000,63
35.50833,63
35.51667,63
35.52500,63
35.53333,63
35.54167,62
35.55000,62
35.55833,62
35.56667,62
35.57500,62
35.58333,61
35.59167,61
35.60000,61
35.60833,61
35.61667,60
35.62500,60
35.63333,60
35.64167,60
35.65000,60
35.65833,59
35.66667,59
35.67500,59
35.68333,59
35.69167,58
35.70000,58
35.70833,58
35.71667,58
35.72500,58
35.73333,58
35.74167,57
35.75000,57
35.75833,56
35.76667,56
35.77500,56
35.78333,55
35.79167,55
35.80000,55
35.80833,55
35.81667,54
35.82500,54
35.83333,54
35.84167,54
35.85000,54
35.85833,54
35.86667,53
35.87500,53
35.88333,53
35.89167,53
35.90000,53
35.90833,53
35.91667,53
35.92500,53
35.93333,53
35.94167,53
35.95000,53
35.95833,53
35.96667,53
35.97500,53
35.98333,53
35.99167,53
36.00000,53
36.00833,54
36.01667,54
36.02500,54
36.03333,55
36.04167,55
36.05000,56
36.05833,56
36.06667,56
36.07500,56
36.08333,56
36.09167,56
36.10000,56
36.10833,57
36.11667,57
36.12500,58
36.13333,58
36.14167,59
36.15000,59
36.15833,60
36.16667,60
36.17500,60
36.18333,60
36.19167,61
36.20000,61
36.20833,62
36.21667,62
36.22500,62
36.23333,62
36.24167,62
36.25000,63
36.25833,63
36.26667,64
36.27500,64
36.28333,65
36.29167,65
36.30000,66
36.30833,66
36.31667,66
36.32500,67
36.33333,67
36.34167,68
36.35000,68
36.35833,68
36.36667,68
36.37500,68
36.38333,68
36.39167,68
36.40000,68
36.40833,69
36.41667,69
36.42500,69
36.43333,69
36.44167,69
36.45000,70
36.45833,70
36.46667,70
36.47500,70
36.48333,71
36.49167,71
36.50000,70
36.50833,71
36.51667,71
36.52500,71
36.53333,72
36.54167,72
36.55000,72
36.55833,72
36.56667,71
36.57500,71
36.58333,71
36.59167,71
36.60000,71
36.60833,71
36.61667,71
36.62500,71
36.63333,71
36.64167,71
36.65000,71
36.65833,71
36.66667,71
36.67500,71
36.68333,71
36.69167,72
36.70000,72
36.70833,72
36.71667,72
36.72500,72
36.73333,72
36.74167,72
36.75000,72
36.75833,71
36.76667,71
36.77500,71
36.78333,72
36.79167,72
36.80000,72
36.80833,72
36.81667,72
36.82500,72
36.83333,72
36.84167,72
36.85000,72
36.85833,72
36.86667,72
36.87500,72
36.88333,72
36.89167,72
36.90000,72
36.90833,72
36.91667,72
36.92500,72
36.93333,72
36.94167,73
36.95000,73
36.95833,73
36.96667,73
36.97500,74
36.98333,74
36.99167,74
37.00000,74
37.00833,74
37.01667,74
37.02500,74
37.03333,75
37.04167,75
37.05000,75
37.05833,76
37.06667,76
37.07500,76
37.08333,76
37.09167,76
37.10000,77
37.10833,77
37.11667,77
37.12500,77
37.13333,77
37.14167,77
37.15000,78
37.15833,78
37.16667,78
37.17500,78
37.18333,78
37.19167,78
37.20000,79
37.20833,79
37.21667,79
37.22500,79
37.23333,79
37.24167,79
37.25000,78
37.25833,78
37.26667,78
37.27500,78
37.28333,78
37.29167,78
37.30000,78
37.30833,77
37.31667,77
37.32500,77
37.33333,77
37.34167,77
37.35000,77
37.35833,76
37.36667,76
37.37500,76
37.38333,76
37.39167,76
37.40000,75
37.40833,75
37.41667,74
37.42500,74
37.43333,74
37.44167,74
37.45000,73
37.45833,73
37.46667,73
37.47500,72
37.48333,72
37.49167,72
37.50000,71
37.50833,71
37.51667,71
37.52500,71
37.53333,71
37.54167,70
37.55000,70
37.55833,70
37.56667,69
37.57500,69
37.58333,69
37.59167,68
37.60000,68
37.60833,68
37.61667,67
37.62500,67
37.63333,67
37.64167,66
37.65000,66
37.65833,65
37.66667,65
37.67500,65
37.68333,65
37.69167,65
37.70000,65
37.70833,65
37.71667,66
37.72500,65
37.73333,65
37.74167,65
37.75000,65
37.75833,65
37.76667,65
37.77500,66
37.78333,66
37.79167,66
37.80000,65
37.80833,65
37.81667,64
37.82500,64
37.83333,64
37.84167,64
37.85000,63
37.85833,63
37.86667,63
37.87500,63
37.88333,63
37.89167,63
37.90000,63
37.90833,63
37.91667,63
37.92500,63
37.93333,63
37.94167,63
37.95000,63
37.95833,63
37.96667,63
37.97500,63
37.98333,63
37.99167,63
38.00000,63
38.00833,62
38.01667,62
38.02500,62
38.03333,61
38.04167,61
38.05000,61
38.05833,61
38.06667,61
38.07500,61
38.08333,61
38.09167,61
38.10000,61
38.10833,61
38.11667,61
38.12500,61
38.13333,61
38.14167,61
38.15000,61
38.15833,61
38.16667,61
38.17500,61
38.18333,61
38.19167,62
38.20000,62
38.20833,62
38.21667,62
38.22500,62
38.23333,63
38.24167,63
38.25000,63
38.25833,64
38.26667,64
38.27500,64
38.28333,64
38.29167,65
38.30000,65
38.30833,65
38.31667,65
38.32500,66
38.33333,66
38.34167,66
38.35000,67
38.35833,67
38.36667,68
38.37500,69
38.38333,69
38.39167,70
38.40000,71
38.40833,71
38.41667,71
38.42500,71
38.43333,71
38.44167,71
38.45000,72
38.45833,72
38.46667,73
38.47500,73
38.48333,74
38.49167,75
38.50000,75
38.50833,76
38.51667,76
38.52500,77
38.53333,77
38.54167,77
38.55000,77
38.55833,77
38.56667,78
38.57500,78
38.58333,78
38.59167,78
38.60000,78
38.60833,79
38.61667,79
38.62500,79
38.63333,79
38.64167,80
38.65000,80
38.65833,81
38.66667,81
38.67500,81
38.68333,81
38.69167,81
38.70000,81
38.70833,81
38.71667,81
38.72500,81
38.73333,81
38.74167,80
38.75000,80
38.75833,80
38.76667,79
38.77500,80
38.78333,80
38.79167,80
38.80000,80
38.80833,80
38.81667,79
38.82500,79
38.83333,79
38.84167,79
38.85000,79
38.85833,79
38.86667,79
38.87500,79
38.88333,79
38.89167,79
38.90000,79
38.90833,79
38.91667,79
38.92500,79
38.93333,79
38.94167,78
38.95000,77
38.95833,77
38.96667,77
38.97500,77
38.98333,77
38.99167,77
39.00000,76
39.00833,76
39.01667,76
39.02500,75
39.03333,75
39.04167,74
39.05000,74
39.05833,74
39.06667,74
39.07500,74
39.08333,75
39.09167,75
39.10000,74
39.10833,74
39.11667,74
39.12500,74
39.13333,73
39.14167,73
39.15000,73
39.15833,72
39.16667,72
39.17500,72
39.18333,72
39.19167,73
39.20000,73
39.20833,72
39.21667,72
39.22500,72
39.23333,72
39.24167,72
39.25000,72
39.25833,71
39.26667,71
39.27500,71
39.28333,71
39.29167,71
39.30000,71
39.30833,71
39.31667,71
39.32500,71
39.33333,71
39.34167,71
39.35000,71
39.35833,71
39.36667,71
39.37500,71
39.38333,71
39.39167,71
39.40000,72
39.40833,72
39.41667,72
39.42500,72
39.43333,72
39.44167,72
39.45000,72
39.45833,72
39.46667,72
39.47500,72
39.48333,72
39.49167,73
39.50000,72
39.50833,72
39.51667,72
39.52500,73
39.53333,73
39.54167,73
39.55000,73
39.55833,73
39.56667,73
39.57500,73
39.58333,73
39.59167,73
39.60000,73
39.60833,73
39.61667,73
39.62500,72
39.63333,72
39.64167,72
39.65000,71
39.65833,71
39.66667,71
39.67500,71
39.68333,71
39.69167,71
39.70000,72
39.70833,72
39.71667,72
39.72500,72
39.73333,72
39.74167,72
39.75000,72
39.75833,72
39.76667,73
39.77500,73
39.78333,73
39.79167,73
39.80000,73
39.80833,73
39.81667,73
39.82500,73
39.83333,73
39.84167,73
39.85000,73
39.85833,73
39.86667,73
39.87500,73
39.88333,73
39.89167,73
39.90000,73
39.90833,73
39.91667,73
39.92500,73
39.93333,73
39.94167,73
39.95000,73
39.95833,73
39.96667,73
39.97500,73
39.98333,73
39.99167,73
40.00000,73

