[Header]
Application Name,LabSolutions
Version,5.97 SP1
Data File Name,C:\Users\cremerlab\Desktop\griffin\2021-04-06_REL606_DM_glucose_turnover\2021-04-06_REL606_DM_glucose_turnover_462021_001_015.lcd
Output Date,4/7/2021
Output Time,4:42:23 AM

[File Information]
Type,Data File
Generated,4/7/2021 4:02:02 AM
Generated by,System Administrator
Modified,4/7/2021 4:42:23 AM
Modified by,System Administrator

[Sample Information]
Operator Name,System Administrator
Acquired,4/7/2021 4:02:21 AM
Sample Type,1:Standard
Level,1
Sample Name,2021-04-04_REL606_replicate_003_timepoint_001
Sample ID,001
ISTD Amount1,1
ISTD Amount2,1
ISTD Amount3,1
ISTD Amount4,1
ISTD Amount5,1
ISTD Amount6,1
ISTD Amount7,1
ISTD Amount8,1
ISTD Amount9,1
ISTD Amount10,1
ISTD Amount11,1
ISTD Amount12,1
ISTD Amount13,1
ISTD Amount14,1
ISTD Amount15,1
ISTD Amount16,1
ISTD Amount17,1
ISTD Amount18,1
ISTD Amount19,1
ISTD Amount20,1
ISTD Amount21,1
ISTD Amount22,1
ISTD Amount23,1
ISTD Amount24,1
ISTD Amount25,1
ISTD Amount26,1
ISTD Amount27,1
ISTD Amount28,1
ISTD Amount29,1
ISTD Amount30,1
ISTD Amount31,1
ISTD Amount32,1
Sample Amount,1
Dilution Factor,1
Vial#,19
Injection Volume,20

[Original Files]
Data File,C:\Users\cremerlab\Desktop\griffin\2021-04-06_REL606_DM_glucose_turnover\2021-04-06_REL606_DM_glucose_turnover_462021_001_015.lcd
Method File,C:\Users\cremerlab\Desktop\griffin\2.5mM_H2SO4_mobile_phase.lcm
Batch File,C:\Users\cremerlab\Desktop\griffin\2021-04-06_REL606_DM_glucose_turnover\2021-04-06_REL606_DM_glucose_turnover.lcb
Report Format File,c:\LabSolutions\System\DEFAULT.lsr

[File Description]


[Configuration]
Instrument Name,HPLC-PC-Instrument1
Instrument #,1
Line #,1
# of Detectors,2
Detector ID,Detector A,Detector B
Detector Name,Detector A,Detector B
# of Channels,1,1

[Peak Table(Detector A)]
# of Peaks,0

[Peak Table(Detector B)]
# of Peaks,7
Peak#,R.Time,I.Time,F.Time,Area,Height,A/H,Conc.,Mark,ID#,Name,k',Plate #,Plate Ht.,Tailing,Resolution,Sep.Factor,Area Ratio,Height Ratio,Conc. %,Norm Conc.
1,10.895,10.417,11.308,256616,14966,17.146,0.000,   ,,,0.000,9252,16.213,1.079,0.000,0.000,0,0,0.000,0.000
2,11.613,11.308,12.558,27838,683,40.742,0.000, V ,,,0.066,1018,147.322,0.000,0.752,0.000,0,0,0.000,0.000
3,13.978,12.567,14.242,1833718,47805,38.358,0.000,   ,,,0.283,3076,48.758,0.000,1.920,4.296,0,0,0.000,0.000
4,14.346,14.242,14.983,175923,10348,17.001,0.000, V ,,,0.317,4047,37.066,0.000,0.386,1.120,0,0,0.000,0.000
5,15.687,14.983,17.108,1218915,49077,24.837,0.000, V ,,,0.440,9315,16.104,1.150,1.727,1.388,0,0,0.000,0.000
6,19.087,18.758,19.542,2549,115,22.251,0.000,   ,,,0.752,15777,9.508,1.131,5.407,1.710,0,0,0.000,0.000
7,25.054,24.683,25.558,2525,98,25.648,0.000,   ,,,1.299,20801,7.211,1.105,9.160,1.728,0,0,0.000,0.000

[LC Chromatogram(Detector B-Ch1)]
Interval(msec),500
# of Points,4801
Start Time(min),0.000
End Time(min),40.000
Intensity Units,mV
Intensity Multiplier,0.001
R.Time (min),Intensity
0.00000,140
0.00833,140
0.01667,18
0.02500,2
0.03333,4
0.04167,5
0.05000,6
0.05833,8
0.06667,9
0.07500,10
0.08333,11
0.09167,12
0.10000,14
0.10833,15
0.11667,16
0.12500,16
0.13333,17
0.14167,17
0.15000,17
0.15833,18
0.16667,18
0.17500,19
0.18333,20
0.19167,20
0.20000,21
0.20833,22
0.21667,22
0.22500,23
0.23333,24
0.24167,24
0.25000,25
0.25833,26
0.26667,26
0.27500,27
0.28333,27
0.29167,27
0.30000,28
0.30833,28
0.31667,29
0.32500,29
0.33333,30
0.34167,31
0.35000,31
0.35833,32
0.36667,32
0.37500,32
0.38333,32
0.39167,32
0.40000,33
0.40833,33
0.41667,34
0.42500,34
0.43333,34
0.44167,35
0.45000,35
0.45833,36
0.46667,36
0.47500,36
0.48333,37
0.49167,37
0.50000,38
0.50833,38
0.51667,38
0.52500,39
0.53333,39
0.54167,39
0.55000,39
0.55833,39
0.56667,39
0.57500,39
0.58333,39
0.59167,38
0.60000,38
0.60833,38
0.61667,38
0.62500,38
0.63333,38
0.64167,38
0.65000,37
0.65833,37
0.66667,36
0.67500,36
0.68333,35
0.69167,35
0.70000,34
0.70833,33
0.71667,33
0.72500,33
0.73333,32
0.74167,32
0.75000,31
0.75833,30
0.76667,29
0.77500,28
0.78333,27
0.79167,26
0.80000,25
0.80833,24
0.81667,24
0.82500,23
0.83333,23
0.84167,22
0.85000,21
0.85833,20
0.86667,19
0.87500,18
0.88333,18
0.89167,17
0.90000,17
0.90833,16
0.91667,15
0.92500,14
0.93333,13
0.94167,12
0.95000,11
0.95833,10
0.96667,9
0.97500,8
0.98333,8
0.99167,7
1.00000,6
1.00833,5
1.01667,4
1.02500,4
1.03333,4
1.04167,3
1.05000,3
1.05833,3
1.06667,2
1.07500,2
1.08333,2
1.09167,2
1.10000,2
1.10833,1
1.11667,1
1.12500,1
1.13333,0
1.14167,1
1.15000,0
1.15833,0
1.16667,0
1.17500,0
1.18333,0
1.19167,0
1.20000,1
1.20833,1
1.21667,0
1.22500,0
1.23333,0
1.24167,0
1.25000,-0
1.25833,-1
1.26667,-1
1.27500,-1
1.28333,-1
1.29167,-1
1.30000,-1
1.30833,-1
1.31667,-1
1.32500,-1
1.33333,-1
1.34167,-1
1.35000,-1
1.35833,-1
1.36667,-1
1.37500,-1
1.38333,-1
1.39167,-2
1.40000,-2
1.40833,-2
1.41667,-2
1.42500,-2
1.43333,-3
1.44167,-3
1.45000,-4
1.45833,-4
1.46667,-5
1.47500,-5
1.48333,-5
1.49167,-6
1.50000,-6
1.50833,-7
1.51667,-8
1.52500,-8
1.53333,-9
1.54167,-9
1.55000,-10
1.55833,-10
1.56667,-10
1.57500,-11
1.58333,-11
1.59167,-11
1.60000,-11
1.60833,-12
1.61667,-13
1.62500,-13
1.63333,-14
1.64167,-14
1.65000,-14
1.65833,-14
1.66667,-15
1.67500,-15
1.68333,-15
1.69167,-15
1.70000,-15
1.70833,-15
1.71667,-16
1.72500,-16
1.73333,-15
1.74167,-15
1.75000,-16
1.75833,-16
1.76667,-16
1.77500,-16
1.78333,-16
1.79167,-15
1.80000,-15
1.80833,-15
1.81667,-15
1.82500,-15
1.83333,-15
1.84167,-15
1.85000,-15
1.85833,-15
1.86667,-15
1.87500,-15
1.88333,-15
1.89167,-15
1.90000,-15
1.90833,-15
1.91667,-15
1.92500,-15
1.93333,-15
1.94167,-15
1.95000,-15
1.95833,-15
1.96667,-15
1.97500,-15
1.98333,-15
1.99167,-14
2.00000,-14
2.00833,-14
2.01667,-14
2.02500,-13
2.03333,-13
2.04167,-13
2.05000,-13
2.05833,-14
2.06667,-14
2.07500,-14
2.08333,-14
2.09167,-15
2.10000,-15
2.10833,-14
2.11667,-14
2.12500,-14
2.13333,-14
2.14167,-14
2.15000,-14
2.15833,-14
2.16667,-14
2.17500,-14
2.18333,-14
2.19167,-14
2.20000,-14
2.20833,-14
2.21667,-15
2.22500,-15
2.23333,-15
2.24167,-16
2.25000,-15
2.25833,-15
2.26667,-16
2.27500,-16
2.28333,-16
2.29167,-16
2.30000,-17
2.30833,-17
2.31667,-18
2.32500,-18
2.33333,-19
2.34167,-20
2.35000,-20
2.35833,-21
2.36667,-21
2.37500,-22
2.38333,-22
2.39167,-22
2.40000,-23
2.40833,-23
2.41667,-24
2.42500,-25
2.43333,-27
2.44167,-28
2.45000,-29
2.45833,-30
2.46667,-31
2.47500,-32
2.48333,-34
2.49167,-35
2.50000,-36
2.50833,-38
2.51667,-39
2.52500,-41
2.53333,-43
2.54167,-44
2.55000,-46
2.55833,-48
2.56667,-51
2.57500,-53
2.58333,-55
2.59167,-58
2.60000,-61
2.60833,-64
2.61667,-67
2.62500,-71
2.63333,-74
2.64167,-78
2.65000,-81
2.65833,-85
2.66667,-89
2.67500,-94
2.68333,-99
2.69167,-104
2.70000,-108
2.70833,-114
2.71667,-119
2.72500,-125
2.73333,-131
2.74167,-137
2.75000,-143
2.75833,-150
2.76667,-157
2.77500,-164
2.78333,-172
2.79167,-180
2.80000,-188
2.80833,-197
2.81667,-205
2.82500,-214
2.83333,-223
2.84167,-232
2.85000,-242
2.85833,-252
2.86667,-262
2.87500,-273
2.88333,-284
2.89167,-295
2.90000,-307
2.90833,-318
2.91667,-330
2.92500,-342
2.93333,-354
2.94167,-366
2.95000,-379
2.95833,-392
2.96667,-405
2.97500,-418
2.98333,-432
2.99167,-445
3.00000,-458
3.00833,-472
3.01667,-485
3.02500,-499
3.03333,-513
3.04167,-527
3.05000,-542
3.05833,-556
3.06667,-570
3.07500,-584
3.08333,-597
3.09167,-611
3.10000,-625
3.10833,-639
3.11667,-652
3.12500,-666
3.13333,-680
3.14167,-693
3.15000,-706
3.15833,-719
3.16667,-732
3.17500,-745
3.18333,-757
3.19167,-769
3.20000,-781
3.20833,-793
3.21667,-805
3.22500,-817
3.23333,-828
3.24167,-839
3.25000,-849
3.25833,-859
3.26667,-870
3.27500,-879
3.28333,-889
3.29167,-898
3.30000,-907
3.30833,-916
3.31667,-924
3.32500,-933
3.33333,-941
3.34167,-949
3.35000,-956
3.35833,-963
3.36667,-969
3.37500,-976
3.38333,-982
3.39167,-988
3.40000,-995
3.40833,-1000
3.41667,-1006
3.42500,-1011
3.43333,-1016
3.44167,-1021
3.45000,-1026
3.45833,-1031
3.46667,-1036
3.47500,-1040
3.48333,-1044
3.49167,-1048
3.50000,-1052
3.50833,-1056
3.51667,-1060
3.52500,-1064
3.53333,-1068
3.54167,-1071
3.55000,-1075
3.55833,-1078
3.56667,-1081
3.57500,-1085
3.58333,-1088
3.59167,-1091
3.60000,-1094
3.60833,-1097
3.61667,-1101
3.62500,-1104
3.63333,-1107
3.64167,-1110
3.65000,-1113
3.65833,-1115
3.66667,-1118
3.67500,-1120
3.68333,-1123
3.69167,-1126
3.70000,-1130
3.70833,-1133
3.71667,-1136
3.72500,-1139
3.73333,-1142
3.74167,-1145
3.75000,-1148
3.75833,-1151
3.76667,-1154
3.77500,-1157
3.78333,-1160
3.79167,-1162
3.80000,-1165
3.80833,-1167
3.81667,-1170
3.82500,-1173
3.83333,-1176
3.84167,-1178
3.85000,-1180
3.85833,-1183
3.86667,-1185
3.87500,-1187
3.88333,-1189
3.89167,-1192
3.90000,-1194
3.90833,-1196
3.91667,-1198
3.92500,-1200
3.93333,-1201
3.94167,-1203
3.95000,-1204
3.95833,-1206
3.96667,-1208
3.97500,-1209
3.98333,-1210
3.99167,-1210
4.00000,-1210
4.00833,-1211
4.01667,-1212
4.02500,-1212
4.03333,-1212
4.04167,-1212
4.05000,-1212
4.05833,-1211
4.06667,-1211
4.07500,-1210
4.08333,-1209
4.09167,-1207
4.10000,-1206
4.10833,-1205
4.11667,-1204
4.12500,-1202
4.13333,-1200
4.14167,-1198
4.15000,-1196
4.15833,-1193
4.16667,-1191
4.17500,-1188
4.18333,-1185
4.19167,-1182
4.20000,-1178
4.20833,-1175
4.21667,-1171
4.22500,-1168
4.23333,-1164
4.24167,-1161
4.25000,-1157
4.25833,-1153
4.26667,-1148
4.27500,-1144
4.28333,-1139
4.29167,-1135
4.30000,-1131
4.30833,-1126
4.31667,-1122
4.32500,-1117
4.33333,-1113
4.34167,-1108
4.35000,-1103
4.35833,-1098
4.36667,-1093
4.37500,-1088
4.38333,-1082
4.39167,-1077
4.40000,-1072
4.40833,-1067
4.41667,-1062
4.42500,-1057
4.43333,-1052
4.44167,-1048
4.45000,-1043
4.45833,-1039
4.46667,-1034
4.47500,-1030
4.48333,-1025
4.49167,-1021
4.50000,-1016
4.50833,-1012
4.51667,-1008
4.52500,-1004
4.53333,-1000
4.54167,-997
4.55000,-993
4.55833,-989
4.56667,-985
4.57500,-982
4.58333,-979
4.59167,-976
4.60000,-973
4.60833,-970
4.61667,-967
4.62500,-964
4.63333,-961
4.64167,-959
4.65000,-957
4.65833,-955
4.66667,-953
4.67500,-951
4.68333,-949
4.69167,-948
4.70000,-946
4.70833,-945
4.71667,-944
4.72500,-943
4.73333,-942
4.74167,-941
4.75000,-941
4.75833,-940
4.76667,-940
4.77500,-940
4.78333,-939
4.79167,-939
4.80000,-939
4.80833,-938
4.81667,-938
4.82500,-938
4.83333,-938
4.84167,-938
4.85000,-938
4.85833,-939
4.86667,-939
4.87500,-939
4.88333,-939
4.89167,-939
4.90000,-939
4.90833,-940
4.91667,-940
4.92500,-941
4.93333,-941
4.94167,-941
4.95000,-941
4.95833,-941
4.96667,-941
4.97500,-941
4.98333,-941
4.99167,-941
5.00000,-942
5.00833,-942
5.01667,-942
5.02500,-942
5.03333,-942
5.04167,-942
5.05000,-942
5.05833,-942
5.06667,-942
5.07500,-942
5.08333,-941
5.09167,-941
5.10000,-941
5.10833,-940
5.11667,-940
5.12500,-939
5.13333,-939
5.14167,-939
5.15000,-939
5.15833,-938
5.16667,-937
5.17500,-936
5.18333,-936
5.19167,-936
5.20000,-935
5.20833,-934
5.21667,-934
5.22500,-933
5.23333,-932
5.24167,-931
5.25000,-930
5.25833,-929
5.26667,-928
5.27500,-926
5.28333,-925
5.29167,-924
5.30000,-923
5.30833,-922
5.31667,-921
5.32500,-920
5.33333,-919
5.34167,-918
5.35000,-917
5.35833,-916
5.36667,-915
5.37500,-914
5.38333,-913
5.39167,-912
5.40000,-910
5.40833,-909
5.41667,-908
5.42500,-907
5.43333,-906
5.44167,-904
5.45000,-903
5.45833,-902
5.46667,-901
5.47500,-900
5.48333,-898
5.49167,-897
5.50000,-896
5.50833,-894
5.51667,-893
5.52500,-892
5.53333,-890
5.54167,-889
5.55000,-888
5.55833,-887
5.56667,-886
5.57500,-885
5.58333,-883
5.59167,-882
5.60000,-881
5.60833,-879
5.61667,-878
5.62500,-876
5.63333,-875
5.64167,-873
5.65000,-872
5.65833,-871
5.66667,-870
5.67500,-868
5.68333,-867
5.69167,-865
5.70000,-864
5.70833,-863
5.71667,-862
5.72500,-861
5.73333,-859
5.74167,-857
5.75000,-856
5.75833,-854
5.76667,-852
5.77500,-850
5.78333,-848
5.79167,-846
5.80000,-845
5.80833,-843
5.81667,-842
5.82500,-840
5.83333,-838
5.84167,-836
5.85000,-834
5.85833,-832
5.86667,-830
5.87500,-828
5.88333,-826
5.89167,-824
5.90000,-822
5.90833,-819
5.91667,-817
5.92500,-814
5.93333,-812
5.94167,-809
5.95000,-807
5.95833,-804
5.96667,-801
5.97500,-798
5.98333,-795
5.99167,-793
6.00000,-790
6.00833,-787
6.01667,-784
6.02500,-781
6.03333,-778
6.04167,-775
6.05000,-772
6.05833,-769
6.06667,-766
6.07500,-763
6.08333,-760
6.09167,-757
6.10000,-754
6.10833,-751
6.11667,-747
6.12500,-744
6.13333,-740
6.14167,-737
6.15000,-733
6.15833,-730
6.16667,-726
6.17500,-723
6.18333,-719
6.19167,-716
6.20000,-713
6.20833,-709
6.21667,-706
6.22500,-702
6.23333,-699
6.24167,-695
6.25000,-691
6.25833,-687
6.26667,-684
6.27500,-680
6.28333,-676
6.29167,-672
6.30000,-668
6.30833,-664
6.31667,-660
6.32500,-657
6.33333,-653
6.34167,-650
6.35000,-646
6.35833,-642
6.36667,-638
6.37500,-634
6.38333,-631
6.39167,-627
6.40000,-623
6.40833,-619
6.41667,-616
6.42500,-612
6.43333,-608
6.44167,-604
6.45000,-600
6.45833,-596
6.46667,-593
6.47500,-589
6.48333,-585
6.49167,-581
6.50000,-577
6.50833,-574
6.51667,-570
6.52500,-566
6.53333,-562
6.54167,-558
6.55000,-554
6.55833,-550
6.56667,-547
6.57500,-543
6.58333,-539
6.59167,-536
6.60000,-532
6.60833,-528
6.61667,-524
6.62500,-520
6.63333,-517
6.64167,-513
6.65000,-509
6.65833,-505
6.66667,-502
6.67500,-498
6.68333,-495
6.69167,-491
6.70000,-487
6.70833,-484
6.71667,-480
6.72500,-477
6.73333,-473
6.74167,-470
6.75000,-466
6.75833,-463
6.76667,-459
6.77500,-456
6.78333,-452
6.79167,-449
6.80000,-445
6.80833,-442
6.81667,-439
6.82500,-435
6.83333,-432
6.84167,-429
6.85000,-426
6.85833,-423
6.86667,-419
6.87500,-416
6.88333,-413
6.89167,-410
6.90000,-407
6.90833,-404
6.91667,-401
6.92500,-398
6.93333,-396
6.94167,-393
6.95000,-390
6.95833,-387
6.96667,-385
6.97500,-382
6.98333,-379
6.99167,-377
7.00000,-375
7.00833,-372
7.01667,-370
7.02500,-367
7.03333,-365
7.04167,-362
7.05000,-360
7.05833,-358
7.06667,-355
7.07500,-353
7.08333,-351
7.09167,-349
7.10000,-347
7.10833,-345
7.11667,-343
7.12500,-341
7.13333,-339
7.14167,-337
7.15000,-335
7.15833,-333
7.16667,-331
7.17500,-329
7.18333,-326
7.19167,-324
7.20000,-322
7.20833,-320
7.21667,-318
7.22500,-317
7.23333,-315
7.24167,-313
7.25000,-311
7.25833,-310
7.26667,-308
7.27500,-306
7.28333,-305
7.29167,-303
7.30000,-301
7.30833,-299
7.31667,-297
7.32500,-296
7.33333,-294
7.34167,-293
7.35000,-292
7.35833,-290
7.36667,-289
7.37500,-287
7.38333,-286
7.39167,-284
7.40000,-282
7.40833,-281
7.41667,-279
7.42500,-278
7.43333,-276
7.44167,-275
7.45000,-274
7.45833,-273
7.46667,-272
7.47500,-270
7.48333,-269
7.49167,-267
7.50000,-266
7.50833,-264
7.51667,-262
7.52500,-261
7.53333,-260
7.54167,-258
7.55000,-257
7.55833,-257
7.56667,-256
7.57500,-255
7.58333,-254
7.59167,-253
7.60000,-253
7.60833,-252
7.61667,-251
7.62500,-250
7.63333,-249
7.64167,-249
7.65000,-248
7.65833,-248
7.66667,-247
7.67500,-247
7.68333,-247
7.69167,-247
7.70000,-246
7.70833,-246
7.71667,-245
7.72500,-245
7.73333,-245
7.74167,-245
7.75000,-244
7.75833,-244
7.76667,-244
7.77500,-244
7.78333,-244
7.79167,-244
7.80000,-244
7.80833,-244
7.81667,-244
7.82500,-244
7.83333,-244
7.84167,-245
7.85000,-245
7.85833,-246
7.86667,-246
7.87500,-246
7.88333,-246
7.89167,-246
7.90000,-246
7.90833,-246
7.91667,-246
7.92500,-247
7.93333,-247
7.94167,-247
7.95000,-248
7.95833,-248
7.96667,-248
7.97500,-248
7.98333,-248
7.99167,-247
8.00000,-247
8.00833,-247
8.01667,-247
8.02500,-247
8.03333,-248
8.04167,-248
8.05000,-247
8.05833,-247
8.06667,-247
8.07500,-246
8.08333,-246
8.09167,-246
8.10000,-246
8.10833,-246
8.11667,-246
8.12500,-245
8.13333,-245
8.14167,-245
8.15000,-244
8.15833,-244
8.16667,-244
8.17500,-244
8.18333,-244
8.19167,-243
8.20000,-243
8.20833,-243
8.21667,-242
8.22500,-242
8.23333,-242
8.24167,-241
8.25000,-241
8.25833,-241
8.26667,-241
8.27500,-241
8.28333,-240
8.29167,-240
8.30000,-239
8.30833,-239
8.31667,-238
8.32500,-237
8.33333,-237
8.34167,-237
8.35000,-237
8.35833,-237
8.36667,-237
8.37500,-236
8.38333,-236
8.39167,-236
8.40000,-235
8.40833,-235
8.41667,-235
8.42500,-235
8.43333,-235
8.44167,-235
8.45000,-234
8.45833,-234
8.46667,-234
8.47500,-234
8.48333,-233
8.49167,-233
8.50000,-233
8.50833,-234
8.51667,-234
8.52500,-233
8.53333,-233
8.54167,-233
8.55000,-233
8.55833,-233
8.56667,-233
8.57500,-233
8.58333,-233
8.59167,-233
8.60000,-233
8.60833,-233
8.61667,-233
8.62500,-234
8.63333,-234
8.64167,-234
8.65000,-234
8.65833,-234
8.66667,-234
8.67500,-234
8.68333,-234
8.69167,-234
8.70000,-234
8.70833,-234
8.71667,-234
8.72500,-234
8.73333,-234
8.74167,-234
8.75000,-234
8.75833,-233
8.76667,-234
8.77500,-233
8.78333,-233
8.79167,-233
8.80000,-233
8.80833,-232
8.81667,-232
8.82500,-232
8.83333,-231
8.84167,-231
8.85000,-230
8.85833,-230
8.86667,-229
8.87500,-229
8.88333,-228
8.89167,-228
8.90000,-228
8.90833,-227
8.91667,-226
8.92500,-225
8.93333,-224
8.94167,-224
8.95000,-223
8.95833,-223
8.96667,-223
8.97500,-222
8.98333,-221
8.99167,-220
9.00000,-219
9.00833,-218
9.01667,-217
9.02500,-217
9.03333,-216
9.04167,-215
9.05000,-214
9.05833,-213
9.06667,-212
9.07500,-211
9.08333,-210
9.09167,-209
9.10000,-208
9.10833,-207
9.11667,-206
9.12500,-205
9.13333,-204
9.14167,-204
9.15000,-203
9.15833,-202
9.16667,-201
9.17500,-201
9.18333,-200
9.19167,-199
9.20000,-198
9.20833,-197
9.21667,-196
9.22500,-195
9.23333,-195
9.24167,-194
9.25000,-193
9.25833,-193
9.26667,-192
9.27500,-191
9.28333,-190
9.29167,-190
9.30000,-189
9.30833,-188
9.31667,-188
9.32500,-187
9.33333,-187
9.34167,-187
9.35000,-187
9.35833,-187
9.36667,-186
9.37500,-186
9.38333,-186
9.39167,-186
9.40000,-185
9.40833,-185
9.41667,-185
9.42500,-185
9.43333,-185
9.44167,-185
9.45000,-184
9.45833,-185
9.46667,-185
9.47500,-186
9.48333,-186
9.49167,-186
9.50000,-187
9.50833,-187
9.51667,-187
9.52500,-188
9.53333,-188
9.54167,-189
9.55000,-189
9.55833,-189
9.56667,-190
9.57500,-190
9.58333,-190
9.59167,-191
9.60000,-191
9.60833,-191
9.61667,-191
9.62500,-191
9.63333,-191
9.64167,-192
9.65000,-192
9.65833,-193
9.66667,-194
9.67500,-194
9.68333,-194
9.69167,-194
9.70000,-195
9.70833,-195
9.71667,-194
9.72500,-194
9.73333,-194
9.74167,-194
9.75000,-194
9.75833,-194
9.76667,-193
9.77500,-193
9.78333,-193
9.79167,-193
9.80000,-192
9.80833,-192
9.81667,-191
9.82500,-191
9.83333,-190
9.84167,-189
9.85000,-189
9.85833,-188
9.86667,-187
9.87500,-186
9.88333,-185
9.89167,-185
9.90000,-184
9.90833,-183
9.91667,-182
9.92500,-181
9.93333,-180
9.94167,-179
9.95000,-178
9.95833,-178
9.96667,-177
9.97500,-175
9.98333,-174
9.99167,-173
10.00000,-171
10.00833,-170
10.01667,-169
10.02500,-168
10.03333,-167
10.04167,-165
10.05000,-164
10.05833,-163
10.06667,-162
10.07500,-160
10.08333,-159
10.09167,-158
10.10000,-156
10.10833,-155
10.11667,-154
10.12500,-153
10.13333,-152
10.14167,-151
10.15000,-149
10.15833,-148
10.16667,-147
10.17500,-146
10.18333,-146
10.19167,-145
10.20000,-144
10.20833,-143
10.21667,-142
10.22500,-141
10.23333,-140
10.24167,-139
10.25000,-139
10.25833,-138
10.26667,-137
10.27500,-136
10.28333,-135
10.29167,-134
10.30000,-133
10.30833,-133
10.31667,-132
10.32500,-131
10.33333,-131
10.34167,-130
10.35000,-130
10.35833,-130
10.36667,-129
10.37500,-129
10.38333,-128
10.39167,-128
10.40000,-127
10.40833,-127
10.41667,-126
10.42500,-125
10.43333,-125
10.44167,-124
10.45000,-123
10.45833,-121
10.46667,-120
10.47500,-117
10.48333,-114
10.49167,-110
10.50000,-106
10.50833,-99
10.51667,-90
10.52500,-79
10.53333,-64
10.54167,-45
10.55000,-22
10.55833,8
10.56667,45
10.57500,91
10.58333,148
10.59167,217
10.60000,300
10.60833,399
10.61667,517
10.62500,655
10.63333,816
10.64167,1002
10.65000,1215
10.65833,1458
10.66667,1731
10.67500,2037
10.68333,2378
10.69167,2752
10.70000,3162
10.70833,3608
10.71667,4088
10.72500,4603
10.73333,5151
10.74167,5728
10.75000,6332
10.75833,6959
10.76667,7605
10.77500,8264
10.78333,8930
10.79167,9597
10.80000,10258
10.80833,10904
10.81667,11529
10.82500,12123
10.83333,12678
10.84167,13187
10.85000,13641
10.85833,14032
10.86667,14354
10.87500,14600
10.88333,14766
10.89167,14848
10.90000,14844
10.90833,14753
10.91667,14577
10.92500,14319
10.93333,13983
10.94167,13574
10.95000,13101
10.95833,12571
10.96667,11993
10.97500,11378
10.98333,10735
10.99167,10074
11.00000,9403
11.00833,8732
11.01667,8069
11.02500,7421
11.03333,6793
11.04167,6192
11.05000,5620
11.05833,5081
11.06667,4578
11.07500,4111
11.08333,3680
11.09167,3286
11.10000,2926
11.10833,2601
11.11667,2308
11.12500,2045
11.13333,1811
11.14167,1603
11.15000,1420
11.15833,1258
11.16667,1117
11.17500,994
11.18333,887
11.19167,796
11.20000,717
11.20833,650
11.21667,593
11.22500,545
11.23333,506
11.24167,473
11.25000,447
11.25833,426
11.26667,410
11.27500,398
11.28333,390
11.29167,385
11.30000,382
11.30833,382
11.31667,384
11.32500,387
11.33333,391
11.34167,396
11.35000,403
11.35833,409
11.36667,417
11.37500,425
11.38333,433
11.39167,442
11.40000,451
11.40833,459
11.41667,468
11.42500,475
11.43333,483
11.44167,491
11.45000,499
11.45833,506
11.46667,513
11.47500,519
11.48333,526
11.49167,532
11.50000,538
11.50833,544
11.51667,548
11.52500,553
11.53333,557
11.54167,561
11.55000,565
11.55833,567
11.56667,570
11.57500,571
11.58333,573
11.59167,574
11.60000,575
11.60833,575
11.61667,575
11.62500,575
11.63333,574
11.64167,572
11.65000,570
11.65833,568
11.66667,566
11.67500,563
11.68333,559
11.69167,556
11.70000,552
11.70833,547
11.71667,543
11.72500,538
11.73333,532
11.74167,526
11.75000,520
11.75833,514
11.76667,508
11.77500,501
11.78333,494
11.79167,486
11.80000,479
11.80833,471
11.81667,463
11.82500,454
11.83333,446
11.84167,437
11.85000,429
11.85833,419
11.86667,410
11.87500,401
11.88333,392
11.89167,383
11.90000,373
11.90833,363
11.91667,354
11.92500,344
11.93333,334
11.94167,324
11.95000,314
11.95833,304
11.96667,294
11.97500,283
11.98333,273
11.99167,263
12.00000,254
12.00833,244
12.01667,234
12.02500,224
12.03333,214
12.04167,205
12.05000,196
12.05833,187
12.06667,177
12.07500,168
12.08333,159
12.09167,149
12.10000,140
12.10833,131
12.11667,123
12.12500,115
12.13333,106
12.14167,98
12.15000,90
12.15833,82
12.16667,74
12.17500,66
12.18333,59
12.19167,52
12.20000,45
12.20833,38
12.21667,32
12.22500,25
12.23333,18
12.24167,12
12.25000,5
12.25833,-0
12.26667,-6
12.27500,-11
12.28333,-16
12.29167,-22
12.30000,-27
12.30833,-32
12.31667,-36
12.32500,-40
12.33333,-44
12.34167,-48
12.35000,-52
12.35833,-56
12.36667,-59
12.37500,-62
12.38333,-65
12.39167,-68
12.40000,-71
12.40833,-73
12.41667,-76
12.42500,-78
12.43333,-79
12.44167,-81
12.45000,-83
12.45833,-84
12.46667,-86
12.47500,-87
12.48333,-89
12.49167,-90
12.50000,-91
12.50833,-91
12.51667,-92
12.52500,-92
12.53333,-93
12.54167,-93
12.55000,-94
12.55833,-94
12.56667,-94
12.57500,-94
12.58333,-93
12.59167,-91
12.60000,-90
12.60833,-88
12.61667,-86
12.62500,-84
12.63333,-81
12.64167,-76
12.65000,-71
12.65833,-64
12.66667,-55
12.67500,-44
12.68333,-31
12.69167,-16
12.70000,2
12.70833,23
12.71667,48
12.72500,76
12.73333,109
12.74167,147
12.75000,189
12.75833,237
12.76667,290
12.77500,349
12.78333,414
12.79167,485
12.80000,562
12.80833,646
12.81667,736
12.82500,834
12.83333,938
12.84167,1049
12.85000,1167
12.85833,1292
12.86667,1424
12.87500,1562
12.88333,1706
12.89167,1857
12.90000,2013
12.90833,2176
12.91667,2345
12.92500,2519
12.93333,2699
12.94167,2884
12.95000,3074
12.95833,3269
12.96667,3468
12.97500,3673
12.98333,3882
12.99167,4095
13.00000,4312
13.00833,4533
13.01667,4759
13.02500,4988
13.03333,5220
13.04167,5456
13.05000,5695
13.05833,5937
13.06667,6183
13.07500,6432
13.08333,6685
13.09167,6940
13.10000,7198
13.10833,7458
13.11667,7722
13.12500,7988
13.13333,8257
13.14167,8529
13.15000,8803
13.15833,9079
13.16667,9359
13.17500,9641
13.18333,9926
13.19167,10213
13.20000,10502
13.20833,10794
13.21667,11088
13.22500,11384
13.23333,11683
13.24167,11984
13.25000,12287
13.25833,12592
13.26667,12900
13.27500,13211
13.28333,13524
13.29167,13839
13.30000,14157
13.30833,14477
13.31667,14800
13.32500,15124
13.33333,15452
13.34167,15781
13.35000,16113
13.35833,16447
13.36667,16784
13.37500,17123
13.38333,17464
13.39167,17808
13.40000,18154
13.40833,18503
13.41667,18855
13.42500,19208
13.43333,19565
13.44167,19924
13.45000,20286
13.45833,20650
13.46667,21017
13.47500,21386
13.48333,21758
13.49167,22132
13.50000,22509
13.50833,22889
13.51667,23272
13.52500,23658
13.53333,24046
13.54167,24437
13.55000,24831
13.55833,25227
13.56667,25626
13.57500,26028
13.58333,26433
13.59167,26841
13.60000,27252
13.60833,27666
13.61667,28082
13.62500,28502
13.63333,28925
13.64167,29351
13.65000,29780
13.65833,30211
13.66667,30646
13.67500,31084
13.68333,31525
13.69167,31970
13.70000,32417
13.70833,32867
13.71667,33321
13.72500,33778
13.73333,34238
13.74167,34702
13.75000,35168
13.75833,35639
13.76667,36113
13.77500,36591
13.78333,37072
13.79167,37556
13.80000,38044
13.80833,38535
13.81667,39029
13.82500,39528
13.83333,40029
13.84167,40534
13.85000,41042
13.85833,41554
13.86667,42070
13.87500,42589
13.88333,43111
13.89167,43634
13.90000,44159
13.90833,44682
13.91667,45200
13.92500,45706
13.93333,46192
13.94167,46646
13.95000,47052
13.95833,47389
13.96667,47635
13.97500,47762
13.98333,47743
13.99167,47547
14.00000,47150
14.00833,46530
14.01667,45670
14.02500,44564
14.03333,43213
14.04167,41628
14.05000,39830
14.05833,37850
14.06667,35722
14.07500,33490
14.08333,31198
14.09167,28890
14.10000,26609
14.10833,24395
14.11667,22281
14.12500,20297
14.13333,18464
14.14167,16796
14.15000,15303
14.15833,13988
14.16667,12848
14.17500,11880
14.18333,11074
14.19167,10420
14.20000,9906
14.20833,9519
14.21667,9245
14.22500,9070
14.23333,8980
14.24167,8963
14.25000,9004
14.25833,9092
14.26667,9214
14.27500,9359
14.28333,9517
14.29167,9680
14.30000,9837
14.30833,9981
14.31667,10106
14.32500,10207
14.33333,10278
14.34167,10316
14.35000,10319
14.35833,10285
14.36667,10214
14.37500,10105
14.38333,9959
14.39167,9779
14.40000,9566
14.40833,9323
14.41667,9053
14.42500,8758
14.43333,8444
14.44167,8113
14.45000,7768
14.45833,7415
14.46667,7054
14.47500,6692
14.48333,6329
14.49167,5970
14.50000,5617
14.50833,5271
14.51667,4935
14.52500,4610
14.53333,4298
14.54167,3999
14.55000,3714
14.55833,3443
14.56667,3188
14.57500,2948
14.58333,2722
14.59167,2512
14.60000,2316
14.60833,2134
14.61667,1965
14.62500,1809
14.63333,1665
14.64167,1532
14.65000,1410
14.65833,1298
14.66667,1195
14.67500,1101
14.68333,1016
14.69167,937
14.70000,866
14.70833,800
14.71667,741
14.72500,686
14.73333,637
14.74167,592
14.75000,552
14.75833,515
14.76667,481
14.77500,451
14.78333,423
14.79167,397
14.80000,374
14.80833,353
14.81667,334
14.82500,316
14.83333,300
14.84167,286
14.85000,273
14.85833,261
14.86667,250
14.87500,240
14.88333,231
14.89167,224
14.90000,217
14.90833,211
14.91667,205
14.92500,201
14.93333,197
14.94167,193
14.95000,191
14.95833,189
14.96667,188
14.97500,187
14.98333,187
14.99167,187
15.00000,188
15.00833,190
15.01667,192
15.02500,195
15.03333,197
15.04167,201
15.05000,204
15.05833,208
15.06667,213
15.07500,219
15.08333,225
15.09167,231
15.10000,237
15.10833,244
15.11667,251
15.12500,259
15.13333,268
15.14167,278
15.15000,290
15.15833,302
15.16667,317
15.17500,334
15.18333,353
15.19167,376
15.20000,404
15.20833,437
15.21667,477
15.22500,524
15.23333,580
15.24167,646
15.25000,725
15.25833,818
15.26667,928
15.27500,1057
15.28333,1208
15.29167,1384
15.30000,1588
15.30833,1823
15.31667,2094
15.32500,2404
15.33333,2756
15.34167,3155
15.35000,3605
15.35833,4109
15.36667,4671
15.37500,5296
15.38333,5985
15.39167,6743
15.40000,7571
15.40833,8472
15.41667,9447
15.42500,10497
15.43333,11622
15.44167,12821
15.45000,14093
15.45833,15434
15.46667,16841
15.47500,18310
15.48333,19834
15.49167,21407
15.50000,23023
15.50833,24673
15.51667,26347
15.52500,28035
15.53333,29728
15.54167,31414
15.55000,33082
15.55833,34722
15.56667,36321
15.57500,37869
15.58333,39353
15.59167,40764
15.60000,42091
15.60833,43324
15.61667,44455
15.62500,45476
15.63333,46380
15.64167,47161
15.65000,47815
15.65833,48337
15.66667,48725
15.67500,48979
15.68333,49097
15.69167,49081
15.70000,48933
15.70833,48657
15.71667,48257
15.72500,47737
15.73333,47104
15.74167,46365
15.75000,45525
15.75833,44594
15.76667,43579
15.77500,42488
15.78333,41330
15.79167,40114
15.80000,38849
15.80833,37542
15.81667,36204
15.82500,34841
15.83333,33461
15.84167,32072
15.85000,30681
15.85833,29294
15.86667,27918
15.87500,26558
15.88333,25220
15.89167,23907
15.90000,22625
15.90833,21376
15.91667,20165
15.92500,18992
15.93333,17861
15.94167,16773
15.95000,15729
15.95833,14730
15.96667,13777
15.97500,12870
15.98333,12008
15.99167,11191
16.00000,10419
16.00833,9691
16.01667,9005
16.02500,8360
16.03333,7755
16.04167,7188
16.05000,6659
16.05833,6166
16.06667,5706
16.07500,5278
16.08333,4881
16.09167,4512
16.10000,4171
16.10833,3855
16.11667,3563
16.12500,3294
16.13333,3045
16.14167,2816
16.15000,2605
16.15833,2412
16.16667,2233
16.17500,2070
16.18333,1919
16.19167,1782
16.20000,1656
16.20833,1540
16.21667,1433
16.22500,1336
16.23333,1247
16.24167,1165
16.25000,1090
16.25833,1021
16.26667,958
16.27500,900
16.28333,847
16.29167,798
16.30000,753
16.30833,712
16.31667,674
16.32500,638
16.33333,606
16.34167,576
16.35000,549
16.35833,523
16.36667,500
16.37500,478
16.38333,458
16.39167,439
16.40000,421
16.40833,404
16.41667,389
16.42500,374
16.43333,361
16.44167,348
16.45000,336
16.45833,325
16.46667,315
16.47500,305
16.48333,296
16.49167,287
16.50000,278
16.50833,270
16.51667,263
16.52500,256
16.53333,249
16.54167,243
16.55000,236
16.55833,230
16.56667,224
16.57500,219
16.58333,214
16.59167,209
16.60000,204
16.60833,200
16.61667,196
16.62500,191
16.63333,187
16.64167,183
16.65000,179
16.65833,175
16.66667,171
16.67500,168
16.68333,164
16.69167,161
16.70000,157
16.70833,154
16.71667,150
16.72500,147
16.73333,144
16.74167,141
16.75000,139
16.75833,136
16.76667,134
16.77500,131
16.78333,129
16.79167,126
16.80000,124
16.80833,121
16.81667,119
16.82500,116
16.83333,114
16.84167,112
16.85000,110
16.85833,108
16.86667,106
16.87500,104
16.88333,102
16.89167,101
16.90000,99
16.90833,97
16.91667,95
16.92500,93
16.93333,92
16.94167,90
16.95000,89
16.95833,88
16.96667,87
16.97500,85
16.98333,84
16.99167,83
17.00000,81
17.00833,80
17.01667,79
17.02500,78
17.03333,78
17.04167,77
17.05000,76
17.05833,75
17.06667,74
17.07500,73
17.08333,72
17.09167,72
17.10000,72
17.10833,71
17.11667,71
17.12500,71
17.13333,70
17.14167,69
17.15000,69
17.15833,68
17.16667,68
17.17500,67
17.18333,67
17.19167,67
17.20000,67
17.20833,66
17.21667,66
17.22500,65
17.23333,65
17.24167,65
17.25000,64
17.25833,64
17.26667,63
17.27500,63
17.28333,62
17.29167,62
17.30000,62
17.30833,61
17.31667,60
17.32500,60
17.33333,59
17.34167,59
17.35000,58
17.35833,58
17.36667,58
17.37500,58
17.38333,57
17.39167,57
17.40000,57
17.40833,57
17.41667,56
17.42500,56
17.43333,56
17.44167,55
17.45000,55
17.45833,54
17.46667,54
17.47500,53
17.48333,52
17.49167,51
17.50000,51
17.50833,51
17.51667,50
17.52500,50
17.53333,49
17.54167,49
17.55000,48
17.55833,48
17.56667,47
17.57500,46
17.58333,46
17.59167,46
17.60000,45
17.60833,45
17.61667,44
17.62500,44
17.63333,44
17.64167,44
17.65000,43
17.65833,43
17.66667,43
17.67500,42
17.68333,42
17.69167,42
17.70000,42
17.70833,41
17.71667,41
17.72500,41
17.73333,40
17.74167,40
17.75000,40
17.75833,40
17.76667,40
17.77500,40
17.78333,40
17.79167,40
17.80000,40
17.80833,40
17.81667,40
17.82500,41
17.83333,40
17.84167,40
17.85000,40
17.85833,40
17.86667,40
17.87500,39
17.88333,39
17.89167,39
17.90000,39
17.90833,39
17.91667,39
17.92500,38
17.93333,38
17.94167,38
17.95000,37
17.95833,37
17.96667,37
17.97500,37
17.98333,37
17.99167,37
18.00000,36
18.00833,35
18.01667,35
18.02500,34
18.03333,34
18.04167,33
18.05000,33
18.05833,32
18.06667,32
18.07500,31
18.08333,31
18.09167,31
18.10000,30
18.10833,30
18.11667,29
18.12500,28
18.13333,27
18.14167,27
18.15000,26
18.15833,25
18.16667,24
18.17500,24
18.18333,23
18.19167,22
18.20000,21
18.20833,20
18.21667,20
18.22500,19
18.23333,18
18.24167,16
18.25000,15
18.25833,15
18.26667,13
18.27500,12
18.28333,11
18.29167,9
18.30000,9
18.30833,8
18.31667,7
18.32500,5
18.33333,4
18.34167,3
18.35000,2
18.35833,1
18.36667,-1
18.37500,-2
18.38333,-3
18.39167,-4
18.40000,-5
18.40833,-6
18.41667,-6
18.42500,-7
18.43333,-8
18.44167,-8
18.45000,-10
18.45833,-11
18.46667,-12
18.47500,-13
18.48333,-13
18.49167,-14
18.50000,-15
18.50833,-16
18.51667,-17
18.52500,-18
18.53333,-19
18.54167,-19
18.55000,-20
18.55833,-20
18.56667,-21
18.57500,-21
18.58333,-22
18.59167,-22
18.60000,-22
18.60833,-23
18.61667,-23
18.62500,-24
18.63333,-24
18.64167,-24
18.65000,-24
18.65833,-24
18.66667,-24
18.67500,-24
18.68333,-24
18.69167,-24
18.70000,-24
18.70833,-23
18.71667,-23
18.72500,-23
18.73333,-22
18.74167,-21
18.75000,-21
18.75833,-20
18.76667,-19
18.77500,-18
18.78333,-16
18.79167,-15
18.80000,-13
18.80833,-11
18.81667,-9
18.82500,-7
18.83333,-4
18.84167,-1
18.85000,2
18.85833,5
18.86667,8
18.87500,11
18.88333,14
18.89167,18
18.90000,21
18.90833,24
18.91667,28
18.92500,32
18.93333,36
18.94167,41
18.95000,45
18.95833,49
18.96667,53
18.97500,57
18.98333,60
18.99167,64
19.00000,67
19.00833,70
19.01667,73
19.02500,76
19.03333,78
19.04167,81
19.05000,83
19.05833,84
19.06667,86
19.07500,87
19.08333,87
19.09167,87
19.10000,87
19.10833,87
19.11667,87
19.12500,86
19.13333,85
19.14167,83
19.15000,81
19.15833,78
19.16667,76
19.17500,74
19.18333,71
19.19167,68
19.20000,65
19.20833,62
19.21667,58
19.22500,54
19.23333,51
19.24167,47
19.25000,43
19.25833,40
19.26667,36
19.27500,32
19.28333,29
19.29167,25
19.30000,21
19.30833,17
19.31667,14
19.32500,10
19.33333,7
19.34167,3
19.35000,0
19.35833,-2
19.36667,-5
19.37500,-8
19.38333,-10
19.39167,-13
19.40000,-16
19.40833,-18
19.41667,-21
19.42500,-23
19.43333,-25
19.44167,-26
19.45000,-28
19.45833,-29
19.46667,-30
19.47500,-32
19.48333,-33
19.49167,-34
19.50000,-35
19.50833,-35
19.51667,-36
19.52500,-37
19.53333,-37
19.54167,-37
19.55000,-37
19.55833,-38
19.56667,-38
19.57500,-38
19.58333,-38
19.59167,-38
19.60000,-38
19.60833,-38
19.61667,-38
19.62500,-37
19.63333,-37
19.64167,-37
19.65000,-37
19.65833,-37
19.66667,-37
19.67500,-37
19.68333,-37
19.69167,-36
19.70000,-36
19.70833,-36
19.71667,-35
19.72500,-35
19.73333,-34
19.74167,-34
19.75000,-33
19.75833,-33
19.76667,-32
19.77500,-32
19.78333,-32
19.79167,-32
19.80000,-32
19.80833,-32
19.81667,-32
19.82500,-32
19.83333,-31
19.84167,-31
19.85000,-31
19.85833,-31
19.86667,-31
19.87500,-31
19.88333,-30
19.89167,-31
19.90000,-31
19.90833,-31
19.91667,-31
19.92500,-32
19.93333,-32
19.94167,-32
19.95000,-32
19.95833,-32
19.96667,-32
19.97500,-32
19.98333,-32
19.99167,-32
20.00000,-33
20.00833,-33
20.01667,-33
20.02500,-33
20.03333,-33
20.04167,-33
20.05000,-34
20.05833,-34
20.06667,-34
20.07500,-34
20.08333,-35
20.09167,-35
20.10000,-35
20.10833,-35
20.11667,-35
20.12500,-35
20.13333,-35
20.14167,-35
20.15000,-35
20.15833,-35
20.16667,-35
20.17500,-35
20.18333,-35
20.19167,-35
20.20000,-35
20.20833,-35
20.21667,-35
20.22500,-35
20.23333,-35
20.24167,-35
20.25000,-36
20.25833,-36
20.26667,-36
20.27500,-35
20.28333,-35
20.29167,-36
20.30000,-35
20.30833,-35
20.31667,-35
20.32500,-35
20.33333,-36
20.34167,-36
20.35000,-35
20.35833,-35
20.36667,-36
20.37500,-36
20.38333,-36
20.39167,-36
20.40000,-36
20.40833,-36
20.41667,-36
20.42500,-36
20.43333,-36
20.44167,-36
20.45000,-36
20.45833,-36
20.46667,-37
20.47500,-37
20.48333,-37
20.49167,-37
20.50000,-37
20.50833,-37
20.51667,-37
20.52500,-37
20.53333,-37
20.54167,-38
20.55000,-38
20.55833,-38
20.56667,-39
20.57500,-39
20.58333,-40
20.59167,-40
20.60000,-40
20.60833,-40
20.61667,-41
20.62500,-41
20.63333,-42
20.64167,-42
20.65000,-42
20.65833,-42
20.66667,-42
20.67500,-42
20.68333,-42
20.69167,-43
20.70000,-43
20.70833,-43
20.71667,-44
20.72500,-44
20.73333,-44
20.74167,-44
20.75000,-45
20.75833,-45
20.76667,-45
20.77500,-45
20.78333,-45
20.79167,-45
20.80000,-46
20.80833,-46
20.81667,-46
20.82500,-45
20.83333,-45
20.84167,-45
20.85000,-45
20.85833,-45
20.86667,-45
20.87500,-45
20.88333,-45
20.89167,-45
20.90000,-45
20.90833,-45
20.91667,-45
20.92500,-45
20.93333,-45
20.94167,-45
20.95000,-45
20.95833,-45
20.96667,-45
20.97500,-45
20.98333,-44
20.99167,-44
21.00000,-45
21.00833,-44
21.01667,-44
21.02500,-44
21.03333,-44
21.04167,-44
21.05000,-44
21.05833,-44
21.06667,-44
21.07500,-43
21.08333,-43
21.09167,-43
21.10000,-43
21.10833,-43
21.11667,-43
21.12500,-43
21.13333,-43
21.14167,-43
21.15000,-42
21.15833,-42
21.16667,-42
21.17500,-42
21.18333,-41
21.19167,-41
21.20000,-40
21.20833,-40
21.21667,-40
21.22500,-40
21.23333,-39
21.24167,-40
21.25000,-40
21.25833,-39
21.26667,-39
21.27500,-38
21.28333,-38
21.29167,-38
21.30000,-37
21.30833,-37
21.31667,-36
21.32500,-36
21.33333,-36
21.34167,-36
21.35000,-36
21.35833,-36
21.36667,-36
21.37500,-36
21.38333,-35
21.39167,-35
21.40000,-35
21.40833,-34
21.41667,-34
21.42500,-34
21.43333,-34
21.44167,-34
21.45000,-35
21.45833,-35
21.46667,-35
21.47500,-35
21.48333,-35
21.49167,-34
21.50000,-35
21.50833,-35
21.51667,-35
21.52500,-35
21.53333,-34
21.54167,-34
21.55000,-34
21.55833,-34
21.56667,-34
21.57500,-35
21.58333,-35
21.59167,-35
21.60000,-35
21.60833,-36
21.61667,-36
21.62500,-37
21.63333,-37
21.64167,-38
21.65000,-38
21.65833,-38
21.66667,-38
21.67500,-39
21.68333,-39
21.69167,-39
21.70000,-39
21.70833,-40
21.71667,-40
21.72500,-41
21.73333,-41
21.74167,-42
21.75000,-42
21.75833,-42
21.76667,-42
21.77500,-42
21.78333,-42
21.79167,-42
21.80000,-42
21.80833,-42
21.81667,-42
21.82500,-42
21.83333,-43
21.84167,-44
21.85000,-44
21.85833,-45
21.86667,-45
21.87500,-45
21.88333,-45
21.89167,-45
21.90000,-45
21.90833,-45
21.91667,-45
21.92500,-44
21.93333,-44
21.94167,-44
21.95000,-44
21.95833,-44
21.96667,-44
21.97500,-45
21.98333,-45
21.99167,-44
22.00000,-44
22.00833,-44
22.01667,-44
22.02500,-43
22.03333,-43
22.04167,-43
22.05000,-44
22.05833,-44
22.06667,-44
22.07500,-44
22.08333,-44
22.09167,-44
22.10000,-44
22.10833,-44
22.11667,-44
22.12500,-44
22.13333,-44
22.14167,-44
22.15000,-44
22.15833,-45
22.16667,-45
22.17500,-44
22.18333,-44
22.19167,-44
22.20000,-44
22.20833,-44
22.21667,-44
22.22500,-44
22.23333,-44
22.24167,-44
22.25000,-44
22.25833,-44
22.26667,-44
22.27500,-44
22.28333,-44
22.29167,-44
22.30000,-44
22.30833,-45
22.31667,-45
22.32500,-45
22.33333,-45
22.34167,-45
22.35000,-45
22.35833,-45
22.36667,-45
22.37500,-45
22.38333,-45
22.39167,-45
22.40000,-45
22.40833,-45
22.41667,-45
22.42500,-45
22.43333,-45
22.44167,-45
22.45000,-45
22.45833,-45
22.46667,-45
22.47500,-45
22.48333,-45
22.49167,-45
22.50000,-45
22.50833,-45
22.51667,-45
22.52500,-45
22.53333,-46
22.54167,-46
22.55000,-46
22.55833,-45
22.56667,-45
22.57500,-45
22.58333,-45
22.59167,-44
22.60000,-44
22.60833,-44
22.61667,-44
22.62500,-44
22.63333,-44
22.64167,-44
22.65000,-44
22.65833,-43
22.66667,-43
22.67500,-42
22.68333,-41
22.69167,-41
22.70000,-40
22.70833,-40
22.71667,-40
22.72500,-39
22.73333,-38
22.74167,-38
22.75000,-38
22.75833,-37
22.76667,-37
22.77500,-36
22.78333,-35
22.79167,-34
22.80000,-34
22.80833,-33
22.81667,-33
22.82500,-32
22.83333,-31
22.84167,-30
22.85000,-29
22.85833,-29
22.86667,-28
22.87500,-28
22.88333,-28
22.89167,-27
22.90000,-27
22.90833,-26
22.91667,-25
22.92500,-25
22.93333,-25
22.94167,-25
22.95000,-25
22.95833,-25
22.96667,-24
22.97500,-24
22.98333,-23
22.99167,-23
23.00000,-23
23.00833,-23
23.01667,-23
23.02500,-22
23.03333,-23
23.04167,-23
23.05000,-23
23.05833,-24
23.06667,-24
23.07500,-24
23.08333,-25
23.09167,-25
23.10000,-25
23.10833,-26
23.11667,-26
23.12500,-26
23.13333,-27
23.14167,-27
23.15000,-28
23.15833,-28
23.16667,-29
23.17500,-29
23.18333,-30
23.19167,-30
23.20000,-31
23.20833,-32
23.21667,-33
23.22500,-33
23.23333,-34
23.24167,-34
23.25000,-34
23.25833,-35
23.26667,-35
23.27500,-36
23.28333,-36
23.29167,-37
23.30000,-37
23.30833,-38
23.31667,-39
23.32500,-40
23.33333,-41
23.34167,-42
23.35000,-42
23.35833,-43
23.36667,-44
23.37500,-44
23.38333,-44
23.39167,-45
23.40000,-45
23.40833,-46
23.41667,-46
23.42500,-47
23.43333,-48
23.44167,-48
23.45000,-49
23.45833,-50
23.46667,-51
23.47500,-51
23.48333,-51
23.49167,-52
23.50000,-52
23.50833,-52
23.51667,-53
23.52500,-53
23.53333,-54
23.54167,-54
23.55000,-55
23.55833,-55
23.56667,-56
23.57500,-57
23.58333,-57
23.59167,-57
23.60000,-57
23.60833,-58
23.61667,-58
23.62500,-58
23.63333,-59
23.64167,-59
23.65000,-60
23.65833,-60
23.66667,-60
23.67500,-60
23.68333,-61
23.69167,-61
23.70000,-61
23.70833,-61
23.71667,-61
23.72500,-61
23.73333,-61
23.74167,-61
23.75000,-61
23.75833,-61
23.76667,-60
23.77500,-60
23.78333,-59
23.79167,-59
23.80000,-59
23.80833,-59
23.81667,-58
23.82500,-58
23.83333,-57
23.84167,-57
23.85000,-56
23.85833,-56
23.86667,-55
23.87500,-55
23.88333,-55
23.89167,-54
23.90000,-53
23.90833,-53
23.91667,-52
23.92500,-51
23.93333,-51
23.94167,-50
23.95000,-49
23.95833,-48
23.96667,-48
23.97500,-48
23.98333,-47
23.99167,-47
24.00000,-46
24.00833,-45
24.01667,-44
24.02500,-43
24.03333,-43
24.04167,-42
24.05000,-41
24.05833,-41
24.06667,-40
24.07500,-39
24.08333,-38
24.09167,-37
24.10000,-37
24.10833,-36
24.11667,-36
24.12500,-35
24.13333,-35
24.14167,-34
24.15000,-34
24.15833,-33
24.16667,-33
24.17500,-33
24.18333,-33
24.19167,-32
24.20000,-31
24.20833,-31
24.21667,-30
24.22500,-30
24.23333,-29
24.24167,-29
24.25000,-29
24.25833,-29
24.26667,-29
24.27500,-29
24.28333,-29
24.29167,-28
24.30000,-28
24.30833,-28
24.31667,-28
24.32500,-28
24.33333,-28
24.34167,-29
24.35000,-28
24.35833,-28
24.36667,-28
24.37500,-28
24.38333,-28
24.39167,-28
24.40000,-28
24.40833,-28
24.41667,-28
24.42500,-28
24.43333,-28
24.44167,-28
24.45000,-28
24.45833,-28
24.46667,-28
24.47500,-28
24.48333,-28
24.49167,-28
24.50000,-28
24.50833,-28
24.51667,-28
24.52500,-28
24.53333,-27
24.54167,-27
24.55000,-27
24.55833,-27
24.56667,-27
24.57500,-27
24.58333,-26
24.59167,-26
24.60000,-26
24.60833,-26
24.61667,-25
24.62500,-24
24.63333,-23
24.64167,-22
24.65000,-21
24.65833,-20
24.66667,-19
24.67500,-18
24.68333,-16
24.69167,-14
24.70000,-13
24.70833,-12
24.71667,-10
24.72500,-8
24.73333,-6
24.74167,-4
24.75000,-2
24.75833,-0
24.76667,2
24.77500,5
24.78333,8
24.79167,10
24.80000,13
24.80833,16
24.81667,18
24.82500,21
24.83333,24
24.84167,27
24.85000,30
24.85833,33
24.86667,36
24.87500,39
24.88333,42
24.89167,45
24.90000,47
24.90833,50
24.91667,52
24.92500,55
24.93333,58
24.94167,61
24.95000,63
24.95833,65
24.96667,67
24.97500,69
24.98333,70
24.99167,71
25.00000,73
25.00833,73
25.01667,74
25.02500,74
25.03333,75
25.04167,75
25.05000,75
25.05833,75
25.06667,75
25.07500,74
25.08333,73
25.09167,72
25.10000,71
25.10833,70
25.11667,68
25.12500,66
25.13333,64
25.14167,62
25.15000,60
25.15833,58
25.16667,55
25.17500,53
25.18333,50
25.19167,48
25.20000,46
25.20833,43
25.21667,40
25.22500,37
25.23333,33
25.24167,31
25.25000,28
25.25833,25
25.26667,22
25.27500,19
25.28333,17
25.29167,14
25.30000,12
25.30833,9
25.31667,7
25.32500,4
25.33333,2
25.34167,-1
25.35000,-3
25.35833,-6
25.36667,-8
25.37500,-10
25.38333,-12
25.39167,-14
25.40000,-16
25.40833,-17
25.41667,-19
25.42500,-21
25.43333,-22
25.44167,-23
25.45000,-24
25.45833,-25
25.46667,-27
25.47500,-28
25.48333,-29
25.49167,-30
25.50000,-31
25.50833,-31
25.51667,-32
25.52500,-32
25.53333,-33
25.54167,-33
25.55000,-34
25.55833,-34
25.56667,-34
25.57500,-34
25.58333,-35
25.59167,-35
25.60000,-35
25.60833,-35
25.61667,-35
25.62500,-35
25.63333,-35
25.64167,-35
25.65000,-35
25.65833,-34
25.66667,-34
25.67500,-34
25.68333,-35
25.69167,-35
25.70000,-36
25.70833,-36
25.71667,-36
25.72500,-36
25.73333,-36
25.74167,-36
25.75000,-36
25.75833,-35
25.76667,-35
25.77500,-35
25.78333,-35
25.79167,-35
25.80000,-35
25.80833,-35
25.81667,-34
25.82500,-34
25.83333,-34
25.84167,-34
25.85000,-34
25.85833,-35
25.86667,-35
25.87500,-35
25.88333,-35
25.89167,-34
25.90000,-34
25.90833,-34
25.91667,-34
25.92500,-33
25.93333,-33
25.94167,-33
25.95000,-33
25.95833,-32
25.96667,-32
25.97500,-32
25.98333,-32
25.99167,-32
26.00000,-32
26.00833,-32
26.01667,-31
26.02500,-31
26.03333,-31
26.04167,-30
26.05000,-30
26.05833,-30
26.06667,-30
26.07500,-30
26.08333,-31
26.09167,-31
26.10000,-31
26.10833,-30
26.11667,-30
26.12500,-29
26.13333,-29
26.14167,-29
26.15000,-29
26.15833,-29
26.16667,-29
26.17500,-29
26.18333,-29
26.19167,-29
26.20000,-28
26.20833,-28
26.21667,-28
26.22500,-28
26.23333,-28
26.24167,-28
26.25000,-28
26.25833,-28
26.26667,-28
26.27500,-28
26.28333,-29
26.29167,-29
26.30000,-29
26.30833,-29
26.31667,-29
26.32500,-30
26.33333,-30
26.34167,-30
26.35000,-30
26.35833,-31
26.36667,-31
26.37500,-31
26.38333,-32
26.39167,-32
26.40000,-33
26.40833,-33
26.41667,-33
26.42500,-34
26.43333,-34
26.44167,-35
26.45000,-35
26.45833,-36
26.46667,-36
26.47500,-37
26.48333,-37
26.49167,-37
26.50000,-37
26.50833,-37
26.51667,-38
26.52500,-39
26.53333,-39
26.54167,-40
26.55000,-40
26.55833,-41
26.56667,-41
26.57500,-41
26.58333,-41
26.59167,-41
26.60000,-42
26.60833,-41
26.61667,-41
26.62500,-42
26.63333,-42
26.64167,-42
26.65000,-42
26.65833,-42
26.66667,-42
26.67500,-42
26.68333,-42
26.69167,-42
26.70000,-42
26.70833,-42
26.71667,-42
26.72500,-42
26.73333,-42
26.74167,-42
26.75000,-42
26.75833,-41
26.76667,-41
26.77500,-41
26.78333,-41
26.79167,-41
26.80000,-41
26.80833,-40
26.81667,-40
26.82500,-39
26.83333,-39
26.84167,-38
26.85000,-37
26.85833,-37
26.86667,-36
26.87500,-36
26.88333,-36
26.89167,-35
26.90000,-35
26.90833,-35
26.91667,-35
26.92500,-34
26.93333,-34
26.94167,-34
26.95000,-33
26.95833,-33
26.96667,-32
26.97500,-32
26.98333,-31
26.99167,-30
27.00000,-30
27.00833,-29
27.01667,-29
27.02500,-29
27.03333,-29
27.04167,-28
27.05000,-28
27.05833,-27
27.06667,-27
27.07500,-26
27.08333,-26
27.09167,-26
27.10000,-26
27.10833,-26
27.11667,-26
27.12500,-26
27.13333,-26
27.14167,-26
27.15000,-26
27.15833,-26
27.16667,-25
27.17500,-25
27.18333,-25
27.19167,-24
27.20000,-24
27.20833,-23
27.21667,-22
27.22500,-22
27.23333,-22
27.24167,-22
27.25000,-22
27.25833,-22
27.26667,-22
27.27500,-22
27.28333,-22
27.29167,-22
27.30000,-22
27.30833,-23
27.31667,-23
27.32500,-23
27.33333,-23
27.34167,-23
27.35000,-23
27.35833,-23
27.36667,-23
27.37500,-23
27.38333,-23
27.39167,-23
27.40000,-23
27.40833,-23
27.41667,-23
27.42500,-24
27.43333,-24
27.44167,-24
27.45000,-24
27.45833,-24
27.46667,-24
27.47500,-24
27.48333,-24
27.49167,-25
27.50000,-25
27.50833,-25
27.51667,-26
27.52500,-26
27.53333,-26
27.54167,-26
27.55000,-26
27.55833,-26
27.56667,-26
27.57500,-27
27.58333,-27
27.59167,-27
27.60000,-27
27.60833,-27
27.61667,-27
27.62500,-27
27.63333,-27
27.64167,-27
27.65000,-27
27.65833,-27
27.66667,-27
27.67500,-27
27.68333,-27
27.69167,-28
27.70000,-28
27.70833,-28
27.71667,-28
27.72500,-29
27.73333,-29
27.74167,-29
27.75000,-29
27.75833,-30
27.76667,-30
27.77500,-31
27.78333,-31
27.79167,-32
27.80000,-33
27.80833,-33
27.81667,-34
27.82500,-35
27.83333,-37
27.84167,-38
27.85000,-39
27.85833,-40
27.86667,-41
27.87500,-43
27.88333,-44
27.89167,-46
27.90000,-48
27.90833,-50
27.91667,-52
27.92500,-54
27.93333,-57
27.94167,-59
27.95000,-61
27.95833,-64
27.96667,-66
27.97500,-69
27.98333,-72
27.99167,-75
28.00000,-78
28.00833,-81
28.01667,-84
28.02500,-87
28.03333,-90
28.04167,-94
28.05000,-97
28.05833,-101
28.06667,-105
28.07500,-108
28.08333,-112
28.09167,-115
28.10000,-119
28.10833,-123
28.11667,-127
28.12500,-131
28.13333,-134
28.14167,-138
28.15000,-142
28.15833,-146
28.16667,-149
28.17500,-152
28.18333,-156
28.19167,-159
28.20000,-162
28.20833,-165
28.21667,-168
28.22500,-171
28.23333,-173
28.24167,-176
28.25000,-178
28.25833,-180
28.26667,-183
28.27500,-185
28.28333,-187
28.29167,-189
28.30000,-190
28.30833,-191
28.31667,-192
28.32500,-193
28.33333,-194
28.34167,-195
28.35000,-195
28.35833,-195
28.36667,-195
28.37500,-195
28.38333,-194
28.39167,-193
28.40000,-193
28.40833,-191
28.41667,-190
28.42500,-189
28.43333,-188
28.44167,-186
28.45000,-185
28.45833,-183
28.46667,-181
28.47500,-179
28.48333,-176
28.49167,-173
28.50000,-171
28.50833,-168
28.51667,-166
28.52500,-163
28.53333,-160
28.54167,-158
28.55000,-155
28.55833,-152
28.56667,-148
28.57500,-146
28.58333,-142
28.59167,-139
28.60000,-136
28.60833,-133
28.61667,-129
28.62500,-126
28.63333,-123
28.64167,-120
28.65000,-117
28.65833,-113
28.66667,-110
28.67500,-107
28.68333,-104
28.69167,-102
28.70000,-99
28.70833,-97
28.71667,-94
28.72500,-92
28.73333,-89
28.74167,-87
28.75000,-85
28.75833,-82
28.76667,-80
28.77500,-79
28.78333,-77
28.79167,-75
28.80000,-73
28.80833,-70
28.81667,-69
28.82500,-67
28.83333,-65
28.84167,-64
28.85000,-62
28.85833,-61
28.86667,-60
28.87500,-59
28.88333,-58
28.89167,-57
28.90000,-56
28.90833,-55
28.91667,-54
28.92500,-54
28.93333,-53
28.94167,-52
28.95000,-51
28.95833,-50
28.96667,-50
28.97500,-49
28.98333,-48
28.99167,-48
29.00000,-47
29.00833,-46
29.01667,-45
29.02500,-45
29.03333,-44
29.04167,-44
29.05000,-44
29.05833,-43
29.06667,-43
29.07500,-43
29.08333,-42
29.09167,-42
29.10000,-41
29.10833,-41
29.11667,-40
29.12500,-39
29.13333,-39
29.14167,-39
29.15000,-38
29.15833,-38
29.16667,-38
29.17500,-38
29.18333,-37
29.19167,-37
29.20000,-37
29.20833,-37
29.21667,-37
29.22500,-37
29.23333,-37
29.24167,-37
29.25000,-37
29.25833,-37
29.26667,-37
29.27500,-37
29.28333,-38
29.29167,-38
29.30000,-38
29.30833,-38
29.31667,-38
29.32500,-38
29.33333,-38
29.34167,-38
29.35000,-38
29.35833,-38
29.36667,-38
29.37500,-38
29.38333,-38
29.39167,-38
29.40000,-39
29.40833,-39
29.41667,-40
29.42500,-40
29.43333,-41
29.44167,-41
29.45000,-41
29.45833,-42
29.46667,-42
29.47500,-43
29.48333,-43
29.49167,-43
29.50000,-44
29.50833,-44
29.51667,-45
29.52500,-45
29.53333,-46
29.54167,-46
29.55000,-47
29.55833,-47
29.56667,-47
29.57500,-48
29.58333,-48
29.59167,-49
29.60000,-49
29.60833,-50
29.61667,-50
29.62500,-50
29.63333,-50
29.64167,-51
29.65000,-51
29.65833,-52
29.66667,-52
29.67500,-53
29.68333,-54
29.69167,-54
29.70000,-55
29.70833,-55
29.71667,-55
29.72500,-56
29.73333,-56
29.74167,-57
29.75000,-57
29.75833,-57
29.76667,-58
29.77500,-58
29.78333,-59
29.79167,-60
29.80000,-61
29.80833,-61
29.81667,-62
29.82500,-63
29.83333,-63
29.84167,-64
29.85000,-64
29.85833,-64
29.86667,-65
29.87500,-66
29.88333,-67
29.89167,-68
29.90000,-68
29.90833,-68
29.91667,-69
29.92500,-69
29.93333,-69
29.94167,-70
29.95000,-71
29.95833,-72
29.96667,-72
29.97500,-73
29.98333,-73
29.99167,-74
30.00000,-74
30.00833,-74
30.01667,-75
30.02500,-75
30.03333,-76
30.04167,-76
30.05000,-76
30.05833,-77
30.06667,-77
30.07500,-77
30.08333,-77
30.09167,-77
30.10000,-77
30.10833,-77
30.11667,-77
30.12500,-77
30.13333,-78
30.14167,-78
30.15000,-78
30.15833,-78
30.16667,-78
30.17500,-77
30.18333,-77
30.19167,-76
30.20000,-76
30.20833,-75
30.21667,-75
30.22500,-75
30.23333,-75
30.24167,-74
30.25000,-73
30.25833,-72
30.26667,-72
30.27500,-71
30.28333,-70
30.29167,-70
30.30000,-69
30.30833,-68
30.31667,-68
30.32500,-67
30.33333,-66
30.34167,-66
30.35000,-65
30.35833,-64
30.36667,-64
30.37500,-63
30.38333,-62
30.39167,-61
30.40000,-60
30.40833,-59
30.41667,-59
30.42500,-58
30.43333,-58
30.44167,-58
30.45000,-57
30.45833,-56
30.46667,-56
30.47500,-55
30.48333,-55
30.49167,-54
30.50000,-53
30.50833,-53
30.51667,-53
30.52500,-52
30.53333,-52
30.54167,-51
30.55000,-50
30.55833,-49
30.56667,-49
30.57500,-49
30.58333,-48
30.59167,-48
30.60000,-48
30.60833,-48
30.61667,-47
30.62500,-47
30.63333,-47
30.64167,-46
30.65000,-46
30.65833,-46
30.66667,-45
30.67500,-45
30.68333,-45
30.69167,-45
30.70000,-44
30.70833,-44
30.71667,-44
30.72500,-44
30.73333,-44
30.74167,-44
30.75000,-44
30.75833,-43
30.76667,-43
30.77500,-43
30.78333,-43
30.79167,-43
30.80000,-43
30.80833,-43
30.81667,-43
30.82500,-43
30.83333,-43
30.84167,-43
30.85000,-42
30.85833,-42
30.86667,-42
30.87500,-42
30.88333,-42
30.89167,-42
30.90000,-41
30.90833,-41
30.91667,-41
30.92500,-41
30.93333,-41
30.94167,-41
30.95000,-41
30.95833,-40
30.96667,-40
30.97500,-40
30.98333,-40
30.99167,-41
31.00000,-41
31.00833,-41
31.01667,-41
31.02500,-41
31.03333,-41
31.04167,-41
31.05000,-40
31.05833,-40
31.06667,-40
31.07500,-40
31.08333,-40
31.09167,-40
31.10000,-40
31.10833,-40
31.11667,-40
31.12500,-40
31.13333,-40
31.14167,-39
31.15000,-39
31.15833,-39
31.16667,-39
31.17500,-40
31.18333,-40
31.19167,-40
31.20000,-40
31.20833,-40
31.21667,-39
31.22500,-39
31.23333,-39
31.24167,-39
31.25000,-39
31.25833,-38
31.26667,-38
31.27500,-38
31.28333,-37
31.29167,-37
31.30000,-37
31.30833,-37
31.31667,-37
31.32500,-37
31.33333,-37
31.34167,-36
31.35000,-36
31.35833,-35
31.36667,-35
31.37500,-35
31.38333,-35
31.39167,-35
31.40000,-34
31.40833,-34
31.41667,-33
31.42500,-32
31.43333,-31
31.44167,-31
31.45000,-30
31.45833,-30
31.46667,-30
31.47500,-29
31.48333,-29
31.49167,-28
31.50000,-28
31.50833,-27
31.51667,-27
31.52500,-26
31.53333,-25
31.54167,-25
31.55000,-24
31.55833,-23
31.56667,-22
31.57500,-22
31.58333,-21
31.59167,-20
31.60000,-20
31.60833,-19
31.61667,-18
31.62500,-18
31.63333,-18
31.64167,-17
31.65000,-17
31.65833,-16
31.66667,-16
31.67500,-15
31.68333,-15
31.69167,-15
31.70000,-14
31.70833,-14
31.71667,-14
31.72500,-14
31.73333,-14
31.74167,-14
31.75000,-14
31.75833,-13
31.76667,-13
31.77500,-12
31.78333,-12
31.79167,-13
31.80000,-12
31.80833,-12
31.81667,-12
31.82500,-12
31.83333,-13
31.84167,-13
31.85000,-13
31.85833,-14
31.86667,-14
31.87500,-13
31.88333,-13
31.89167,-14
31.90000,-14
31.90833,-14
31.91667,-14
31.92500,-13
31.93333,-14
31.94167,-14
31.95000,-14
31.95833,-14
31.96667,-13
31.97500,-13
31.98333,-13
31.99167,-13
32.00000,-13
32.00833,-13
32.01667,-13
32.02500,-14
32.03333,-14
32.04167,-14
32.05000,-14
32.05833,-15
32.06667,-15
32.07500,-15
32.08333,-15
32.09167,-15
32.10000,-15
32.10833,-15
32.11667,-15
32.12500,-15
32.13333,-16
32.14167,-16
32.15000,-16
32.15833,-16
32.16667,-16
32.17500,-16
32.18333,-17
32.19167,-17
32.20000,-17
32.20833,-17
32.21667,-18
32.22500,-18
32.23333,-18
32.24167,-19
32.25000,-20
32.25833,-20
32.26667,-20
32.27500,-20
32.28333,-21
32.29167,-21
32.30000,-21
32.30833,-22
32.31667,-22
32.32500,-23
32.33333,-23
32.34167,-23
32.35000,-23
32.35833,-24
32.36667,-24
32.37500,-25
32.38333,-25
32.39167,-25
32.40000,-26
32.40833,-26
32.41667,-26
32.42500,-27
32.43333,-27
32.44167,-27
32.45000,-28
32.45833,-29
32.46667,-29
32.47500,-30
32.48333,-30
32.49167,-31
32.50000,-31
32.50833,-32
32.51667,-32
32.52500,-32
32.53333,-32
32.54167,-32
32.55000,-32
32.55833,-32
32.56667,-32
32.57500,-32
32.58333,-32
32.59167,-32
32.60000,-32
32.60833,-33
32.61667,-32
32.62500,-32
32.63333,-32
32.64167,-32
32.65000,-31
32.65833,-31
32.66667,-31
32.67500,-31
32.68333,-30
32.69167,-30
32.70000,-30
32.70833,-29
32.71667,-29
32.72500,-28
32.73333,-28
32.74167,-27
32.75000,-26
32.75833,-25
32.76667,-25
32.77500,-24
32.78333,-24
32.79167,-24
32.80000,-24
32.80833,-24
32.81667,-23
32.82500,-23
32.83333,-22
32.84167,-21
32.85000,-21
32.85833,-21
32.86667,-21
32.87500,-20
32.88333,-20
32.89167,-19
32.90000,-19
32.90833,-18
32.91667,-17
32.92500,-17
32.93333,-17
32.94167,-16
32.95000,-15
32.95833,-15
32.96667,-15
32.97500,-15
32.98333,-15
32.99167,-15
33.00000,-14
33.00833,-14
33.01667,-14
33.02500,-13
33.03333,-13
33.04167,-13
33.05000,-13
33.05833,-12
33.06667,-11
33.07500,-11
33.08333,-10
33.09167,-10
33.10000,-10
33.10833,-10
33.11667,-9
33.12500,-9
33.13333,-8
33.14167,-8
33.15000,-7
33.15833,-7
33.16667,-7
33.17500,-7
33.18333,-6
33.19167,-6
33.20000,-6
33.20833,-6
33.21667,-6
33.22500,-6
33.23333,-6
33.24167,-5
33.25000,-5
33.25833,-4
33.26667,-4
33.27500,-4
33.28333,-4
33.29167,-4
33.30000,-4
33.30833,-3
33.31667,-3
33.32500,-3
33.33333,-3
33.34167,-3
33.35000,-4
33.35833,-4
33.36667,-4
33.37500,-5
33.38333,-5
33.39167,-5
33.40000,-6
33.40833,-6
33.41667,-7
33.42500,-8
33.43333,-8
33.44167,-9
33.45000,-9
33.45833,-10
33.46667,-10
33.47500,-11
33.48333,-12
33.49167,-13
33.50000,-13
33.50833,-14
33.51667,-15
33.52500,-16
33.53333,-17
33.54167,-18
33.55000,-20
33.55833,-21
33.56667,-22
33.57500,-22
33.58333,-23
33.59167,-24
33.60000,-25
33.60833,-26
33.61667,-28
33.62500,-29
33.63333,-30
33.64167,-30
33.65000,-31
33.65833,-32
33.66667,-33
33.67500,-34
33.68333,-35
33.69167,-36
33.70000,-36
33.70833,-37
33.71667,-38
33.72500,-38
33.73333,-39
33.74167,-39
33.75000,-39
33.75833,-39
33.76667,-39
33.77500,-40
33.78333,-40
33.79167,-41
33.80000,-41
33.80833,-42
33.81667,-41
33.82500,-41
33.83333,-41
33.84167,-41
33.85000,-40
33.85833,-40
33.86667,-40
33.87500,-39
33.88333,-38
33.89167,-38
33.90000,-38
33.90833,-37
33.91667,-37
33.92500,-36
33.93333,-36
33.94167,-35
33.95000,-34
33.95833,-33
33.96667,-32
33.97500,-32
33.98333,-31
33.99167,-30
34.00000,-30
34.00833,-29
34.01667,-28
34.02500,-27
34.03333,-26
34.04167,-25
34.05000,-24
34.05833,-23
34.06667,-22
34.07500,-21
34.08333,-20
34.09167,-20
34.10000,-19
34.10833,-18
34.11667,-17
34.12500,-16
34.13333,-15
34.14167,-14
34.15000,-14
34.15833,-13
34.16667,-13
34.17500,-12
34.18333,-11
34.19167,-10
34.20000,-10
34.20833,-9
34.21667,-8
34.22500,-7
34.23333,-7
34.24167,-6
34.25000,-6
34.25833,-6
34.26667,-6
34.27500,-6
34.28333,-5
34.29167,-5
34.30000,-5
34.30833,-5
34.31667,-5
34.32500,-4
34.33333,-4
34.34167,-4
34.35000,-4
34.35833,-4
34.36667,-4
34.37500,-4
34.38333,-4
34.39167,-5
34.40000,-5
34.40833,-5
34.41667,-5
34.42500,-5
34.43333,-5
34.44167,-6
34.45000,-6
34.45833,-6
34.46667,-7
34.47500,-7
34.48333,-8
34.49167,-8
34.50000,-9
34.50833,-9
34.51667,-9
34.52500,-10
34.53333,-11
34.54167,-11
34.55000,-12
34.55833,-12
34.56667,-12
34.57500,-13
34.58333,-14
34.59167,-14
34.60000,-15
34.60833,-16
34.61667,-16
34.62500,-17
34.63333,-17
34.64167,-17
34.65000,-17
34.65833,-17
34.66667,-17
34.67500,-17
34.68333,-17
34.69167,-18
34.70000,-18
34.70833,-18
34.71667,-18
34.72500,-18
34.73333,-18
34.74167,-19
34.75000,-19
34.75833,-19
34.76667,-19
34.77500,-18
34.78333,-18
34.79167,-18
34.80000,-18
34.80833,-18
34.81667,-18
34.82500,-18
34.83333,-18
34.84167,-17
34.85000,-17
34.85833,-16
34.86667,-15
34.87500,-15
34.88333,-14
34.89167,-13
34.90000,-13
34.90833,-12
34.91667,-11
34.92500,-10
34.93333,-9
34.94167,-9
34.95000,-8
34.95833,-7
34.96667,-6
34.97500,-6
34.98333,-6
34.99167,-5
35.00000,-5
35.00833,-4
35.01667,-3
35.02500,-3
35.03333,-2
35.04167,-2
35.05000,-1
35.05833,-1
35.06667,-0
35.07500,0
35.08333,1
35.09167,1
35.10000,1
35.10833,1
35.11667,1
35.12500,1
35.13333,1
35.14167,1
35.15000,1
35.15833,1
35.16667,1
35.17500,1
35.18333,1
35.19167,2
35.20000,2
35.20833,2
35.21667,2
35.22500,1
35.23333,1
35.24167,1
35.25000,0
35.25833,-0
35.26667,-0
35.27500,-1
35.28333,-1
35.29167,-1
35.30000,-1
35.30833,-1
35.31667,-1
35.32500,-2
35.33333,-2
35.34167,-3
35.35000,-3
35.35833,-4
35.36667,-4
35.37500,-4
35.38333,-4
35.39167,-5
35.40000,-5
35.40833,-5
35.41667,-5
35.42500,-5
35.43333,-5
35.44167,-6
35.45000,-6
35.45833,-6
35.46667,-6
35.47500,-6
35.48333,-6
35.49167,-6
35.50000,-6
35.50833,-6
35.51667,-7
35.52500,-7
35.53333,-8
35.54167,-8
35.55000,-8
35.55833,-8
35.56667,-8
35.57500,-9
35.58333,-9
35.59167,-10
35.60000,-10
35.60833,-10
35.61667,-10
35.62500,-11
35.63333,-12
35.64167,-12
35.65000,-13
35.65833,-13
35.66667,-14
35.67500,-14
35.68333,-15
35.69167,-15
35.70000,-15
35.70833,-15
35.71667,-16
35.72500,-16
35.73333,-17
35.74167,-17
35.75000,-18
35.75833,-18
35.76667,-19
35.77500,-19
35.78333,-20
35.79167,-20
35.80000,-21
35.80833,-21
35.81667,-22
35.82500,-22
35.83333,-22
35.84167,-22
35.85000,-22
35.85833,-23
35.86667,-23
35.87500,-23
35.88333,-23
35.89167,-23
35.90000,-24
35.90833,-24
35.91667,-25
35.92500,-25
35.93333,-25
35.94167,-25
35.95000,-25
35.95833,-26
35.96667,-25
35.97500,-25
35.98333,-25
35.99167,-25
36.00000,-25
36.00833,-25
36.01667,-25
36.02500,-25
36.03333,-25
36.04167,-25
36.05000,-25
36.05833,-25
36.06667,-25
36.07500,-24
36.08333,-24
36.09167,-24
36.10000,-24
36.10833,-23
36.11667,-23
36.12500,-23
36.13333,-23
36.14167,-22
36.15000,-22
36.15833,-21
36.16667,-21
36.17500,-21
36.18333,-20
36.19167,-20
36.20000,-20
36.20833,-20
36.21667,-19
36.22500,-19
36.23333,-18
36.24167,-18
36.25000,-17
36.25833,-16
36.26667,-16
36.27500,-15
36.28333,-14
36.29167,-13
36.30000,-13
36.30833,-12
36.31667,-11
36.32500,-10
36.33333,-9
36.34167,-9
36.35000,-8
36.35833,-8
36.36667,-7
36.37500,-7
36.38333,-6
36.39167,-5
36.40000,-5
36.40833,-4
36.41667,-3
36.42500,-3
36.43333,-3
36.44167,-2
36.45000,-1
36.45833,-1
36.46667,-0
36.47500,0
36.48333,0
36.49167,0
36.50000,0
36.50833,1
36.51667,1
36.52500,2
36.53333,2
36.54167,3
36.55000,3
36.55833,4
36.56667,4
36.57500,4
36.58333,3
36.59167,3
36.60000,4
36.60833,4
36.61667,4
36.62500,4
36.63333,3
36.64167,3
36.65000,3
36.65833,3
36.66667,3
36.67500,3
36.68333,3
36.69167,3
36.70000,3
36.70833,3
36.71667,3
36.72500,3
36.73333,3
36.74167,3
36.75000,3
36.75833,3
36.76667,3
36.77500,3
36.78333,3
36.79167,4
36.80000,4
36.80833,4
36.81667,4
36.82500,4
36.83333,4
36.84167,4
36.85000,3
36.85833,3
36.86667,3
36.87500,3
36.88333,3
36.89167,3
36.90000,3
36.90833,4
36.91667,4
36.92500,4
36.93333,3
36.94167,3
36.95000,3
36.95833,3
36.96667,3
36.97500,2
36.98333,2
36.99167,2
37.00000,1
37.00833,1
37.01667,0
37.02500,-0
37.03333,-1
37.04167,-1
37.05000,-1
37.05833,-2
37.06667,-2
37.07500,-3
37.08333,-4
37.09167,-5
37.10000,-6
37.10833,-6
37.11667,-7
37.12500,-8
37.13333,-9
37.14167,-10
37.15000,-11
37.15833,-12
37.16667,-13
37.17500,-14
37.18333,-15
37.19167,-16
37.20000,-16
37.20833,-17
37.21667,-18
37.22500,-19
37.23333,-20
37.24167,-21
37.25000,-21
37.25833,-21
37.26667,-22
37.27500,-23
37.28333,-23
37.29167,-24
37.30000,-25
37.30833,-25
37.31667,-26
37.32500,-26
37.33333,-27
37.34167,-27
37.35000,-27
37.35833,-28
37.36667,-28
37.37500,-29
37.38333,-29
37.39167,-30
37.40000,-29
37.40833,-30
37.41667,-30
37.42500,-30
37.43333,-30
37.44167,-30
37.45000,-29
37.45833,-29
37.46667,-29
37.47500,-29
37.48333,-29
37.49167,-29
37.50000,-29
37.50833,-28
37.51667,-28
37.52500,-27
37.53333,-27
37.54167,-27
37.55000,-26
37.55833,-26
37.56667,-26
37.57500,-25
37.58333,-25
37.59167,-24
37.60000,-24
37.60833,-24
37.61667,-23
37.62500,-23
37.63333,-22
37.64167,-22
37.65000,-21
37.65833,-20
37.66667,-20
37.67500,-19
37.68333,-19
37.69167,-18
37.70000,-18
37.70833,-17
37.71667,-17
37.72500,-16
37.73333,-16
37.74167,-16
37.75000,-15
37.75833,-15
37.76667,-14
37.77500,-13
37.78333,-13
37.79167,-12
37.80000,-12
37.80833,-12
37.81667,-12
37.82500,-11
37.83333,-11
37.84167,-10
37.85000,-10
37.85833,-10
37.86667,-9
37.87500,-9
37.88333,-9
37.89167,-8
37.90000,-8
37.90833,-8
37.91667,-8
37.92500,-8
37.93333,-8
37.94167,-8
37.95000,-8
37.95833,-9
37.96667,-9
37.97500,-9
37.98333,-9
37.99167,-9
38.00000,-9
38.00833,-9
38.01667,-9
38.02500,-9
38.03333,-9
38.04167,-9
38.05000,-9
38.05833,-9
38.06667,-9
38.07500,-9
38.08333,-9
38.09167,-10
38.10000,-10
38.10833,-10
38.11667,-10
38.12500,-11
38.13333,-10
38.14167,-10
38.15000,-10
38.15833,-10
38.16667,-11
38.17500,-11
38.18333,-11
38.19167,-11
38.20000,-11
38.20833,-10
38.21667,-10
38.22500,-10
38.23333,-10
38.24167,-9
38.25000,-9
38.25833,-10
38.26667,-10
38.27500,-10
38.28333,-10
38.29167,-9
38.30000,-9
38.30833,-9
38.31667,-9
38.32500,-9
38.33333,-8
38.34167,-8
38.35000,-8
38.35833,-7
38.36667,-7
38.37500,-6
38.38333,-6
38.39167,-5
38.40000,-5
38.40833,-5
38.41667,-5
38.42500,-4
38.43333,-4
38.44167,-4
38.45000,-4
38.45833,-3
38.46667,-3
38.47500,-3
38.48333,-3
38.49167,-2
38.50000,-2
38.50833,-2
38.51667,-1
38.52500,-1
38.53333,-0
38.54167,1
38.55000,1
38.55833,2
38.56667,2
38.57500,3
38.58333,3
38.59167,4
38.60000,4
38.60833,4
38.61667,5
38.62500,5
38.63333,5
38.64167,5
38.65000,5
38.65833,6
38.66667,6
38.67500,6
38.68333,6
38.69167,7
38.70000,7
38.70833,7
38.71667,7
38.72500,7
38.73333,8
38.74167,8
38.75000,9
38.75833,9
38.76667,9
38.77500,8
38.78333,8
38.79167,8
38.80000,8
38.80833,8
38.81667,8
38.82500,8
38.83333,7
38.84167,7
38.85000,7
38.85833,7
38.86667,7
38.87500,7
38.88333,6
38.89167,6
38.90000,6
38.90833,6
38.91667,6
38.92500,6
38.93333,5
38.94167,5
38.95000,5
38.95833,4
38.96667,4
38.97500,3
38.98333,3
38.99167,2
39.00000,2
39.00833,2
39.01667,2
39.02500,2
39.03333,1
39.04167,1
39.05000,-0
39.05833,-1
39.06667,-1
39.07500,-2
39.08333,-2
39.09167,-3
39.10000,-3
39.10833,-4
39.11667,-4
39.12500,-4
39.13333,-4
39.14167,-4
39.15000,-5
39.15833,-5
39.16667,-5
39.17500,-5
39.18333,-6
39.19167,-6
39.20000,-7
39.20833,-7
39.21667,-8
39.22500,-8
39.23333,-8
39.24167,-9
39.25000,-9
39.25833,-10
39.26667,-10
39.27500,-10
39.28333,-11
39.29167,-11
39.30000,-11
39.30833,-11
39.31667,-11
39.32500,-11
39.33333,-12
39.34167,-12
39.35000,-12
39.35833,-12
39.36667,-12
39.37500,-13
39.38333,-13
39.39167,-13
39.40000,-12
39.40833,-12
39.41667,-12
39.42500,-12
39.43333,-12
39.44167,-13
39.45000,-13
39.45833,-12
39.46667,-12
39.47500,-12
39.48333,-12
39.49167,-13
39.50000,-13
39.50833,-13
39.51667,-13
39.52500,-13
39.53333,-13
39.54167,-13
39.55000,-13
39.55833,-13
39.56667,-12
39.57500,-12
39.58333,-12
39.59167,-11
39.60000,-11
39.60833,-11
39.61667,-11
39.62500,-11
39.63333,-11
39.64167,-11
39.65000,-11
39.65833,-11
39.66667,-11
39.67500,-11
39.68333,-11
39.69167,-11
39.70000,-11
39.70833,-11
39.71667,-11
39.72500,-11
39.73333,-10
39.74167,-10
39.75000,-10
39.75833,-10
39.76667,-10
39.77500,-11
39.78333,-10
39.79167,-10
39.80000,-10
39.80833,-10
39.81667,-10
39.82500,-10
39.83333,-9
39.84167,-9
39.85000,-9
39.85833,-8
39.86667,-8
39.87500,-8
39.88333,-7
39.89167,-7
39.90000,-7
39.90833,-7
39.91667,-7
39.92500,-7
39.93333,-7
39.94167,-7
39.95000,-7
39.95833,-6
39.96667,-6
39.97500,-5
39.98333,-5
39.99167,-5
40.00000,-4

