[Header]
Application Name,LabSolutions
Version,5.97 SP1
Data File Name,C:\Users\cremerlab\Desktop\griffin\2021-04-06_REL606_DM_glucose_turnover\2021-04-06_REL606_DM_glucose_turnover_462021_006_006.lcd
Output Date,4/6/2021
Output Time,9:18:00 PM

[File Information]
Type,Data File
Generated,4/6/2021 8:37:41 PM
Generated by,System Administrator
Modified,4/6/2021 9:18:00 PM
Modified by,System Administrator

[Sample Information]
Operator Name,System Administrator
Acquired,4/6/2021 8:37:59 PM
Sample Type,1:Standard
Level,6
Sample Name,2021-04-04_REL606_replicate_001_timepoint_006
Sample ID,006
ISTD Amount1,1
ISTD Amount2,1
ISTD Amount3,1
ISTD Amount4,1
ISTD Amount5,1
ISTD Amount6,1
ISTD Amount7,1
ISTD Amount8,1
ISTD Amount9,1
ISTD Amount10,1
ISTD Amount11,1
ISTD Amount12,1
ISTD Amount13,1
ISTD Amount14,1
ISTD Amount15,1
ISTD Amount16,1
ISTD Amount17,1
ISTD Amount18,1
ISTD Amount19,1
ISTD Amount20,1
ISTD Amount21,1
ISTD Amount22,1
ISTD Amount23,1
ISTD Amount24,1
ISTD Amount25,1
ISTD Amount26,1
ISTD Amount27,1
ISTD Amount28,1
ISTD Amount29,1
ISTD Amount30,1
ISTD Amount31,1
ISTD Amount32,1
Sample Amount,1
Dilution Factor,1
Vial#,6
Injection Volume,20

[Original Files]
Data File,C:\Users\cremerlab\Desktop\griffin\2021-04-06_REL606_DM_glucose_turnover\2021-04-06_REL606_DM_glucose_turnover_462021_006_006.lcd
Method File,C:\Users\cremerlab\Desktop\griffin\2.5mM_H2SO4_mobile_phase.lcm
Batch File,C:\Users\cremerlab\Desktop\griffin\2021-04-06_REL606_DM_glucose_turnover\2021-04-06_REL606_DM_glucose_turnover.lcb
Report Format File,c:\LabSolutions\System\DEFAULT.lsr

[File Description]


[Configuration]
Instrument Name,HPLC-PC-Instrument1
Instrument #,1
Line #,1
# of Detectors,2
Detector ID,Detector A,Detector B
Detector Name,Detector A,Detector B
# of Channels,1,1

[Peak Table(Detector A)]
# of Peaks,0

[Peak Table(Detector B)]
# of Peaks,6
Peak#,R.Time,I.Time,F.Time,Area,Height,A/H,Conc.,Mark,ID#,Name,k',Plate #,Plate Ht.,Tailing,Resolution,Sep.Factor,Area Ratio,Height Ratio,Conc. %,Norm Conc.
1,10.883,10.408,11.933,236228,13724,17.212,8.087,   ,,,0.000,9140,16.411,1.049,0.000,0.000,0,0,0.000,0.000
2,13.906,12.550,14.183,1615834,43550,37.103,55.319,   ,,,0.278,3188,47.056,0.000,4.197,0.000,0,0,0.000,0.000
3,14.323,14.183,14.975,157552,8425,18.701,5.394, V ,,,0.316,6944,21.603,0.000,0.499,1.138,0,0,0.000,0.000
4,15.672,14.975,17.500,899824,35908,25.059,30.806, V ,,,0.440,9221,16.267,1.150,2.013,1.392,0,0,0.000,0.000
5,19.068,18.750,19.542,2122,94,22.592,0.073,   ,,,0.752,15073,9.952,1.177,5.330,1.709,0,0,0.000,0.000
6,25.027,24.525,25.667,9398,325,28.948,0.322,   ,,,1.300,16500,9.091,1.075,8.510,1.728,0,0,0.000,0.000

[LC Chromatogram(Detector B-Ch1)]
Interval(msec),500
# of Points,4801
Start Time(min),0.000
End Time(min),40.000
Intensity Units,mV
Intensity Multiplier,0.001
R.Time (min),Intensity
0.00000,3
0.00833,3
0.01667,0
0.02500,0
0.03333,1
0.04167,1
0.05000,1
0.05833,1
0.06667,1
0.07500,1
0.08333,1
0.09167,1
0.10000,1
0.10833,2
0.11667,2
0.12500,2
0.13333,2
0.14167,3
0.15000,3
0.15833,3
0.16667,4
0.17500,4
0.18333,4
0.19167,3
0.20000,3
0.20833,3
0.21667,3
0.22500,3
0.23333,3
0.24167,3
0.25000,2
0.25833,2
0.26667,2
0.27500,2
0.28333,2
0.29167,2
0.30000,2
0.30833,3
0.31667,3
0.32500,2
0.33333,2
0.34167,1
0.35000,1
0.35833,1
0.36667,1
0.37500,1
0.38333,1
0.39167,1
0.40000,1
0.40833,1
0.41667,2
0.42500,2
0.43333,1
0.44167,1
0.45000,1
0.45833,1
0.46667,1
0.47500,1
0.48333,0
0.49167,1
0.50000,1
0.50833,1
0.51667,1
0.52500,1
0.53333,1
0.54167,1
0.55000,1
0.55833,1
0.56667,1
0.57500,0
0.58333,0
0.59167,-0
0.60000,-1
0.60833,-1
0.61667,-1
0.62500,-1
0.63333,-1
0.64167,-1
0.65000,-1
0.65833,-1
0.66667,-1
0.67500,-1
0.68333,-1
0.69167,-1
0.70000,-1
0.70833,-2
0.71667,-2
0.72500,-2
0.73333,-3
0.74167,-3
0.75000,-3
0.75833,-4
0.76667,-4
0.77500,-4
0.78333,-4
0.79167,-4
0.80000,-4
0.80833,-4
0.81667,-4
0.82500,-4
0.83333,-5
0.84167,-4
0.85000,-5
0.85833,-5
0.86667,-5
0.87500,-5
0.88333,-5
0.89167,-5
0.90000,-4
0.90833,-4
0.91667,-3
0.92500,-3
0.93333,-2
0.94167,-2
0.95000,-2
0.95833,-2
0.96667,-2
0.97500,-2
0.98333,-2
0.99167,-2
1.00000,-2
1.00833,-1
1.01667,-1
1.02500,-1
1.03333,-1
1.04167,-0
1.05000,0
1.05833,1
1.06667,1
1.07500,1
1.08333,2
1.09167,2
1.10000,2
1.10833,2
1.11667,3
1.12500,3
1.13333,4
1.14167,4
1.15000,4
1.15833,4
1.16667,4
1.17500,5
1.18333,5
1.19167,5
1.20000,5
1.20833,5
1.21667,6
1.22500,6
1.23333,6
1.24167,6
1.25000,6
1.25833,6
1.26667,6
1.27500,6
1.28333,6
1.29167,6
1.30000,6
1.30833,6
1.31667,6
1.32500,6
1.33333,6
1.34167,6
1.35000,6
1.35833,5
1.36667,5
1.37500,5
1.38333,5
1.39167,4
1.40000,4
1.40833,4
1.41667,4
1.42500,4
1.43333,3
1.44167,3
1.45000,2
1.45833,2
1.46667,1
1.47500,1
1.48333,1
1.49167,0
1.50000,-0
1.50833,-1
1.51667,-1
1.52500,-1
1.53333,-1
1.54167,-1
1.55000,-2
1.55833,-2
1.56667,-2
1.57500,-2
1.58333,-3
1.59167,-3
1.60000,-3
1.60833,-3
1.61667,-3
1.62500,-3
1.63333,-3
1.64167,-3
1.65000,-3
1.65833,-3
1.66667,-3
1.67500,-3
1.68333,-3
1.69167,-4
1.70000,-4
1.70833,-4
1.71667,-4
1.72500,-4
1.73333,-4
1.74167,-3
1.75000,-3
1.75833,-3
1.76667,-3
1.77500,-3
1.78333,-4
1.79167,-4
1.80000,-4
1.80833,-3
1.81667,-3
1.82500,-3
1.83333,-3
1.84167,-3
1.85000,-3
1.85833,-3
1.86667,-3
1.87500,-3
1.88333,-3
1.89167,-2
1.90000,-2
1.90833,-2
1.91667,-1
1.92500,-1
1.93333,-1
1.94167,-1
1.95000,-1
1.95833,-1
1.96667,-0
1.97500,-0
1.98333,-0
1.99167,0
2.00000,0
2.00833,1
2.01667,1
2.02500,1
2.03333,1
2.04167,1
2.05000,1
2.05833,2
2.06667,2
2.07500,2
2.08333,2
2.09167,3
2.10000,3
2.10833,3
2.11667,3
2.12500,3
2.13333,2
2.14167,2
2.15000,2
2.15833,2
2.16667,3
2.17500,3
2.18333,3
2.19167,3
2.20000,3
2.20833,4
2.21667,4
2.22500,4
2.23333,4
2.24167,4
2.25000,4
2.25833,4
2.26667,4
2.27500,4
2.28333,4
2.29167,5
2.30000,5
2.30833,5
2.31667,5
2.32500,5
2.33333,5
2.34167,4
2.35000,4
2.35833,4
2.36667,4
2.37500,4
2.38333,4
2.39167,4
2.40000,4
2.40833,4
2.41667,4
2.42500,4
2.43333,4
2.44167,4
2.45000,4
2.45833,4
2.46667,3
2.47500,3
2.48333,3
2.49167,3
2.50000,3
2.50833,3
2.51667,3
2.52500,3
2.53333,3
2.54167,4
2.55000,3
2.55833,3
2.56667,3
2.57500,3
2.58333,2
2.59167,2
2.60000,2
2.60833,1
2.61667,1
2.62500,1
2.63333,1
2.64167,1
2.65000,0
2.65833,0
2.66667,0
2.67500,0
2.68333,0
2.69167,0
2.70000,0
2.70833,0
2.71667,-0
2.72500,0
2.73333,0
2.74167,-0
2.75000,-0
2.75833,-0
2.76667,-1
2.77500,-1
2.78333,-1
2.79167,-1
2.80000,-1
2.80833,-1
2.81667,-1
2.82500,-1
2.83333,-0
2.84167,-0
2.85000,-1
2.85833,-1
2.86667,-1
2.87500,-1
2.88333,-1
2.89167,-1
2.90000,-2
2.90833,-2
2.91667,-2
2.92500,-1
2.93333,-1
2.94167,-2
2.95000,-1
2.95833,-1
2.96667,-1
2.97500,-1
2.98333,-1
2.99167,-1
3.00000,-0
3.00833,-0
3.01667,0
3.02500,0
3.03333,0
3.04167,-0
3.05000,-0
3.05833,-0
3.06667,-0
3.07500,-0
3.08333,-0
3.09167,0
3.10000,0
3.10833,0
3.11667,0
3.12500,-0
3.13333,-0
3.14167,-0
3.15000,-0
3.15833,-0
3.16667,-0
3.17500,0
3.18333,0
3.19167,1
3.20000,1
3.20833,1
3.21667,1
3.22500,2
3.23333,2
3.24167,2
3.25000,3
3.25833,3
3.26667,3
3.27500,3
3.28333,4
3.29167,4
3.30000,4
3.30833,4
3.31667,4
3.32500,3
3.33333,3
3.34167,3
3.35000,3
3.35833,3
3.36667,3
3.37500,3
3.38333,4
3.39167,4
3.40000,4
3.40833,4
3.41667,4
3.42500,4
3.43333,4
3.44167,4
3.45000,4
3.45833,4
3.46667,4
3.47500,5
3.48333,5
3.49167,5
3.50000,4
3.50833,4
3.51667,4
3.52500,5
3.53333,5
3.54167,5
3.55000,4
3.55833,3
3.56667,3
3.57500,3
3.58333,3
3.59167,3
3.60000,4
3.60833,3
3.61667,3
3.62500,3
3.63333,3
3.64167,3
3.65000,2
3.65833,2
3.66667,2
3.67500,2
3.68333,2
3.69167,1
3.70000,1
3.70833,1
3.71667,0
3.72500,0
3.73333,0
3.74167,0
3.75000,0
3.75833,0
3.76667,0
3.77500,-0
3.78333,-1
3.79167,-1
3.80000,-1
3.80833,-1
3.81667,-2
3.82500,-2
3.83333,-2
3.84167,-2
3.85000,-2
3.85833,-2
3.86667,-2
3.87500,-1
3.88333,-1
3.89167,-1
3.90000,-1
3.90833,-1
3.91667,-1
3.92500,-1
3.93333,-1
3.94167,-2
3.95000,-2
3.95833,-2
3.96667,-1
3.97500,-1
3.98333,-1
3.99167,-1
4.00000,-1
4.00833,-1
4.01667,-1
4.02500,-1
4.03333,-1
4.04167,-1
4.05000,-1
4.05833,-1
4.06667,-1
4.07500,-1
4.08333,-2
4.09167,-2
4.10000,-2
4.10833,-2
4.11667,-2
4.12500,-1
4.13333,-1
4.14167,-1
4.15000,-1
4.15833,-1
4.16667,-1
4.17500,-1
4.18333,-1
4.19167,-1
4.20000,-1
4.20833,-0
4.21667,-0
4.22500,-0
4.23333,-0
4.24167,-0
4.25000,0
4.25833,0
4.26667,0
4.27500,0
4.28333,0
4.29167,0
4.30000,0
4.30833,1
4.31667,1
4.32500,1
4.33333,1
4.34167,1
4.35000,1
4.35833,2
4.36667,3
4.37500,3
4.38333,3
4.39167,3
4.40000,3
4.40833,3
4.41667,3
4.42500,3
4.43333,3
4.44167,3
4.45000,3
4.45833,3
4.46667,4
4.47500,4
4.48333,4
4.49167,4
4.50000,4
4.50833,3
4.51667,3
4.52500,3
4.53333,3
4.54167,3
4.55000,3
4.55833,3
4.56667,3
4.57500,3
4.58333,2
4.59167,2
4.60000,2
4.60833,2
4.61667,1
4.62500,1
4.63333,1
4.64167,1
4.65000,1
4.65833,1
4.66667,1
4.67500,1
4.68333,1
4.69167,1
4.70000,1
4.70833,0
4.71667,0
4.72500,0
4.73333,0
4.74167,-0
4.75000,-0
4.75833,-1
4.76667,-1
4.77500,-2
4.78333,-2
4.79167,-3
4.80000,-3
4.80833,-3
4.81667,-3
4.82500,-3
4.83333,-3
4.84167,-3
4.85000,-3
4.85833,-3
4.86667,-3
4.87500,-4
4.88333,-4
4.89167,-4
4.90000,-4
4.90833,-5
4.91667,-5
4.92500,-5
4.93333,-5
4.94167,-6
4.95000,-6
4.95833,-6
4.96667,-6
4.97500,-6
4.98333,-6
4.99167,-7
5.00000,-7
5.00833,-7
5.01667,-7
5.02500,-7
5.03333,-7
5.04167,-7
5.05000,-7
5.05833,-7
5.06667,-7
5.07500,-7
5.08333,-7
5.09167,-7
5.10000,-7
5.10833,-7
5.11667,-7
5.12500,-7
5.13333,-7
5.14167,-7
5.15000,-7
5.15833,-6
5.16667,-6
5.17500,-6
5.18333,-6
5.19167,-7
5.20000,-7
5.20833,-6
5.21667,-6
5.22500,-6
5.23333,-6
5.24167,-6
5.25000,-6
5.25833,-5
5.26667,-5
5.27500,-5
5.28333,-4
5.29167,-5
5.30000,-4
5.30833,-4
5.31667,-3
5.32500,-3
5.33333,-3
5.34167,-3
5.35000,-2
5.35833,-2
5.36667,-2
5.37500,-1
5.38333,-1
5.39167,-1
5.40000,-1
5.40833,-1
5.41667,-1
5.42500,-0
5.43333,-0
5.44167,-0
5.45000,0
5.45833,0
5.46667,0
5.47500,1
5.48333,1
5.49167,1
5.50000,1
5.50833,1
5.51667,1
5.52500,1
5.53333,1
5.54167,1
5.55000,1
5.55833,1
5.56667,1
5.57500,1
5.58333,1
5.59167,1
5.60000,1
5.60833,1
5.61667,1
5.62500,1
5.63333,1
5.64167,1
5.65000,1
5.65833,1
5.66667,1
5.67500,0
5.68333,-0
5.69167,-0
5.70000,-1
5.70833,-1
5.71667,-1
5.72500,-2
5.73333,-2
5.74167,-2
5.75000,-2
5.75833,-2
5.76667,-3
5.77500,-3
5.78333,-3
5.79167,-3
5.80000,-3
5.80833,-4
5.81667,-4
5.82500,-4
5.83333,-4
5.84167,-4
5.85000,-5
5.85833,-5
5.86667,-5
5.87500,-5
5.88333,-5
5.89167,-5
5.90000,-5
5.90833,-5
5.91667,-5
5.92500,-5
5.93333,-5
5.94167,-5
5.95000,-6
5.95833,-6
5.96667,-6
5.97500,-6
5.98333,-6
5.99167,-6
6.00000,-6
6.00833,-6
6.01667,-6
6.02500,-6
6.03333,-6
6.04167,-6
6.05000,-6
6.05833,-6
6.06667,-7
6.07500,-7
6.08333,-7
6.09167,-6
6.10000,-6
6.10833,-6
6.11667,-6
6.12500,-6
6.13333,-6
6.14167,-6
6.15000,-7
6.15833,-7
6.16667,-6
6.17500,-6
6.18333,-6
6.19167,-6
6.20000,-6
6.20833,-6
6.21667,-6
6.22500,-6
6.23333,-6
6.24167,-6
6.25000,-6
6.25833,-7
6.26667,-7
6.27500,-6
6.28333,-6
6.29167,-6
6.30000,-6
6.30833,-6
6.31667,-6
6.32500,-6
6.33333,-6
6.34167,-6
6.35000,-6
6.35833,-6
6.36667,-5
6.37500,-5
6.38333,-5
6.39167,-5
6.40000,-5
6.40833,-4
6.41667,-4
6.42500,-4
6.43333,-4
6.44167,-4
6.45000,-4
6.45833,-4
6.46667,-4
6.47500,-4
6.48333,-3
6.49167,-3
6.50000,-3
6.50833,-2
6.51667,-2
6.52500,-2
6.53333,-2
6.54167,-2
6.55000,-2
6.55833,-2
6.56667,-2
6.57500,-1
6.58333,-1
6.59167,-1
6.60000,-0
6.60833,-0
6.61667,-0
6.62500,-0
6.63333,-0
6.64167,-0
6.65000,0
6.65833,0
6.66667,1
6.67500,1
6.68333,1
6.69167,1
6.70000,1
6.70833,1
6.71667,1
6.72500,1
6.73333,1
6.74167,1
6.75000,2
6.75833,2
6.76667,2
6.77500,2
6.78333,2
6.79167,2
6.80000,3
6.80833,3
6.81667,3
6.82500,3
6.83333,3
6.84167,3
6.85000,3
6.85833,3
6.86667,2
6.87500,2
6.88333,2
6.89167,2
6.90000,2
6.90833,1
6.91667,1
6.92500,1
6.93333,1
6.94167,0
6.95000,0
6.95833,0
6.96667,0
6.97500,-0
6.98333,-0
6.99167,-0
7.00000,-0
7.00833,-1
7.01667,-1
7.02500,-1
7.03333,-1
7.04167,-1
7.05000,-1
7.05833,-2
7.06667,-2
7.07500,-2
7.08333,-2
7.09167,-2
7.10000,-2
7.10833,-2
7.11667,-3
7.12500,-2
7.13333,-2
7.14167,-2
7.15000,-3
7.15833,-3
7.16667,-3
7.17500,-3
7.18333,-3
7.19167,-2
7.20000,-3
7.20833,-3
7.21667,-3
7.22500,-3
7.23333,-3
7.24167,-3
7.25000,-3
7.25833,-3
7.26667,-3
7.27500,-3
7.28333,-3
7.29167,-3
7.30000,-3
7.30833,-2
7.31667,-2
7.32500,-2
7.33333,-2
7.34167,-2
7.35000,-2
7.35833,-1
7.36667,-1
7.37500,-1
7.38333,-0
7.39167,-1
7.40000,-1
7.40833,-1
7.41667,-0
7.42500,-0
7.43333,-1
7.44167,-1
7.45000,-1
7.45833,-0
7.46667,-0
7.47500,0
7.48333,0
7.49167,0
7.50000,0
7.50833,0
7.51667,1
7.52500,1
7.53333,1
7.54167,1
7.55000,1
7.55833,1
7.56667,2
7.57500,1
7.58333,2
7.59167,2
7.60000,2
7.60833,2
7.61667,2
7.62500,2
7.63333,2
7.64167,2
7.65000,1
7.65833,1
7.66667,1
7.67500,2
7.68333,2
7.69167,2
7.70000,2
7.70833,2
7.71667,2
7.72500,2
7.73333,2
7.74167,1
7.75000,1
7.75833,1
7.76667,1
7.77500,1
7.78333,1
7.79167,1
7.80000,0
7.80833,0
7.81667,0
7.82500,-0
7.83333,-0
7.84167,-0
7.85000,-1
7.85833,-1
7.86667,-1
7.87500,-1
7.88333,-1
7.89167,-1
7.90000,-2
7.90833,-2
7.91667,-2
7.92500,-2
7.93333,-2
7.94167,-2
7.95000,-3
7.95833,-3
7.96667,-4
7.97500,-4
7.98333,-4
7.99167,-4
8.00000,-4
8.00833,-4
8.01667,-5
8.02500,-5
8.03333,-5
8.04167,-6
8.05000,-6
8.05833,-6
8.06667,-6
8.07500,-6
8.08333,-6
8.09167,-6
8.10000,-6
8.10833,-7
8.11667,-7
8.12500,-7
8.13333,-7
8.14167,-7
8.15000,-7
8.15833,-7
8.16667,-7
8.17500,-6
8.18333,-6
8.19167,-7
8.20000,-6
8.20833,-6
8.21667,-6
8.22500,-6
8.23333,-6
8.24167,-6
8.25000,-6
8.25833,-7
8.26667,-6
8.27500,-6
8.28333,-6
8.29167,-6
8.30000,-6
8.30833,-6
8.31667,-6
8.32500,-5
8.33333,-5
8.34167,-5
8.35000,-5
8.35833,-4
8.36667,-4
8.37500,-4
8.38333,-4
8.39167,-4
8.40000,-4
8.40833,-4
8.41667,-4
8.42500,-3
8.43333,-3
8.44167,-3
8.45000,-3
8.45833,-3
8.46667,-3
8.47500,-3
8.48333,-3
8.49167,-3
8.50000,-2
8.50833,-2
8.51667,-2
8.52500,-2
8.53333,-2
8.54167,-1
8.55000,-1
8.55833,-1
8.56667,-0
8.57500,0
8.58333,0
8.59167,0
8.60000,-0
8.60833,-0
8.61667,-1
8.62500,-1
8.63333,-1
8.64167,-0
8.65000,-0
8.65833,-0
8.66667,-0
8.67500,-1
8.68333,-1
8.69167,-1
8.70000,-1
8.70833,-1
8.71667,-2
8.72500,-1
8.73333,-1
8.74167,-2
8.75000,-2
8.75833,-2
8.76667,-2
8.77500,-2
8.78333,-2
8.79167,-2
8.80000,-2
8.80833,-2
8.81667,-1
8.82500,-1
8.83333,-1
8.84167,-2
8.85000,-1
8.85833,-1
8.86667,-2
8.87500,-2
8.88333,-3
8.89167,-3
8.90000,-3
8.90833,-4
8.91667,-4
8.92500,-4
8.93333,-4
8.94167,-5
8.95000,-5
8.95833,-5
8.96667,-5
8.97500,-5
8.98333,-6
8.99167,-6
9.00000,-6
9.00833,-6
9.01667,-7
9.02500,-7
9.03333,-7
9.04167,-7
9.05000,-7
9.05833,-7
9.06667,-7
9.07500,-7
9.08333,-7
9.09167,-7
9.10000,-7
9.10833,-7
9.11667,-7
9.12500,-7
9.13333,-8
9.14167,-8
9.15000,-8
9.15833,-7
9.16667,-7
9.17500,-7
9.18333,-8
9.19167,-8
9.20000,-8
9.20833,-8
9.21667,-8
9.22500,-9
9.23333,-9
9.24167,-9
9.25000,-8
9.25833,-8
9.26667,-8
9.27500,-8
9.28333,-7
9.29167,-7
9.30000,-7
9.30833,-8
9.31667,-8
9.32500,-8
9.33333,-8
9.34167,-7
9.35000,-7
9.35833,-7
9.36667,-6
9.37500,-6
9.38333,-6
9.39167,-6
9.40000,-6
9.40833,-6
9.41667,-5
9.42500,-5
9.43333,-5
9.44167,-4
9.45000,-4
9.45833,-4
9.46667,-4
9.47500,-4
9.48333,-4
9.49167,-4
9.50000,-4
9.50833,-3
9.51667,-3
9.52500,-3
9.53333,-3
9.54167,-2
9.55000,-2
9.55833,-2
9.56667,-2
9.57500,-2
9.58333,-1
9.59167,-1
9.60000,-1
9.60833,-1
9.61667,-0
9.62500,-0
9.63333,-0
9.64167,-1
9.65000,-1
9.65833,-1
9.66667,-1
9.67500,-1
9.68333,-1
9.69167,-1
9.70000,-1
9.70833,-0
9.71667,-0
9.72500,0
9.73333,0
9.74167,1
9.75000,1
9.75833,1
9.76667,1
9.77500,1
9.78333,1
9.79167,1
9.80000,1
9.80833,1
9.81667,1
9.82500,1
9.83333,1
9.84167,1
9.85000,1
9.85833,1
9.86667,1
9.87500,1
9.88333,1
9.89167,1
9.90000,1
9.90833,1
9.91667,1
9.92500,1
9.93333,1
9.94167,1
9.95000,1
9.95833,1
9.96667,0
9.97500,0
9.98333,0
9.99167,-0
10.00000,0
10.00833,0
10.01667,1
10.02500,1
10.03333,1
10.04167,1
10.05000,0
10.05833,0
10.06667,0
10.07500,1
10.08333,1
10.09167,1
10.10000,1
10.10833,1
10.11667,0
10.12500,0
10.13333,0
10.14167,0
10.15000,-0
10.15833,-0
10.16667,-1
10.17500,-1
10.18333,-1
10.19167,-1
10.20000,-1
10.20833,-1
10.21667,-1
10.22500,-1
10.23333,-1
10.24167,-1
10.25000,-1
10.25833,-1
10.26667,-1
10.27500,-2
10.28333,-2
10.29167,-3
10.30000,-3
10.30833,-3
10.31667,-3
10.32500,-3
10.33333,-3
10.34167,-3
10.35000,-3
10.35833,-3
10.36667,-3
10.37500,-3
10.38333,-3
10.39167,-3
10.40000,-2
10.40833,-2
10.41667,-1
10.42500,0
10.43333,1
10.44167,3
10.45000,5
10.45833,7
10.46667,10
10.47500,14
10.48333,19
10.49167,25
10.50000,33
10.50833,43
10.51667,55
10.52500,71
10.53333,92
10.54167,117
10.55000,148
10.55833,187
10.56667,235
10.57500,292
10.58333,362
10.59167,445
10.60000,544
10.60833,661
10.61667,797
10.62500,955
10.63333,1137
10.64167,1345
10.65000,1580
10.65833,1845
10.66667,2141
10.67500,2469
10.68333,2828
10.69167,3221
10.70000,3646
10.70833,4103
10.71667,4590
10.72500,5106
10.73333,5648
10.74167,6213
10.75000,6797
10.75833,7395
10.76667,8003
10.77500,8614
10.78333,9222
10.79167,9822
10.80000,10404
10.80833,10963
10.81667,11489
10.82500,11976
10.83333,12416
10.84167,12802
10.85000,13128
10.85833,13387
10.86667,13574
10.87500,13687
10.88333,13723
10.89167,13680
10.90000,13559
10.90833,13363
10.91667,13095
10.92500,12759
10.93333,12361
10.94167,11907
10.95000,11407
10.95833,10867
10.96667,10297
10.97500,9706
10.98333,9101
10.99167,8492
11.00000,7886
11.00833,7288
11.01667,6706
11.02500,6145
11.03333,5607
11.04167,5096
11.05000,4615
11.05833,4165
11.06667,3746
11.07500,3360
11.08333,3004
11.09167,2679
11.10000,2384
11.10833,2116
11.11667,1875
11.12500,1658
11.13333,1464
11.14167,1291
11.15000,1137
11.15833,1001
11.16667,881
11.17500,775
11.18333,682
11.19167,600
11.20000,528
11.20833,466
11.21667,412
11.22500,365
11.23333,324
11.24167,289
11.25000,259
11.25833,233
11.26667,211
11.27500,191
11.28333,175
11.29167,161
11.30000,149
11.30833,139
11.31667,131
11.32500,123
11.33333,117
11.34167,112
11.35000,107
11.35833,102
11.36667,99
11.37500,95
11.38333,92
11.39167,89
11.40000,86
11.40833,83
11.41667,81
11.42500,79
11.43333,77
11.44167,74
11.45000,72
11.45833,70
11.46667,67
11.47500,65
11.48333,63
11.49167,61
11.50000,59
11.50833,57
11.51667,55
11.52500,52
11.53333,50
11.54167,48
11.55000,46
11.55833,44
11.56667,43
11.57500,41
11.58333,39
11.59167,37
11.60000,36
11.60833,35
11.61667,33
11.62500,31
11.63333,30
11.64167,28
11.65000,27
11.65833,26
11.66667,25
11.67500,23
11.68333,22
11.69167,21
11.70000,19
11.70833,18
11.71667,16
11.72500,15
11.73333,15
11.74167,14
11.75000,13
11.75833,12
11.76667,11
11.77500,11
11.78333,10
11.79167,9
11.80000,8
11.80833,7
11.81667,6
11.82500,5
11.83333,4
11.84167,4
11.85000,3
11.85833,3
11.86667,2
11.87500,1
11.88333,0
11.89167,-0
11.90000,-1
11.90833,-1
11.91667,-2
11.92500,-2
11.93333,-2
11.94167,-3
11.95000,-3
11.95833,-3
11.96667,-4
11.97500,-4
11.98333,-5
11.99167,-5
12.00000,-5
12.00833,-5
12.01667,-5
12.02500,-5
12.03333,-6
12.04167,-6
12.05000,-6
12.05833,-6
12.06667,-6
12.07500,-6
12.08333,-6
12.09167,-6
12.10000,-7
12.10833,-7
12.11667,-8
12.12500,-8
12.13333,-8
12.14167,-8
12.15000,-8
12.15833,-8
12.16667,-8
12.17500,-7
12.18333,-7
12.19167,-7
12.20000,-7
12.20833,-7
12.21667,-7
12.22500,-7
12.23333,-7
12.24167,-7
12.25000,-8
12.25833,-8
12.26667,-8
12.27500,-8
12.28333,-8
12.29167,-8
12.30000,-7
12.30833,-7
12.31667,-7
12.32500,-6
12.33333,-6
12.34167,-6
12.35000,-6
12.35833,-6
12.36667,-6
12.37500,-6
12.38333,-5
12.39167,-5
12.40000,-5
12.40833,-4
12.41667,-4
12.42500,-4
12.43333,-4
12.44167,-4
12.45000,-4
12.45833,-4
12.46667,-3
12.47500,-3
12.48333,-2
12.49167,-2
12.50000,-2
12.50833,-2
12.51667,-1
12.52500,-1
12.53333,-1
12.54167,-0
12.55000,1
12.55833,2
12.56667,3
12.57500,4
12.58333,6
12.59167,7
12.60000,10
12.60833,12
12.61667,16
12.62500,20
12.63333,26
12.64167,32
12.65000,40
12.65833,51
12.66667,63
12.67500,77
12.68333,94
12.69167,114
12.70000,137
12.70833,164
12.71667,195
12.72500,229
12.73333,269
12.74167,314
12.75000,364
12.75833,420
12.76667,482
12.77500,551
12.78333,625
12.79167,706
12.80000,793
12.80833,888
12.81667,989
12.82500,1097
12.83333,1211
12.84167,1332
12.85000,1460
12.85833,1594
12.86667,1735
12.87500,1882
12.88333,2035
12.89167,2194
12.90000,2359
12.90833,2530
12.91667,2706
12.92500,2888
12.93333,3075
12.94167,3266
12.95000,3462
12.95833,3663
12.96667,3869
12.97500,4078
12.98333,4292
12.99167,4511
13.00000,4733
13.00833,4959
13.01667,5188
13.02500,5421
13.03333,5656
13.04167,5896
13.05000,6138
13.05833,6384
13.06667,6632
13.07500,6884
13.08333,7139
13.09167,7396
13.10000,7656
13.10833,7919
13.11667,8185
13.12500,8453
13.13333,8725
13.14167,8998
13.15000,9275
13.15833,9553
13.16667,9834
13.17500,10118
13.18333,10404
13.19167,10692
13.20000,10983
13.20833,11276
13.21667,11571
13.22500,11869
13.23333,12169
13.24167,12472
13.25000,12777
13.25833,13084
13.26667,13393
13.27500,13705
13.28333,14019
13.29167,14336
13.30000,14655
13.30833,14976
13.31667,15300
13.32500,15626
13.33333,15955
13.34167,16286
13.35000,16620
13.35833,16955
13.36667,17293
13.37500,17634
13.38333,17977
13.39167,18323
13.40000,18671
13.40833,19022
13.41667,19375
13.42500,19730
13.43333,20088
13.44167,20449
13.45000,20813
13.45833,21179
13.46667,21547
13.47500,21918
13.48333,22291
13.49167,22667
13.50000,23046
13.50833,23427
13.51667,23811
13.52500,24198
13.53333,24588
13.54167,24980
13.55000,25375
13.55833,25772
13.56667,26173
13.57500,26576
13.58333,26982
13.59167,27391
13.60000,27803
13.60833,28218
13.61667,28636
13.62500,29056
13.63333,29480
13.64167,29906
13.65000,30335
13.65833,30768
13.66667,31203
13.67500,31640
13.68333,32082
13.69167,32526
13.70000,32974
13.70833,33424
13.71667,33878
13.72500,34335
13.73333,34795
13.74167,35257
13.75000,35724
13.75833,36194
13.76667,36667
13.77500,37143
13.78333,37622
13.79167,38104
13.80000,38589
13.80833,39077
13.81667,39566
13.82500,40057
13.83333,40547
13.84167,41033
13.85000,41510
13.85833,41970
13.86667,42404
13.87500,42797
13.88333,43133
13.89167,43391
13.90000,43547
13.90833,43576
13.91667,43451
13.92500,43149
13.93333,42648
13.94167,41932
13.95000,40992
13.95833,39826
13.96667,38441
13.97500,36853
13.98333,35087
13.99167,33172
14.00000,31145
14.00833,29044
14.01667,26909
14.02500,24780
14.03333,22691
14.04167,20677
14.05000,18763
14.05833,16970
14.06667,15314
14.07500,13805
14.08333,12448
14.09167,11245
14.10000,10192
14.10833,9285
14.11667,8516
14.12500,7876
14.13333,7357
14.14167,6949
14.15000,6641
14.15833,6423
14.16667,6286
14.17500,6221
14.18333,6217
14.19167,6267
14.20000,6361
14.20833,6492
14.21667,6651
14.22500,6831
14.23333,7025
14.24167,7224
14.25000,7425
14.25833,7620
14.26667,7803
14.27500,7971
14.28333,8120
14.29167,8245
14.30000,8343
14.30833,8412
14.31667,8451
14.32500,8459
14.33333,8434
14.34167,8377
14.35000,8290
14.35833,8173
14.36667,8027
14.37500,7855
14.38333,7660
14.39167,7443
14.40000,7208
14.40833,6957
14.41667,6693
14.42500,6418
14.43333,6137
14.44167,5851
14.45000,5562
14.45833,5274
14.46667,4988
14.47500,4706
14.48333,4429
14.49167,4160
14.50000,3899
14.50833,3648
14.51667,3407
14.52500,3177
14.53333,2958
14.54167,2751
14.55000,2556
14.55833,2373
14.56667,2201
14.57500,2040
14.58333,1890
14.59167,1751
14.60000,1622
14.60833,1502
14.61667,1392
14.62500,1290
14.63333,1197
14.64167,1112
14.65000,1033
14.65833,961
14.66667,895
14.67500,834
14.68333,779
14.69167,729
14.70000,683
14.70833,642
14.71667,603
14.72500,568
14.73333,537
14.74167,508
14.75000,482
14.75833,458
14.76667,437
14.77500,418
14.78333,400
14.79167,383
14.80000,368
14.80833,354
14.81667,342
14.82500,331
14.83333,320
14.84167,311
14.85000,303
14.85833,295
14.86667,288
14.87500,282
14.88333,276
14.89167,272
14.90000,268
14.90833,264
14.91667,261
14.92500,258
14.93333,255
14.94167,254
14.95000,253
14.95833,252
14.96667,251
14.97500,251
14.98333,252
14.99167,253
15.00000,254
15.00833,256
15.01667,257
15.02500,260
15.03333,263
15.04167,266
15.05000,269
15.05833,273
15.06667,277
15.07500,281
15.08333,286
15.09167,290
15.10000,296
15.10833,302
15.11667,308
15.12500,315
15.13333,323
15.14167,332
15.15000,342
15.15833,354
15.16667,367
15.17500,383
15.18333,403
15.19167,426
15.20000,453
15.20833,486
15.21667,525
15.22500,572
15.23333,627
15.24167,692
15.25000,769
15.25833,860
15.26667,966
15.27500,1090
15.28333,1235
15.29167,1402
15.30000,1594
15.30833,1813
15.31667,2063
15.32500,2348
15.33333,2668
15.34167,3028
15.35000,3430
15.35833,3876
15.36667,4370
15.37500,4913
15.38333,5507
15.39167,6155
15.40000,6856
15.40833,7612
15.41667,8423
15.42500,9288
15.43333,10206
15.44167,11175
15.45000,12192
15.45833,13255
15.46667,14359
15.47500,15501
15.48333,16674
15.49167,17872
15.50000,19090
15.50833,20319
15.51667,21554
15.52500,22785
15.53333,24005
15.54167,25205
15.55000,26378
15.55833,27515
15.56667,28608
15.57500,29648
15.58333,30629
15.59167,31543
15.60000,32385
15.60833,33149
15.61667,33828
15.62500,34419
15.63333,34919
15.64167,35323
15.65000,35631
15.65833,35841
15.66667,35953
15.67500,35967
15.68333,35885
15.69167,35710
15.70000,35443
15.70833,35089
15.71667,34651
15.72500,34134
15.73333,33543
15.74167,32884
15.75000,32162
15.75833,31384
15.76667,30556
15.77500,29683
15.78333,28773
15.79167,27831
15.80000,26863
15.80833,25875
15.81667,24874
15.82500,23865
15.83333,22852
15.84167,21841
15.85000,20835
15.85833,19841
15.86667,18860
15.87500,17898
15.88333,16956
15.89167,16037
15.90000,15145
15.90833,14280
15.91667,13444
15.92500,12640
15.93333,11867
15.94167,11127
15.95000,10420
15.95833,9746
15.96667,9105
15.97500,8497
15.98333,7921
15.99167,7378
16.00000,6865
16.00833,6382
16.01667,5929
16.02500,5505
16.03333,5107
16.04167,4736
16.05000,4389
16.05833,4066
16.06667,3766
16.07500,3489
16.08333,3231
16.09167,2992
16.10000,2770
16.10833,2566
16.11667,2377
16.12500,2203
16.13333,2042
16.14167,1894
16.15000,1759
16.15833,1634
16.16667,1520
16.17500,1414
16.18333,1318
16.19167,1229
16.20000,1147
16.20833,1072
16.21667,1004
16.22500,941
16.23333,884
16.24167,831
16.25000,783
16.25833,739
16.26667,698
16.27500,660
16.28333,626
16.29167,594
16.30000,565
16.30833,539
16.31667,515
16.32500,493
16.33333,472
16.34167,453
16.35000,435
16.35833,419
16.36667,403
16.37500,389
16.38333,376
16.39167,364
16.40000,353
16.40833,343
16.41667,333
16.42500,324
16.43333,316
16.44167,309
16.45000,302
16.45833,295
16.46667,288
16.47500,282
16.48333,277
16.49167,272
16.50000,267
16.50833,262
16.51667,258
16.52500,254
16.53333,251
16.54167,247
16.55000,244
16.55833,240
16.56667,238
16.57500,235
16.58333,232
16.59167,229
16.60000,227
16.60833,225
16.61667,223
16.62500,221
16.63333,219
16.64167,217
16.65000,215
16.65833,213
16.66667,211
16.67500,209
16.68333,208
16.69167,206
16.70000,205
16.70833,203
16.71667,201
16.72500,200
16.73333,199
16.74167,197
16.75000,196
16.75833,194
16.76667,193
16.77500,192
16.78333,191
16.79167,189
16.80000,188
16.80833,186
16.81667,185
16.82500,184
16.83333,182
16.84167,180
16.85000,178
16.85833,176
16.86667,175
16.87500,174
16.88333,172
16.89167,170
16.90000,169
16.90833,168
16.91667,166
16.92500,165
16.93333,164
16.94167,162
16.95000,161
16.95833,159
16.96667,158
16.97500,156
16.98333,155
16.99167,153
17.00000,152
17.00833,150
17.01667,148
17.02500,147
17.03333,145
17.04167,144
17.05000,143
17.05833,141
17.06667,140
17.07500,139
17.08333,137
17.09167,136
17.10000,135
17.10833,134
17.11667,133
17.12500,131
17.13333,130
17.14167,129
17.15000,128
17.15833,126
17.16667,125
17.17500,124
17.18333,123
17.19167,122
17.20000,121
17.20833,119
17.21667,119
17.22500,117
17.23333,116
17.24167,115
17.25000,114
17.25833,113
17.26667,112
17.27500,111
17.28333,110
17.29167,109
17.30000,108
17.30833,108
17.31667,107
17.32500,106
17.33333,105
17.34167,104
17.35000,104
17.35833,103
17.36667,103
17.37500,102
17.38333,101
17.39167,101
17.40000,100
17.40833,100
17.41667,99
17.42500,98
17.43333,98
17.44167,97
17.45000,96
17.45833,96
17.46667,95
17.47500,95
17.48333,94
17.49167,94
17.50000,93
17.50833,93
17.51667,93
17.52500,93
17.53333,92
17.54167,92
17.55000,91
17.55833,90
17.56667,90
17.57500,89
17.58333,89
17.59167,89
17.60000,89
17.60833,89
17.61667,88
17.62500,88
17.63333,88
17.64167,88
17.65000,88
17.65833,88
17.66667,87
17.67500,88
17.68333,88
17.69167,88
17.70000,88
17.70833,88
17.71667,87
17.72500,87
17.73333,87
17.74167,87
17.75000,86
17.75833,87
17.76667,87
17.77500,86
17.78333,86
17.79167,86
17.80000,85
17.80833,85
17.81667,84
17.82500,84
17.83333,84
17.84167,84
17.85000,84
17.85833,83
17.86667,83
17.87500,82
17.88333,82
17.89167,82
17.90000,82
17.90833,82
17.91667,82
17.92500,81
17.93333,81
17.94167,80
17.95000,79
17.95833,78
17.96667,77
17.97500,77
17.98333,76
17.99167,76
18.00000,75
18.00833,75
18.01667,75
18.02500,74
18.03333,74
18.04167,73
18.05000,73
18.05833,73
18.06667,72
18.07500,71
18.08333,71
18.09167,70
18.10000,69
18.10833,68
18.11667,68
18.12500,68
18.13333,67
18.14167,67
18.15000,66
18.15833,66
18.16667,65
18.17500,65
18.18333,65
18.19167,64
18.20000,64
18.20833,63
18.21667,63
18.22500,63
18.23333,62
18.24167,61
18.25000,61
18.25833,61
18.26667,60
18.27500,60
18.28333,60
18.29167,59
18.30000,58
18.30833,58
18.31667,57
18.32500,57
18.33333,56
18.34167,55
18.35000,55
18.35833,56
18.36667,56
18.37500,56
18.38333,56
18.39167,56
18.40000,56
18.40833,56
18.41667,56
18.42500,56
18.43333,56
18.44167,55
18.45000,55
18.45833,55
18.46667,54
18.47500,55
18.48333,55
18.49167,55
18.50000,55
18.50833,55
18.51667,55
18.52500,56
18.53333,56
18.54167,56
18.55000,56
18.55833,56
18.56667,56
18.57500,56
18.58333,56
18.59167,55
18.60000,56
18.60833,56
18.61667,56
18.62500,56
18.63333,56
18.64167,56
18.65000,56
18.65833,56
18.66667,57
18.67500,57
18.68333,58
18.69167,58
18.70000,58
18.70833,59
18.71667,59
18.72500,60
18.73333,61
18.74167,62
18.75000,63
18.75833,64
18.76667,66
18.77500,67
18.78333,69
18.79167,70
18.80000,72
18.80833,74
18.81667,76
18.82500,78
18.83333,80
18.84167,83
18.85000,85
18.85833,88
18.86667,91
18.87500,94
18.88333,97
18.89167,100
18.90000,103
18.90833,106
18.91667,109
18.92500,112
18.93333,116
18.94167,119
18.95000,121
18.95833,124
18.96667,127
18.97500,129
18.98333,132
18.99167,135
19.00000,137
19.00833,139
19.01667,141
19.02500,142
19.03333,144
19.04167,145
19.05000,146
19.05833,146
19.06667,146
19.07500,146
19.08333,146
19.09167,146
19.10000,145
19.10833,144
19.11667,143
19.12500,142
19.13333,140
19.14167,138
19.15000,136
19.15833,134
19.16667,131
19.17500,128
19.18333,125
19.19167,122
19.20000,119
19.20833,116
19.21667,114
19.22500,111
19.23333,108
19.24167,104
19.25000,101
19.25833,99
19.26667,96
19.27500,92
19.28333,89
19.29167,86
19.30000,83
19.30833,80
19.31667,77
19.32500,74
19.33333,71
19.34167,68
19.35000,66
19.35833,64
19.36667,62
19.37500,60
19.38333,58
19.39167,56
19.40000,54
19.40833,53
19.41667,52
19.42500,50
19.43333,49
19.44167,48
19.45000,47
19.45833,46
19.46667,45
19.47500,43
19.48333,42
19.49167,41
19.50000,40
19.50833,39
19.51667,39
19.52500,38
19.53333,38
19.54167,37
19.55000,37
19.55833,37
19.56667,37
19.57500,37
19.58333,37
19.59167,36
19.60000,36
19.60833,36
19.61667,35
19.62500,34
19.63333,34
19.64167,34
19.65000,34
19.65833,33
19.66667,33
19.67500,32
19.68333,32
19.69167,32
19.70000,32
19.70833,32
19.71667,32
19.72500,32
19.73333,31
19.74167,31
19.75000,30
19.75833,30
19.76667,30
19.77500,30
19.78333,30
19.79167,30
19.80000,30
19.80833,29
19.81667,29
19.82500,29
19.83333,29
19.84167,29
19.85000,29
19.85833,28
19.86667,28
19.87500,28
19.88333,28
19.89167,28
19.90000,28
19.90833,27
19.91667,27
19.92500,27
19.93333,27
19.94167,27
19.95000,27
19.95833,27
19.96667,26
19.97500,26
19.98333,26
19.99167,26
20.00000,26
20.00833,25
20.01667,24
20.02500,24
20.03333,24
20.04167,24
20.05000,23
20.05833,23
20.06667,22
20.07500,22
20.08333,22
20.09167,21
20.10000,21
20.10833,20
20.11667,20
20.12500,20
20.13333,20
20.14167,20
20.15000,20
20.15833,20
20.16667,19
20.17500,19
20.18333,19
20.19167,18
20.20000,18
20.20833,18
20.21667,18
20.22500,17
20.23333,17
20.24167,17
20.25000,16
20.25833,16
20.26667,16
20.27500,15
20.28333,15
20.29167,15
20.30000,15
20.30833,14
20.31667,14
20.32500,14
20.33333,15
20.34167,15
20.35000,14
20.35833,14
20.36667,14
20.37500,14
20.38333,13
20.39167,13
20.40000,13
20.40833,13
20.41667,13
20.42500,13
20.43333,13
20.44167,13
20.45000,13
20.45833,13
20.46667,13
20.47500,13
20.48333,13
20.49167,13
20.50000,13
20.50833,13
20.51667,13
20.52500,13
20.53333,13
20.54167,13
20.55000,13
20.55833,14
20.56667,14
20.57500,14
20.58333,14
20.59167,14
20.60000,14
20.60833,14
20.61667,14
20.62500,14
20.63333,15
20.64167,15
20.65000,15
20.65833,15
20.66667,15
20.67500,15
20.68333,15
20.69167,15
20.70000,15
20.70833,15
20.71667,15
20.72500,15
20.73333,15
20.74167,15
20.75000,15
20.75833,15
20.76667,15
20.77500,15
20.78333,15
20.79167,15
20.80000,15
20.80833,15
20.81667,15
20.82500,15
20.83333,15
20.84167,15
20.85000,15
20.85833,16
20.86667,16
20.87500,17
20.88333,17
20.89167,18
20.90000,17
20.90833,17
20.91667,17
20.92500,17
20.93333,16
20.94167,16
20.95000,16
20.95833,16
20.96667,16
20.97500,16
20.98333,16
20.99167,16
21.00000,16
21.00833,16
21.01667,16
21.02500,17
21.03333,17
21.04167,17
21.05000,17
21.05833,17
21.06667,17
21.07500,18
21.08333,18
21.09167,18
21.10000,18
21.10833,18
21.11667,18
21.12500,18
21.13333,19
21.14167,19
21.15000,19
21.15833,20
21.16667,20
21.17500,20
21.18333,20
21.19167,20
21.20000,20
21.20833,20
21.21667,20
21.22500,20
21.23333,19
21.24167,19
21.25000,19
21.25833,18
21.26667,18
21.27500,18
21.28333,18
21.29167,18
21.30000,18
21.30833,18
21.31667,18
21.32500,17
21.33333,17
21.34167,17
21.35000,17
21.35833,17
21.36667,17
21.37500,17
21.38333,17
21.39167,17
21.40000,17
21.40833,17
21.41667,16
21.42500,16
21.43333,16
21.44167,16
21.45000,15
21.45833,15
21.46667,14
21.47500,14
21.48333,14
21.49167,14
21.50000,14
21.50833,14
21.51667,14
21.52500,14
21.53333,14
21.54167,13
21.55000,13
21.55833,13
21.56667,13
21.57500,12
21.58333,12
21.59167,12
21.60000,12
21.60833,12
21.61667,13
21.62500,13
21.63333,13
21.64167,13
21.65000,13
21.65833,13
21.66667,13
21.67500,12
21.68333,12
21.69167,12
21.70000,12
21.70833,12
21.71667,12
21.72500,13
21.73333,13
21.74167,13
21.75000,13
21.75833,13
21.76667,13
21.77500,13
21.78333,13
21.79167,14
21.80000,14
21.80833,14
21.81667,13
21.82500,13
21.83333,13
21.84167,13
21.85000,14
21.85833,13
21.86667,14
21.87500,14
21.88333,13
21.89167,13
21.90000,14
21.90833,13
21.91667,13
21.92500,13
21.93333,13
21.94167,13
21.95000,13
21.95833,13
21.96667,13
21.97500,13
21.98333,13
21.99167,13
22.00000,12
22.00833,12
22.01667,12
22.02500,12
22.03333,12
22.04167,12
22.05000,12
22.05833,12
22.06667,11
22.07500,11
22.08333,10
22.09167,10
22.10000,10
22.10833,10
22.11667,10
22.12500,10
22.13333,9
22.14167,9
22.15000,9
22.15833,8
22.16667,8
22.17500,8
22.18333,7
22.19167,7
22.20000,7
22.20833,6
22.21667,6
22.22500,6
22.23333,6
22.24167,6
22.25000,6
22.25833,6
22.26667,5
22.27500,5
22.28333,5
22.29167,4
22.30000,4
22.30833,4
22.31667,3
22.32500,3
22.33333,3
22.34167,3
22.35000,3
22.35833,3
22.36667,3
22.37500,3
22.38333,3
22.39167,3
22.40000,3
22.40833,3
22.41667,3
22.42500,3
22.43333,3
22.44167,4
22.45000,4
22.45833,4
22.46667,4
22.47500,3
22.48333,3
22.49167,4
22.50000,4
22.50833,4
22.51667,5
22.52500,5
22.53333,5
22.54167,5
22.55000,5
22.55833,5
22.56667,6
22.57500,7
22.58333,7
22.59167,8
22.60000,8
22.60833,9
22.61667,10
22.62500,11
22.63333,11
22.64167,12
22.65000,12
22.65833,13
22.66667,13
22.67500,14
22.68333,15
22.69167,16
22.70000,17
22.70833,18
22.71667,18
22.72500,19
22.73333,20
22.74167,21
22.75000,22
22.75833,23
22.76667,24
22.77500,24
22.78333,25
22.79167,26
22.80000,27
22.80833,28
22.81667,28
22.82500,29
22.83333,30
22.84167,30
22.85000,31
22.85833,31
22.86667,31
22.87500,32
22.88333,33
22.89167,33
22.90000,33
22.90833,34
22.91667,34
22.92500,34
22.93333,35
22.94167,35
22.95000,35
22.95833,35
22.96667,35
22.97500,35
22.98333,34
22.99167,34
23.00000,34
23.00833,33
23.01667,33
23.02500,32
23.03333,31
23.04167,31
23.05000,30
23.05833,30
23.06667,29
23.07500,29
23.08333,28
23.09167,28
23.10000,28
23.10833,27
23.11667,26
23.12500,25
23.13333,25
23.14167,24
23.15000,24
23.15833,23
23.16667,22
23.17500,21
23.18333,21
23.19167,20
23.20000,19
23.20833,18
23.21667,17
23.22500,17
23.23333,16
23.24167,16
23.25000,16
23.25833,15
23.26667,14
23.27500,14
23.28333,13
23.29167,13
23.30000,12
23.30833,12
23.31667,11
23.32500,11
23.33333,10
23.34167,9
23.35000,9
23.35833,8
23.36667,8
23.37500,7
23.38333,7
23.39167,6
23.40000,6
23.40833,6
23.41667,6
23.42500,6
23.43333,6
23.44167,5
23.45000,5
23.45833,5
23.46667,4
23.47500,4
23.48333,4
23.49167,4
23.50000,4
23.50833,3
23.51667,3
23.52500,3
23.53333,3
23.54167,3
23.55000,3
23.55833,3
23.56667,3
23.57500,3
23.58333,3
23.59167,3
23.60000,3
23.60833,3
23.61667,3
23.62500,3
23.63333,4
23.64167,4
23.65000,4
23.65833,4
23.66667,4
23.67500,5
23.68333,5
23.69167,5
23.70000,5
23.70833,6
23.71667,6
23.72500,6
23.73333,6
23.74167,7
23.75000,7
23.75833,7
23.76667,7
23.77500,7
23.78333,7
23.79167,8
23.80000,8
23.80833,9
23.81667,9
23.82500,10
23.83333,10
23.84167,10
23.85000,10
23.85833,10
23.86667,10
23.87500,10
23.88333,11
23.89167,11
23.90000,11
23.90833,12
23.91667,12
23.92500,12
23.93333,12
23.94167,12
23.95000,13
23.95833,13
23.96667,13
23.97500,13
23.98333,13
23.99167,13
24.00000,12
24.00833,12
24.01667,12
24.02500,12
24.03333,12
24.04167,12
24.05000,12
24.05833,12
24.06667,12
24.07500,12
24.08333,11
24.09167,11
24.10000,11
24.10833,11
24.11667,10
24.12500,10
24.13333,9
24.14167,9
24.15000,9
24.15833,8
24.16667,8
24.17500,8
24.18333,8
24.19167,8
24.20000,8
24.20833,7
24.21667,7
24.22500,7
24.23333,7
24.24167,7
24.25000,6
24.25833,6
24.26667,6
24.27500,6
24.28333,5
24.29167,5
24.30000,5
24.30833,5
24.31667,4
24.32500,4
24.33333,4
24.34167,4
24.35000,4
24.35833,4
24.36667,4
24.37500,4
24.38333,4
24.39167,4
24.40000,4
24.40833,4
24.41667,4
24.42500,5
24.43333,5
24.44167,6
24.45000,6
24.45833,6
24.46667,6
24.47500,7
24.48333,8
24.49167,8
24.50000,9
24.50833,10
24.51667,11
24.52500,12
24.53333,13
24.54167,15
24.55000,16
24.55833,18
24.56667,20
24.57500,22
24.58333,24
24.59167,26
24.60000,29
24.60833,31
24.61667,34
24.62500,38
24.63333,41
24.64167,45
24.65000,49
24.65833,53
24.66667,57
24.67500,62
24.68333,67
24.69167,73
24.70000,78
24.70833,84
24.71667,91
24.72500,97
24.73333,103
24.74167,110
24.75000,117
24.75833,124
24.76667,132
24.77500,141
24.78333,149
24.79167,157
24.80000,166
24.80833,175
24.81667,183
24.82500,192
24.83333,201
24.84167,210
24.85000,218
24.85833,227
24.86667,236
24.87500,245
24.88333,253
24.89167,261
24.90000,269
24.90833,276
24.91667,283
24.92500,290
24.93333,297
24.94167,303
24.95000,309
24.95833,314
24.96667,318
24.97500,323
24.98333,326
24.99167,329
25.00000,331
25.00833,332
25.01667,334
25.02500,334
25.03333,334
25.04167,333
25.05000,332
25.05833,330
25.06667,328
25.07500,325
25.08333,322
25.09167,318
25.10000,313
25.10833,308
25.11667,303
25.12500,298
25.13333,292
25.14167,285
25.15000,279
25.15833,272
25.16667,265
25.17500,257
25.18333,249
25.19167,241
25.20000,233
25.20833,225
25.21667,217
25.22500,209
25.23333,200
25.24167,192
25.25000,184
25.25833,176
25.26667,169
25.27500,161
25.28333,153
25.29167,146
25.30000,139
25.30833,131
25.31667,124
25.32500,118
25.33333,111
25.34167,105
25.35000,99
25.35833,93
25.36667,87
25.37500,82
25.38333,77
25.39167,72
25.40000,68
25.40833,63
25.41667,59
25.42500,55
25.43333,52
25.44167,48
25.45000,45
25.45833,42
25.46667,39
25.47500,36
25.48333,33
25.49167,30
25.50000,27
25.50833,25
25.51667,23
25.52500,22
25.53333,20
25.54167,18
25.55000,16
25.55833,15
25.56667,14
25.57500,12
25.58333,11
25.59167,10
25.60000,10
25.60833,9
25.61667,8
25.62500,7
25.63333,7
25.64167,7
25.65000,6
25.65833,6
25.66667,5
25.67500,5
25.68333,5
25.69167,5
25.70000,4
25.70833,4
25.71667,4
25.72500,3
25.73333,3
25.74167,3
25.75000,3
25.75833,2
25.76667,2
25.77500,2
25.78333,2
25.79167,2
25.80000,1
25.80833,1
25.81667,1
25.82500,2
25.83333,2
25.84167,3
25.85000,3
25.85833,3
25.86667,2
25.87500,2
25.88333,2
25.89167,2
25.90000,3
25.90833,3
25.91667,3
25.92500,4
25.93333,4
25.94167,4
25.95000,5
25.95833,5
25.96667,5
25.97500,5
25.98333,6
25.99167,6
26.00000,5
26.00833,6
26.01667,6
26.02500,6
26.03333,7
26.04167,7
26.05000,7
26.05833,7
26.06667,7
26.07500,7
26.08333,7
26.09167,7
26.10000,7
26.10833,7
26.11667,8
26.12500,8
26.13333,8
26.14167,8
26.15000,9
26.15833,9
26.16667,9
26.17500,8
26.18333,8
26.19167,8
26.20000,8
26.20833,8
26.21667,8
26.22500,8
26.23333,9
26.24167,9
26.25000,8
26.25833,8
26.26667,8
26.27500,8
26.28333,8
26.29167,8
26.30000,8
26.30833,8
26.31667,9
26.32500,9
26.33333,9
26.34167,9
26.35000,8
26.35833,8
26.36667,7
26.37500,7
26.38333,7
26.39167,7
26.40000,7
26.40833,7
26.41667,7
26.42500,7
26.43333,7
26.44167,7
26.45000,7
26.45833,7
26.46667,7
26.47500,7
26.48333,6
26.49167,6
26.50000,6
26.50833,6
26.51667,6
26.52500,6
26.53333,6
26.54167,6
26.55000,6
26.55833,6
26.56667,6
26.57500,6
26.58333,6
26.59167,5
26.60000,5
26.60833,5
26.61667,5
26.62500,5
26.63333,5
26.64167,5
26.65000,5
26.65833,5
26.66667,5
26.67500,5
26.68333,5
26.69167,6
26.70000,6
26.70833,6
26.71667,6
26.72500,6
26.73333,6
26.74167,6
26.75000,6
26.75833,7
26.76667,7
26.77500,7
26.78333,7
26.79167,6
26.80000,6
26.80833,6
26.81667,6
26.82500,6
26.83333,7
26.84167,7
26.85000,7
26.85833,7
26.86667,7
26.87500,7
26.88333,8
26.89167,8
26.90000,8
26.90833,8
26.91667,8
26.92500,8
26.93333,9
26.94167,9
26.95000,9
26.95833,10
26.96667,10
26.97500,10
26.98333,10
26.99167,10
27.00000,10
27.00833,10
27.01667,11
27.02500,11
27.03333,11
27.04167,11
27.05000,11
27.05833,11
27.06667,12
27.07500,12
27.08333,12
27.09167,12
27.10000,12
27.10833,12
27.11667,12
27.12500,12
27.13333,12
27.14167,13
27.15000,13
27.15833,13
27.16667,13
27.17500,13
27.18333,13
27.19167,13
27.20000,13
27.20833,13
27.21667,13
27.22500,13
27.23333,14
27.24167,14
27.25000,14
27.25833,14
27.26667,14
27.27500,14
27.28333,14
27.29167,14
27.30000,14
27.30833,14
27.31667,14
27.32500,14
27.33333,14
27.34167,14
27.35000,13
27.35833,13
27.36667,12
27.37500,12
27.38333,12
27.39167,12
27.40000,12
27.40833,12
27.41667,12
27.42500,12
27.43333,12
27.44167,11
27.45000,11
27.45833,10
27.46667,10
27.47500,10
27.48333,10
27.49167,10
27.50000,9
27.50833,9
27.51667,9
27.52500,8
27.53333,8
27.54167,8
27.55000,8
27.55833,7
27.56667,7
27.57500,6
27.58333,6
27.59167,6
27.60000,5
27.60833,5
27.61667,5
27.62500,5
27.63333,4
27.64167,4
27.65000,4
27.65833,4
27.66667,3
27.67500,3
27.68333,3
27.69167,2
27.70000,1
27.70833,0
27.71667,-0
27.72500,-0
27.73333,-1
27.74167,-1
27.75000,-2
27.75833,-2
27.76667,-3
27.77500,-4
27.78333,-4
27.79167,-5
27.80000,-6
27.80833,-6
27.81667,-7
27.82500,-8
27.83333,-9
27.84167,-9
27.85000,-11
27.85833,-12
27.86667,-13
27.87500,-15
27.88333,-16
27.89167,-18
27.90000,-19
27.90833,-21
27.91667,-22
27.92500,-24
27.93333,-26
27.94167,-28
27.95000,-30
27.95833,-32
27.96667,-34
27.97500,-36
27.98333,-38
27.99167,-41
28.00000,-44
28.00833,-46
28.01667,-49
28.02500,-52
28.03333,-55
28.04167,-58
28.05000,-60
28.05833,-63
28.06667,-66
28.07500,-69
28.08333,-72
28.09167,-75
28.10000,-78
28.10833,-82
28.11667,-85
28.12500,-87
28.13333,-91
28.14167,-94
28.15000,-97
28.15833,-100
28.16667,-103
28.17500,-106
28.18333,-109
28.19167,-113
28.20000,-116
28.20833,-118
28.21667,-121
28.22500,-124
28.23333,-126
28.24167,-128
28.25000,-130
28.25833,-132
28.26667,-134
28.27500,-136
28.28333,-137
28.29167,-139
28.30000,-140
28.30833,-141
28.31667,-142
28.32500,-142
28.33333,-143
28.34167,-144
28.35000,-144
28.35833,-145
28.36667,-145
28.37500,-145
28.38333,-145
28.39167,-144
28.40000,-144
28.40833,-143
28.41667,-142
28.42500,-141
28.43333,-139
28.44167,-137
28.45000,-136
28.45833,-135
28.46667,-133
28.47500,-131
28.48333,-129
28.49167,-127
28.50000,-125
28.50833,-122
28.51667,-120
28.52500,-117
28.53333,-115
28.54167,-113
28.55000,-111
28.55833,-108
28.56667,-105
28.57500,-103
28.58333,-100
28.59167,-98
28.60000,-95
28.60833,-92
28.61667,-89
28.62500,-86
28.63333,-83
28.64167,-80
28.65000,-78
28.65833,-75
28.66667,-72
28.67500,-70
28.68333,-68
28.69167,-66
28.70000,-63
28.70833,-61
28.71667,-58
28.72500,-56
28.73333,-54
28.74167,-51
28.75000,-49
28.75833,-47
28.76667,-45
28.77500,-43
28.78333,-41
28.79167,-39
28.80000,-37
28.80833,-36
28.81667,-34
28.82500,-33
28.83333,-31
28.84167,-30
28.85000,-28
28.85833,-27
28.86667,-26
28.87500,-24
28.88333,-23
28.89167,-21
28.90000,-20
28.90833,-19
28.91667,-17
28.92500,-16
28.93333,-15
28.94167,-14
28.95000,-13
28.95833,-12
28.96667,-11
28.97500,-10
28.98333,-9
28.99167,-8
29.00000,-7
29.00833,-6
29.01667,-5
29.02500,-5
29.03333,-4
29.04167,-4
29.05000,-3
29.05833,-3
29.06667,-2
29.07500,-2
29.08333,-2
29.09167,-2
29.10000,-1
29.10833,-0
29.11667,0
29.12500,0
29.13333,0
29.14167,1
29.15000,1
29.15833,1
29.16667,2
29.17500,3
29.18333,3
29.19167,4
29.20000,5
29.20833,5
29.21667,5
29.22500,5
29.23333,5
29.24167,5
29.25000,6
29.25833,6
29.26667,6
29.27500,6
29.28333,6
29.29167,6
29.30000,6
29.30833,6
29.31667,5
29.32500,5
29.33333,5
29.34167,5
29.35000,5
29.35833,5
29.36667,4
29.37500,4
29.38333,3
29.39167,3
29.40000,3
29.40833,2
29.41667,2
29.42500,2
29.43333,2
29.44167,1
29.45000,1
29.45833,0
29.46667,-1
29.47500,-1
29.48333,-2
29.49167,-2
29.50000,-3
29.50833,-3
29.51667,-4
29.52500,-5
29.53333,-6
29.54167,-7
29.55000,-8
29.55833,-9
29.56667,-10
29.57500,-10
29.58333,-11
29.59167,-12
29.60000,-13
29.60833,-14
29.61667,-15
29.62500,-17
29.63333,-18
29.64167,-20
29.65000,-20
29.65833,-21
29.66667,-22
29.67500,-23
29.68333,-24
29.69167,-26
29.70000,-27
29.70833,-28
29.71667,-29
29.72500,-31
29.73333,-32
29.74167,-33
29.75000,-34
29.75833,-35
29.76667,-37
29.77500,-38
29.78333,-39
29.79167,-40
29.80000,-42
29.80833,-43
29.81667,-44
29.82500,-45
29.83333,-46
29.84167,-47
29.85000,-48
29.85833,-49
29.86667,-51
29.87500,-52
29.88333,-54
29.89167,-55
29.90000,-56
29.90833,-57
29.91667,-58
29.92500,-58
29.93333,-59
29.94167,-60
29.95000,-60
29.95833,-62
29.96667,-63
29.97500,-64
29.98333,-65
29.99167,-65
30.00000,-66
30.00833,-66
30.01667,-67
30.02500,-67
30.03333,-68
30.04167,-68
30.05000,-68
30.05833,-68
30.06667,-69
30.07500,-69
30.08333,-69
30.09167,-69
30.10000,-69
30.10833,-69
30.11667,-68
30.12500,-68
30.13333,-67
30.14167,-67
30.15000,-66
30.15833,-66
30.16667,-66
30.17500,-65
30.18333,-65
30.19167,-64
30.20000,-64
30.20833,-63
30.21667,-63
30.22500,-62
30.23333,-61
30.24167,-60
30.25000,-59
30.25833,-58
30.26667,-57
30.27500,-56
30.28333,-55
30.29167,-55
30.30000,-54
30.30833,-53
30.31667,-52
30.32500,-51
30.33333,-50
30.34167,-49
30.35000,-48
30.35833,-47
30.36667,-46
30.37500,-45
30.38333,-44
30.39167,-43
30.40000,-42
30.40833,-41
30.41667,-40
30.42500,-40
30.43333,-39
30.44167,-38
30.45000,-37
30.45833,-37
30.46667,-36
30.47500,-35
30.48333,-35
30.49167,-34
30.50000,-33
30.50833,-32
30.51667,-32
30.52500,-32
30.53333,-31
30.54167,-31
30.55000,-31
30.55833,-31
30.56667,-30
30.57500,-30
30.58333,-30
30.59167,-30
30.60000,-30
30.60833,-29
30.61667,-29
30.62500,-29
30.63333,-29
30.64167,-29
30.65000,-29
30.65833,-29
30.66667,-29
30.67500,-29
30.68333,-29
30.69167,-29
30.70000,-30
30.70833,-30
30.71667,-30
30.72500,-30
30.73333,-30
30.74167,-30
30.75000,-31
30.75833,-31
30.76667,-31
30.77500,-31
30.78333,-31
30.79167,-31
30.80000,-31
30.80833,-31
30.81667,-31
30.82500,-31
30.83333,-32
30.84167,-31
30.85000,-32
30.85833,-32
30.86667,-32
30.87500,-32
30.88333,-32
30.89167,-33
30.90000,-33
30.90833,-33
30.91667,-33
30.92500,-32
30.93333,-32
30.94167,-32
30.95000,-32
30.95833,-32
30.96667,-32
30.97500,-31
30.98333,-31
30.99167,-31
31.00000,-31
31.00833,-30
31.01667,-30
31.02500,-29
31.03333,-29
31.04167,-28
31.05000,-27
31.05833,-26
31.06667,-26
31.07500,-26
31.08333,-26
31.09167,-26
31.10000,-25
31.10833,-25
31.11667,-24
31.12500,-23
31.13333,-22
31.14167,-21
31.15000,-20
31.15833,-20
31.16667,-19
31.17500,-18
31.18333,-18
31.19167,-17
31.20000,-16
31.20833,-15
31.21667,-14
31.22500,-14
31.23333,-13
31.24167,-13
31.25000,-12
31.25833,-11
31.26667,-10
31.27500,-10
31.28333,-9
31.29167,-8
31.30000,-7
31.30833,-6
31.31667,-5
31.32500,-4
31.33333,-4
31.34167,-3
31.35000,-2
31.35833,-2
31.36667,-1
31.37500,-1
31.38333,-0
31.39167,-0
31.40000,0
31.40833,1
31.41667,2
31.42500,2
31.43333,3
31.44167,3
31.45000,3
31.45833,3
31.46667,3
31.47500,4
31.48333,4
31.49167,5
31.50000,5
31.50833,5
31.51667,6
31.52500,6
31.53333,7
31.54167,7
31.55000,7
31.55833,7
31.56667,7
31.57500,7
31.58333,7
31.59167,7
31.60000,8
31.60833,8
31.61667,8
31.62500,8
31.63333,7
31.64167,7
31.65000,7
31.65833,7
31.66667,7
31.67500,7
31.68333,7
31.69167,6
31.70000,6
31.70833,5
31.71667,5
31.72500,5
31.73333,4
31.74167,4
31.75000,4
31.75833,4
31.76667,3
31.77500,3
31.78333,3
31.79167,2
31.80000,2
31.80833,2
31.81667,1
31.82500,1
31.83333,1
31.84167,1
31.85000,1
31.85833,1
31.86667,0
31.87500,0
31.88333,0
31.89167,0
31.90000,-0
31.90833,-0
31.91667,-0
31.92500,-1
31.93333,-1
31.94167,-1
31.95000,-2
31.95833,-3
31.96667,-3
31.97500,-3
31.98333,-3
31.99167,-3
32.00000,-3
32.00833,-2
32.01667,-2
32.02500,-2
32.03333,-3
32.04167,-3
32.05000,-3
32.05833,-3
32.06667,-3
32.07500,-2
32.08333,-2
32.09167,-3
32.10000,-3
32.10833,-3
32.11667,-3
32.12500,-3
32.13333,-3
32.14167,-3
32.15000,-3
32.15833,-2
32.16667,-2
32.17500,-2
32.18333,-2
32.19167,-2
32.20000,-2
32.20833,-2
32.21667,-3
32.22500,-3
32.23333,-3
32.24167,-3
32.25000,-3
32.25833,-3
32.26667,-3
32.27500,-2
32.28333,-2
32.29167,-2
32.30000,-2
32.30833,-2
32.31667,-2
32.32500,-2
32.33333,-2
32.34167,-2
32.35000,-2
32.35833,-3
32.36667,-3
32.37500,-2
32.38333,-2
32.39167,-2
32.40000,-2
32.40833,-2
32.41667,-2
32.42500,-1
32.43333,-1
32.44167,-2
32.45000,-2
32.45833,-2
32.46667,-2
32.47500,-2
32.48333,-2
32.49167,-2
32.50000,-2
32.50833,-2
32.51667,-2
32.52500,-3
32.53333,-3
32.54167,-3
32.55000,-2
32.55833,-2
32.56667,-2
32.57500,-2
32.58333,-2
32.59167,-3
32.60000,-3
32.60833,-3
32.61667,-3
32.62500,-3
32.63333,-3
32.64167,-3
32.65000,-3
32.65833,-3
32.66667,-3
32.67500,-3
32.68333,-3
32.69167,-3
32.70000,-3
32.70833,-4
32.71667,-4
32.72500,-4
32.73333,-5
32.74167,-5
32.75000,-5
32.75833,-5
32.76667,-4
32.77500,-4
32.78333,-4
32.79167,-4
32.80000,-5
32.80833,-4
32.81667,-4
32.82500,-4
32.83333,-4
32.84167,-4
32.85000,-4
32.85833,-4
32.86667,-4
32.87500,-4
32.88333,-4
32.89167,-4
32.90000,-4
32.90833,-4
32.91667,-4
32.92500,-4
32.93333,-4
32.94167,-4
32.95000,-4
32.95833,-4
32.96667,-4
32.97500,-4
32.98333,-4
32.99167,-4
33.00000,-3
33.00833,-3
33.01667,-3
33.02500,-2
33.03333,-2
33.04167,-2
33.05000,-2
33.05833,-2
33.06667,-2
33.07500,-2
33.08333,-2
33.09167,-2
33.10000,-2
33.10833,-2
33.11667,-2
33.12500,-2
33.13333,-2
33.14167,-2
33.15000,-1
33.15833,-1
33.16667,-1
33.17500,-1
33.18333,-1
33.19167,-1
33.20000,-1
33.20833,-1
33.21667,-1
33.22500,-1
33.23333,-1
33.24167,-1
33.25000,-1
33.25833,-1
33.26667,-1
33.27500,-1
33.28333,-0
33.29167,-1
33.30000,-0
33.30833,-0
33.31667,-0
33.32500,-1
33.33333,-1
33.34167,-1
33.35000,-1
33.35833,-1
33.36667,-1
33.37500,-1
33.38333,-1
33.39167,-1
33.40000,-1
33.40833,-1
33.41667,-1
33.42500,-1
33.43333,-1
33.44167,-1
33.45000,-1
33.45833,-1
33.46667,-1
33.47500,-2
33.48333,-2
33.49167,-2
33.50000,-2
33.50833,-2
33.51667,-3
33.52500,-3
33.53333,-3
33.54167,-3
33.55000,-3
33.55833,-3
33.56667,-3
33.57500,-3
33.58333,-3
33.59167,-3
33.60000,-4
33.60833,-4
33.61667,-4
33.62500,-4
33.63333,-4
33.64167,-4
33.65000,-4
33.65833,-4
33.66667,-5
33.67500,-5
33.68333,-5
33.69167,-6
33.70000,-6
33.70833,-6
33.71667,-6
33.72500,-7
33.73333,-7
33.74167,-7
33.75000,-7
33.75833,-6
33.76667,-6
33.77500,-7
33.78333,-7
33.79167,-7
33.80000,-7
33.80833,-8
33.81667,-8
33.82500,-8
33.83333,-7
33.84167,-7
33.85000,-7
33.85833,-7
33.86667,-7
33.87500,-7
33.88333,-7
33.89167,-6
33.90000,-5
33.90833,-5
33.91667,-4
33.92500,-4
33.93333,-4
33.94167,-4
33.95000,-4
33.95833,-4
33.96667,-4
33.97500,-4
33.98333,-4
33.99167,-4
34.00000,-4
34.00833,-3
34.01667,-3
34.02500,-2
34.03333,-2
34.04167,-2
34.05000,-1
34.05833,-1
34.06667,-0
34.07500,0
34.08333,0
34.09167,0
34.10000,1
34.10833,1
34.11667,1
34.12500,1
34.13333,1
34.14167,1
34.15000,1
34.15833,2
34.16667,2
34.17500,2
34.18333,2
34.19167,2
34.20000,2
34.20833,2
34.21667,2
34.22500,2
34.23333,2
34.24167,2
34.25000,2
34.25833,2
34.26667,2
34.27500,2
34.28333,2
34.29167,2
34.30000,2
34.30833,2
34.31667,3
34.32500,2
34.33333,2
34.34167,2
34.35000,2
34.35833,2
34.36667,2
34.37500,2
34.38333,2
34.39167,2
34.40000,2
34.40833,1
34.41667,1
34.42500,1
34.43333,1
34.44167,1
34.45000,1
34.45833,1
34.46667,1
34.47500,1
34.48333,1
34.49167,1
34.50000,1
34.50833,1
34.51667,1
34.52500,1
34.53333,1
34.54167,0
34.55000,0
34.55833,0
34.56667,-0
34.57500,-0
34.58333,-0
34.59167,-0
34.60000,-1
34.60833,-0
34.61667,-1
34.62500,-1
34.63333,-1
34.64167,-1
34.65000,-1
34.65833,-2
34.66667,-2
34.67500,-2
34.68333,-2
34.69167,-2
34.70000,-2
34.70833,-2
34.71667,-3
34.72500,-3
34.73333,-3
34.74167,-3
34.75000,-3
34.75833,-4
34.76667,-4
34.77500,-4
34.78333,-4
34.79167,-4
34.80000,-4
34.80833,-4
34.81667,-4
34.82500,-4
34.83333,-4
34.84167,-4
34.85000,-4
34.85833,-4
34.86667,-4
34.87500,-4
34.88333,-4
34.89167,-4
34.90000,-4
34.90833,-4
34.91667,-4
34.92500,-4
34.93333,-5
34.94167,-5
34.95000,-5
34.95833,-5
34.96667,-5
34.97500,-4
34.98333,-4
34.99167,-4
35.00000,-4
35.00833,-4
35.01667,-4
35.02500,-4
35.03333,-3
35.04167,-2
35.05000,-2
35.05833,-1
35.06667,-1
35.07500,-1
35.08333,-1
35.09167,-1
35.10000,-0
35.10833,-0
35.11667,-0
35.12500,-0
35.13333,-0
35.14167,-0
35.15000,-0
35.15833,-0
35.16667,0
35.17500,0
35.18333,0
35.19167,1
35.20000,1
35.20833,1
35.21667,1
35.22500,1
35.23333,1
35.24167,1
35.25000,2
35.25833,2
35.26667,2
35.27500,2
35.28333,2
35.29167,1
35.30000,1
35.30833,1
35.31667,1
35.32500,1
35.33333,2
35.34167,2
35.35000,2
35.35833,1
35.36667,1
35.37500,0
35.38333,0
35.39167,0
35.40000,0
35.40833,0
35.41667,0
35.42500,0
35.43333,0
35.44167,-0
35.45000,-0
35.45833,-0
35.46667,-0
35.47500,-1
35.48333,-1
35.49167,-1
35.50000,-1
35.50833,-2
35.51667,-2
35.52500,-2
35.53333,-2
35.54167,-2
35.55000,-2
35.55833,-2
35.56667,-2
35.57500,-2
35.58333,-2
35.59167,-2
35.60000,-2
35.60833,-3
35.61667,-3
35.62500,-2
35.63333,-3
35.64167,-3
35.65000,-4
35.65833,-4
35.66667,-4
35.67500,-5
35.68333,-5
35.69167,-5
35.70000,-4
35.70833,-4
35.71667,-5
35.72500,-5
35.73333,-5
35.74167,-5
35.75000,-5
35.75833,-5
35.76667,-6
35.77500,-6
35.78333,-6
35.79167,-6
35.80000,-6
35.80833,-6
35.81667,-6
35.82500,-6
35.83333,-6
35.84167,-6
35.85000,-6
35.85833,-7
35.86667,-7
35.87500,-7
35.88333,-7
35.89167,-7
35.90000,-7
35.90833,-7
35.91667,-7
35.92500,-7
35.93333,-7
35.94167,-7
35.95000,-7
35.95833,-7
35.96667,-7
35.97500,-7
35.98333,-7
35.99167,-8
36.00000,-8
36.00833,-8
36.01667,-8
36.02500,-8
36.03333,-8
36.04167,-8
36.05000,-8
36.05833,-8
36.06667,-8
36.07500,-7
36.08333,-7
36.09167,-7
36.10000,-7
36.10833,-7
36.11667,-7
36.12500,-7
36.13333,-6
36.14167,-6
36.15000,-6
36.15833,-6
36.16667,-6
36.17500,-6
36.18333,-6
36.19167,-6
36.20000,-6
36.20833,-5
36.21667,-5
36.22500,-5
36.23333,-5
36.24167,-6
36.25000,-6
36.25833,-6
36.26667,-6
36.27500,-5
36.28333,-5
36.29167,-6
36.30000,-6
36.30833,-6
36.31667,-6
36.32500,-6
36.33333,-6
36.34167,-6
36.35000,-6
36.35833,-6
36.36667,-6
36.37500,-5
36.38333,-5
36.39167,-5
36.40000,-5
36.40833,-5
36.41667,-4
36.42500,-4
36.43333,-4
36.44167,-4
36.45000,-4
36.45833,-4
36.46667,-4
36.47500,-4
36.48333,-4
36.49167,-3
36.50000,-4
36.50833,-4
36.51667,-4
36.52500,-3
36.53333,-3
36.54167,-4
36.55000,-3
36.55833,-3
36.56667,-3
36.57500,-3
36.58333,-3
36.59167,-3
36.60000,-3
36.60833,-2
36.61667,-2
36.62500,-2
36.63333,-2
36.64167,-2
36.65000,-3
36.65833,-3
36.66667,-3
36.67500,-3
36.68333,-3
36.69167,-3
36.70000,-3
36.70833,-3
36.71667,-3
36.72500,-3
36.73333,-2
36.74167,-2
36.75000,-2
36.75833,-2
36.76667,-2
36.77500,-2
36.78333,-2
36.79167,-2
36.80000,-2
36.80833,-2
36.81667,-2
36.82500,-2
36.83333,-2
36.84167,-2
36.85000,-2
36.85833,-2
36.86667,-3
36.87500,-3
36.88333,-3
36.89167,-3
36.90000,-3
36.90833,-3
36.91667,-3
36.92500,-3
36.93333,-3
36.94167,-3
36.95000,-3
36.95833,-3
36.96667,-3
36.97500,-3
36.98333,-3
36.99167,-3
37.00000,-3
37.00833,-2
37.01667,-2
37.02500,-2
37.03333,-2
37.04167,-2
37.05000,-2
37.05833,-2
37.06667,-2
37.07500,-2
37.08333,-2
37.09167,-1
37.10000,-1
37.10833,-1
37.11667,-0
37.12500,-0
37.13333,0
37.14167,0
37.15000,0
37.15833,0
37.16667,1
37.17500,1
37.18333,1
37.19167,2
37.20000,2
37.20833,3
37.21667,3
37.22500,4
37.23333,4
37.24167,4
37.25000,4
37.25833,4
37.26667,4
37.27500,5
37.28333,5
37.29167,5
37.30000,5
37.30833,5
37.31667,5
37.32500,5
37.33333,5
37.34167,5
37.35000,5
37.35833,5
37.36667,5
37.37500,5
37.38333,5
37.39167,5
37.40000,5
37.40833,5
37.41667,6
37.42500,6
37.43333,6
37.44167,7
37.45000,7
37.45833,7
37.46667,7
37.47500,6
37.48333,6
37.49167,6
37.50000,6
37.50833,5
37.51667,5
37.52500,5
37.53333,5
37.54167,5
37.55000,4
37.55833,4
37.56667,3
37.57500,3
37.58333,3
37.59167,2
37.60000,2
37.60833,2
37.61667,2
37.62500,2
37.63333,1
37.64167,1
37.65000,1
37.65833,0
37.66667,-0
37.67500,-1
37.68333,-1
37.69167,-2
37.70000,-2
37.70833,-2
37.71667,-3
37.72500,-3
37.73333,-3
37.74167,-4
37.75000,-4
37.75833,-4
37.76667,-5
37.77500,-5
37.78333,-6
37.79167,-6
37.80000,-7
37.80833,-7
37.81667,-7
37.82500,-7
37.83333,-7
37.84167,-7
37.85000,-7
37.85833,-8
37.86667,-7
37.87500,-7
37.88333,-8
37.89167,-8
37.90000,-8
37.90833,-9
37.91667,-9
37.92500,-9
37.93333,-9
37.94167,-9
37.95000,-9
37.95833,-9
37.96667,-8
37.97500,-8
37.98333,-8
37.99167,-8
38.00000,-9
38.00833,-9
38.01667,-9
38.02500,-8
38.03333,-8
38.04167,-7
38.05000,-7
38.05833,-7
38.06667,-7
38.07500,-7
38.08333,-7
38.09167,-7
38.10000,-7
38.10833,-7
38.11667,-7
38.12500,-6
38.13333,-6
38.14167,-6
38.15000,-5
38.15833,-5
38.16667,-5
38.17500,-5
38.18333,-4
38.19167,-4
38.20000,-4
38.20833,-4
38.21667,-4
38.22500,-4
38.23333,-4
38.24167,-4
38.25000,-4
38.25833,-3
38.26667,-3
38.27500,-2
38.28333,-2
38.29167,-2
38.30000,-2
38.30833,-2
38.31667,-2
38.32500,-2
38.33333,-1
38.34167,-1
38.35000,-2
38.35833,-2
38.36667,-2
38.37500,-2
38.38333,-2
38.39167,-2
38.40000,-2
38.40833,-1
38.41667,-1
38.42500,-1
38.43333,-1
38.44167,-1
38.45000,-1
38.45833,-1
38.46667,-1
38.47500,-1
38.48333,-1
38.49167,-1
38.50000,-1
38.50833,-1
38.51667,-1
38.52500,-1
38.53333,-2
38.54167,-2
38.55000,-2
38.55833,-2
38.56667,-2
38.57500,-2
38.58333,-2
38.59167,-2
38.60000,-2
38.60833,-2
38.61667,-3
38.62500,-3
38.63333,-3
38.64167,-3
38.65000,-3
38.65833,-4
38.66667,-4
38.67500,-4
38.68333,-4
38.69167,-5
38.70000,-5
38.70833,-5
38.71667,-5
38.72500,-5
38.73333,-6
38.74167,-6
38.75000,-6
38.75833,-6
38.76667,-6
38.77500,-6
38.78333,-6
38.79167,-7
38.80000,-7
38.80833,-7
38.81667,-7
38.82500,-7
38.83333,-7
38.84167,-7
38.85000,-8
38.85833,-8
38.86667,-8
38.87500,-8
38.88333,-8
38.89167,-8
38.90000,-8
38.90833,-8
38.91667,-8
38.92500,-8
38.93333,-8
38.94167,-8
38.95000,-7
38.95833,-7
38.96667,-7
38.97500,-7
38.98333,-7
38.99167,-7
39.00000,-7
39.00833,-7
39.01667,-7
39.02500,-8
39.03333,-7
39.04167,-7
39.05000,-7
39.05833,-6
39.06667,-6
39.07500,-6
39.08333,-6
39.09167,-6
39.10000,-6
39.10833,-6
39.11667,-5
39.12500,-5
39.13333,-5
39.14167,-5
39.15000,-5
39.15833,-5
39.16667,-5
39.17500,-5
39.18333,-5
39.19167,-5
39.20000,-5
39.20833,-5
39.21667,-4
39.22500,-4
39.23333,-3
39.24167,-3
39.25000,-3
39.25833,-3
39.26667,-3
39.27500,-3
39.28333,-2
39.29167,-2
39.30000,-3
39.30833,-3
39.31667,-3
39.32500,-3
39.33333,-2
39.34167,-2
39.35000,-2
39.35833,-2
39.36667,-2
39.37500,-2
39.38333,-2
39.39167,-2
39.40000,-2
39.40833,-2
39.41667,-3
39.42500,-3
39.43333,-2
39.44167,-2
39.45000,-3
39.45833,-3
39.46667,-3
39.47500,-3
39.48333,-3
39.49167,-3
39.50000,-4
39.50833,-4
39.51667,-4
39.52500,-4
39.53333,-4
39.54167,-4
39.55000,-5
39.55833,-5
39.56667,-5
39.57500,-5
39.58333,-5
39.59167,-6
39.60000,-6
39.60833,-7
39.61667,-7
39.62500,-7
39.63333,-8
39.64167,-8
39.65000,-8
39.65833,-8
39.66667,-8
39.67500,-9
39.68333,-9
39.69167,-9
39.70000,-9
39.70833,-9
39.71667,-10
39.72500,-10
39.73333,-10
39.74167,-11
39.75000,-11
39.75833,-11
39.76667,-11
39.77500,-12
39.78333,-12
39.79167,-12
39.80000,-12
39.80833,-13
39.81667,-13
39.82500,-14
39.83333,-14
39.84167,-14
39.85000,-14
39.85833,-15
39.86667,-15
39.87500,-15
39.88333,-15
39.89167,-15
39.90000,-15
39.90833,-15
39.91667,-15
39.92500,-15
39.93333,-15
39.94167,-15
39.95000,-15
39.95833,-15
39.96667,-15
39.97500,-16
39.98333,-16
39.99167,-16
40.00000,-16

