[Header]
Application Name,LabSolutions
Version,5.97 SP1
Data File Name,C:\Users\cremerlab\Desktop\griffin\2021-04-06_REL606_DM_glucose_turnover\2021-04-06_REL606_DM_glucose_turnover_462021_007_014.lcd
Output Date,4/7/2021
Output Time,3:21:25 AM

[File Information]
Type,Data File
Generated,4/7/2021 2:41:04 AM
Generated by,System Administrator
Modified,4/7/2021 3:21:25 AM
Modified by,System Administrator

[Sample Information]
Operator Name,System Administrator
Acquired,4/7/2021 2:41:23 AM
Sample Type,1:Standard
Level,7
Sample Name,2021-04-04_REL606_replicate_002_timepoint_007
Sample ID,007
ISTD Amount1,1
ISTD Amount2,1
ISTD Amount3,1
ISTD Amount4,1
ISTD Amount5,1
ISTD Amount6,1
ISTD Amount7,1
ISTD Amount8,1
ISTD Amount9,1
ISTD Amount10,1
ISTD Amount11,1
ISTD Amount12,1
ISTD Amount13,1
ISTD Amount14,1
ISTD Amount15,1
ISTD Amount16,1
ISTD Amount17,1
ISTD Amount18,1
ISTD Amount19,1
ISTD Amount20,1
ISTD Amount21,1
ISTD Amount22,1
ISTD Amount23,1
ISTD Amount24,1
ISTD Amount25,1
ISTD Amount26,1
ISTD Amount27,1
ISTD Amount28,1
ISTD Amount29,1
ISTD Amount30,1
ISTD Amount31,1
ISTD Amount32,1
Sample Amount,1
Dilution Factor,1
Vial#,16
Injection Volume,20

[Original Files]
Data File,C:\Users\cremerlab\Desktop\griffin\2021-04-06_REL606_DM_glucose_turnover\2021-04-06_REL606_DM_glucose_turnover_462021_007_014.lcd
Method File,C:\Users\cremerlab\Desktop\griffin\2.5mM_H2SO4_mobile_phase.lcm
Batch File,C:\Users\cremerlab\Desktop\griffin\2021-04-06_REL606_DM_glucose_turnover\2021-04-06_REL606_DM_glucose_turnover.lcb
Report Format File,c:\LabSolutions\System\DEFAULT.lsr

[File Description]


[Configuration]
Instrument Name,HPLC-PC-Instrument1
Instrument #,1
Line #,1
# of Detectors,2
Detector ID,Detector A,Detector B
Detector Name,Detector A,Detector B
# of Channels,1,1

[Peak Table(Detector A)]
# of Peaks,0

[Peak Table(Detector B)]
# of Peaks,6
Peak#,R.Time,I.Time,F.Time,Area,Height,A/H,Conc.,Mark,ID#,Name,k',Plate #,Plate Ht.,Tailing,Resolution,Sep.Factor,Area Ratio,Height Ratio,Conc. %,Norm Conc.
1,10.885,10.417,12.017,244409,14236,17.168,7.825,   ,,,0.000,9156,16.382,1.044,0.000,0.000,0,0,0.000,0.000
2,13.936,12.550,14.200,1712017,45498,37.629,54.815,   ,,,0.280,3133,47.874,0.000,4.205,0.000,0,0,0.000,0.000
3,14.332,14.200,14.958,169859,9256,18.351,5.439, V ,,,0.317,5923,25.325,0.000,0.455,1.130,0,0,0.000,0.000
4,15.676,14.958,17.400,983046,39277,25.028,31.475, V ,,,0.440,9220,16.270,1.148,1.923,1.390,0,0,0.000,0.000
5,19.074,18.708,19.625,3022,125,24.145,0.097,   ,,,0.752,13017,11.523,1.171,5.141,1.709,0,0,0.000,0.000
6,25.037,24.533,25.717,10898,373,29.219,0.349,   ,,,1.300,16266,9.222,1.100,8.203,1.728,0,0,0.000,0.000

[LC Chromatogram(Detector B-Ch1)]
Interval(msec),500
# of Points,4801
Start Time(min),0.000
End Time(min),40.000
Intensity Units,mV
Intensity Multiplier,0.001
R.Time (min),Intensity
0.00000,-4
0.00833,-4
0.01667,-2
0.02500,0
0.03333,-0
0.04167,-0
0.05000,-1
0.05833,-1
0.06667,-1
0.07500,-1
0.08333,-1
0.09167,-2
0.10000,-1
0.10833,-1
0.11667,-1
0.12500,-0
0.13333,-1
0.14167,-1
0.15000,-1
0.15833,-1
0.16667,-1
0.17500,-0
0.18333,-0
0.19167,0
0.20000,1
0.20833,1
0.21667,0
0.22500,0
0.23333,0
0.24167,0
0.25000,0
0.25833,0
0.26667,1
0.27500,1
0.28333,1
0.29167,1
0.30000,1
0.30833,1
0.31667,0
0.32500,0
0.33333,0
0.34167,0
0.35000,0
0.35833,0
0.36667,0
0.37500,0
0.38333,-0
0.39167,-0
0.40000,-0
0.40833,-0
0.41667,0
0.42500,0
0.43333,0
0.44167,-0
0.45000,-0
0.45833,-0
0.46667,-0
0.47500,-0
0.48333,-0
0.49167,-0
0.50000,-0
0.50833,-0
0.51667,-1
0.52500,-1
0.53333,-1
0.54167,-1
0.55000,-1
0.55833,-1
0.56667,-1
0.57500,-1
0.58333,-1
0.59167,-1
0.60000,-1
0.60833,-1
0.61667,-1
0.62500,-1
0.63333,-2
0.64167,-2
0.65000,-2
0.65833,-2
0.66667,-2
0.67500,-2
0.68333,-2
0.69167,-3
0.70000,-3
0.70833,-3
0.71667,-3
0.72500,-3
0.73333,-2
0.74167,-2
0.75000,-3
0.75833,-2
0.76667,-2
0.77500,-2
0.78333,-2
0.79167,-2
0.80000,-2
0.80833,-2
0.81667,-2
0.82500,-2
0.83333,-2
0.84167,-1
0.85000,-1
0.85833,-1
0.86667,-0
0.87500,-0
0.88333,-0
0.89167,-0
0.90000,0
0.90833,0
0.91667,0
0.92500,0
0.93333,0
0.94167,0
0.95000,0
0.95833,1
0.96667,1
0.97500,1
0.98333,1
0.99167,1
1.00000,1
1.00833,2
1.01667,2
1.02500,2
1.03333,2
1.04167,2
1.05000,2
1.05833,2
1.06667,2
1.07500,2
1.08333,2
1.09167,2
1.10000,2
1.10833,2
1.11667,2
1.12500,2
1.13333,2
1.14167,2
1.15000,1
1.15833,1
1.16667,1
1.17500,1
1.18333,1
1.19167,1
1.20000,1
1.20833,1
1.21667,1
1.22500,0
1.23333,0
1.24167,-0
1.25000,-0
1.25833,-1
1.26667,-1
1.27500,-1
1.28333,-0
1.29167,-0
1.30000,-0
1.30833,-0
1.31667,-1
1.32500,-1
1.33333,-1
1.34167,-2
1.35000,-2
1.35833,-2
1.36667,-2
1.37500,-2
1.38333,-3
1.39167,-3
1.40000,-3
1.40833,-3
1.41667,-4
1.42500,-4
1.43333,-4
1.44167,-4
1.45000,-3
1.45833,-3
1.46667,-3
1.47500,-3
1.48333,-4
1.49167,-4
1.50000,-4
1.50833,-4
1.51667,-4
1.52500,-4
1.53333,-5
1.54167,-5
1.55000,-5
1.55833,-4
1.56667,-4
1.57500,-4
1.58333,-4
1.59167,-4
1.60000,-4
1.60833,-4
1.61667,-4
1.62500,-5
1.63333,-5
1.64167,-5
1.65000,-5
1.65833,-5
1.66667,-4
1.67500,-4
1.68333,-5
1.69167,-5
1.70000,-5
1.70833,-5
1.71667,-5
1.72500,-5
1.73333,-5
1.74167,-6
1.75000,-6
1.75833,-6
1.76667,-6
1.77500,-5
1.78333,-5
1.79167,-5
1.80000,-5
1.80833,-5
1.81667,-6
1.82500,-6
1.83333,-6
1.84167,-6
1.85000,-6
1.85833,-6
1.86667,-6
1.87500,-6
1.88333,-6
1.89167,-6
1.90000,-6
1.90833,-5
1.91667,-5
1.92500,-5
1.93333,-5
1.94167,-4
1.95000,-4
1.95833,-4
1.96667,-4
1.97500,-4
1.98333,-4
1.99167,-4
2.00000,-4
2.00833,-4
2.01667,-3
2.02500,-3
2.03333,-3
2.04167,-2
2.05000,-2
2.05833,-2
2.06667,-2
2.07500,-1
2.08333,-1
2.09167,-1
2.10000,-1
2.10833,-0
2.11667,-0
2.12500,-0
2.13333,-0
2.14167,-0
2.15000,-0
2.15833,0
2.16667,-0
2.17500,0
2.18333,0
2.19167,1
2.20000,1
2.20833,2
2.21667,2
2.22500,2
2.23333,2
2.24167,3
2.25000,3
2.25833,4
2.26667,4
2.27500,4
2.28333,4
2.29167,5
2.30000,5
2.30833,5
2.31667,4
2.32500,4
2.33333,4
2.34167,5
2.35000,5
2.35833,5
2.36667,6
2.37500,6
2.38333,7
2.39167,7
2.40000,7
2.40833,7
2.41667,8
2.42500,8
2.43333,8
2.44167,8
2.45000,9
2.45833,9
2.46667,9
2.47500,10
2.48333,10
2.49167,10
2.50000,10
2.50833,10
2.51667,10
2.52500,10
2.53333,10
2.54167,10
2.55000,10
2.55833,10
2.56667,10
2.57500,10
2.58333,10
2.59167,10
2.60000,10
2.60833,11
2.61667,11
2.62500,11
2.63333,11
2.64167,11
2.65000,11
2.65833,10
2.66667,10
2.67500,10
2.68333,10
2.69167,10
2.70000,10
2.70833,10
2.71667,10
2.72500,10
2.73333,10
2.74167,10
2.75000,10
2.75833,9
2.76667,9
2.77500,9
2.78333,9
2.79167,9
2.80000,9
2.80833,9
2.81667,9
2.82500,9
2.83333,9
2.84167,9
2.85000,8
2.85833,8
2.86667,8
2.87500,8
2.88333,7
2.89167,7
2.90000,7
2.90833,7
2.91667,7
2.92500,7
2.93333,7
2.94167,7
2.95000,7
2.95833,6
2.96667,6
2.97500,6
2.98333,5
2.99167,5
3.00000,5
3.00833,5
3.01667,5
3.02500,4
3.03333,4
3.04167,4
3.05000,4
3.05833,4
3.06667,4
3.07500,3
3.08333,2
3.09167,2
3.10000,2
3.10833,2
3.11667,2
3.12500,1
3.13333,1
3.14167,0
3.15000,0
3.15833,-0
3.16667,-1
3.17500,-2
3.18333,-2
3.19167,-2
3.20000,-3
3.20833,-3
3.21667,-4
3.22500,-4
3.23333,-5
3.24167,-5
3.25000,-5
3.25833,-6
3.26667,-6
3.27500,-6
3.28333,-6
3.29167,-7
3.30000,-7
3.30833,-7
3.31667,-8
3.32500,-8
3.33333,-9
3.34167,-9
3.35000,-9
3.35833,-10
3.36667,-10
3.37500,-10
3.38333,-11
3.39167,-11
3.40000,-11
3.40833,-11
3.41667,-11
3.42500,-11
3.43333,-11
3.44167,-12
3.45000,-12
3.45833,-12
3.46667,-12
3.47500,-12
3.48333,-12
3.49167,-12
3.50000,-12
3.50833,-12
3.51667,-12
3.52500,-12
3.53333,-12
3.54167,-12
3.55000,-11
3.55833,-11
3.56667,-10
3.57500,-10
3.58333,-10
3.59167,-10
3.60000,-9
3.60833,-9
3.61667,-9
3.62500,-9
3.63333,-8
3.64167,-8
3.65000,-7
3.65833,-7
3.66667,-7
3.67500,-7
3.68333,-6
3.69167,-6
3.70000,-5
3.70833,-5
3.71667,-4
3.72500,-3
3.73333,-2
3.74167,-2
3.75000,-1
3.75833,-0
3.76667,0
3.77500,1
3.78333,2
3.79167,3
3.80000,3
3.80833,4
3.81667,4
3.82500,5
3.83333,5
3.84167,6
3.85000,6
3.85833,6
3.86667,6
3.87500,7
3.88333,8
3.89167,9
3.90000,9
3.90833,9
3.91667,10
3.92500,10
3.93333,10
3.94167,11
3.95000,11
3.95833,11
3.96667,12
3.97500,12
3.98333,12
3.99167,13
4.00000,13
4.00833,13
4.01667,13
4.02500,12
4.03333,12
4.04167,12
4.05000,12
4.05833,12
4.06667,12
4.07500,11
4.08333,11
4.09167,11
4.10000,11
4.10833,10
4.11667,10
4.12500,9
4.13333,8
4.14167,7
4.15000,6
4.15833,6
4.16667,6
4.17500,5
4.18333,5
4.19167,5
4.20000,5
4.20833,4
4.21667,4
4.22500,4
4.23333,3
4.24167,3
4.25000,2
4.25833,2
4.26667,1
4.27500,1
4.28333,0
4.29167,-0
4.30000,-0
4.30833,-1
4.31667,-1
4.32500,-2
4.33333,-2
4.34167,-3
4.35000,-3
4.35833,-4
4.36667,-4
4.37500,-4
4.38333,-4
4.39167,-5
4.40000,-5
4.40833,-5
4.41667,-5
4.42500,-6
4.43333,-6
4.44167,-7
4.45000,-7
4.45833,-7
4.46667,-7
4.47500,-7
4.48333,-7
4.49167,-7
4.50000,-7
4.50833,-7
4.51667,-7
4.52500,-7
4.53333,-7
4.54167,-8
4.55000,-8
4.55833,-8
4.56667,-8
4.57500,-8
4.58333,-8
4.59167,-9
4.60000,-9
4.60833,-9
4.61667,-9
4.62500,-8
4.63333,-8
4.64167,-8
4.65000,-8
4.65833,-7
4.66667,-7
4.67500,-6
4.68333,-6
4.69167,-6
4.70000,-6
4.70833,-5
4.71667,-5
4.72500,-4
4.73333,-4
4.74167,-3
4.75000,-3
4.75833,-3
4.76667,-2
4.77500,-2
4.78333,-1
4.79167,-0
4.80000,1
4.80833,2
4.81667,2
4.82500,3
4.83333,4
4.84167,4
4.85000,5
4.85833,6
4.86667,6
4.87500,6
4.88333,7
4.89167,8
4.90000,8
4.90833,9
4.91667,10
4.92500,10
4.93333,11
4.94167,12
4.95000,12
4.95833,13
4.96667,14
4.97500,15
4.98333,16
4.99167,16
5.00000,17
5.00833,17
5.01667,18
5.02500,19
5.03333,19
5.04167,20
5.05000,21
5.05833,21
5.06667,22
5.07500,22
5.08333,22
5.09167,23
5.10000,23
5.10833,24
5.11667,24
5.12500,24
5.13333,25
5.14167,25
5.15000,26
5.15833,26
5.16667,26
5.17500,26
5.18333,26
5.19167,26
5.20000,26
5.20833,26
5.21667,26
5.22500,26
5.23333,26
5.24167,26
5.25000,26
5.25833,26
5.26667,26
5.27500,26
5.28333,26
5.29167,26
5.30000,26
5.30833,26
5.31667,25
5.32500,25
5.33333,25
5.34167,24
5.35000,24
5.35833,24
5.36667,23
5.37500,23
5.38333,23
5.39167,23
5.40000,22
5.40833,22
5.41667,22
5.42500,21
5.43333,21
5.44167,20
5.45000,19
5.45833,19
5.46667,19
5.47500,19
5.48333,19
5.49167,19
5.50000,18
5.50833,18
5.51667,18
5.52500,17
5.53333,17
5.54167,17
5.55000,16
5.55833,15
5.56667,15
5.57500,16
5.58333,16
5.59167,16
5.60000,15
5.60833,15
5.61667,15
5.62500,14
5.63333,14
5.64167,14
5.65000,14
5.65833,14
5.66667,14
5.67500,13
5.68333,13
5.69167,13
5.70000,12
5.70833,12
5.71667,11
5.72500,11
5.73333,11
5.74167,11
5.75000,11
5.75833,11
5.76667,11
5.77500,10
5.78333,10
5.79167,10
5.80000,10
5.80833,9
5.81667,9
5.82500,9
5.83333,9
5.84167,10
5.85000,10
5.85833,10
5.86667,10
5.87500,10
5.88333,10
5.89167,9
5.90000,10
5.90833,10
5.91667,10
5.92500,10
5.93333,10
5.94167,10
5.95000,11
5.95833,10
5.96667,11
5.97500,11
5.98333,11
5.99167,11
6.00000,11
6.00833,11
6.01667,11
6.02500,11
6.03333,11
6.04167,11
6.05000,12
6.05833,12
6.06667,12
6.07500,12
6.08333,12
6.09167,13
6.10000,13
6.10833,13
6.11667,13
6.12500,13
6.13333,12
6.14167,12
6.15000,12
6.15833,12
6.16667,12
6.17500,11
6.18333,11
6.19167,11
6.20000,11
6.20833,11
6.21667,11
6.22500,11
6.23333,11
6.24167,11
6.25000,11
6.25833,11
6.26667,11
6.27500,11
6.28333,11
6.29167,11
6.30000,11
6.30833,11
6.31667,11
6.32500,11
6.33333,11
6.34167,10
6.35000,10
6.35833,10
6.36667,10
6.37500,10
6.38333,9
6.39167,9
6.40000,9
6.40833,9
6.41667,8
6.42500,8
6.43333,7
6.44167,7
6.45000,7
6.45833,6
6.46667,6
6.47500,5
6.48333,4
6.49167,4
6.50000,4
6.50833,4
6.51667,3
6.52500,3
6.53333,2
6.54167,2
6.55000,1
6.55833,1
6.56667,0
6.57500,-0
6.58333,-0
6.59167,-1
6.60000,-1
6.60833,-1
6.61667,-2
6.62500,-2
6.63333,-2
6.64167,-2
6.65000,-2
6.65833,-3
6.66667,-3
6.67500,-3
6.68333,-3
6.69167,-3
6.70000,-3
6.70833,-3
6.71667,-3
6.72500,-3
6.73333,-3
6.74167,-3
6.75000,-2
6.75833,-2
6.76667,-1
6.77500,-1
6.78333,-0
6.79167,0
6.80000,1
6.80833,2
6.81667,2
6.82500,2
6.83333,3
6.84167,3
6.85000,4
6.85833,6
6.86667,7
6.87500,7
6.88333,8
6.89167,8
6.90000,9
6.90833,9
6.91667,10
6.92500,11
6.93333,11
6.94167,12
6.95000,13
6.95833,14
6.96667,15
6.97500,15
6.98333,16
6.99167,17
7.00000,17
7.00833,18
7.01667,18
7.02500,19
7.03333,19
7.04167,19
7.05000,20
7.05833,20
7.06667,21
7.07500,22
7.08333,23
7.09167,23
7.10000,24
7.10833,24
7.11667,23
7.12500,23
7.13333,23
7.14167,24
7.15000,24
7.15833,24
7.16667,24
7.17500,24
7.18333,24
7.19167,23
7.20000,23
7.20833,23
7.21667,22
7.22500,23
7.23333,23
7.24167,23
7.25000,23
7.25833,23
7.26667,23
7.27500,23
7.28333,23
7.29167,22
7.30000,22
7.30833,22
7.31667,22
7.32500,22
7.33333,22
7.34167,22
7.35000,22
7.35833,22
7.36667,21
7.37500,21
7.38333,21
7.39167,21
7.40000,21
7.40833,20
7.41667,20
7.42500,20
7.43333,19
7.44167,19
7.45000,19
7.45833,19
7.46667,19
7.47500,20
7.48333,19
7.49167,19
7.50000,20
7.50833,20
7.51667,19
7.52500,19
7.53333,19
7.54167,19
7.55000,19
7.55833,19
7.56667,19
7.57500,19
7.58333,19
7.59167,20
7.60000,20
7.60833,20
7.61667,20
7.62500,20
7.63333,20
7.64167,20
7.65000,20
7.65833,20
7.66667,20
7.67500,20
7.68333,20
7.69167,20
7.70000,21
7.70833,21
7.71667,20
7.72500,20
7.73333,20
7.74167,20
7.75000,21
7.75833,21
7.76667,21
7.77500,21
7.78333,21
7.79167,21
7.80000,22
7.80833,22
7.81667,22
7.82500,22
7.83333,22
7.84167,22
7.85000,22
7.85833,22
7.86667,21
7.87500,21
7.88333,21
7.89167,20
7.90000,20
7.90833,20
7.91667,20
7.92500,19
7.93333,19
7.94167,19
7.95000,18
7.95833,18
7.96667,18
7.97500,18
7.98333,17
7.99167,17
8.00000,17
8.00833,16
8.01667,16
8.02500,16
8.03333,15
8.04167,15
8.05000,14
8.05833,14
8.06667,13
8.07500,13
8.08333,13
8.09167,13
8.10000,13
8.10833,12
8.11667,12
8.12500,12
8.13333,12
8.14167,12
8.15000,12
8.15833,11
8.16667,11
8.17500,11
8.18333,10
8.19167,10
8.20000,9
8.20833,9
8.21667,9
8.22500,8
8.23333,8
8.24167,8
8.25000,8
8.25833,8
8.26667,7
8.27500,7
8.28333,7
8.29167,7
8.30000,7
8.30833,7
8.31667,7
8.32500,7
8.33333,7
8.34167,7
8.35000,6
8.35833,7
8.36667,6
8.37500,6
8.38333,6
8.39167,6
8.40000,6
8.40833,6
8.41667,6
8.42500,6
8.43333,5
8.44167,6
8.45000,6
8.45833,6
8.46667,6
8.47500,6
8.48333,6
8.49167,6
8.50000,6
8.50833,7
8.51667,6
8.52500,6
8.53333,6
8.54167,6
8.55000,6
8.55833,6
8.56667,6
8.57500,6
8.58333,6
8.59167,6
8.60000,7
8.60833,7
8.61667,7
8.62500,7
8.63333,7
8.64167,7
8.65000,7
8.65833,8
8.66667,8
8.67500,8
8.68333,9
8.69167,9
8.70000,10
8.70833,10
8.71667,11
8.72500,11
8.73333,12
8.74167,12
8.75000,12
8.75833,12
8.76667,12
8.77500,12
8.78333,13
8.79167,13
8.80000,13
8.80833,14
8.81667,15
8.82500,15
8.83333,15
8.84167,16
8.85000,16
8.85833,16
8.86667,16
8.87500,16
8.88333,16
8.89167,16
8.90000,17
8.90833,17
8.91667,17
8.92500,18
8.93333,18
8.94167,18
8.95000,19
8.95833,19
8.96667,19
8.97500,19
8.98333,20
8.99167,20
9.00000,20
9.00833,20
9.01667,20
9.02500,20
9.03333,20
9.04167,20
9.05000,20
9.05833,20
9.06667,20
9.07500,21
9.08333,20
9.09167,20
9.10000,20
9.10833,20
9.11667,20
9.12500,21
9.13333,20
9.14167,20
9.15000,20
9.15833,20
9.16667,20
9.17500,20
9.18333,20
9.19167,20
9.20000,21
9.20833,21
9.21667,21
9.22500,21
9.23333,21
9.24167,21
9.25000,21
9.25833,21
9.26667,21
9.27500,21
9.28333,21
9.29167,21
9.30000,21
9.30833,21
9.31667,21
9.32500,21
9.33333,22
9.34167,22
9.35000,22
9.35833,22
9.36667,22
9.37500,22
9.38333,22
9.39167,22
9.40000,22
9.40833,22
9.41667,22
9.42500,22
9.43333,22
9.44167,22
9.45000,21
9.45833,22
9.46667,21
9.47500,21
9.48333,21
9.49167,21
9.50000,21
9.50833,21
9.51667,21
9.52500,21
9.53333,20
9.54167,20
9.55000,20
9.55833,20
9.56667,20
9.57500,20
9.58333,19
9.59167,19
9.60000,19
9.60833,19
9.61667,18
9.62500,18
9.63333,17
9.64167,16
9.65000,16
9.65833,15
9.66667,15
9.67500,14
9.68333,14
9.69167,14
9.70000,13
9.70833,12
9.71667,12
9.72500,11
9.73333,10
9.74167,9
9.75000,9
9.75833,8
9.76667,7
9.77500,7
9.78333,6
9.79167,5
9.80000,5
9.80833,4
9.81667,4
9.82500,4
9.83333,4
9.84167,3
9.85000,3
9.85833,2
9.86667,2
9.87500,2
9.88333,2
9.89167,2
9.90000,2
9.90833,2
9.91667,1
9.92500,1
9.93333,1
9.94167,1
9.95000,1
9.95833,1
9.96667,1
9.97500,2
9.98333,3
9.99167,4
10.00000,5
10.00833,6
10.01667,7
10.02500,8
10.03333,8
10.04167,10
10.05000,11
10.05833,12
10.06667,13
10.07500,14
10.08333,16
10.09167,17
10.10000,18
10.10833,19
10.11667,20
10.12500,21
10.13333,23
10.14167,24
10.15000,25
10.15833,26
10.16667,27
10.17500,28
10.18333,29
10.19167,30
10.20000,31
10.20833,32
10.21667,33
10.22500,34
10.23333,35
10.24167,36
10.25000,36
10.25833,37
10.26667,38
10.27500,38
10.28333,39
10.29167,40
10.30000,40
10.30833,41
10.31667,41
10.32500,41
10.33333,41
10.34167,41
10.35000,42
10.35833,42
10.36667,42
10.37500,42
10.38333,43
10.39167,42
10.40000,42
10.40833,43
10.41667,43
10.42500,44
10.43333,45
10.44167,46
10.45000,47
10.45833,49
10.46667,52
10.47500,56
10.48333,61
10.49167,67
10.50000,74
10.50833,84
10.51667,96
10.52500,111
10.53333,130
10.54167,154
10.55000,185
10.55833,223
10.56667,269
10.57500,326
10.58333,394
10.59167,477
10.60000,575
10.60833,691
10.61667,826
10.62500,984
10.63333,1166
10.64167,1374
10.65000,1610
10.65833,1877
10.66667,2174
10.67500,2504
10.68333,2868
10.69167,3265
10.70000,3696
10.70833,4161
10.71667,4657
10.72500,5183
10.73333,5737
10.74167,6315
10.75000,6914
10.75833,7530
10.76667,8157
10.77500,8790
10.78333,9423
10.79167,10047
10.80000,10657
10.80833,11244
10.81667,11799
10.82500,12317
10.83333,12788
10.84167,13206
10.85000,13562
10.85833,13852
10.86667,14068
10.87500,14208
10.88333,14268
10.89167,14247
10.90000,14145
10.90833,13963
10.91667,13704
10.92500,13372
10.93333,12974
10.94167,12516
10.95000,12006
10.95833,11454
10.96667,10868
10.97500,10257
10.98333,9630
10.99167,8996
11.00000,8362
11.00833,7735
11.01667,7124
11.02500,6532
11.03333,5964
11.04167,5425
11.05000,4915
11.05833,4438
11.06667,3993
11.07500,3583
11.08333,3205
11.09167,2859
11.10000,2545
11.10833,2260
11.11667,2003
11.12500,1772
11.13333,1566
11.14167,1381
11.15000,1217
11.15833,1071
11.16667,942
11.17500,829
11.18333,729
11.19167,642
11.20000,566
11.20833,500
11.21667,442
11.22500,393
11.23333,350
11.24167,313
11.25000,281
11.25833,253
11.26667,230
11.27500,210
11.28333,193
11.29167,179
11.30000,167
11.30833,157
11.31667,149
11.32500,142
11.33333,136
11.34167,131
11.35000,126
11.35833,122
11.36667,119
11.37500,116
11.38333,113
11.39167,110
11.40000,108
11.40833,106
11.41667,103
11.42500,101
11.43333,99
11.44167,96
11.45000,94
11.45833,92
11.46667,91
11.47500,89
11.48333,87
11.49167,84
11.50000,82
11.50833,80
11.51667,78
11.52500,76
11.53333,73
11.54167,72
11.55000,70
11.55833,68
11.56667,66
11.57500,64
11.58333,62
11.59167,60
11.60000,57
11.60833,55
11.61667,53
11.62500,51
11.63333,50
11.64167,48
11.65000,46
11.65833,44
11.66667,42
11.67500,41
11.68333,39
11.69167,38
11.70000,36
11.70833,35
11.71667,34
11.72500,33
11.73333,32
11.74167,31
11.75000,30
11.75833,28
11.76667,27
11.77500,26
11.78333,25
11.79167,23
11.80000,22
11.80833,21
11.81667,21
11.82500,20
11.83333,19
11.84167,18
11.85000,17
11.85833,16
11.86667,16
11.87500,15
11.88333,14
11.89167,13
11.90000,12
11.90833,11
11.91667,11
11.92500,10
11.93333,10
11.94167,9
11.95000,9
11.95833,8
11.96667,8
11.97500,8
11.98333,7
11.99167,7
12.00000,6
12.00833,6
12.01667,5
12.02500,5
12.03333,5
12.04167,5
12.05000,5
12.05833,5
12.06667,5
12.07500,5
12.08333,4
12.09167,4
12.10000,4
12.10833,4
12.11667,4
12.12500,4
12.13333,4
12.14167,4
12.15000,4
12.15833,4
12.16667,4
12.17500,4
12.18333,4
12.19167,4
12.20000,5
12.20833,5
12.21667,5
12.22500,5
12.23333,5
12.24167,6
12.25000,7
12.25833,8
12.26667,9
12.27500,9
12.28333,10
12.29167,11
12.30000,12
12.30833,13
12.31667,14
12.32500,15
12.33333,15
12.34167,16
12.35000,17
12.35833,18
12.36667,19
12.37500,20
12.38333,21
12.39167,21
12.40000,22
12.40833,23
12.41667,24
12.42500,25
12.43333,25
12.44167,26
12.45000,26
12.45833,27
12.46667,28
12.47500,29
12.48333,30
12.49167,31
12.50000,31
12.50833,32
12.51667,33
12.52500,33
12.53333,34
12.54167,35
12.55000,36
12.55833,37
12.56667,38
12.57500,39
12.58333,41
12.59167,43
12.60000,45
12.60833,48
12.61667,51
12.62500,55
12.63333,60
12.64167,66
12.65000,74
12.65833,84
12.66667,95
12.67500,108
12.68333,124
12.69167,143
12.70000,165
12.70833,191
12.71667,221
12.72500,255
12.73333,294
12.74167,338
12.75000,387
12.75833,441
12.76667,502
12.77500,569
12.78333,642
12.79167,721
12.80000,808
12.80833,901
12.81667,1000
12.82500,1107
12.83333,1220
12.84167,1340
12.85000,1467
12.85833,1600
12.86667,1740
12.87500,1886
12.88333,2038
12.89167,2196
12.90000,2361
12.90833,2531
12.91667,2707
12.92500,2888
12.93333,3073
12.94167,3265
12.95000,3461
12.95833,3662
12.96667,3868
12.97500,4078
12.98333,4292
12.99167,4510
13.00000,4732
13.00833,4957
13.01667,5187
13.02500,5420
13.03333,5656
13.04167,5896
13.05000,6139
13.05833,6385
13.06667,6634
13.07500,6886
13.08333,7141
13.09167,7399
13.10000,7659
13.10833,7923
13.11667,8189
13.12500,8457
13.13333,8728
13.14167,9002
13.15000,9279
13.15833,9558
13.16667,9839
13.17500,10123
13.18333,10409
13.19167,10697
13.20000,10988
13.20833,11282
13.21667,11578
13.22500,11876
13.23333,12177
13.24167,12480
13.25000,12785
13.25833,13093
13.26667,13402
13.27500,13715
13.28333,14029
13.29167,14345
13.30000,14664
13.30833,14986
13.31667,15310
13.32500,15636
13.33333,15965
13.34167,16296
13.35000,16630
13.35833,16966
13.36667,17304
13.37500,17645
13.38333,17988
13.39167,18334
13.40000,18682
13.40833,19033
13.41667,19386
13.42500,19742
13.43333,20101
13.44167,20461
13.45000,20825
13.45833,21191
13.46667,21559
13.47500,21930
13.48333,22304
13.49167,22680
13.50000,23059
13.50833,23441
13.51667,23825
13.52500,24212
13.53333,24602
13.54167,24995
13.55000,25390
13.55833,25788
13.56667,26189
13.57500,26593
13.58333,26999
13.59167,27409
13.60000,27821
13.60833,28236
13.61667,28654
13.62500,29075
13.63333,29499
13.64167,29926
13.65000,30356
13.65833,30789
13.66667,31225
13.67500,31664
13.68333,32106
13.69167,32552
13.70000,33000
13.70833,33452
13.71667,33907
13.72500,34365
13.73333,34826
13.74167,35291
13.75000,35759
13.75833,36230
13.76667,36704
13.77500,37182
13.78333,37663
13.79167,38148
13.80000,38636
13.80833,39128
13.81667,39622
13.82500,40120
13.83333,40620
13.84167,41124
13.85000,41629
13.85833,42135
13.86667,42638
13.87500,43136
13.88333,43622
13.89167,44088
13.90000,44522
13.90833,44908
13.91667,45226
13.92500,45455
13.93333,45567
13.94167,45536
13.95000,45335
13.95833,44939
13.96667,44328
13.97500,43487
13.98333,42409
13.99167,41097
14.00000,39562
14.00833,37824
14.01667,35911
14.02500,33859
14.03333,31708
14.04167,29498
14.05000,27274
14.05833,25073
14.06667,22935
14.07500,20890
14.08333,18965
14.09167,17179
14.10000,15547
14.10833,14076
14.11667,12770
14.12500,11628
14.13333,10646
14.14167,9816
14.15000,9128
14.15833,8574
14.16667,8141
14.17500,7820
14.18333,7598
14.19167,7463
14.20000,7404
14.20833,7411
14.21667,7472
14.22500,7577
14.23333,7717
14.24167,7882
14.25000,8064
14.25833,8255
14.26667,8446
14.27500,8631
14.28333,8804
14.29167,8960
14.30000,9093
14.30833,9200
14.31667,9277
14.32500,9323
14.33333,9335
14.34167,9312
14.35000,9255
14.35833,9164
14.36667,9040
14.37500,8885
14.38333,8700
14.39167,8489
14.40000,8253
14.40833,7996
14.41667,7720
14.42500,7430
14.43333,7128
14.44167,6818
14.45000,6502
14.45833,6182
14.46667,5862
14.47500,5545
14.48333,5231
14.49167,4924
14.50000,4624
14.50833,4334
14.51667,4055
14.52500,3787
14.53333,3531
14.54167,3288
14.55000,3058
14.55833,2841
14.56667,2637
14.57500,2446
14.58333,2268
14.59167,2102
14.60000,1948
14.60833,1805
14.61667,1672
14.62500,1550
14.63333,1438
14.64167,1334
14.65000,1240
14.65833,1153
14.66667,1074
14.67500,1001
14.68333,935
14.69167,875
14.70000,820
14.70833,770
14.71667,724
14.72500,683
14.73333,645
14.74167,611
14.75000,580
14.75833,552
14.76667,526
14.77500,503
14.78333,482
14.79167,463
14.80000,446
14.80833,430
14.81667,415
14.82500,402
14.83333,391
14.84167,380
14.85000,370
14.85833,362
14.86667,355
14.87500,348
14.88333,342
14.89167,337
14.90000,332
14.90833,329
14.91667,325
14.92500,322
14.93333,320
14.94167,318
14.95000,317
14.95833,316
14.96667,316
14.97500,317
14.98333,318
14.99167,320
15.00000,321
15.00833,324
15.01667,327
15.02500,330
15.03333,333
15.04167,337
15.05000,341
15.05833,345
15.06667,350
15.07500,354
15.08333,360
15.09167,365
15.10000,371
15.10833,378
15.11667,385
15.12500,392
15.13333,401
15.14167,411
15.15000,422
15.15833,434
15.16667,448
15.17500,465
15.18333,485
15.19167,508
15.20000,536
15.20833,569
15.21667,608
15.22500,655
15.23333,711
15.24167,777
15.25000,855
15.25833,947
15.26667,1056
15.27500,1183
15.28333,1330
15.29167,1501
15.30000,1698
15.30833,1925
15.31667,2183
15.32500,2477
15.33333,2809
15.34167,3183
15.35000,3601
15.35833,4068
15.36667,4584
15.37500,5154
15.38333,5779
15.39167,6461
15.40000,7202
15.40833,8002
15.41667,8862
15.42500,9781
15.43333,10759
15.44167,11794
15.45000,12883
15.45833,14023
15.46667,15211
15.47500,16441
15.48333,17707
15.49167,19006
15.50000,20328
15.50833,21666
15.51667,23014
15.52500,24362
15.53333,25702
15.54167,27025
15.55000,28322
15.55833,29583
15.56667,30800
15.57500,31965
15.58333,33068
15.59167,34102
15.60000,35059
15.60833,35934
15.61667,36718
15.62500,37409
15.63333,38000
15.64167,38490
15.65000,38874
15.65833,39153
15.66667,39324
15.67500,39388
15.68333,39347
15.69167,39201
15.70000,38955
15.70833,38611
15.71667,38173
15.72500,37647
15.73333,37038
15.74167,36352
15.75000,35594
15.75833,34771
15.76667,33890
15.77500,32957
15.78333,31979
15.79167,30964
15.80000,29917
15.80833,28846
15.81667,27758
15.82500,26657
15.83333,25550
15.84167,24442
15.85000,23338
15.85833,22243
15.86667,21162
15.87500,20099
15.88333,19057
15.89167,18039
15.90000,17048
15.90833,16087
15.91667,15157
15.92500,14259
15.93333,13396
15.94167,12569
15.95000,11777
15.95833,11021
15.96667,10302
15.97500,9619
15.98333,8972
15.99167,8360
16.00000,7783
16.00833,7240
16.01667,6729
16.02500,6249
16.03333,5800
16.04167,5381
16.05000,4989
16.05833,4624
16.06667,4285
16.07500,3970
16.08333,3678
16.09167,3407
16.10000,3157
16.10833,2925
16.11667,2711
16.12500,2514
16.13333,2333
16.14167,2166
16.15000,2012
16.15833,1871
16.16667,1741
16.17500,1622
16.18333,1513
16.19167,1412
16.20000,1321
16.20833,1236
16.21667,1159
16.22500,1089
16.23333,1024
16.24167,964
16.25000,910
16.25833,860
16.26667,814
16.27500,773
16.28333,734
16.29167,699
16.30000,666
16.30833,636
16.31667,609
16.32500,584
16.33333,561
16.34167,539
16.35000,520
16.35833,502
16.36667,485
16.37500,469
16.38333,455
16.39167,441
16.40000,428
16.40833,416
16.41667,406
16.42500,396
16.43333,386
16.44167,377
16.45000,369
16.45833,362
16.46667,355
16.47500,348
16.48333,341
16.49167,335
16.50000,329
16.50833,324
16.51667,319
16.52500,314
16.53333,310
16.54167,306
16.55000,302
16.55833,299
16.56667,295
16.57500,291
16.58333,288
16.59167,285
16.60000,282
16.60833,279
16.61667,276
16.62500,274
16.63333,271
16.64167,269
16.65000,266
16.65833,264
16.66667,261
16.67500,259
16.68333,257
16.69167,256
16.70000,254
16.70833,252
16.71667,250
16.72500,248
16.73333,246
16.74167,244
16.75000,242
16.75833,240
16.76667,238
16.77500,236
16.78333,234
16.79167,232
16.80000,230
16.80833,228
16.81667,226
16.82500,224
16.83333,222
16.84167,221
16.85000,219
16.85833,217
16.86667,215
16.87500,214
16.88333,212
16.89167,210
16.90000,209
16.90833,207
16.91667,205
16.92500,203
16.93333,202
16.94167,200
16.95000,198
16.95833,197
16.96667,196
16.97500,194
16.98333,192
16.99167,191
17.00000,190
17.00833,189
17.01667,187
17.02500,186
17.03333,185
17.04167,184
17.05000,183
17.05833,182
17.06667,180
17.07500,179
17.08333,178
17.09167,178
17.10000,177
17.10833,176
17.11667,175
17.12500,174
17.13333,173
17.14167,172
17.15000,171
17.15833,171
17.16667,170
17.17500,169
17.18333,169
17.19167,168
17.20000,168
17.20833,167
17.21667,166
17.22500,165
17.23333,165
17.24167,164
17.25000,164
17.25833,163
17.26667,162
17.27500,162
17.28333,161
17.29167,160
17.30000,159
17.30833,159
17.31667,158
17.32500,157
17.33333,156
17.34167,155
17.35000,155
17.35833,154
17.36667,153
17.37500,153
17.38333,152
17.39167,152
17.40000,152
17.40833,151
17.41667,151
17.42500,151
17.43333,150
17.44167,150
17.45000,149
17.45833,149
17.46667,148
17.47500,148
17.48333,147
17.49167,147
17.50000,147
17.50833,146
17.51667,146
17.52500,145
17.53333,145
17.54167,145
17.55000,145
17.55833,145
17.56667,145
17.57500,145
17.58333,144
17.59167,144
17.60000,144
17.60833,144
17.61667,144
17.62500,144
17.63333,143
17.64167,143
17.65000,144
17.65833,144
17.66667,144
17.67500,144
17.68333,144
17.69167,144
17.70000,144
17.70833,144
17.71667,144
17.72500,144
17.73333,144
17.74167,144
17.75000,144
17.75833,144
17.76667,144
17.77500,144
17.78333,144
17.79167,143
17.80000,143
17.80833,143
17.81667,143
17.82500,143
17.83333,142
17.84167,142
17.85000,141
17.85833,141
17.86667,140
17.87500,140
17.88333,139
17.89167,139
17.90000,138
17.90833,138
17.91667,137
17.92500,136
17.93333,136
17.94167,135
17.95000,134
17.95833,133
17.96667,132
17.97500,132
17.98333,131
17.99167,130
18.00000,130
18.00833,129
18.01667,128
18.02500,127
18.03333,127
18.04167,126
18.05000,125
18.05833,124
18.06667,124
18.07500,123
18.08333,122
18.09167,121
18.10000,120
18.10833,119
18.11667,118
18.12500,117
18.13333,116
18.14167,116
18.15000,115
18.15833,114
18.16667,113
18.17500,112
18.18333,111
18.19167,110
18.20000,109
18.20833,108
18.21667,107
18.22500,107
18.23333,106
18.24167,105
18.25000,104
18.25833,103
18.26667,102
18.27500,101
18.28333,100
18.29167,99
18.30000,99
18.30833,98
18.31667,97
18.32500,96
18.33333,96
18.34167,95
18.35000,94
18.35833,93
18.36667,93
18.37500,92
18.38333,91
18.39167,90
18.40000,89
18.40833,87
18.41667,86
18.42500,86
18.43333,85
18.44167,85
18.45000,84
18.45833,84
18.46667,83
18.47500,83
18.48333,82
18.49167,82
18.50000,82
18.50833,82
18.51667,81
18.52500,82
18.53333,82
18.54167,82
18.55000,82
18.55833,82
18.56667,82
18.57500,82
18.58333,82
18.59167,83
18.60000,83
18.60833,83
18.61667,83
18.62500,84
18.63333,84
18.64167,85
18.65000,86
18.65833,87
18.66667,87
18.67500,88
18.68333,89
18.69167,90
18.70000,91
18.70833,92
18.71667,93
18.72500,94
18.73333,96
18.74167,97
18.75000,99
18.75833,101
18.76667,103
18.77500,105
18.78333,108
18.79167,110
18.80000,112
18.80833,115
18.81667,117
18.82500,120
18.83333,123
18.84167,125
18.85000,129
18.85833,132
18.86667,136
18.87500,140
18.88333,144
18.89167,148
18.90000,151
18.90833,155
18.91667,159
18.92500,163
18.93333,166
18.94167,170
18.95000,173
18.95833,177
18.96667,180
18.97500,184
18.98333,187
18.99167,190
19.00000,193
19.00833,196
19.01667,198
19.02500,200
19.03333,202
19.04167,204
19.05000,205
19.05833,206
19.06667,206
19.07500,207
19.08333,206
19.09167,206
19.10000,205
19.10833,203
19.11667,202
19.12500,200
19.13333,198
19.14167,196
19.15000,193
19.15833,191
19.16667,188
19.17500,185
19.18333,181
19.19167,177
19.20000,174
19.20833,170
19.21667,167
19.22500,163
19.23333,159
19.24167,156
19.25000,152
19.25833,148
19.26667,145
19.27500,141
19.28333,138
19.29167,134
19.30000,130
19.30833,126
19.31667,123
19.32500,120
19.33333,117
19.34167,114
19.35000,111
19.35833,108
19.36667,106
19.37500,103
19.38333,101
19.39167,98
19.40000,96
19.40833,94
19.41667,92
19.42500,90
19.43333,88
19.44167,86
19.45000,85
19.45833,83
19.46667,82
19.47500,81
19.48333,79
19.49167,78
19.50000,77
19.50833,76
19.51667,75
19.52500,74
19.53333,73
19.54167,72
19.55000,71
19.55833,70
19.56667,69
19.57500,69
19.58333,68
19.59167,67
19.60000,67
19.60833,66
19.61667,66
19.62500,66
19.63333,65
19.64167,65
19.65000,65
19.65833,64
19.66667,63
19.67500,63
19.68333,63
19.69167,63
19.70000,62
19.70833,62
19.71667,61
19.72500,61
19.73333,61
19.74167,60
19.75000,60
19.75833,60
19.76667,60
19.77500,59
19.78333,59
19.79167,59
19.80000,58
19.80833,58
19.81667,57
19.82500,57
19.83333,57
19.84167,57
19.85000,56
19.85833,56
19.86667,55
19.87500,55
19.88333,55
19.89167,56
19.90000,56
19.90833,56
19.91667,56
19.92500,56
19.93333,56
19.94167,55
19.95000,55
19.95833,54
19.96667,54
19.97500,55
19.98333,55
19.99167,55
20.00000,55
20.00833,56
20.01667,56
20.02500,56
20.03333,56
20.04167,56
20.05000,56
20.05833,56
20.06667,57
20.07500,57
20.08333,57
20.09167,57
20.10000,58
20.10833,58
20.11667,58
20.12500,59
20.13333,59
20.14167,58
20.15000,59
20.15833,59
20.16667,59
20.17500,59
20.18333,59
20.19167,59
20.20000,59
20.20833,59
20.21667,59
20.22500,59
20.23333,59
20.24167,60
20.25000,60
20.25833,60
20.26667,60
20.27500,60
20.28333,61
20.29167,61
20.30000,61
20.30833,61
20.31667,62
20.32500,62
20.33333,62
20.34167,63
20.35000,63
20.35833,63
20.36667,63
20.37500,63
20.38333,63
20.39167,63
20.40000,63
20.40833,64
20.41667,64
20.42500,65
20.43333,65
20.44167,65
20.45000,66
20.45833,66
20.46667,67
20.47500,67
20.48333,67
20.49167,67
20.50000,67
20.50833,68
20.51667,68
20.52500,68
20.53333,68
20.54167,68
20.55000,69
20.55833,69
20.56667,69
20.57500,69
20.58333,69
20.59167,69
20.60000,69
20.60833,69
20.61667,69
20.62500,70
20.63333,69
20.64167,69
20.65000,69
20.65833,69
20.66667,70
20.67500,70
20.68333,69
20.69167,69
20.70000,69
20.70833,69
20.71667,69
20.72500,69
20.73333,68
20.74167,68
20.75000,68
20.75833,68
20.76667,68
20.77500,68
20.78333,67
20.79167,67
20.80000,67
20.80833,67
20.81667,66
20.82500,66
20.83333,65
20.84167,65
20.85000,65
20.85833,64
20.86667,64
20.87500,64
20.88333,64
20.89167,64
20.90000,63
20.90833,63
20.91667,62
20.92500,61
20.93333,61
20.94167,61
20.95000,60
20.95833,60
20.96667,60
20.97500,59
20.98333,59
20.99167,59
21.00000,58
21.00833,58
21.01667,58
21.02500,57
21.03333,57
21.04167,57
21.05000,57
21.05833,56
21.06667,56
21.07500,56
21.08333,56
21.09167,56
21.10000,55
21.10833,55
21.11667,55
21.12500,55
21.13333,55
21.14167,54
21.15000,54
21.15833,53
21.16667,53
21.17500,54
21.18333,54
21.19167,54
21.20000,54
21.20833,54
21.21667,54
21.22500,54
21.23333,55
21.24167,55
21.25000,55
21.25833,56
21.26667,56
21.27500,56
21.28333,56
21.29167,57
21.30000,57
21.30833,58
21.31667,58
21.32500,59
21.33333,59
21.34167,59
21.35000,59
21.35833,60
21.36667,61
21.37500,62
21.38333,62
21.39167,62
21.40000,62
21.40833,63
21.41667,63
21.42500,63
21.43333,63
21.44167,63
21.45000,64
21.45833,64
21.46667,65
21.47500,64
21.48333,65
21.49167,65
21.50000,65
21.50833,65
21.51667,65
21.52500,65
21.53333,65
21.54167,64
21.55000,64
21.55833,64
21.56667,64
21.57500,63
21.58333,63
21.59167,63
21.60000,62
21.60833,62
21.61667,61
21.62500,61
21.63333,60
21.64167,60
21.65000,60
21.65833,60
21.66667,59
21.67500,59
21.68333,58
21.69167,57
21.70000,57
21.70833,56
21.71667,56
21.72500,56
21.73333,56
21.74167,55
21.75000,55
21.75833,54
21.76667,53
21.77500,52
21.78333,51
21.79167,51
21.80000,51
21.80833,50
21.81667,50
21.82500,50
21.83333,50
21.84167,49
21.85000,49
21.85833,48
21.86667,48
21.87500,48
21.88333,48
21.89167,48
21.90000,47
21.90833,47
21.91667,48
21.92500,47
21.93333,47
21.94167,47
21.95000,47
21.95833,48
21.96667,48
21.97500,48
21.98333,48
21.99167,48
22.00000,48
22.00833,49
22.01667,49
22.02500,49
22.03333,50
22.04167,50
22.05000,50
22.05833,50
22.06667,50
22.07500,50
22.08333,50
22.09167,50
22.10000,50
22.10833,51
22.11667,51
22.12500,52
22.13333,52
22.14167,53
22.15000,53
22.15833,53
22.16667,53
22.17500,53
22.18333,53
22.19167,53
22.20000,54
22.20833,54
22.21667,54
22.22500,55
22.23333,56
22.24167,56
22.25000,57
22.25833,57
22.26667,58
22.27500,58
22.28333,58
22.29167,58
22.30000,58
22.30833,59
22.31667,59
22.32500,59
22.33333,60
22.34167,60
22.35000,60
22.35833,60
22.36667,60
22.37500,60
22.38333,60
22.39167,60
22.40000,60
22.40833,60
22.41667,60
22.42500,60
22.43333,61
22.44167,61
22.45000,61
22.45833,61
22.46667,61
22.47500,61
22.48333,61
22.49167,61
22.50000,62
22.50833,62
22.51667,62
22.52500,62
22.53333,62
22.54167,62
22.55000,62
22.55833,62
22.56667,62
22.57500,62
22.58333,62
22.59167,63
22.60000,63
22.60833,63
22.61667,64
22.62500,64
22.63333,64
22.64167,65
22.65000,65
22.65833,66
22.66667,66
22.67500,66
22.68333,67
22.69167,67
22.70000,68
22.70833,69
22.71667,70
22.72500,70
22.73333,71
22.74167,71
22.75000,71
22.75833,72
22.76667,72
22.77500,73
22.78333,73
22.79167,73
22.80000,74
22.80833,74
22.81667,74
22.82500,75
22.83333,75
22.84167,75
22.85000,75
22.85833,76
22.86667,76
22.87500,77
22.88333,78
22.89167,78
22.90000,78
22.90833,78
22.91667,78
22.92500,78
22.93333,77
22.94167,77
22.95000,76
22.95833,76
22.96667,76
22.97500,75
22.98333,75
22.99167,75
23.00000,74
23.00833,73
23.01667,72
23.02500,72
23.03333,71
23.04167,70
23.05000,69
23.05833,68
23.06667,68
23.07500,67
23.08333,66
23.09167,65
23.10000,64
23.10833,63
23.11667,63
23.12500,62
23.13333,61
23.14167,60
23.15000,60
23.15833,59
23.16667,58
23.17500,57
23.18333,56
23.19167,55
23.20000,54
23.20833,54
23.21667,53
23.22500,53
23.23333,52
23.24167,52
23.25000,51
23.25833,51
23.26667,50
23.27500,50
23.28333,49
23.29167,48
23.30000,48
23.30833,48
23.31667,48
23.32500,48
23.33333,48
23.34167,48
23.35000,48
23.35833,48
23.36667,47
23.37500,47
23.38333,47
23.39167,47
23.40000,47
23.40833,47
23.41667,48
23.42500,48
23.43333,48
23.44167,49
23.45000,49
23.45833,50
23.46667,50
23.47500,50
23.48333,50
23.49167,51
23.50000,51
23.50833,51
23.51667,51
23.52500,51
23.53333,51
23.54167,51
23.55000,51
23.55833,52
23.56667,52
23.57500,52
23.58333,53
23.59167,53
23.60000,53
23.60833,54
23.61667,54
23.62500,54
23.63333,53
23.64167,53
23.65000,53
23.65833,53
23.66667,53
23.67500,53
23.68333,53
23.69167,53
23.70000,53
23.70833,53
23.71667,53
23.72500,54
23.73333,54
23.74167,54
23.75000,54
23.75833,53
23.76667,53
23.77500,53
23.78333,53
23.79167,54
23.80000,54
23.80833,54
23.81667,54
23.82500,54
23.83333,54
23.84167,54
23.85000,55
23.85833,55
23.86667,54
23.87500,54
23.88333,54
23.89167,54
23.90000,55
23.90833,55
23.91667,55
23.92500,55
23.93333,56
23.94167,56
23.95000,57
23.95833,57
23.96667,57
23.97500,57
23.98333,57
23.99167,57
24.00000,57
24.00833,57
24.01667,58
24.02500,58
24.03333,58
24.04167,58
24.05000,58
24.05833,59
24.06667,59
24.07500,59
24.08333,59
24.09167,59
24.10000,59
24.10833,59
24.11667,60
24.12500,60
24.13333,61
24.14167,61
24.15000,61
24.15833,60
24.16667,60
24.17500,61
24.18333,61
24.19167,61
24.20000,61
24.20833,61
24.21667,61
24.22500,61
24.23333,61
24.24167,61
24.25000,61
24.25833,61
24.26667,61
24.27500,61
24.28333,61
24.29167,61
24.30000,61
24.30833,60
24.31667,60
24.32500,59
24.33333,59
24.34167,59
24.35000,58
24.35833,58
24.36667,58
24.37500,58
24.38333,58
24.39167,58
24.40000,58
24.40833,57
24.41667,57
24.42500,57
24.43333,58
24.44167,58
24.45000,58
24.45833,58
24.46667,58
24.47500,59
24.48333,59
24.49167,59
24.50000,60
24.50833,61
24.51667,61
24.52500,63
24.53333,64
24.54167,66
24.55000,67
24.55833,68
24.56667,70
24.57500,72
24.58333,74
24.59167,77
24.60000,79
24.60833,82
24.61667,85
24.62500,88
24.63333,92
24.64167,95
24.65000,100
24.65833,105
24.66667,110
24.67500,115
24.68333,121
24.69167,127
24.70000,134
24.70833,140
24.71667,147
24.72500,154
24.73333,161
24.74167,169
24.75000,177
24.75833,185
24.76667,194
24.77500,204
24.78333,213
24.79167,223
24.80000,232
24.80833,242
24.81667,252
24.82500,261
24.83333,272
24.84167,282
24.85000,292
24.85833,303
24.86667,313
24.87500,324
24.88333,334
24.89167,344
24.90000,353
24.90833,362
24.91667,371
24.92500,379
24.93333,387
24.94167,395
24.95000,402
24.95833,408
24.96667,414
24.97500,420
24.98333,425
24.99167,429
25.00000,432
25.00833,435
25.01667,437
25.02500,438
25.03333,438
25.04167,438
25.05000,438
25.05833,436
25.06667,434
25.07500,432
25.08333,429
25.09167,425
25.10000,421
25.10833,416
25.11667,411
25.12500,405
25.13333,399
25.14167,393
25.15000,385
25.15833,378
25.16667,369
25.17500,361
25.18333,353
25.19167,344
25.20000,335
25.20833,326
25.21667,317
25.22500,308
25.23333,299
25.24167,291
25.25000,282
25.25833,273
25.26667,264
25.27500,255
25.28333,247
25.29167,238
25.30000,230
25.30833,222
25.31667,214
25.32500,206
25.33333,198
25.34167,191
25.35000,184
25.35833,178
25.36667,171
25.37500,165
25.38333,159
25.39167,153
25.40000,147
25.40833,142
25.41667,137
25.42500,132
25.43333,127
25.44167,122
25.45000,118
25.45833,115
25.46667,111
25.47500,108
25.48333,105
25.49167,102
25.50000,99
25.50833,96
25.51667,94
25.52500,91
25.53333,89
25.54167,87
25.55000,85
25.55833,83
25.56667,82
25.57500,80
25.58333,79
25.59167,78
25.60000,77
25.60833,76
25.61667,75
25.62500,74
25.63333,73
25.64167,72
25.65000,72
25.65833,71
25.66667,70
25.67500,70
25.68333,69
25.69167,69
25.70000,68
25.70833,68
25.71667,67
25.72500,67
25.73333,67
25.74167,66
25.75000,66
25.75833,66
25.76667,65
25.77500,65
25.78333,64
25.79167,64
25.80000,64
25.80833,64
25.81667,63
25.82500,63
25.83333,63
25.84167,63
25.85000,63
25.85833,63
25.86667,63
25.87500,62
25.88333,62
25.89167,62
25.90000,62
25.90833,62
25.91667,61
25.92500,61
25.93333,60
25.94167,60
25.95000,60
25.95833,60
25.96667,60
25.97500,59
25.98333,59
25.99167,59
26.00000,59
26.00833,59
26.01667,58
26.02500,58
26.03333,58
26.04167,57
26.05000,57
26.05833,57
26.06667,57
26.07500,57
26.08333,57
26.09167,56
26.10000,56
26.10833,55
26.11667,55
26.12500,56
26.13333,56
26.14167,55
26.15000,55
26.15833,54
26.16667,54
26.17500,54
26.18333,54
26.19167,53
26.20000,53
26.20833,53
26.21667,53
26.22500,52
26.23333,52
26.24167,52
26.25000,52
26.25833,52
26.26667,52
26.27500,52
26.28333,52
26.29167,52
26.30000,53
26.30833,53
26.31667,52
26.32500,52
26.33333,52
26.34167,52
26.35000,52
26.35833,52
26.36667,52
26.37500,52
26.38333,52
26.39167,52
26.40000,51
26.40833,52
26.41667,52
26.42500,52
26.43333,52
26.44167,53
26.45000,53
26.45833,52
26.46667,53
26.47500,53
26.48333,53
26.49167,53
26.50000,53
26.50833,53
26.51667,53
26.52500,52
26.53333,52
26.54167,52
26.55000,52
26.55833,52
26.56667,52
26.57500,52
26.58333,52
26.59167,52
26.60000,52
26.60833,51
26.61667,51
26.62500,51
26.63333,51
26.64167,51
26.65000,51
26.65833,52
26.66667,52
26.67500,52
26.68333,52
26.69167,52
26.70000,53
26.70833,53
26.71667,53
26.72500,53
26.73333,53
26.74167,53
26.75000,53
26.75833,54
26.76667,54
26.77500,54
26.78333,54
26.79167,55
26.80000,55
26.80833,55
26.81667,56
26.82500,56
26.83333,57
26.84167,58
26.85000,58
26.85833,59
26.86667,59
26.87500,59
26.88333,60
26.89167,60
26.90000,61
26.90833,61
26.91667,62
26.92500,62
26.93333,63
26.94167,63
26.95000,64
26.95833,64
26.96667,65
26.97500,66
26.98333,66
26.99167,66
27.00000,67
27.00833,67
27.01667,67
27.02500,68
27.03333,68
27.04167,68
27.05000,69
27.05833,69
27.06667,69
27.07500,69
27.08333,70
27.09167,70
27.10000,71
27.10833,71
27.11667,72
27.12500,72
27.13333,72
27.14167,73
27.15000,73
27.15833,73
27.16667,73
27.17500,73
27.18333,73
27.19167,73
27.20000,73
27.20833,73
27.21667,73
27.22500,73
27.23333,73
27.24167,73
27.25000,73
27.25833,73
27.26667,73
27.27500,73
27.28333,73
27.29167,73
27.30000,74
27.30833,74
27.31667,74
27.32500,73
27.33333,73
27.34167,73
27.35000,73
27.35833,73
27.36667,73
27.37500,73
27.38333,73
27.39167,73
27.40000,73
27.40833,73
27.41667,73
27.42500,73
27.43333,73
27.44167,73
27.45000,72
27.45833,72
27.46667,72
27.47500,72
27.48333,72
27.49167,72
27.50000,71
27.50833,71
27.51667,71
27.52500,70
27.53333,70
27.54167,69
27.55000,69
27.55833,69
27.56667,69
27.57500,68
27.58333,68
27.59167,67
27.60000,67
27.60833,67
27.61667,67
27.62500,67
27.63333,66
27.64167,66
27.65000,65
27.65833,65
27.66667,64
27.67500,64
27.68333,63
27.69167,62
27.70000,61
27.70833,61
27.71667,60
27.72500,59
27.73333,58
27.74167,57
27.75000,56
27.75833,55
27.76667,54
27.77500,53
27.78333,52
27.79167,51
27.80000,50
27.80833,49
27.81667,47
27.82500,46
27.83333,45
27.84167,43
27.85000,41
27.85833,39
27.86667,38
27.87500,36
27.88333,34
27.89167,32
27.90000,30
27.90833,28
27.91667,26
27.92500,23
27.93333,21
27.94167,18
27.95000,16
27.95833,14
27.96667,11
27.97500,8
27.98333,6
27.99167,3
28.00000,0
28.00833,-3
28.01667,-5
28.02500,-8
28.03333,-11
28.04167,-14
28.05000,-17
28.05833,-20
28.06667,-24
28.07500,-27
28.08333,-31
28.09167,-34
28.10000,-38
28.10833,-41
28.11667,-45
28.12500,-48
28.13333,-51
28.14167,-54
28.15000,-57
28.15833,-60
28.16667,-63
28.17500,-66
28.18333,-69
28.19167,-72
28.20000,-75
28.20833,-77
28.21667,-80
28.22500,-82
28.23333,-84
28.24167,-86
28.25000,-88
28.25833,-89
28.26667,-91
28.27500,-92
28.28333,-94
28.29167,-95
28.30000,-96
28.30833,-97
28.31667,-98
28.32500,-98
28.33333,-99
28.34167,-99
28.35000,-99
28.35833,-99
28.36667,-99
28.37500,-99
28.38333,-98
28.39167,-98
28.40000,-97
28.40833,-96
28.41667,-95
28.42500,-94
28.43333,-93
28.44167,-91
28.45000,-90
28.45833,-88
28.46667,-86
28.47500,-84
28.48333,-82
28.49167,-80
28.50000,-77
28.50833,-75
28.51667,-73
28.52500,-71
28.53333,-68
28.54167,-66
28.55000,-64
28.55833,-61
28.56667,-59
28.57500,-56
28.58333,-53
28.59167,-50
28.60000,-47
28.60833,-45
28.61667,-42
28.62500,-40
28.63333,-37
28.64167,-35
28.65000,-33
28.65833,-31
28.66667,-28
28.67500,-26
28.68333,-23
28.69167,-21
28.70000,-19
28.70833,-17
28.71667,-15
28.72500,-13
28.73333,-11
28.74167,-8
28.75000,-6
28.75833,-4
28.76667,-3
28.77500,-1
28.78333,1
28.79167,3
28.80000,4
28.80833,6
28.81667,7
28.82500,9
28.83333,10
28.84167,12
28.85000,14
28.85833,15
28.86667,17
28.87500,18
28.88333,20
28.89167,22
28.90000,23
28.90833,25
28.91667,26
28.92500,27
28.93333,28
28.94167,30
28.95000,31
28.95833,33
28.96667,34
28.97500,36
28.98333,37
28.99167,38
29.00000,40
29.00833,41
29.01667,42
29.02500,43
29.03333,44
29.04167,45
29.05000,46
29.05833,48
29.06667,49
29.07500,50
29.08333,51
29.09167,52
29.10000,53
29.10833,54
29.11667,55
29.12500,56
29.13333,57
29.14167,58
29.15000,59
29.15833,60
29.16667,61
29.17500,62
29.18333,62
29.19167,63
29.20000,64
29.20833,65
29.21667,65
29.22500,65
29.23333,66
29.24167,66
29.25000,67
29.25833,67
29.26667,68
29.27500,69
29.28333,69
29.29167,70
29.30000,70
29.30833,71
29.31667,71
29.32500,71
29.33333,71
29.34167,72
29.35000,72
29.35833,72
29.36667,72
29.37500,72
29.38333,72
29.39167,72
29.40000,71
29.40833,71
29.41667,71
29.42500,71
29.43333,71
29.44167,71
29.45000,71
29.45833,71
29.46667,71
29.47500,70
29.48333,70
29.49167,69
29.50000,69
29.50833,68
29.51667,67
29.52500,67
29.53333,66
29.54167,66
29.55000,65
29.55833,65
29.56667,64
29.57500,63
29.58333,62
29.59167,62
29.60000,61
29.60833,60
29.61667,59
29.62500,57
29.63333,56
29.64167,55
29.65000,54
29.65833,53
29.66667,52
29.67500,50
29.68333,49
29.69167,47
29.70000,46
29.70833,45
29.71667,43
29.72500,42
29.73333,40
29.74167,39
29.75000,38
29.75833,36
29.76667,35
29.77500,34
29.78333,32
29.79167,30
29.80000,29
29.80833,27
29.81667,26
29.82500,24
29.83333,23
29.84167,21
29.85000,20
29.85833,18
29.86667,17
29.87500,15
29.88333,14
29.89167,13
29.90000,12
29.90833,11
29.91667,10
29.92500,9
29.93333,8
29.94167,7
29.95000,5
29.95833,5
29.96667,4
29.97500,2
29.98333,2
29.99167,1
30.00000,1
30.00833,0
30.01667,-0
30.02500,-1
30.03333,-1
30.04167,-1
30.05000,-1
30.05833,-1
30.06667,-1
30.07500,-1
30.08333,-1
30.09167,-1
30.10000,-1
30.10833,-1
30.11667,-1
30.12500,-0
30.13333,0
30.14167,1
30.15000,2
30.15833,2
30.16667,4
30.17500,5
30.18333,5
30.19167,6
30.20000,7
30.20833,7
30.21667,8
30.22500,9
30.23333,9
30.24167,10
30.25000,11
30.25833,12
30.26667,13
30.27500,14
30.28333,15
30.29167,16
30.30000,17
30.30833,18
30.31667,19
30.32500,20
30.33333,22
30.34167,23
30.35000,24
30.35833,25
30.36667,25
30.37500,26
30.38333,28
30.39167,29
30.40000,29
30.40833,30
30.41667,32
30.42500,33
30.43333,34
30.44167,34
30.45000,35
30.45833,36
30.46667,37
30.47500,38
30.48333,39
30.49167,39
30.50000,40
30.50833,40
30.51667,41
30.52500,41
30.53333,42
30.54167,43
30.55000,44
30.55833,44
30.56667,45
30.57500,46
30.58333,46
30.59167,47
30.60000,47
30.60833,48
30.61667,48
30.62500,49
30.63333,49
30.64167,50
30.65000,50
30.65833,50
30.66667,49
30.67500,49
30.68333,49
30.69167,49
30.70000,50
30.70833,50
30.71667,50
30.72500,50
30.73333,50
30.74167,50
30.75000,50
30.75833,50
30.76667,49
30.77500,49
30.78333,49
30.79167,49
30.80000,49
30.80833,49
30.81667,49
30.82500,48
30.83333,48
30.84167,48
30.85000,47
30.85833,47
30.86667,47
30.87500,47
30.88333,47
30.89167,47
30.90000,47
30.90833,46
30.91667,46
30.92500,46
30.93333,46
30.94167,46
30.95000,46
30.95833,46
30.96667,46
30.97500,46
30.98333,46
30.99167,46
31.00000,46
31.00833,46
31.01667,46
31.02500,47
31.03333,47
31.04167,48
31.05000,48
31.05833,48
31.06667,48
31.07500,49
31.08333,49
31.09167,49
31.10000,49
31.10833,50
31.11667,50
31.12500,51
31.13333,51
31.14167,52
31.15000,53
31.15833,53
31.16667,54
31.17500,55
31.18333,56
31.19167,57
31.20000,57
31.20833,58
31.21667,59
31.22500,59
31.23333,60
31.24167,60
31.25000,61
31.25833,62
31.26667,62
31.27500,63
31.28333,64
31.29167,64
31.30000,65
31.30833,66
31.31667,66
31.32500,67
31.33333,68
31.34167,68
31.35000,68
31.35833,69
31.36667,69
31.37500,69
31.38333,69
31.39167,70
31.40000,70
31.40833,70
31.41667,69
31.42500,70
31.43333,70
31.44167,70
31.45000,70
31.45833,70
31.46667,70
31.47500,70
31.48333,70
31.49167,69
31.50000,69
31.50833,69
31.51667,69
31.52500,69
31.53333,68
31.54167,68
31.55000,68
31.55833,68
31.56667,68
31.57500,67
31.58333,66
31.59167,66
31.60000,65
31.60833,65
31.61667,64
31.62500,64
31.63333,63
31.64167,62
31.65000,62
31.65833,61
31.66667,61
31.67500,61
31.68333,60
31.69167,60
31.70000,60
31.70833,60
31.71667,59
31.72500,59
31.73333,59
31.74167,59
31.75000,58
31.75833,59
31.76667,59
31.77500,59
31.78333,59
31.79167,59
31.80000,58
31.80833,58
31.81667,58
31.82500,58
31.83333,58
31.84167,58
31.85000,58
31.85833,59
31.86667,59
31.87500,59
31.88333,59
31.89167,59
31.90000,60
31.90833,60
31.91667,60
31.92500,60
31.93333,60
31.94167,60
31.95000,60
31.95833,61
31.96667,61
31.97500,61
31.98333,61
31.99167,61
32.00000,62
32.00833,62
32.01667,62
32.02500,62
32.03333,63
32.04167,63
32.05000,63
32.05833,64
32.06667,64
32.07500,64
32.08333,64
32.09167,65
32.10000,65
32.10833,65
32.11667,65
32.12500,65
32.13333,65
32.14167,65
32.15000,66
32.15833,66
32.16667,67
32.17500,67
32.18333,67
32.19167,67
32.20000,67
32.20833,66
32.21667,66
32.22500,66
32.23333,66
32.24167,65
32.25000,65
32.25833,65
32.26667,65
32.27500,66
32.28333,66
32.29167,66
32.30000,66
32.30833,67
32.31667,67
32.32500,66
32.33333,66
32.34167,66
32.35000,66
32.35833,66
32.36667,66
32.37500,66
32.38333,66
32.39167,66
32.40000,66
32.40833,66
32.41667,66
32.42500,66
32.43333,67
32.44167,67
32.45000,67
32.45833,67
32.46667,67
32.47500,66
32.48333,66
32.49167,67
32.50000,67
32.50833,67
32.51667,67
32.52500,67
32.53333,67
32.54167,67
32.55000,66
32.55833,66
32.56667,66
32.57500,67
32.58333,67
32.59167,67
32.60000,67
32.60833,68
32.61667,68
32.62500,68
32.63333,67
32.64167,67
32.65000,67
32.65833,67
32.66667,67
32.67500,67
32.68333,67
32.69167,67
32.70000,67
32.70833,67
32.71667,67
32.72500,67
32.73333,67
32.74167,67
32.75000,67
32.75833,67
32.76667,67
32.77500,67
32.78333,66
32.79167,66
32.80000,67
32.80833,67
32.81667,67
32.82500,67
32.83333,67
32.84167,67
32.85000,67
32.85833,67
32.86667,67
32.87500,67
32.88333,67
32.89167,67
32.90000,67
32.90833,67
32.91667,67
32.92500,67
32.93333,67
32.94167,67
32.95000,67
32.95833,67
32.96667,67
32.97500,68
32.98333,68
32.99167,68
33.00000,68
33.00833,68
33.01667,68
33.02500,68
33.03333,68
33.04167,69
33.05000,69
33.05833,69
33.06667,69
33.07500,70
33.08333,70
33.09167,70
33.10000,70
33.10833,70
33.11667,70
33.12500,71
33.13333,71
33.14167,72
33.15000,72
33.15833,73
33.16667,73
33.17500,73
33.18333,74
33.19167,74
33.20000,74
33.20833,75
33.21667,75
33.22500,75
33.23333,75
33.24167,75
33.25000,75
33.25833,76
33.26667,76
33.27500,76
33.28333,76
33.29167,76
33.30000,75
33.30833,75
33.31667,75
33.32500,75
33.33333,75
33.34167,75
33.35000,74
33.35833,74
33.36667,74
33.37500,74
33.38333,73
33.39167,73
33.40000,73
33.40833,73
33.41667,73
33.42500,72
33.43333,71
33.44167,71
33.45000,71
33.45833,70
33.46667,70
33.47500,70
33.48333,69
33.49167,68
33.50000,67
33.50833,67
33.51667,67
33.52500,67
33.53333,67
33.54167,67
33.55000,66
33.55833,66
33.56667,66
33.57500,66
33.58333,66
33.59167,66
33.60000,66
33.60833,65
33.61667,65
33.62500,65
33.63333,65
33.64167,66
33.65000,66
33.65833,66
33.66667,66
33.67500,66
33.68333,66
33.69167,67
33.70000,67
33.70833,67
33.71667,68
33.72500,68
33.73333,68
33.74167,68
33.75000,68
33.75833,68
33.76667,69
33.77500,69
33.78333,70
33.79167,70
33.80000,71
33.80833,72
33.81667,72
33.82500,72
33.83333,73
33.84167,73
33.85000,74
33.85833,74
33.86667,75
33.87500,75
33.88333,75
33.89167,76
33.90000,76
33.90833,76
33.91667,77
33.92500,77
33.93333,78
33.94167,78
33.95000,78
33.95833,78
33.96667,78
33.97500,79
33.98333,79
33.99167,80
34.00000,80
34.00833,80
34.01667,80
34.02500,81
34.03333,81
34.04167,81
34.05000,81
34.05833,81
34.06667,81
34.07500,81
34.08333,81
34.09167,81
34.10000,81
34.10833,80
34.11667,80
34.12500,79
34.13333,79
34.14167,79
34.15000,79
34.15833,79
34.16667,78
34.17500,78
34.18333,77
34.19167,77
34.20000,77
34.20833,76
34.21667,76
34.22500,75
34.23333,75
34.24167,74
34.25000,74
34.25833,73
34.26667,73
34.27500,73
34.28333,72
34.29167,71
34.30000,71
34.30833,70
34.31667,69
34.32500,68
34.33333,68
34.34167,67
34.35000,67
34.35833,66
34.36667,65
34.37500,65
34.38333,65
34.39167,64
34.40000,64
34.40833,63
34.41667,63
34.42500,62
34.43333,61
34.44167,61
34.45000,60
34.45833,60
34.46667,60
34.47500,60
34.48333,60
34.49167,60
34.50000,60
34.50833,60
34.51667,60
34.52500,60
34.53333,60
34.54167,59
34.55000,59
34.55833,59
34.56667,59
34.57500,59
34.58333,59
34.59167,59
34.60000,60
34.60833,60
34.61667,60
34.62500,61
34.63333,61
34.64167,62
34.65000,62
34.65833,63
34.66667,63
34.67500,63
34.68333,64
34.69167,64
34.70000,64
34.70833,64
34.71667,64
34.72500,64
34.73333,65
34.74167,65
34.75000,66
34.75833,66
34.76667,66
34.77500,67
34.78333,67
34.79167,68
34.80000,68
34.80833,69
34.81667,70
34.82500,70
34.83333,71
34.84167,71
34.85000,71
34.85833,72
34.86667,72
34.87500,73
34.88333,74
34.89167,75
34.90000,75
34.90833,75
34.91667,76
34.92500,76
34.93333,76
34.94167,76
34.95000,76
34.95833,76
34.96667,76
34.97500,76
34.98333,77
34.99167,77
35.00000,77
35.00833,77
35.01667,77
35.02500,77
35.03333,78
35.04167,78
35.05000,78
35.05833,78
35.06667,77
35.07500,77
35.08333,77
35.09167,77
35.10000,76
35.10833,76
35.11667,76
35.12500,75
35.13333,75
35.14167,75
35.15000,74
35.15833,73
35.16667,72
35.17500,72
35.18333,71
35.19167,71
35.20000,71
35.20833,70
35.21667,70
35.22500,69
35.23333,68
35.24167,68
35.25000,67
35.25833,67
35.26667,66
35.27500,65
35.28333,65
35.29167,64
35.30000,64
35.30833,63
35.31667,63
35.32500,63
35.33333,62
35.34167,62
35.35000,62
35.35833,62
35.36667,61
35.37500,61
35.38333,61
35.39167,61
35.40000,60
35.40833,60
35.41667,60
35.42500,60
35.43333,60
35.44167,60
35.45000,61
35.45833,61
35.46667,60
35.47500,61
35.48333,61
35.49167,61
35.50000,62
35.50833,62
35.51667,62
35.52500,62
35.53333,63
35.54167,64
35.55000,64
35.55833,64
35.56667,65
35.57500,66
35.58333,66
35.59167,67
35.60000,67
35.60833,68
35.61667,68
35.62500,69
35.63333,69
35.64167,70
35.65000,71
35.65833,71
35.66667,72
35.67500,72
35.68333,73
35.69167,73
35.70000,74
35.70833,74
35.71667,75
35.72500,76
35.73333,76
35.74167,76
35.75000,76
35.75833,77
35.76667,77
35.77500,77
35.78333,77
35.79167,77
35.80000,77
35.80833,78
35.81667,78
35.82500,78
35.83333,78
35.84167,79
35.85000,79
35.85833,79
35.86667,78
35.87500,78
35.88333,77
35.89167,76
35.90000,76
35.90833,76
35.91667,75
35.92500,74
35.93333,74
35.94167,74
35.95000,74
35.95833,73
35.96667,73
35.97500,73
35.98333,72
35.99167,72
36.00000,71
36.00833,71
36.01667,70
36.02500,70
36.03333,69
36.04167,69
36.05000,69
36.05833,68
36.06667,68
36.07500,67
36.08333,67
36.09167,66
36.10000,66
36.10833,65
36.11667,65
36.12500,64
36.13333,64
36.14167,64
36.15000,64
36.15833,64
36.16667,64
36.17500,64
36.18333,64
36.19167,64
36.20000,64
36.20833,64
36.21667,64
36.22500,64
36.23333,64
36.24167,64
36.25000,64
36.25833,64
36.26667,65
36.27500,65
36.28333,66
36.29167,67
36.30000,67
36.30833,67
36.31667,67
36.32500,68
36.33333,69
36.34167,69
36.35000,70
36.35833,70
36.36667,71
36.37500,71
36.38333,72
36.39167,73
36.40000,74
36.40833,75
36.41667,76
36.42500,77
36.43333,77
36.44167,78
36.45000,78
36.45833,78
36.46667,79
36.47500,80
36.48333,81
36.49167,81
36.50000,82
36.50833,82
36.51667,83
36.52500,83
36.53333,83
36.54167,83
36.55000,83
36.55833,84
36.56667,84
36.57500,85
36.58333,85
36.59167,86
36.60000,86
36.60833,86
36.61667,86
36.62500,87
36.63333,87
36.64167,87
36.65000,88
36.65833,88
36.66667,88
36.67500,88
36.68333,88
36.69167,88
36.70000,88
36.70833,88
36.71667,88
36.72500,88
36.73333,88
36.74167,88
36.75000,88
36.75833,88
36.76667,88
36.77500,88
36.78333,88
36.79167,88
36.80000,88
36.80833,88
36.81667,89
36.82500,89
36.83333,89
36.84167,88
36.85000,88
36.85833,88
36.86667,88
36.87500,88
36.88333,87
36.89167,87
36.90000,87
36.90833,86
36.91667,86
36.92500,86
36.93333,86
36.94167,86
36.95000,86
36.95833,85
36.96667,85
36.97500,84
36.98333,84
36.99167,84
37.00000,84
37.00833,84
37.01667,84
37.02500,83
37.03333,83
37.04167,82
37.05000,81
37.05833,81
37.06667,81
37.07500,81
37.08333,81
37.09167,82
37.10000,81
37.10833,81
37.11667,81
37.12500,80
37.13333,80
37.14167,80
37.15000,80
37.15833,79
37.16667,79
37.17500,79
37.18333,79
37.19167,79
37.20000,79
37.20833,79
37.21667,79
37.22500,79
37.23333,78
37.24167,79
37.25000,79
37.25833,78
37.26667,78
37.27500,78
37.28333,79
37.29167,79
37.30000,79
37.30833,79
37.31667,78
37.32500,78
37.33333,78
37.34167,78
37.35000,78
37.35833,78
37.36667,78
37.37500,78
37.38333,78
37.39167,78
37.40000,78
37.40833,78
37.41667,78
37.42500,78
37.43333,78
37.44167,78
37.45000,78
37.45833,77
37.46667,77
37.47500,77
37.48333,77
37.49167,77
37.50000,77
37.50833,77
37.51667,77
37.52500,77
37.53333,77
37.54167,77
37.55000,76
37.55833,76
37.56667,76
37.57500,75
37.58333,75
37.59167,75
37.60000,75
37.60833,75
37.61667,75
37.62500,75
37.63333,75
37.64167,76
37.65000,75
37.65833,75
37.66667,75
37.67500,75
37.68333,75
37.69167,75
37.70000,75
37.70833,75
37.71667,75
37.72500,75
37.73333,75
37.74167,75
37.75000,75
37.75833,75
37.76667,75
37.77500,75
37.78333,75
37.79167,74
37.80000,74
37.80833,74
37.81667,74
37.82500,74
37.83333,74
37.84167,74
37.85000,74
37.85833,73
37.86667,73
37.87500,73
37.88333,73
37.89167,73
37.90000,73
37.90833,73
37.91667,73
37.92500,73
37.93333,73
37.94167,73
37.95000,73
37.95833,73
37.96667,74
37.97500,74
37.98333,74
37.99167,74
38.00000,75
38.00833,74
38.01667,75
38.02500,75
38.03333,75
38.04167,75
38.05000,75
38.05833,75
38.06667,75
38.07500,76
38.08333,76
38.09167,76
38.10000,76
38.10833,76
38.11667,77
38.12500,77
38.13333,77
38.14167,78
38.15000,78
38.15833,79
38.16667,79
38.17500,79
38.18333,79
38.19167,79
38.20000,79
38.20833,79
38.21667,79
38.22500,80
38.23333,80
38.24167,80
38.25000,80
38.25833,81
38.26667,81
38.27500,81
38.28333,82
38.29167,82
38.30000,81
38.30833,81
38.31667,81
38.32500,81
38.33333,81
38.34167,81
38.35000,82
38.35833,82
38.36667,82
38.37500,82
38.38333,81
38.39167,81
38.40000,81
38.40833,81
38.41667,80
38.42500,80
38.43333,80
38.44167,81
38.45000,81
38.45833,81
38.46667,82
38.47500,82
38.48333,82
38.49167,82
38.50000,82
38.50833,82
38.51667,82
38.52500,82
38.53333,81
38.54167,81
38.55000,81
38.55833,81
38.56667,82
38.57500,82
38.58333,82
38.59167,82
38.60000,82
38.60833,82
38.61667,82
38.62500,83
38.63333,83
38.64167,83
38.65000,83
38.65833,84
38.66667,84
38.67500,84
38.68333,84
38.69167,84
38.70000,84
38.70833,84
38.71667,85
38.72500,85
38.73333,85
38.74167,85
38.75000,85
38.75833,85
38.76667,85
38.77500,86
38.78333,86
38.79167,86
38.80000,87
38.80833,88
38.81667,88
38.82500,88
38.83333,88
38.84167,87
38.85000,87
38.85833,87
38.86667,87
38.87500,87
38.88333,87
38.89167,87
38.90000,87
38.90833,87
38.91667,86
38.92500,86
38.93333,86
38.94167,86
38.95000,86
38.95833,86
38.96667,86
38.97500,85
38.98333,85
38.99167,84
39.00000,84
39.00833,83
39.01667,83
39.02500,83
39.03333,82
39.04167,81
39.05000,81
39.05833,81
39.06667,81
39.07500,80
39.08333,80
39.09167,80
39.10000,79
39.10833,78
39.11667,78
39.12500,77
39.13333,77
39.14167,77
39.15000,76
39.15833,76
39.16667,76
39.17500,75
39.18333,75
39.19167,75
39.20000,75
39.20833,74
39.21667,74
39.22500,73
39.23333,73
39.24167,72
39.25000,72
39.25833,72
39.26667,72
39.27500,72
39.28333,72
39.29167,72
39.30000,71
39.30833,71
39.31667,72
39.32500,72
39.33333,71
39.34167,71
39.35000,71
39.35833,71
39.36667,71
39.37500,71
39.38333,72
39.39167,71
39.40000,71
39.40833,71
39.41667,71
39.42500,71
39.43333,71
39.44167,71
39.45000,71
39.45833,71
39.46667,71
39.47500,70
39.48333,71
39.49167,71
39.50000,71
39.50833,71
39.51667,71
39.52500,71
39.53333,71
39.54167,71
39.55000,71
39.55833,71
39.56667,71
39.57500,72
39.58333,72
39.59167,72
39.60000,72
39.60833,72
39.61667,72
39.62500,72
39.63333,72
39.64167,73
39.65000,73
39.65833,73
39.66667,73
39.67500,73
39.68333,73
39.69167,73
39.70000,73
39.70833,73
39.71667,73
39.72500,73
39.73333,73
39.74167,73
39.75000,73
39.75833,73
39.76667,73
39.77500,74
39.78333,74
39.79167,74
39.80000,74
39.80833,74
39.81667,74
39.82500,75
39.83333,75
39.84167,75
39.85000,75
39.85833,75
39.86667,75
39.87500,75
39.88333,76
39.89167,76
39.90000,76
39.90833,76
39.91667,77
39.92500,77
39.93333,77
39.94167,77
39.95000,77
39.95833,77
39.96667,78
39.97500,78
39.98333,79
39.99167,79
40.00000,80

