[Header]
Application Name,LabSolutions
Version,5.97 SP1
Data File Name,C:\Users\cremerlab\Desktop\griffin\2021-04-06_REL606_DM_glucose_turnover\2021-04-06_REL606_DM_glucose_turnover_462021_004_004.lcd
Output Date,4/6/2021
Output Time,7:57:20 PM

[File Information]
Type,Data File
Generated,4/6/2021 7:17:00 PM
Generated by,System Administrator
Modified,4/6/2021 7:57:20 PM
Modified by,System Administrator

[Sample Information]
Operator Name,System Administrator
Acquired,4/6/2021 7:17:18 PM
Sample Type,1:Standard
Level,4
Sample Name,2021-04-04_REL606_replicate_001_timepoint_004
Sample ID,004
ISTD Amount1,1
ISTD Amount2,1
ISTD Amount3,1
ISTD Amount4,1
ISTD Amount5,1
ISTD Amount6,1
ISTD Amount7,1
ISTD Amount8,1
ISTD Amount9,1
ISTD Amount10,1
ISTD Amount11,1
ISTD Amount12,1
ISTD Amount13,1
ISTD Amount14,1
ISTD Amount15,1
ISTD Amount16,1
ISTD Amount17,1
ISTD Amount18,1
ISTD Amount19,1
ISTD Amount20,1
ISTD Amount21,1
ISTD Amount22,1
ISTD Amount23,1
ISTD Amount24,1
ISTD Amount25,1
ISTD Amount26,1
ISTD Amount27,1
ISTD Amount28,1
ISTD Amount29,1
ISTD Amount30,1
ISTD Amount31,1
ISTD Amount32,1
Sample Amount,1
Dilution Factor,1
Vial#,4
Injection Volume,20

[Original Files]
Data File,C:\Users\cremerlab\Desktop\griffin\2021-04-06_REL606_DM_glucose_turnover\2021-04-06_REL606_DM_glucose_turnover_462021_004_004.lcd
Method File,C:\Users\cremerlab\Desktop\griffin\2.5mM_H2SO4_mobile_phase.lcm
Batch File,C:\Users\cremerlab\Desktop\griffin\2021-04-06_REL606_DM_glucose_turnover\2021-04-06_REL606_DM_glucose_turnover.lcb
Report Format File,c:\LabSolutions\System\DEFAULT.lsr

[File Description]


[Configuration]
Instrument Name,HPLC-PC-Instrument1
Instrument #,1
Line #,1
# of Detectors,2
Detector ID,Detector A,Detector B
Detector Name,Detector A,Detector B
# of Channels,1,1

[Peak Table(Detector A)]
# of Peaks,0

[Peak Table(Detector B)]
# of Peaks,6
Peak#,R.Time,I.Time,F.Time,Area,Height,A/H,Conc.,Mark,ID#,Name,k',Plate #,Plate Ht.,Tailing,Resolution,Sep.Factor,Area Ratio,Height Ratio,Conc. %,Norm Conc.
1,10.882,10.417,12.025,231399,13469,17.180,0.000,   ,,,0.000,9169,16.360,1.051,0.000,0.000,0,0,0.000,0.000
2,13.897,12.550,14.175,1587435,42985,36.930,0.000,   ,,,0.277,3208,46.761,0.000,4.198,0.000,0,0,0.000,0.000
3,14.321,14.175,14.967,155681,8211,18.961,0.000, V ,,,0.316,7241,20.716,0.000,0.512,1.140,0,0,0.000,0.000
4,15.672,14.967,17.467,910013,36313,25.061,0.000, V ,,,0.440,9216,16.275,1.151,2.038,1.393,0,0,0.000,0.000
5,19.080,18.758,19.600,2163,92,23.381,0.000,   ,,,0.753,14721,10.190,1.227,5.317,1.712,0,0,0.000,0.000
6,25.019,24.575,25.633,6158,222,27.778,0.000,   ,,,1.299,17185,8.728,1.099,8.531,1.725,0,0,0.000,0.000

[LC Chromatogram(Detector B-Ch1)]
Interval(msec),500
# of Points,4801
Start Time(min),0.000
End Time(min),40.000
Intensity Units,mV
Intensity Multiplier,0.001
R.Time (min),Intensity
0.00000,1
0.00833,1
0.01667,1
0.02500,0
0.03333,0
0.04167,0
0.05000,0
0.05833,0
0.06667,0
0.07500,1
0.08333,1
0.09167,1
0.10000,2
0.10833,2
0.11667,3
0.12500,3
0.13333,3
0.14167,3
0.15000,4
0.15833,4
0.16667,4
0.17500,3
0.18333,3
0.19167,3
0.20000,3
0.20833,3
0.21667,3
0.22500,4
0.23333,4
0.24167,4
0.25000,4
0.25833,4
0.26667,4
0.27500,4
0.28333,4
0.29167,3
0.30000,3
0.30833,3
0.31667,3
0.32500,3
0.33333,3
0.34167,3
0.35000,3
0.35833,3
0.36667,3
0.37500,3
0.38333,2
0.39167,2
0.40000,2
0.40833,2
0.41667,2
0.42500,2
0.43333,2
0.44167,2
0.45000,1
0.45833,1
0.46667,1
0.47500,1
0.48333,1
0.49167,1
0.50000,0
0.50833,0
0.51667,-0
0.52500,-0
0.53333,-0
0.54167,-0
0.55000,-0
0.55833,0
0.56667,-0
0.57500,-0
0.58333,-0
0.59167,-1
0.60000,-1
0.60833,-1
0.61667,-1
0.62500,-1
0.63333,-2
0.64167,-2
0.65000,-2
0.65833,-3
0.66667,-3
0.67500,-3
0.68333,-4
0.69167,-4
0.70000,-4
0.70833,-5
0.71667,-5
0.72500,-5
0.73333,-5
0.74167,-5
0.75000,-5
0.75833,-5
0.76667,-6
0.77500,-6
0.78333,-6
0.79167,-6
0.80000,-6
0.80833,-7
0.81667,-7
0.82500,-7
0.83333,-7
0.84167,-7
0.85000,-8
0.85833,-8
0.86667,-8
0.87500,-8
0.88333,-8
0.89167,-8
0.90000,-9
0.90833,-9
0.91667,-9
0.92500,-8
0.93333,-8
0.94167,-9
0.95000,-9
0.95833,-9
0.96667,-9
0.97500,-9
0.98333,-9
0.99167,-9
1.00000,-10
1.00833,-10
1.01667,-10
1.02500,-10
1.03333,-10
1.04167,-10
1.05000,-9
1.05833,-9
1.06667,-9
1.07500,-8
1.08333,-8
1.09167,-9
1.10000,-9
1.10833,-8
1.11667,-8
1.12500,-8
1.13333,-8
1.14167,-8
1.15000,-8
1.15833,-8
1.16667,-8
1.17500,-8
1.18333,-8
1.19167,-7
1.20000,-7
1.20833,-7
1.21667,-7
1.22500,-6
1.23333,-6
1.24167,-5
1.25000,-5
1.25833,-5
1.26667,-4
1.27500,-4
1.28333,-4
1.29167,-3
1.30000,-3
1.30833,-2
1.31667,-1
1.32500,-1
1.33333,-1
1.34167,-1
1.35000,-1
1.35833,-0
1.36667,0
1.37500,1
1.38333,1
1.39167,1
1.40000,1
1.40833,2
1.41667,2
1.42500,3
1.43333,3
1.44167,3
1.45000,3
1.45833,3
1.46667,3
1.47500,4
1.48333,4
1.49167,4
1.50000,4
1.50833,3
1.51667,3
1.52500,4
1.53333,4
1.54167,4
1.55000,5
1.55833,5
1.56667,5
1.57500,5
1.58333,5
1.59167,4
1.60000,5
1.60833,5
1.61667,5
1.62500,6
1.63333,6
1.64167,6
1.65000,6
1.65833,6
1.66667,6
1.67500,7
1.68333,7
1.69167,8
1.70000,8
1.70833,8
1.71667,8
1.72500,8
1.73333,8
1.74167,8
1.75000,8
1.75833,8
1.76667,8
1.77500,8
1.78333,9
1.79167,9
1.80000,9
1.80833,9
1.81667,9
1.82500,9
1.83333,10
1.84167,10
1.85000,10
1.85833,10
1.86667,10
1.87500,10
1.88333,10
1.89167,10
1.90000,10
1.90833,9
1.91667,9
1.92500,9
1.93333,8
1.94167,9
1.95000,9
1.95833,9
1.96667,8
1.97500,8
1.98333,8
1.99167,8
2.00000,8
2.00833,8
2.01667,8
2.02500,8
2.03333,8
2.04167,8
2.05000,8
2.05833,8
2.06667,7
2.07500,7
2.08333,7
2.09167,6
2.10000,6
2.10833,5
2.11667,5
2.12500,4
2.13333,4
2.14167,3
2.15000,3
2.15833,2
2.16667,2
2.17500,1
2.18333,1
2.19167,1
2.20000,0
2.20833,-0
2.21667,-0
2.22500,-1
2.23333,-1
2.24167,-2
2.25000,-2
2.25833,-2
2.26667,-2
2.27500,-2
2.28333,-2
2.29167,-3
2.30000,-3
2.30833,-3
2.31667,-4
2.32500,-4
2.33333,-4
2.34167,-5
2.35000,-5
2.35833,-5
2.36667,-5
2.37500,-6
2.38333,-6
2.39167,-7
2.40000,-7
2.40833,-7
2.41667,-7
2.42500,-7
2.43333,-7
2.44167,-7
2.45000,-7
2.45833,-6
2.46667,-6
2.47500,-7
2.48333,-7
2.49167,-7
2.50000,-7
2.50833,-7
2.51667,-7
2.52500,-6
2.53333,-7
2.54167,-7
2.55000,-7
2.55833,-7
2.56667,-7
2.57500,-7
2.58333,-6
2.59167,-6
2.60000,-6
2.60833,-6
2.61667,-6
2.62500,-5
2.63333,-5
2.64167,-5
2.65000,-5
2.65833,-5
2.66667,-5
2.67500,-5
2.68333,-5
2.69167,-4
2.70000,-4
2.70833,-4
2.71667,-4
2.72500,-4
2.73333,-4
2.74167,-3
2.75000,-3
2.75833,-3
2.76667,-3
2.77500,-3
2.78333,-3
2.79167,-3
2.80000,-3
2.80833,-3
2.81667,-2
2.82500,-2
2.83333,-2
2.84167,-2
2.85000,-1
2.85833,-1
2.86667,-1
2.87500,-1
2.88333,-1
2.89167,-1
2.90000,-1
2.90833,-1
2.91667,-0
2.92500,-1
2.93333,-1
2.94167,-1
2.95000,-0
2.95833,-0
2.96667,-0
2.97500,-0
2.98333,-0
2.99167,-1
3.00000,-1
3.00833,-1
3.01667,-1
3.02500,-1
3.03333,-1
3.04167,-1
3.05000,-1
3.05833,-0
3.06667,-0
3.07500,-0
3.08333,-0
3.09167,-0
3.10000,-1
3.10833,-1
3.11667,-0
3.12500,-0
3.13333,-1
3.14167,-1
3.15000,-1
3.15833,-1
3.16667,-1
3.17500,-1
3.18333,-1
3.19167,-0
3.20000,-0
3.20833,0
3.21667,1
3.22500,1
3.23333,1
3.24167,1
3.25000,1
3.25833,1
3.26667,2
3.27500,2
3.28333,2
3.29167,2
3.30000,3
3.30833,3
3.31667,3
3.32500,3
3.33333,3
3.34167,4
3.35000,4
3.35833,4
3.36667,4
3.37500,5
3.38333,5
3.39167,6
3.40000,6
3.40833,7
3.41667,7
3.42500,7
3.43333,7
3.44167,7
3.45000,7
3.45833,7
3.46667,8
3.47500,8
3.48333,8
3.49167,9
3.50000,9
3.50833,10
3.51667,10
3.52500,10
3.53333,10
3.54167,10
3.55000,10
3.55833,10
3.56667,10
3.57500,11
3.58333,11
3.59167,11
3.60000,11
3.60833,11
3.61667,11
3.62500,11
3.63333,11
3.64167,11
3.65000,10
3.65833,10
3.66667,10
3.67500,10
3.68333,9
3.69167,9
3.70000,9
3.70833,8
3.71667,8
3.72500,7
3.73333,7
3.74167,7
3.75000,7
3.75833,6
3.76667,6
3.77500,6
3.78333,6
3.79167,6
3.80000,6
3.80833,6
3.81667,6
3.82500,5
3.83333,5
3.84167,5
3.85000,5
3.85833,4
3.86667,3
3.87500,3
3.88333,3
3.89167,2
3.90000,2
3.90833,2
3.91667,1
3.92500,1
3.93333,1
3.94167,1
3.95000,1
3.95833,1
3.96667,1
3.97500,1
3.98333,1
3.99167,1
4.00000,1
4.00833,1
4.01667,1
4.02500,1
4.03333,1
4.04167,1
4.05000,1
4.05833,1
4.06667,1
4.07500,1
4.08333,1
4.09167,1
4.10000,0
4.10833,0
4.11667,1
4.12500,1
4.13333,1
4.14167,1
4.15000,1
4.15833,1
4.16667,1
4.17500,1
4.18333,1
4.19167,1
4.20000,1
4.20833,1
4.21667,1
4.22500,1
4.23333,1
4.24167,1
4.25000,1
4.25833,1
4.26667,1
4.27500,1
4.28333,1
4.29167,1
4.30000,1
4.30833,1
4.31667,1
4.32500,0
4.33333,0
4.34167,-0
4.35000,-0
4.35833,-0
4.36667,-1
4.37500,-1
4.38333,-0
4.39167,-0
4.40000,-0
4.40833,-0
4.41667,-0
4.42500,-0
4.43333,-0
4.44167,-1
4.45000,-1
4.45833,-1
4.46667,-1
4.47500,-1
4.48333,-0
4.49167,-0
4.50000,-1
4.50833,-1
4.51667,-1
4.52500,-1
4.53333,-1
4.54167,-1
4.55000,-1
4.55833,-1
4.56667,-1
4.57500,-1
4.58333,-1
4.59167,-2
4.60000,-2
4.60833,-2
4.61667,-2
4.62500,-2
4.63333,-1
4.64167,-1
4.65000,-2
4.65833,-2
4.66667,-2
4.67500,-2
4.68333,-2
4.69167,-2
4.70000,-2
4.70833,-1
4.71667,-1
4.72500,-1
4.73333,-1
4.74167,-1
4.75000,-1
4.75833,-1
4.76667,-1
4.77500,-0
4.78333,-0
4.79167,0
4.80000,0
4.80833,0
4.81667,1
4.82500,0
4.83333,0
4.84167,0
4.85000,0
4.85833,0
4.86667,0
4.87500,0
4.88333,0
4.89167,0
4.90000,0
4.90833,1
4.91667,1
4.92500,1
4.93333,1
4.94167,1
4.95000,2
4.95833,2
4.96667,2
4.97500,2
4.98333,2
4.99167,2
5.00000,3
5.00833,3
5.01667,3
5.02500,3
5.03333,3
5.04167,3
5.05000,3
5.05833,3
5.06667,3
5.07500,3
5.08333,3
5.09167,3
5.10000,3
5.10833,3
5.11667,3
5.12500,4
5.13333,4
5.14167,3
5.15000,3
5.15833,3
5.16667,4
5.17500,4
5.18333,4
5.19167,3
5.20000,3
5.20833,2
5.21667,2
5.22500,2
5.23333,2
5.24167,2
5.25000,2
5.25833,2
5.26667,3
5.27500,3
5.28333,3
5.29167,3
5.30000,2
5.30833,2
5.31667,1
5.32500,1
5.33333,0
5.34167,0
5.35000,0
5.35833,0
5.36667,0
5.37500,0
5.38333,0
5.39167,-0
5.40000,-1
5.40833,-1
5.41667,-1
5.42500,-2
5.43333,-2
5.44167,-2
5.45000,-2
5.45833,-3
5.46667,-3
5.47500,-3
5.48333,-3
5.49167,-4
5.50000,-4
5.50833,-4
5.51667,-4
5.52500,-5
5.53333,-5
5.54167,-5
5.55000,-6
5.55833,-6
5.56667,-6
5.57500,-6
5.58333,-7
5.59167,-7
5.60000,-7
5.60833,-7
5.61667,-7
5.62500,-8
5.63333,-8
5.64167,-9
5.65000,-9
5.65833,-9
5.66667,-10
5.67500,-10
5.68333,-10
5.69167,-10
5.70000,-10
5.70833,-11
5.71667,-11
5.72500,-12
5.73333,-12
5.74167,-12
5.75000,-12
5.75833,-12
5.76667,-12
5.77500,-12
5.78333,-12
5.79167,-12
5.80000,-13
5.80833,-13
5.81667,-13
5.82500,-13
5.83333,-13
5.84167,-13
5.85000,-13
5.85833,-13
5.86667,-13
5.87500,-13
5.88333,-13
5.89167,-13
5.90000,-13
5.90833,-13
5.91667,-14
5.92500,-14
5.93333,-14
5.94167,-13
5.95000,-13
5.95833,-13
5.96667,-13
5.97500,-13
5.98333,-13
5.99167,-13
6.00000,-13
6.00833,-12
6.01667,-12
6.02500,-11
6.03333,-11
6.04167,-11
6.05000,-10
6.05833,-10
6.06667,-10
6.07500,-10
6.08333,-10
6.09167,-10
6.10000,-9
6.10833,-9
6.11667,-9
6.12500,-9
6.13333,-8
6.14167,-8
6.15000,-8
6.15833,-7
6.16667,-7
6.17500,-7
6.18333,-7
6.19167,-7
6.20000,-7
6.20833,-7
6.21667,-7
6.22500,-6
6.23333,-6
6.24167,-6
6.25000,-6
6.25833,-5
6.26667,-5
6.27500,-4
6.28333,-4
6.29167,-4
6.30000,-4
6.30833,-4
6.31667,-4
6.32500,-4
6.33333,-4
6.34167,-4
6.35000,-3
6.35833,-3
6.36667,-2
6.37500,-2
6.38333,-2
6.39167,-2
6.40000,-1
6.40833,-1
6.41667,-1
6.42500,-1
6.43333,-0
6.44167,-0
6.45000,-0
6.45833,-0
6.46667,-0
6.47500,0
6.48333,0
6.49167,1
6.50000,1
6.50833,1
6.51667,1
6.52500,1
6.53333,2
6.54167,2
6.55000,1
6.55833,1
6.56667,2
6.57500,2
6.58333,2
6.59167,3
6.60000,3
6.60833,4
6.61667,5
6.62500,5
6.63333,5
6.64167,6
6.65000,6
6.65833,6
6.66667,6
6.67500,6
6.68333,6
6.69167,6
6.70000,6
6.70833,6
6.71667,6
6.72500,6
6.73333,6
6.74167,7
6.75000,7
6.75833,7
6.76667,7
6.77500,7
6.78333,7
6.79167,7
6.80000,7
6.80833,7
6.81667,7
6.82500,7
6.83333,7
6.84167,7
6.85000,7
6.85833,7
6.86667,7
6.87500,7
6.88333,7
6.89167,7
6.90000,6
6.90833,6
6.91667,6
6.92500,6
6.93333,6
6.94167,6
6.95000,6
6.95833,5
6.96667,5
6.97500,5
6.98333,5
6.99167,5
7.00000,5
7.00833,5
7.01667,5
7.02500,4
7.03333,4
7.04167,3
7.05000,3
7.05833,3
7.06667,2
7.07500,2
7.08333,2
7.09167,2
7.10000,1
7.10833,1
7.11667,1
7.12500,0
7.13333,-0
7.14167,-0
7.15000,-0
7.15833,-0
7.16667,-0
7.17500,-1
7.18333,-1
7.19167,-2
7.20000,-2
7.20833,-2
7.21667,-2
7.22500,-2
7.23333,-2
7.24167,-3
7.25000,-3
7.25833,-3
7.26667,-3
7.27500,-3
7.28333,-3
7.29167,-4
7.30000,-4
7.30833,-5
7.31667,-5
7.32500,-5
7.33333,-6
7.34167,-6
7.35000,-6
7.35833,-7
7.36667,-7
7.37500,-7
7.38333,-7
7.39167,-7
7.40000,-7
7.40833,-7
7.41667,-7
7.42500,-7
7.43333,-7
7.44167,-7
7.45000,-8
7.45833,-8
7.46667,-8
7.47500,-8
7.48333,-8
7.49167,-9
7.50000,-9
7.50833,-9
7.51667,-8
7.52500,-9
7.53333,-9
7.54167,-9
7.55000,-9
7.55833,-10
7.56667,-10
7.57500,-10
7.58333,-11
7.59167,-11
7.60000,-11
7.60833,-11
7.61667,-11
7.62500,-11
7.63333,-10
7.64167,-10
7.65000,-10
7.65833,-11
7.66667,-11
7.67500,-11
7.68333,-11
7.69167,-11
7.70000,-11
7.70833,-11
7.71667,-11
7.72500,-11
7.73333,-11
7.74167,-12
7.75000,-12
7.75833,-12
7.76667,-12
7.77500,-11
7.78333,-11
7.79167,-11
7.80000,-11
7.80833,-11
7.81667,-11
7.82500,-11
7.83333,-11
7.84167,-11
7.85000,-12
7.85833,-12
7.86667,-11
7.87500,-11
7.88333,-11
7.89167,-10
7.90000,-10
7.90833,-10
7.91667,-10
7.92500,-10
7.93333,-9
7.94167,-9
7.95000,-10
7.95833,-10
7.96667,-10
7.97500,-10
7.98333,-10
7.99167,-9
8.00000,-9
8.00833,-9
8.01667,-8
8.02500,-7
8.03333,-7
8.04167,-7
8.05000,-7
8.05833,-7
8.06667,-6
8.07500,-6
8.08333,-6
8.09167,-5
8.10000,-5
8.10833,-5
8.11667,-5
8.12500,-4
8.13333,-4
8.14167,-3
8.15000,-3
8.15833,-2
8.16667,-2
8.17500,-2
8.18333,-2
8.19167,-1
8.20000,-1
8.20833,-1
8.21667,-1
8.22500,-1
8.23333,-1
8.24167,-1
8.25000,-1
8.25833,-1
8.26667,-1
8.27500,-1
8.28333,-0
8.29167,-0
8.30000,-0
8.30833,0
8.31667,0
8.32500,0
8.33333,1
8.34167,1
8.35000,1
8.35833,1
8.36667,1
8.37500,2
8.38333,2
8.39167,2
8.40000,2
8.40833,2
8.41667,2
8.42500,2
8.43333,2
8.44167,2
8.45000,2
8.45833,2
8.46667,2
8.47500,2
8.48333,2
8.49167,2
8.50000,2
8.50833,3
8.51667,3
8.52500,3
8.53333,3
8.54167,3
8.55000,3
8.55833,3
8.56667,3
8.57500,3
8.58333,3
8.59167,3
8.60000,3
8.60833,3
8.61667,3
8.62500,4
8.63333,4
8.64167,4
8.65000,3
8.65833,3
8.66667,3
8.67500,3
8.68333,3
8.69167,3
8.70000,3
8.70833,3
8.71667,3
8.72500,3
8.73333,3
8.74167,3
8.75000,3
8.75833,2
8.76667,2
8.77500,2
8.78333,2
8.79167,2
8.80000,2
8.80833,1
8.81667,1
8.82500,1
8.83333,1
8.84167,1
8.85000,1
8.85833,0
8.86667,0
8.87500,0
8.88333,-0
8.89167,-0
8.90000,-0
8.90833,-1
8.91667,-1
8.92500,-1
8.93333,-2
8.94167,-2
8.95000,-2
8.95833,-2
8.96667,-2
8.97500,-2
8.98333,-2
8.99167,-2
9.00000,-3
9.00833,-3
9.01667,-3
9.02500,-3
9.03333,-3
9.04167,-3
9.05000,-4
9.05833,-4
9.06667,-4
9.07500,-5
9.08333,-5
9.09167,-5
9.10000,-5
9.10833,-5
9.11667,-6
9.12500,-6
9.13333,-5
9.14167,-5
9.15000,-5
9.15833,-5
9.16667,-5
9.17500,-6
9.18333,-6
9.19167,-6
9.20000,-6
9.20833,-6
9.21667,-5
9.22500,-5
9.23333,-5
9.24167,-5
9.25000,-5
9.25833,-5
9.26667,-5
9.27500,-4
9.28333,-5
9.29167,-5
9.30000,-5
9.30833,-5
9.31667,-5
9.32500,-5
9.33333,-5
9.34167,-5
9.35000,-5
9.35833,-5
9.36667,-5
9.37500,-5
9.38333,-5
9.39167,-5
9.40000,-5
9.40833,-5
9.41667,-4
9.42500,-4
9.43333,-4
9.44167,-3
9.45000,-3
9.45833,-3
9.46667,-3
9.47500,-3
9.48333,-3
9.49167,-3
9.50000,-2
9.50833,-2
9.51667,-3
9.52500,-3
9.53333,-3
9.54167,-3
9.55000,-2
9.55833,-2
9.56667,-2
9.57500,-2
9.58333,-2
9.59167,-2
9.60000,-2
9.60833,-2
9.61667,-2
9.62500,-2
9.63333,-2
9.64167,-2
9.65000,-2
9.65833,-2
9.66667,-2
9.67500,-3
9.68333,-3
9.69167,-3
9.70000,-2
9.70833,-2
9.71667,-2
9.72500,-2
9.73333,-2
9.74167,-2
9.75000,-2
9.75833,-3
9.76667,-3
9.77500,-3
9.78333,-3
9.79167,-4
9.80000,-4
9.80833,-4
9.81667,-4
9.82500,-4
9.83333,-4
9.84167,-4
9.85000,-4
9.85833,-5
9.86667,-5
9.87500,-5
9.88333,-5
9.89167,-5
9.90000,-5
9.90833,-5
9.91667,-5
9.92500,-6
9.93333,-6
9.94167,-6
9.95000,-6
9.95833,-6
9.96667,-7
9.97500,-7
9.98333,-7
9.99167,-7
10.00000,-7
10.00833,-7
10.01667,-6
10.02500,-6
10.03333,-6
10.04167,-6
10.05000,-6
10.05833,-6
10.06667,-6
10.07500,-6
10.08333,-6
10.09167,-6
10.10000,-6
10.10833,-6
10.11667,-5
10.12500,-5
10.13333,-4
10.14167,-4
10.15000,-4
10.15833,-4
10.16667,-4
10.17500,-4
10.18333,-4
10.19167,-4
10.20000,-4
10.20833,-4
10.21667,-4
10.22500,-4
10.23333,-3
10.24167,-3
10.25000,-3
10.25833,-3
10.26667,-3
10.27500,-3
10.28333,-3
10.29167,-3
10.30000,-3
10.30833,-3
10.31667,-3
10.32500,-3
10.33333,-3
10.34167,-3
10.35000,-3
10.35833,-2
10.36667,-2
10.37500,-2
10.38333,-2
10.39167,-2
10.40000,-1
10.40833,-1
10.41667,-1
10.42500,-0
10.43333,1
10.44167,2
10.45000,3
10.45833,5
10.46667,8
10.47500,11
10.48333,15
10.49167,20
10.50000,28
10.50833,37
10.51667,49
10.52500,64
10.53333,84
10.54167,108
10.55000,138
10.55833,175
10.56667,220
10.57500,276
10.58333,344
10.59167,426
10.60000,523
10.60833,637
10.61667,771
10.62500,927
10.63333,1106
10.64167,1311
10.65000,1543
10.65833,1804
10.66667,2095
10.67500,2418
10.68333,2773
10.69167,3161
10.70000,3580
10.70833,4031
10.71667,4511
10.72500,5020
10.73333,5553
10.74167,6110
10.75000,6685
10.75833,7273
10.76667,7871
10.77500,8472
10.78333,9071
10.79167,9660
10.80000,10232
10.80833,10779
10.81667,11295
10.82500,11771
10.83333,12201
10.84167,12578
10.85000,12895
10.85833,13146
10.86667,13327
10.87500,13434
10.88333,13465
10.89167,13418
10.90000,13294
10.90833,13096
10.91667,12827
10.92500,12492
10.93333,12097
10.94167,11648
10.95000,11154
10.95833,10621
10.96667,10060
10.97500,9478
10.98333,8883
10.99167,8285
11.00000,7689
11.00833,7103
11.01667,6533
11.02500,5983
11.03333,5456
11.04167,4957
11.05000,4487
11.05833,4048
11.06667,3640
11.07500,3263
11.08333,2917
11.09167,2601
11.10000,2313
11.10833,2052
11.11667,1817
11.12500,1607
11.13333,1418
11.14167,1249
11.15000,1099
11.15833,966
11.16667,848
11.17500,745
11.18333,654
11.19167,574
11.20000,504
11.20833,443
11.21667,390
11.22500,344
11.23333,304
11.24167,269
11.25000,240
11.25833,214
11.26667,192
11.27500,173
11.28333,157
11.29167,143
11.30000,132
11.30833,122
11.31667,114
11.32500,106
11.33333,100
11.34167,94
11.35000,89
11.35833,85
11.36667,82
11.37500,79
11.38333,76
11.39167,74
11.40000,71
11.40833,69
11.41667,67
11.42500,65
11.43333,63
11.44167,62
11.45000,60
11.45833,59
11.46667,57
11.47500,55
11.48333,53
11.49167,52
11.50000,50
11.50833,48
11.51667,47
11.52500,45
11.53333,44
11.54167,42
11.55000,41
11.55833,40
11.56667,38
11.57500,37
11.58333,35
11.59167,34
11.60000,33
11.60833,31
11.61667,30
11.62500,28
11.63333,27
11.64167,25
11.65000,24
11.65833,23
11.66667,22
11.67500,21
11.68333,20
11.69167,19
11.70000,18
11.70833,16
11.71667,15
11.72500,15
11.73333,14
11.74167,13
11.75000,12
11.75833,11
11.76667,10
11.77500,9
11.78333,8
11.79167,7
11.80000,6
11.80833,6
11.81667,5
11.82500,4
11.83333,3
11.84167,2
11.85000,1
11.85833,-0
11.86667,-1
11.87500,-2
11.88333,-3
11.89167,-3
11.90000,-4
11.90833,-5
11.91667,-6
11.92500,-6
11.93333,-7
11.94167,-7
11.95000,-7
11.95833,-8
11.96667,-9
11.97500,-9
11.98333,-10
11.99167,-11
12.00000,-12
12.00833,-12
12.01667,-12
12.02500,-13
12.03333,-13
12.04167,-13
12.05000,-14
12.05833,-14
12.06667,-15
12.07500,-15
12.08333,-15
12.09167,-16
12.10000,-16
12.10833,-17
12.11667,-17
12.12500,-18
12.13333,-18
12.14167,-18
12.15000,-19
12.15833,-20
12.16667,-20
12.17500,-20
12.18333,-20
12.19167,-20
12.20000,-20
12.20833,-21
12.21667,-21
12.22500,-22
12.23333,-22
12.24167,-22
12.25000,-22
12.25833,-22
12.26667,-22
12.27500,-22
12.28333,-22
12.29167,-22
12.30000,-22
12.30833,-22
12.31667,-22
12.32500,-22
12.33333,-21
12.34167,-22
12.35000,-22
12.35833,-22
12.36667,-22
12.37500,-22
12.38333,-21
12.39167,-21
12.40000,-21
12.40833,-21
12.41667,-21
12.42500,-21
12.43333,-20
12.44167,-20
12.45000,-19
12.45833,-19
12.46667,-19
12.47500,-18
12.48333,-18
12.49167,-18
12.50000,-17
12.50833,-17
12.51667,-16
12.52500,-15
12.53333,-15
12.54167,-14
12.55000,-14
12.55833,-13
12.56667,-12
12.57500,-11
12.58333,-9
12.59167,-8
12.60000,-5
12.60833,-2
12.61667,1
12.62500,6
12.63333,11
12.64167,18
12.65000,27
12.65833,37
12.66667,49
12.67500,63
12.68333,80
12.69167,100
12.70000,123
12.70833,150
12.71667,181
12.72500,217
12.73333,257
12.74167,302
12.75000,353
12.75833,409
12.76667,472
12.77500,541
12.78333,616
12.79167,698
12.80000,786
12.80833,880
12.81667,982
12.82500,1090
12.83333,1206
12.84167,1328
12.85000,1457
12.85833,1592
12.86667,1734
12.87500,1882
12.88333,2036
12.89167,2196
12.90000,2362
12.90833,2534
12.91667,2711
12.92500,2893
12.93333,3081
12.94167,3273
12.95000,3470
12.95833,3672
12.96667,3878
12.97500,4089
12.98333,4303
12.99167,4522
13.00000,4744
13.00833,4970
13.01667,5199
13.02500,5433
13.03333,5669
13.04167,5910
13.05000,6153
13.05833,6399
13.06667,6648
13.07500,6901
13.08333,7156
13.09167,7414
13.10000,7674
13.10833,7937
13.11667,8203
13.12500,8472
13.13333,8743
13.14167,9017
13.15000,9293
13.15833,9572
13.16667,9854
13.17500,10137
13.18333,10423
13.19167,10711
13.20000,11001
13.20833,11294
13.21667,11590
13.22500,11887
13.23333,12187
13.24167,12490
13.25000,12795
13.25833,13102
13.26667,13411
13.27500,13723
13.28333,14037
13.29167,14353
13.30000,14672
13.30833,14993
13.31667,15317
13.32500,15643
13.33333,15971
13.34167,16302
13.35000,16635
13.35833,16970
13.36667,17308
13.37500,17647
13.38333,17989
13.39167,18334
13.40000,18682
13.40833,19032
13.41667,19384
13.42500,19739
13.43333,20097
13.44167,20456
13.45000,20819
13.45833,21184
13.46667,21552
13.47500,21923
13.48333,22296
13.49167,22671
13.50000,23049
13.50833,23430
13.51667,23813
13.52500,24199
13.53333,24587
13.54167,24979
13.55000,25373
13.55833,25770
13.56667,26170
13.57500,26573
13.58333,26978
13.59167,27386
13.60000,27797
13.60833,28211
13.61667,28628
13.62500,29047
13.63333,29470
13.64167,29895
13.65000,30323
13.65833,30755
13.66667,31189
13.67500,31626
13.68333,32066
13.69167,32509
13.70000,32955
13.70833,33405
13.71667,33858
13.72500,34314
13.73333,34773
13.74167,35235
13.75000,35700
13.75833,36168
13.76667,36640
13.77500,37115
13.78333,37593
13.79167,38074
13.80000,38558
13.80833,39043
13.81667,39530
13.82500,40016
13.83333,40497
13.84167,40969
13.85000,41424
13.85833,41853
13.86667,42241
13.87500,42572
13.88333,42824
13.89167,42975
13.90000,42999
13.90833,42871
13.91667,42566
13.92500,42063
13.93333,41348
13.94167,40410
13.95000,39249
13.95833,37872
13.96667,36295
13.97500,34542
13.98333,32644
13.99167,30636
14.00000,28556
14.00833,26443
14.01667,24337
14.02500,22272
14.03333,20280
14.04167,18388
14.05000,16616
14.05833,14978
14.06667,13486
14.07500,12142
14.08333,10948
14.09167,9902
14.10000,8999
14.10833,8231
14.11667,7590
14.12500,7066
14.13333,6652
14.14167,6336
14.15000,6111
14.15833,5965
14.16667,5890
14.17500,5878
14.18333,5919
14.19167,6005
14.20000,6129
14.20833,6282
14.21667,6459
14.22500,6651
14.23333,6853
14.24167,7058
14.25000,7259
14.25833,7452
14.26667,7632
14.27500,7795
14.28333,7936
14.29167,8053
14.30000,8143
14.30833,8203
14.31667,8233
14.32500,8232
14.33333,8200
14.34167,8137
14.35000,8044
14.35833,7923
14.36667,7774
14.37500,7601
14.38333,7406
14.39167,7190
14.40000,6957
14.40833,6709
14.41667,6449
14.42500,6181
14.43333,5905
14.44167,5626
14.45000,5344
14.45833,5064
14.46667,4787
14.47500,4513
14.48333,4246
14.49167,3986
14.50000,3735
14.50833,3493
14.51667,3262
14.52500,3040
14.53333,2830
14.54167,2632
14.55000,2444
14.55833,2268
14.56667,2103
14.57500,1949
14.58333,1806
14.59167,1672
14.60000,1549
14.60833,1435
14.61667,1329
14.62500,1232
14.63333,1143
14.64167,1061
14.65000,986
14.65833,917
14.66667,854
14.67500,797
14.68333,744
14.69167,696
14.70000,653
14.70833,613
14.71667,577
14.72500,545
14.73333,515
14.74167,487
14.75000,463
14.75833,440
14.76667,419
14.77500,400
14.78333,383
14.79167,367
14.80000,353
14.80833,340
14.81667,328
14.82500,318
14.83333,308
14.84167,299
14.85000,291
14.85833,284
14.86667,278
14.87500,272
14.88333,267
14.89167,263
14.90000,259
14.90833,255
14.91667,252
14.92500,249
14.93333,247
14.94167,245
14.95000,244
14.95833,243
14.96667,242
14.97500,242
14.98333,243
14.99167,244
15.00000,245
15.00833,246
15.01667,248
15.02500,251
15.03333,253
15.04167,256
15.05000,259
15.05833,262
15.06667,266
15.07500,270
15.08333,275
15.09167,280
15.10000,286
15.10833,291
15.11667,297
15.12500,304
15.13333,312
15.14167,321
15.15000,331
15.15833,343
15.16667,357
15.17500,374
15.18333,394
15.19167,418
15.20000,446
15.20833,480
15.21667,519
15.22500,567
15.23333,623
15.24167,689
15.25000,768
15.25833,860
15.26667,968
15.27500,1095
15.28333,1242
15.29167,1413
15.30000,1609
15.30833,1833
15.31667,2088
15.32500,2377
15.33333,2704
15.34167,3070
15.35000,3479
15.35833,3933
15.36667,4436
15.37500,4988
15.38333,5593
15.39167,6250
15.40000,6963
15.40833,7731
15.41667,8554
15.42500,9432
15.43333,10364
15.44167,11347
15.45000,12379
15.45833,13457
15.46667,14577
15.47500,15734
15.48333,16922
15.49167,18136
15.50000,19369
15.50833,20614
15.51667,21862
15.52500,23107
15.53333,24340
15.54167,25553
15.55000,26738
15.55833,27886
15.56667,28988
15.57500,30038
15.58333,31027
15.59167,31948
15.60000,32795
15.60833,33562
15.61667,34244
15.62500,34836
15.63333,35335
15.64167,35737
15.65000,36042
15.65833,36248
15.66667,36355
15.67500,36363
15.68333,36275
15.69167,36092
15.70000,35816
15.70833,35453
15.71667,35005
15.72500,34478
15.73333,33877
15.74167,33207
15.75000,32475
15.75833,31686
15.76667,30846
15.77500,29962
15.78333,29040
15.79167,28087
15.80000,27107
15.80833,26108
15.81667,25095
15.82500,24075
15.83333,23051
15.84167,22029
15.85000,21014
15.85833,20009
15.86667,19019
15.87500,18047
15.88333,17096
15.89167,16168
15.90000,15268
15.90833,14395
15.91667,13552
15.92500,12740
15.93333,11960
15.94167,11212
15.95000,10499
15.95833,9818
15.96667,9171
15.97500,8558
15.98333,7977
15.99167,7428
16.00000,6911
16.00833,6424
16.01667,5967
16.02500,5539
16.03333,5139
16.04167,4764
16.05000,4415
16.05833,4090
16.06667,3788
16.07500,3507
16.08333,3247
16.09167,3006
16.10000,2783
16.10833,2577
16.11667,2386
16.12500,2211
16.13333,2050
16.14167,1901
16.15000,1764
16.15833,1638
16.16667,1523
16.17500,1417
16.18333,1320
16.19167,1230
16.20000,1148
16.20833,1073
16.21667,1004
16.22500,941
16.23333,883
16.24167,830
16.25000,781
16.25833,737
16.26667,696
16.27500,659
16.28333,625
16.29167,594
16.30000,565
16.30833,538
16.31667,514
16.32500,491
16.33333,470
16.34167,451
16.35000,433
16.35833,417
16.36667,402
16.37500,388
16.38333,375
16.39167,363
16.40000,352
16.40833,342
16.41667,333
16.42500,324
16.43333,315
16.44167,308
16.45000,301
16.45833,294
16.46667,287
16.47500,281
16.48333,275
16.49167,270
16.50000,265
16.50833,261
16.51667,257
16.52500,253
16.53333,249
16.54167,245
16.55000,241
16.55833,238
16.56667,234
16.57500,231
16.58333,228
16.59167,225
16.60000,222
16.60833,220
16.61667,217
16.62500,215
16.63333,213
16.64167,211
16.65000,209
16.65833,207
16.66667,205
16.67500,203
16.68333,202
16.69167,200
16.70000,198
16.70833,196
16.71667,195
16.72500,193
16.73333,191
16.74167,190
16.75000,188
16.75833,187
16.76667,185
16.77500,184
16.78333,182
16.79167,180
16.80000,178
16.80833,176
16.81667,175
16.82500,173
16.83333,171
16.84167,169
16.85000,168
16.85833,166
16.86667,165
16.87500,163
16.88333,161
16.89167,160
16.90000,158
16.90833,157
16.91667,155
16.92500,154
16.93333,152
16.94167,151
16.95000,149
16.95833,148
16.96667,146
16.97500,145
16.98333,143
16.99167,142
17.00000,140
17.00833,139
17.01667,138
17.02500,136
17.03333,135
17.04167,134
17.05000,133
17.05833,131
17.06667,130
17.07500,128
17.08333,127
17.09167,126
17.10000,125
17.10833,123
17.11667,122
17.12500,121
17.13333,120
17.14167,119
17.15000,118
17.15833,117
17.16667,116
17.17500,115
17.18333,114
17.19167,113
17.20000,112
17.20833,110
17.21667,109
17.22500,108
17.23333,107
17.24167,106
17.25000,105
17.25833,104
17.26667,103
17.27500,102
17.28333,101
17.29167,101
17.30000,100
17.30833,99
17.31667,98
17.32500,97
17.33333,96
17.34167,96
17.35000,95
17.35833,94
17.36667,94
17.37500,93
17.38333,93
17.39167,92
17.40000,92
17.40833,91
17.41667,91
17.42500,90
17.43333,90
17.44167,89
17.45000,89
17.45833,88
17.46667,88
17.47500,88
17.48333,87
17.49167,87
17.50000,87
17.50833,86
17.51667,86
17.52500,86
17.53333,86
17.54167,85
17.55000,85
17.55833,85
17.56667,85
17.57500,84
17.58333,84
17.59167,84
17.60000,84
17.60833,84
17.61667,83
17.62500,83
17.63333,83
17.64167,83
17.65000,83
17.65833,83
17.66667,82
17.67500,82
17.68333,83
17.69167,83
17.70000,83
17.70833,83
17.71667,84
17.72500,84
17.73333,84
17.74167,84
17.75000,84
17.75833,83
17.76667,83
17.77500,83
17.78333,83
17.79167,83
17.80000,83
17.80833,82
17.81667,82
17.82500,82
17.83333,82
17.84167,82
17.85000,82
17.85833,82
17.86667,82
17.87500,82
17.88333,82
17.89167,81
17.90000,81
17.90833,80
17.91667,80
17.92500,80
17.93333,80
17.94167,79
17.95000,79
17.95833,78
17.96667,78
17.97500,77
17.98333,76
17.99167,76
18.00000,75
18.00833,74
18.01667,74
18.02500,73
18.03333,73
18.04167,73
18.05000,72
18.05833,72
18.06667,71
18.07500,71
18.08333,70
18.09167,70
18.10000,69
18.10833,68
18.11667,67
18.12500,67
18.13333,66
18.14167,65
18.15000,64
18.15833,63
18.16667,63
18.17500,62
18.18333,61
18.19167,61
18.20000,60
18.20833,60
18.21667,59
18.22500,58
18.23333,58
18.24167,58
18.25000,57
18.25833,56
18.26667,55
18.27500,55
18.28333,54
18.29167,53
18.30000,52
18.30833,51
18.31667,50
18.32500,50
18.33333,49
18.34167,49
18.35000,48
18.35833,48
18.36667,47
18.37500,47
18.38333,46
18.39167,46
18.40000,45
18.40833,45
18.41667,44
18.42500,44
18.43333,44
18.44167,44
18.45000,43
18.45833,43
18.46667,43
18.47500,43
18.48333,43
18.49167,42
18.50000,42
18.50833,41
18.51667,41
18.52500,41
18.53333,41
18.54167,42
18.55000,42
18.55833,42
18.56667,42
18.57500,41
18.58333,41
18.59167,41
18.60000,41
18.60833,41
18.61667,41
18.62500,41
18.63333,41
18.64167,41
18.65000,42
18.65833,42
18.66667,43
18.67500,43
18.68333,43
18.69167,43
18.70000,43
18.70833,43
18.71667,44
18.72500,45
18.73333,46
18.74167,47
18.75000,48
18.75833,49
18.76667,51
18.77500,52
18.78333,53
18.79167,55
18.80000,56
18.80833,58
18.81667,60
18.82500,62
18.83333,65
18.84167,68
18.85000,71
18.85833,73
18.86667,76
18.87500,79
18.88333,82
18.89167,85
18.90000,88
18.90833,91
18.91667,95
18.92500,98
18.93333,101
18.94167,105
18.95000,108
18.95833,111
18.96667,114
18.97500,117
18.98333,120
18.99167,123
19.00000,125
19.00833,127
19.01667,128
19.02500,130
19.03333,132
19.04167,133
19.05000,134
19.05833,135
19.06667,135
19.07500,135
19.08333,135
19.09167,135
19.10000,135
19.10833,134
19.11667,133
19.12500,132
19.13333,131
19.14167,130
19.15000,128
19.15833,126
19.16667,124
19.17500,122
19.18333,119
19.19167,116
19.20000,114
19.20833,111
19.21667,108
19.22500,106
19.23333,103
19.24167,100
19.25000,97
19.25833,94
19.26667,91
19.27500,89
19.28333,86
19.29167,83
19.30000,81
19.30833,78
19.31667,75
19.32500,73
19.33333,70
19.34167,68
19.35000,66
19.35833,64
19.36667,62
19.37500,60
19.38333,58
19.39167,57
19.40000,55
19.40833,53
19.41667,51
19.42500,50
19.43333,49
19.44167,48
19.45000,47
19.45833,46
19.46667,44
19.47500,43
19.48333,42
19.49167,41
19.50000,40
19.50833,39
19.51667,38
19.52500,38
19.53333,37
19.54167,36
19.55000,36
19.55833,35
19.56667,34
19.57500,34
19.58333,33
19.59167,33
19.60000,33
19.60833,32
19.61667,32
19.62500,32
19.63333,32
19.64167,31
19.65000,31
19.65833,30
19.66667,30
19.67500,30
19.68333,29
19.69167,29
19.70000,28
19.70833,28
19.71667,28
19.72500,27
19.73333,27
19.74167,26
19.75000,26
19.75833,26
19.76667,26
19.77500,25
19.78333,25
19.79167,25
19.80000,24
19.80833,24
19.81667,23
19.82500,23
19.83333,23
19.84167,23
19.85000,23
19.85833,22
19.86667,22
19.87500,21
19.88333,21
19.89167,21
19.90000,21
19.90833,20
19.91667,20
19.92500,19
19.93333,18
19.94167,18
19.95000,18
19.95833,17
19.96667,17
19.97500,17
19.98333,17
19.99167,16
20.00000,16
20.00833,16
20.01667,16
20.02500,16
20.03333,16
20.04167,15
20.05000,14
20.05833,14
20.06667,14
20.07500,14
20.08333,14
20.09167,14
20.10000,14
20.10833,14
20.11667,13
20.12500,13
20.13333,13
20.14167,13
20.15000,13
20.15833,13
20.16667,12
20.17500,12
20.18333,12
20.19167,11
20.20000,11
20.20833,11
20.21667,11
20.22500,11
20.23333,11
20.24167,11
20.25000,10
20.25833,10
20.26667,10
20.27500,9
20.28333,9
20.29167,9
20.30000,9
20.30833,9
20.31667,9
20.32500,8
20.33333,8
20.34167,8
20.35000,8
20.35833,7
20.36667,7
20.37500,7
20.38333,7
20.39167,8
20.40000,8
20.40833,8
20.41667,8
20.42500,7
20.43333,7
20.44167,7
20.45000,7
20.45833,7
20.46667,7
20.47500,6
20.48333,6
20.49167,5
20.50000,5
20.50833,5
20.51667,5
20.52500,5
20.53333,5
20.54167,5
20.55000,5
20.55833,5
20.56667,5
20.57500,5
20.58333,5
20.59167,6
20.60000,6
20.60833,6
20.61667,6
20.62500,6
20.63333,6
20.64167,6
20.65000,7
20.65833,7
20.66667,7
20.67500,7
20.68333,7
20.69167,7
20.70000,6
20.70833,6
20.71667,7
20.72500,7
20.73333,7
20.74167,8
20.75000,8
20.75833,8
20.76667,9
20.77500,8
20.78333,8
20.79167,9
20.80000,9
20.80833,9
20.81667,9
20.82500,10
20.83333,10
20.84167,10
20.85000,10
20.85833,10
20.86667,10
20.87500,10
20.88333,10
20.89167,10
20.90000,11
20.90833,11
20.91667,11
20.92500,11
20.93333,11
20.94167,11
20.95000,12
20.95833,12
20.96667,12
20.97500,12
20.98333,12
20.99167,12
21.00000,12
21.00833,12
21.01667,11
21.02500,11
21.03333,12
21.04167,12
21.05000,13
21.05833,13
21.06667,13
21.07500,13
21.08333,13
21.09167,13
21.10000,13
21.10833,13
21.11667,13
21.12500,14
21.13333,14
21.14167,14
21.15000,14
21.15833,14
21.16667,15
21.17500,15
21.18333,15
21.19167,15
21.20000,15
21.20833,15
21.21667,15
21.22500,15
21.23333,15
21.24167,15
21.25000,15
21.25833,15
21.26667,15
21.27500,15
21.28333,15
21.29167,15
21.30000,15
21.30833,15
21.31667,15
21.32500,15
21.33333,15
21.34167,15
21.35000,15
21.35833,15
21.36667,15
21.37500,15
21.38333,15
21.39167,15
21.40000,14
21.40833,14
21.41667,15
21.42500,15
21.43333,15
21.44167,14
21.45000,14
21.45833,14
21.46667,13
21.47500,13
21.48333,13
21.49167,13
21.50000,13
21.50833,12
21.51667,12
21.52500,12
21.53333,11
21.54167,11
21.55000,11
21.55833,11
21.56667,11
21.57500,10
21.58333,10
21.59167,10
21.60000,10
21.60833,10
21.61667,10
21.62500,10
21.63333,9
21.64167,9
21.65000,9
21.65833,9
21.66667,9
21.67500,9
21.68333,10
21.69167,9
21.70000,9
21.70833,9
21.71667,8
21.72500,8
21.73333,8
21.74167,7
21.75000,7
21.75833,7
21.76667,7
21.77500,7
21.78333,7
21.79167,6
21.80000,6
21.80833,6
21.81667,5
21.82500,5
21.83333,4
21.84167,4
21.85000,4
21.85833,3
21.86667,4
21.87500,4
21.88333,4
21.89167,3
21.90000,3
21.90833,3
21.91667,3
21.92500,3
21.93333,3
21.94167,2
21.95000,2
21.95833,1
21.96667,1
21.97500,0
21.98333,-0
21.99167,-0
22.00000,-1
22.00833,-1
22.01667,-2
22.02500,-2
22.03333,-2
22.04167,-2
22.05000,-3
22.05833,-3
22.06667,-4
22.07500,-4
22.08333,-4
22.09167,-4
22.10000,-4
22.10833,-5
22.11667,-5
22.12500,-5
22.13333,-5
22.14167,-5
22.15000,-5
22.15833,-5
22.16667,-5
22.17500,-6
22.18333,-6
22.19167,-6
22.20000,-6
22.20833,-6
22.21667,-7
22.22500,-7
22.23333,-7
22.24167,-7
22.25000,-7
22.25833,-7
22.26667,-7
22.27500,-7
22.28333,-7
22.29167,-7
22.30000,-7
22.30833,-7
22.31667,-7
22.32500,-7
22.33333,-7
22.34167,-8
22.35000,-8
22.35833,-7
22.36667,-7
22.37500,-7
22.38333,-7
22.39167,-7
22.40000,-7
22.40833,-7
22.41667,-6
22.42500,-6
22.43333,-6
22.44167,-6
22.45000,-5
22.45833,-5
22.46667,-5
22.47500,-5
22.48333,-5
22.49167,-4
22.50000,-4
22.50833,-4
22.51667,-3
22.52500,-2
22.53333,-2
22.54167,-2
22.55000,-2
22.55833,-2
22.56667,-2
22.57500,-1
22.58333,-1
22.59167,-0
22.60000,0
22.60833,1
22.61667,1
22.62500,2
22.63333,2
22.64167,3
22.65000,4
22.65833,4
22.66667,5
22.67500,6
22.68333,7
22.69167,8
22.70000,9
22.70833,10
22.71667,11
22.72500,11
22.73333,12
22.74167,13
22.75000,14
22.75833,15
22.76667,16
22.77500,17
22.78333,18
22.79167,19
22.80000,19
22.80833,20
22.81667,21
22.82500,22
22.83333,24
22.84167,24
22.85000,25
22.85833,26
22.86667,26
22.87500,27
22.88333,28
22.89167,28
22.90000,29
22.90833,29
22.91667,29
22.92500,30
22.93333,30
22.94167,30
22.95000,30
22.95833,30
22.96667,30
22.97500,30
22.98333,29
22.99167,29
23.00000,29
23.00833,29
23.01667,29
23.02500,29
23.03333,28
23.04167,27
23.05000,27
23.05833,26
23.06667,25
23.07500,25
23.08333,24
23.09167,23
23.10000,22
23.10833,22
23.11667,21
23.12500,20
23.13333,19
23.14167,19
23.15000,18
23.15833,17
23.16667,16
23.17500,15
23.18333,14
23.19167,14
23.20000,13
23.20833,12
23.21667,11
23.22500,10
23.23333,9
23.24167,8
23.25000,7
23.25833,6
23.26667,6
23.27500,5
23.28333,4
23.29167,4
23.30000,3
23.30833,3
23.31667,2
23.32500,2
23.33333,1
23.34167,0
23.35000,-0
23.35833,-1
23.36667,-1
23.37500,-2
23.38333,-3
23.39167,-3
23.40000,-3
23.40833,-4
23.41667,-4
23.42500,-5
23.43333,-5
23.44167,-5
23.45000,-6
23.45833,-6
23.46667,-6
23.47500,-7
23.48333,-7
23.49167,-7
23.50000,-8
23.50833,-8
23.51667,-8
23.52500,-8
23.53333,-8
23.54167,-8
23.55000,-8
23.55833,-8
23.56667,-8
23.57500,-8
23.58333,-8
23.59167,-8
23.60000,-8
23.60833,-8
23.61667,-7
23.62500,-7
23.63333,-8
23.64167,-8
23.65000,-8
23.65833,-8
23.66667,-7
23.67500,-7
23.68333,-7
23.69167,-6
23.70000,-6
23.70833,-6
23.71667,-6
23.72500,-6
23.73333,-6
23.74167,-6
23.75000,-6
23.75833,-6
23.76667,-6
23.77500,-6
23.78333,-6
23.79167,-6
23.80000,-6
23.80833,-5
23.81667,-4
23.82500,-4
23.83333,-4
23.84167,-4
23.85000,-4
23.85833,-4
23.86667,-4
23.87500,-3
23.88333,-3
23.89167,-3
23.90000,-3
23.90833,-3
23.91667,-3
23.92500,-3
23.93333,-2
23.94167,-2
23.95000,-1
23.95833,-1
23.96667,-0
23.97500,-0
23.98333,-0
23.99167,0
24.00000,0
24.00833,-0
24.01667,-0
24.02500,-0
24.03333,0
24.04167,0
24.05000,1
24.05833,2
24.06667,2
24.07500,2
24.08333,2
24.09167,3
24.10000,3
24.10833,4
24.11667,4
24.12500,4
24.13333,5
24.14167,5
24.15000,5
24.15833,6
24.16667,6
24.17500,6
24.18333,6
24.19167,6
24.20000,7
24.20833,7
24.21667,8
24.22500,8
24.23333,8
24.24167,8
24.25000,9
24.25833,9
24.26667,9
24.27500,9
24.28333,10
24.29167,10
24.30000,10
24.30833,11
24.31667,11
24.32500,11
24.33333,11
24.34167,11
24.35000,12
24.35833,12
24.36667,13
24.37500,13
24.38333,13
24.39167,14
24.40000,14
24.40833,15
24.41667,15
24.42500,15
24.43333,16
24.44167,16
24.45000,16
24.45833,17
24.46667,17
24.47500,17
24.48333,17
24.49167,17
24.50000,18
24.50833,19
24.51667,19
24.52500,20
24.53333,21
24.54167,22
24.55000,23
24.55833,24
24.56667,25
24.57500,26
24.58333,27
24.59167,28
24.60000,29
24.60833,31
24.61667,33
24.62500,35
24.63333,37
24.64167,39
24.65000,42
24.65833,45
24.66667,48
24.67500,51
24.68333,55
24.69167,58
24.70000,61
24.70833,65
24.71667,69
24.72500,73
24.73333,78
24.74167,82
24.75000,87
24.75833,92
24.76667,97
24.77500,103
24.78333,108
24.79167,114
24.80000,120
24.80833,126
24.81667,132
24.82500,138
24.83333,144
24.84167,150
24.85000,156
24.85833,162
24.86667,168
24.87500,174
24.88333,180
24.89167,185
24.90000,190
24.90833,195
24.91667,200
24.92500,205
24.93333,209
24.94167,214
24.95000,218
24.95833,222
24.96667,225
24.97500,227
24.98333,230
24.99167,232
25.00000,234
25.00833,235
25.01667,235
25.02500,235
25.03333,235
25.04167,234
25.05000,233
25.05833,232
25.06667,230
25.07500,228
25.08333,225
25.09167,222
25.10000,219
25.10833,216
25.11667,212
25.12500,208
25.13333,203
25.14167,198
25.15000,193
25.15833,188
25.16667,183
25.17500,178
25.18333,172
25.19167,166
25.20000,160
25.20833,154
25.21667,149
25.22500,143
25.23333,137
25.24167,131
25.25000,125
25.25833,119
25.26667,114
25.27500,108
25.28333,102
25.29167,97
25.30000,91
25.30833,86
25.31667,81
25.32500,76
25.33333,71
25.34167,66
25.35000,62
25.35833,58
25.36667,53
25.37500,49
25.38333,46
25.39167,42
25.40000,39
25.40833,36
25.41667,33
25.42500,29
25.43333,26
25.44167,24
25.45000,21
25.45833,19
25.46667,17
25.47500,15
25.48333,13
25.49167,11
25.50000,9
25.50833,8
25.51667,7
25.52500,6
25.53333,5
25.54167,3
25.55000,2
25.55833,1
25.56667,1
25.57500,0
25.58333,-0
25.59167,-1
25.60000,-2
25.60833,-2
25.61667,-3
25.62500,-3
25.63333,-3
25.64167,-4
25.65000,-4
25.65833,-4
25.66667,-3
25.67500,-3
25.68333,-3
25.69167,-3
25.70000,-3
25.70833,-3
25.71667,-3
25.72500,-3
25.73333,-3
25.74167,-3
25.75000,-4
25.75833,-4
25.76667,-4
25.77500,-4
25.78333,-3
25.79167,-3
25.80000,-3
25.80833,-3
25.81667,-3
25.82500,-3
25.83333,-3
25.84167,-3
25.85000,-3
25.85833,-3
25.86667,-3
25.87500,-3
25.88333,-3
25.89167,-2
25.90000,-2
25.90833,-1
25.91667,-1
25.92500,-1
25.93333,-1
25.94167,-1
25.95000,-1
25.95833,-1
25.96667,-0
25.97500,-0
25.98333,0
25.99167,0
26.00000,0
26.00833,1
26.01667,1
26.02500,1
26.03333,1
26.04167,1
26.05000,1
26.05833,0
26.06667,0
26.07500,1
26.08333,1
26.09167,1
26.10000,1
26.10833,2
26.11667,1
26.12500,1
26.13333,1
26.14167,1
26.15000,1
26.15833,2
26.16667,2
26.17500,2
26.18333,2
26.19167,3
26.20000,3
26.20833,4
26.21667,4
26.22500,5
26.23333,5
26.24167,5
26.25000,5
26.25833,5
26.26667,5
26.27500,5
26.28333,5
26.29167,5
26.30000,5
26.30833,5
26.31667,5
26.32500,5
26.33333,5
26.34167,5
26.35000,6
26.35833,6
26.36667,5
26.37500,5
26.38333,5
26.39167,5
26.40000,5
26.40833,5
26.41667,5
26.42500,5
26.43333,5
26.44167,5
26.45000,5
26.45833,5
26.46667,5
26.47500,5
26.48333,5
26.49167,5
26.50000,5
26.50833,5
26.51667,4
26.52500,4
26.53333,4
26.54167,4
26.55000,4
26.55833,4
26.56667,4
26.57500,3
26.58333,3
26.59167,3
26.60000,3
26.60833,3
26.61667,2
26.62500,2
26.63333,2
26.64167,2
26.65000,2
26.65833,1
26.66667,1
26.67500,0
26.68333,0
26.69167,-0
26.70000,-0
26.70833,-0
26.71667,-1
26.72500,-1
26.73333,-1
26.74167,-2
26.75000,-2
26.75833,-3
26.76667,-3
26.77500,-3
26.78333,-3
26.79167,-3
26.80000,-4
26.80833,-4
26.81667,-4
26.82500,-4
26.83333,-5
26.84167,-5
26.85000,-5
26.85833,-5
26.86667,-5
26.87500,-5
26.88333,-5
26.89167,-6
26.90000,-6
26.90833,-6
26.91667,-7
26.92500,-7
26.93333,-7
26.94167,-8
26.95000,-8
26.95833,-8
26.96667,-8
26.97500,-8
26.98333,-8
26.99167,-8
27.00000,-8
27.00833,-8
27.01667,-9
27.02500,-9
27.03333,-9
27.04167,-9
27.05000,-9
27.05833,-9
27.06667,-9
27.07500,-9
27.08333,-9
27.09167,-9
27.10000,-9
27.10833,-9
27.11667,-10
27.12500,-10
27.13333,-10
27.14167,-10
27.15000,-10
27.15833,-9
27.16667,-9
27.17500,-9
27.18333,-8
27.19167,-8
27.20000,-8
27.20833,-8
27.21667,-7
27.22500,-7
27.23333,-7
27.24167,-6
27.25000,-6
27.25833,-6
27.26667,-6
27.27500,-5
27.28333,-5
27.29167,-4
27.30000,-4
27.30833,-4
27.31667,-4
27.32500,-4
27.33333,-3
27.34167,-3
27.35000,-2
27.35833,-2
27.36667,-2
27.37500,-1
27.38333,-1
27.39167,-1
27.40000,-0
27.40833,0
27.41667,0
27.42500,1
27.43333,2
27.44167,2
27.45000,3
27.45833,3
27.46667,3
27.47500,3
27.48333,3
27.49167,4
27.50000,4
27.50833,4
27.51667,5
27.52500,5
27.53333,5
27.54167,4
27.55000,4
27.55833,4
27.56667,5
27.57500,4
27.58333,4
27.59167,4
27.60000,5
27.60833,5
27.61667,5
27.62500,5
27.63333,4
27.64167,4
27.65000,4
27.65833,4
27.66667,4
27.67500,3
27.68333,3
27.69167,3
27.70000,3
27.70833,2
27.71667,2
27.72500,1
27.73333,1
27.74167,0
27.75000,-1
27.75833,-1
27.76667,-2
27.77500,-3
27.78333,-3
27.79167,-4
27.80000,-5
27.80833,-6
27.81667,-7
27.82500,-8
27.83333,-9
27.84167,-10
27.85000,-12
27.85833,-13
27.86667,-14
27.87500,-16
27.88333,-18
27.89167,-19
27.90000,-21
27.90833,-23
27.91667,-25
27.92500,-27
27.93333,-29
27.94167,-31
27.95000,-34
27.95833,-37
27.96667,-40
27.97500,-42
27.98333,-44
27.99167,-47
28.00000,-50
28.00833,-53
28.01667,-56
28.02500,-58
28.03333,-62
28.04167,-65
28.05000,-68
28.05833,-72
28.06667,-75
28.07500,-78
28.08333,-81
28.09167,-85
28.10000,-88
28.10833,-92
28.11667,-95
28.12500,-99
28.13333,-102
28.14167,-106
28.15000,-110
28.15833,-113
28.16667,-117
28.17500,-120
28.18333,-123
28.19167,-126
28.20000,-129
28.20833,-132
28.21667,-135
28.22500,-138
28.23333,-141
28.24167,-144
28.25000,-146
28.25833,-148
28.26667,-149
28.27500,-151
28.28333,-152
28.29167,-154
28.30000,-155
28.30833,-157
28.31667,-158
28.32500,-160
28.33333,-161
28.34167,-161
28.35000,-162
28.35833,-162
28.36667,-163
28.37500,-163
28.38333,-162
28.39167,-162
28.40000,-161
28.40833,-160
28.41667,-159
28.42500,-158
28.43333,-158
28.44167,-157
28.45000,-155
28.45833,-154
28.46667,-152
28.47500,-150
28.48333,-149
28.49167,-147
28.50000,-145
28.50833,-143
28.51667,-140
28.52500,-138
28.53333,-135
28.54167,-132
28.55000,-130
28.55833,-127
28.56667,-125
28.57500,-123
28.58333,-120
28.59167,-117
28.60000,-114
28.60833,-112
28.61667,-109
28.62500,-107
28.63333,-104
28.64167,-102
28.65000,-99
28.65833,-96
28.66667,-93
28.67500,-91
28.68333,-88
28.69167,-86
28.70000,-84
28.70833,-81
28.71667,-79
28.72500,-76
28.73333,-73
28.74167,-71
28.75000,-69
28.75833,-67
28.76667,-65
28.77500,-63
28.78333,-60
28.79167,-59
28.80000,-57
28.80833,-55
28.81667,-54
28.82500,-52
28.83333,-50
28.84167,-48
28.85000,-46
28.85833,-45
28.86667,-44
28.87500,-42
28.88333,-41
28.89167,-40
28.90000,-38
28.90833,-37
28.91667,-36
28.92500,-35
28.93333,-33
28.94167,-32
28.95000,-31
28.95833,-30
28.96667,-29
28.97500,-29
28.98333,-28
28.99167,-27
29.00000,-26
29.00833,-25
29.01667,-24
29.02500,-23
29.03333,-22
29.04167,-21
29.05000,-20
29.05833,-19
29.06667,-19
29.07500,-19
29.08333,-18
29.09167,-18
29.10000,-17
29.10833,-16
29.11667,-15
29.12500,-15
29.13333,-14
29.14167,-13
29.15000,-12
29.15833,-11
29.16667,-11
29.17500,-10
29.18333,-10
29.19167,-9
29.20000,-9
29.20833,-8
29.21667,-8
29.22500,-7
29.23333,-7
29.24167,-6
29.25000,-5
29.25833,-5
29.26667,-4
29.27500,-4
29.28333,-4
29.29167,-4
29.30000,-4
29.30833,-4
29.31667,-4
29.32500,-4
29.33333,-3
29.34167,-2
29.35000,-2
29.35833,-2
29.36667,-2
29.37500,-2
29.38333,-2
29.39167,-2
29.40000,-3
29.40833,-3
29.41667,-3
29.42500,-3
29.43333,-3
29.44167,-3
29.45000,-3
29.45833,-4
29.46667,-4
29.47500,-4
29.48333,-4
29.49167,-5
29.50000,-5
29.50833,-6
29.51667,-6
29.52500,-7
29.53333,-8
29.54167,-9
29.55000,-10
29.55833,-10
29.56667,-11
29.57500,-11
29.58333,-12
29.59167,-13
29.60000,-14
29.60833,-15
29.61667,-16
29.62500,-17
29.63333,-18
29.64167,-19
29.65000,-20
29.65833,-22
29.66667,-23
29.67500,-25
29.68333,-26
29.69167,-27
29.70000,-28
29.70833,-30
29.71667,-31
29.72500,-32
29.73333,-34
29.74167,-36
29.75000,-38
29.75833,-40
29.76667,-42
29.77500,-43
29.78333,-45
29.79167,-47
29.80000,-49
29.80833,-51
29.81667,-52
29.82500,-54
29.83333,-56
29.84167,-58
29.85000,-59
29.85833,-61
29.86667,-63
29.87500,-65
29.88333,-66
29.89167,-68
29.90000,-69
29.90833,-71
29.91667,-72
29.92500,-74
29.93333,-75
29.94167,-77
29.95000,-78
29.95833,-80
29.96667,-81
29.97500,-82
29.98333,-84
29.99167,-85
30.00000,-85
30.00833,-86
30.01667,-87
30.02500,-88
30.03333,-89
30.04167,-89
30.05000,-89
30.05833,-90
30.06667,-91
30.07500,-91
30.08333,-91
30.09167,-92
30.10000,-92
30.10833,-92
30.11667,-92
30.12500,-92
30.13333,-91
30.14167,-91
30.15000,-90
30.15833,-89
30.16667,-88
30.17500,-87
30.18333,-86
30.19167,-86
30.20000,-84
30.20833,-83
30.21667,-82
30.22500,-81
30.23333,-80
30.24167,-79
30.25000,-78
30.25833,-76
30.26667,-75
30.27500,-74
30.28333,-72
30.29167,-71
30.30000,-69
30.30833,-68
30.31667,-66
30.32500,-65
30.33333,-64
30.34167,-62
30.35000,-61
30.35833,-59
30.36667,-57
30.37500,-56
30.38333,-55
30.39167,-54
30.40000,-52
30.40833,-51
30.41667,-50
30.42500,-48
30.43333,-47
30.44167,-46
30.45000,-44
30.45833,-43
30.46667,-41
30.47500,-40
30.48333,-39
30.49167,-38
30.50000,-38
30.50833,-37
30.51667,-36
30.52500,-34
30.53333,-33
30.54167,-32
30.55000,-32
30.55833,-31
30.56667,-31
30.57500,-30
30.58333,-29
30.59167,-29
30.60000,-28
30.60833,-28
30.61667,-27
30.62500,-26
30.63333,-26
30.64167,-25
30.65000,-25
30.65833,-24
30.66667,-24
30.67500,-24
30.68333,-24
30.69167,-24
30.70000,-24
30.70833,-24
30.71667,-24
30.72500,-24
30.73333,-24
30.74167,-24
30.75000,-24
30.75833,-24
30.76667,-23
30.77500,-23
30.78333,-23
30.79167,-23
30.80000,-23
30.80833,-23
30.81667,-24
30.82500,-24
30.83333,-25
30.84167,-25
30.85000,-25
30.85833,-25
30.86667,-26
30.87500,-26
30.88333,-26
30.89167,-26
30.90000,-26
30.90833,-27
30.91667,-27
30.92500,-27
30.93333,-27
30.94167,-27
30.95000,-27
30.95833,-27
30.96667,-27
30.97500,-27
30.98333,-28
30.99167,-28
31.00000,-28
31.00833,-28
31.01667,-28
31.02500,-27
31.03333,-27
31.04167,-27
31.05000,-27
31.05833,-26
31.06667,-26
31.07500,-26
31.08333,-26
31.09167,-26
31.10000,-26
31.10833,-25
31.11667,-25
31.12500,-25
31.13333,-25
31.14167,-25
31.15000,-24
31.15833,-23
31.16667,-23
31.17500,-23
31.18333,-22
31.19167,-22
31.20000,-22
31.20833,-21
31.21667,-20
31.22500,-20
31.23333,-20
31.24167,-20
31.25000,-19
31.25833,-19
31.26667,-18
31.27500,-18
31.28333,-17
31.29167,-17
31.30000,-16
31.30833,-16
31.31667,-16
31.32500,-16
31.33333,-15
31.34167,-15
31.35000,-15
31.35833,-15
31.36667,-15
31.37500,-15
31.38333,-14
31.39167,-13
31.40000,-13
31.40833,-12
31.41667,-12
31.42500,-11
31.43333,-11
31.44167,-11
31.45000,-11
31.45833,-11
31.46667,-10
31.47500,-10
31.48333,-10
31.49167,-10
31.50000,-10
31.50833,-10
31.51667,-9
31.52500,-9
31.53333,-9
31.54167,-9
31.55000,-9
31.55833,-9
31.56667,-8
31.57500,-7
31.58333,-7
31.59167,-7
31.60000,-7
31.60833,-7
31.61667,-7
31.62500,-7
31.63333,-7
31.64167,-6
31.65000,-6
31.65833,-6
31.66667,-6
31.67500,-5
31.68333,-5
31.69167,-5
31.70000,-4
31.70833,-4
31.71667,-4
31.72500,-4
31.73333,-4
31.74167,-4
31.75000,-4
31.75833,-4
31.76667,-3
31.77500,-3
31.78333,-3
31.79167,-3
31.80000,-3
31.80833,-2
31.81667,-2
31.82500,-2
31.83333,-2
31.84167,-1
31.85000,-1
31.85833,-1
31.86667,-1
31.87500,-1
31.88333,-1
31.89167,-1
31.90000,-1
31.90833,-1
31.91667,-1
31.92500,-1
31.93333,-2
31.94167,-2
31.95000,-1
31.95833,-1
31.96667,-1
31.97500,-1
31.98333,-1
31.99167,-1
32.00000,-1
32.00833,-1
32.01667,-1
32.02500,-1
32.03333,-1
32.04167,-1
32.05000,-1
32.05833,-1
32.06667,-1
32.07500,-1
32.08333,-1
32.09167,-1
32.10000,-1
32.10833,-1
32.11667,-1
32.12500,-2
32.13333,-2
32.14167,-2
32.15000,-2
32.15833,-2
32.16667,-2
32.17500,-2
32.18333,-3
32.19167,-3
32.20000,-3
32.20833,-3
32.21667,-3
32.22500,-2
32.23333,-2
32.24167,-3
32.25000,-3
32.25833,-3
32.26667,-4
32.27500,-4
32.28333,-4
32.29167,-5
32.30000,-5
32.30833,-5
32.31667,-5
32.32500,-5
32.33333,-5
32.34167,-6
32.35000,-6
32.35833,-5
32.36667,-6
32.37500,-6
32.38333,-6
32.39167,-6
32.40000,-6
32.40833,-6
32.41667,-6
32.42500,-7
32.43333,-7
32.44167,-7
32.45000,-8
32.45833,-8
32.46667,-8
32.47500,-8
32.48333,-8
32.49167,-8
32.50000,-8
32.50833,-8
32.51667,-9
32.52500,-9
32.53333,-9
32.54167,-9
32.55000,-9
32.55833,-9
32.56667,-9
32.57500,-9
32.58333,-10
32.59167,-10
32.60000,-10
32.60833,-10
32.61667,-10
32.62500,-10
32.63333,-11
32.64167,-11
32.65000,-10
32.65833,-10
32.66667,-11
32.67500,-11
32.68333,-11
32.69167,-11
32.70000,-11
32.70833,-12
32.71667,-12
32.72500,-11
32.73333,-11
32.74167,-11
32.75000,-11
32.75833,-11
32.76667,-11
32.77500,-11
32.78333,-12
32.79167,-12
32.80000,-12
32.80833,-12
32.81667,-12
32.82500,-12
32.83333,-12
32.84167,-12
32.85000,-13
32.85833,-13
32.86667,-13
32.87500,-13
32.88333,-14
32.89167,-14
32.90000,-14
32.90833,-14
32.91667,-14
32.92500,-13
32.93333,-13
32.94167,-13
32.95000,-13
32.95833,-13
32.96667,-13
32.97500,-13
32.98333,-13
32.99167,-13
33.00000,-13
33.00833,-13
33.01667,-13
33.02500,-14
33.03333,-14
33.04167,-14
33.05000,-14
33.05833,-14
33.06667,-14
33.07500,-14
33.08333,-14
33.09167,-14
33.10000,-14
33.10833,-14
33.11667,-14
33.12500,-14
33.13333,-14
33.14167,-14
33.15000,-14
33.15833,-14
33.16667,-13
33.17500,-13
33.18333,-13
33.19167,-13
33.20000,-13
33.20833,-13
33.21667,-13
33.22500,-12
33.23333,-12
33.24167,-12
33.25000,-12
33.25833,-12
33.26667,-12
33.27500,-12
33.28333,-11
33.29167,-11
33.30000,-11
33.30833,-11
33.31667,-10
33.32500,-10
33.33333,-9
33.34167,-9
33.35000,-8
33.35833,-8
33.36667,-8
33.37500,-8
33.38333,-7
33.39167,-7
33.40000,-7
33.40833,-7
33.41667,-6
33.42500,-6
33.43333,-6
33.44167,-6
33.45000,-6
33.45833,-6
33.46667,-6
33.47500,-6
33.48333,-6
33.49167,-6
33.50000,-6
33.50833,-6
33.51667,-7
33.52500,-7
33.53333,-6
33.54167,-6
33.55000,-6
33.55833,-6
33.56667,-6
33.57500,-6
33.58333,-6
33.59167,-5
33.60000,-5
33.60833,-5
33.61667,-5
33.62500,-5
33.63333,-5
33.64167,-5
33.65000,-5
33.65833,-5
33.66667,-5
33.67500,-5
33.68333,-5
33.69167,-5
33.70000,-5
33.70833,-5
33.71667,-5
33.72500,-6
33.73333,-6
33.74167,-6
33.75000,-5
33.75833,-5
33.76667,-5
33.77500,-5
33.78333,-5
33.79167,-5
33.80000,-5
33.80833,-4
33.81667,-4
33.82500,-4
33.83333,-4
33.84167,-4
33.85000,-4
33.85833,-4
33.86667,-4
33.87500,-4
33.88333,-4
33.89167,-4
33.90000,-4
33.90833,-4
33.91667,-4
33.92500,-4
33.93333,-4
33.94167,-4
33.95000,-4
33.95833,-4
33.96667,-4
33.97500,-4
33.98333,-4
33.99167,-4
34.00000,-4
34.00833,-4
34.01667,-4
34.02500,-4
34.03333,-4
34.04167,-4
34.05000,-4
34.05833,-3
34.06667,-3
34.07500,-3
34.08333,-4
34.09167,-4
34.10000,-5
34.10833,-5
34.11667,-5
34.12500,-5
34.13333,-5
34.14167,-5
34.15000,-5
34.15833,-5
34.16667,-5
34.17500,-5
34.18333,-5
34.19167,-5
34.20000,-5
34.20833,-6
34.21667,-6
34.22500,-6
34.23333,-6
34.24167,-6
34.25000,-6
34.25833,-6
34.26667,-6
34.27500,-7
34.28333,-7
34.29167,-8
34.30000,-8
34.30833,-8
34.31667,-8
34.32500,-8
34.33333,-8
34.34167,-9
34.35000,-9
34.35833,-9
34.36667,-9
34.37500,-9
34.38333,-9
34.39167,-10
34.40000,-10
34.40833,-10
34.41667,-10
34.42500,-10
34.43333,-11
34.44167,-11
34.45000,-11
34.45833,-11
34.46667,-11
34.47500,-11
34.48333,-11
34.49167,-11
34.50000,-11
34.50833,-11
34.51667,-11
34.52500,-11
34.53333,-11
34.54167,-11
34.55000,-11
34.55833,-12
34.56667,-12
34.57500,-12
34.58333,-12
34.59167,-12
34.60000,-12
34.60833,-12
34.61667,-12
34.62500,-12
34.63333,-12
34.64167,-13
34.65000,-13
34.65833,-13
34.66667,-13
34.67500,-13
34.68333,-13
34.69167,-13
34.70000,-12
34.70833,-12
34.71667,-12
34.72500,-12
34.73333,-13
34.74167,-13
34.75000,-13
34.75833,-13
34.76667,-13
34.77500,-13
34.78333,-13
34.79167,-13
34.80000,-14
34.80833,-14
34.81667,-14
34.82500,-14
34.83333,-13
34.84167,-13
34.85000,-13
34.85833,-13
34.86667,-13
34.87500,-13
34.88333,-13
34.89167,-13
34.90000,-13
34.90833,-13
34.91667,-13
34.92500,-13
34.93333,-13
34.94167,-13
34.95000,-13
34.95833,-13
34.96667,-13
34.97500,-13
34.98333,-13
34.99167,-13
35.00000,-13
35.00833,-13
35.01667,-13
35.02500,-14
35.03333,-14
35.04167,-14
35.05000,-14
35.05833,-14
35.06667,-13
35.07500,-13
35.08333,-13
35.09167,-13
35.10000,-12
35.10833,-12
35.11667,-12
35.12500,-12
35.13333,-11
35.14167,-11
35.15000,-11
35.15833,-11
35.16667,-10
35.17500,-10
35.18333,-10
35.19167,-10
35.20000,-10
35.20833,-9
35.21667,-9
35.22500,-9
35.23333,-9
35.24167,-9
35.25000,-9
35.25833,-9
35.26667,-9
35.27500,-8
35.28333,-9
35.29167,-9
35.30000,-9
35.30833,-8
35.31667,-8
35.32500,-8
35.33333,-8
35.34167,-8
35.35000,-8
35.35833,-8
35.36667,-8
35.37500,-8
35.38333,-8
35.39167,-7
35.40000,-6
35.40833,-6
35.41667,-6
35.42500,-5
35.43333,-5
35.44167,-5
35.45000,-5
35.45833,-5
35.46667,-5
35.47500,-5
35.48333,-5
35.49167,-5
35.50000,-4
35.50833,-4
35.51667,-4
35.52500,-4
35.53333,-4
35.54167,-3
35.55000,-3
35.55833,-4
35.56667,-4
35.57500,-4
35.58333,-3
35.59167,-3
35.60000,-3
35.60833,-3
35.61667,-4
35.62500,-4
35.63333,-4
35.64167,-4
35.65000,-4
35.65833,-4
35.66667,-4
35.67500,-3
35.68333,-3
35.69167,-4
35.70000,-4
35.70833,-5
35.71667,-5
35.72500,-5
35.73333,-5
35.74167,-5
35.75000,-4
35.75833,-5
35.76667,-5
35.77500,-5
35.78333,-5
35.79167,-5
35.80000,-4
35.80833,-5
35.81667,-4
35.82500,-4
35.83333,-4
35.84167,-4
35.85000,-4
35.85833,-4
35.86667,-4
35.87500,-4
35.88333,-4
35.89167,-4
35.90000,-4
35.90833,-4
35.91667,-3
35.92500,-3
35.93333,-3
35.94167,-3
35.95000,-3
35.95833,-3
35.96667,-3
35.97500,-4
35.98333,-3
35.99167,-3
36.00000,-3
36.00833,-3
36.01667,-3
36.02500,-3
36.03333,-3
36.04167,-3
36.05000,-3
36.05833,-3
36.06667,-3
36.07500,-3
36.08333,-3
36.09167,-3
36.10000,-4
36.10833,-4
36.11667,-4
36.12500,-4
36.13333,-5
36.14167,-5
36.15000,-5
36.15833,-5
36.16667,-5
36.17500,-5
36.18333,-5
36.19167,-6
36.20000,-6
36.20833,-6
36.21667,-7
36.22500,-7
36.23333,-7
36.24167,-7
36.25000,-7
36.25833,-7
36.26667,-8
36.27500,-8
36.28333,-8
36.29167,-9
36.30000,-10
36.30833,-10
36.31667,-10
36.32500,-10
36.33333,-10
36.34167,-11
36.35000,-11
36.35833,-11
36.36667,-11
36.37500,-11
36.38333,-12
36.39167,-12
36.40000,-13
36.40833,-13
36.41667,-13
36.42500,-14
36.43333,-14
36.44167,-14
36.45000,-14
36.45833,-14
36.46667,-14
36.47500,-14
36.48333,-14
36.49167,-14
36.50000,-14
36.50833,-14
36.51667,-15
36.52500,-15
36.53333,-15
36.54167,-15
36.55000,-15
36.55833,-15
36.56667,-15
36.57500,-15
36.58333,-15
36.59167,-15
36.60000,-15
36.60833,-16
36.61667,-16
36.62500,-16
36.63333,-16
36.64167,-16
36.65000,-15
36.65833,-15
36.66667,-15
36.67500,-15
36.68333,-14
36.69167,-14
36.70000,-13
36.70833,-13
36.71667,-12
36.72500,-12
36.73333,-12
36.74167,-12
36.75000,-12
36.75833,-11
36.76667,-11
36.77500,-10
36.78333,-9
36.79167,-9
36.80000,-9
36.80833,-8
36.81667,-8
36.82500,-8
36.83333,-8
36.84167,-9
36.85000,-9
36.85833,-9
36.86667,-9
36.87500,-8
36.88333,-8
36.89167,-8
36.90000,-8
36.90833,-8
36.91667,-7
36.92500,-7
36.93333,-7
36.94167,-7
36.95000,-7
36.95833,-6
36.96667,-6
36.97500,-6
36.98333,-6
36.99167,-6
37.00000,-6
37.00833,-5
37.01667,-5
37.02500,-5
37.03333,-5
37.04167,-5
37.05000,-5
37.05833,-5
37.06667,-4
37.07500,-5
37.08333,-5
37.09167,-5
37.10000,-5
37.10833,-5
37.11667,-5
37.12500,-4
37.13333,-4
37.14167,-4
37.15000,-4
37.15833,-4
37.16667,-4
37.17500,-4
37.18333,-4
37.19167,-4
37.20000,-4
37.20833,-4
37.21667,-4
37.22500,-3
37.23333,-3
37.24167,-3
37.25000,-3
37.25833,-3
37.26667,-3
37.27500,-3
37.28333,-3
37.29167,-3
37.30000,-3
37.30833,-3
37.31667,-3
37.32500,-3
37.33333,-3
37.34167,-3
37.35000,-2
37.35833,-2
37.36667,-2
37.37500,-2
37.38333,-2
37.39167,-2
37.40000,-3
37.40833,-3
37.41667,-3
37.42500,-3
37.43333,-3
37.44167,-3
37.45000,-3
37.45833,-3
37.46667,-3
37.47500,-2
37.48333,-2
37.49167,-2
37.50000,-3
37.50833,-3
37.51667,-3
37.52500,-4
37.53333,-4
37.54167,-4
37.55000,-4
37.55833,-4
37.56667,-4
37.57500,-5
37.58333,-5
37.59167,-5
37.60000,-5
37.60833,-5
37.61667,-5
37.62500,-5
37.63333,-6
37.64167,-6
37.65000,-6
37.65833,-7
37.66667,-7
37.67500,-7
37.68333,-8
37.69167,-8
37.70000,-8
37.70833,-8
37.71667,-8
37.72500,-9
37.73333,-9
37.74167,-9
37.75000,-9
37.75833,-10
37.76667,-10
37.77500,-10
37.78333,-10
37.79167,-10
37.80000,-10
37.80833,-10
37.81667,-11
37.82500,-11
37.83333,-10
37.84167,-11
37.85000,-11
37.85833,-11
37.86667,-11
37.87500,-12
37.88333,-12
37.89167,-12
37.90000,-12
37.90833,-12
37.91667,-12
37.92500,-12
37.93333,-12
37.94167,-12
37.95000,-12
37.95833,-12
37.96667,-12
37.97500,-12
37.98333,-12
37.99167,-12
38.00000,-13
38.00833,-13
38.01667,-13
38.02500,-13
38.03333,-13
38.04167,-13
38.05000,-13
38.05833,-13
38.06667,-14
38.07500,-14
38.08333,-14
38.09167,-14
38.10000,-14
38.10833,-13
38.11667,-13
38.12500,-13
38.13333,-13
38.14167,-13
38.15000,-13
38.15833,-13
38.16667,-13
38.17500,-14
38.18333,-14
38.19167,-14
38.20000,-15
38.20833,-15
38.21667,-15
38.22500,-15
38.23333,-15
38.24167,-15
38.25000,-14
38.25833,-15
38.26667,-15
38.27500,-15
38.28333,-15
38.29167,-15
38.30000,-14
38.30833,-14
38.31667,-14
38.32500,-14
38.33333,-14
38.34167,-14
38.35000,-14
38.35833,-14
38.36667,-13
38.37500,-13
38.38333,-13
38.39167,-13
38.40000,-12
38.40833,-12
38.41667,-11
38.42500,-11
38.43333,-11
38.44167,-11
38.45000,-11
38.45833,-10
38.46667,-10
38.47500,-10
38.48333,-10
38.49167,-9
38.50000,-9
38.50833,-9
38.51667,-9
38.52500,-8
38.53333,-8
38.54167,-8
38.55000,-8
38.55833,-8
38.56667,-8
38.57500,-7
38.58333,-7
38.59167,-7
38.60000,-6
38.60833,-6
38.61667,-6
38.62500,-6
38.63333,-6
38.64167,-6
38.65000,-6
38.65833,-6
38.66667,-6
38.67500,-5
38.68333,-5
38.69167,-5
38.70000,-5
38.70833,-5
38.71667,-4
38.72500,-4
38.73333,-4
38.74167,-4
38.75000,-4
38.75833,-3
38.76667,-3
38.77500,-2
38.78333,-2
38.79167,-2
38.80000,-2
38.80833,-2
38.81667,-3
38.82500,-3
38.83333,-3
38.84167,-3
38.85000,-3
38.85833,-3
38.86667,-3
38.87500,-3
38.88333,-3
38.89167,-3
38.90000,-3
38.90833,-3
38.91667,-4
38.92500,-4
38.93333,-4
38.94167,-4
38.95000,-4
38.95833,-4
38.96667,-4
38.97500,-5
38.98333,-5
38.99167,-6
39.00000,-6
39.00833,-6
39.01667,-6
39.02500,-6
39.03333,-6
39.04167,-6
39.05000,-6
39.05833,-6
39.06667,-6
39.07500,-7
39.08333,-7
39.09167,-7
39.10000,-8
39.10833,-8
39.11667,-8
39.12500,-8
39.13333,-8
39.14167,-8
39.15000,-8
39.15833,-9
39.16667,-9
39.17500,-9
39.18333,-9
39.19167,-9
39.20000,-9
39.20833,-9
39.21667,-9
39.22500,-9
39.23333,-9
39.24167,-10
39.25000,-10
39.25833,-11
39.26667,-11
39.27500,-11
39.28333,-10
39.29167,-10
39.30000,-10
39.30833,-11
39.31667,-11
39.32500,-11
39.33333,-12
39.34167,-12
39.35000,-12
39.35833,-12
39.36667,-12
39.37500,-13
39.38333,-13
39.39167,-13
39.40000,-13
39.40833,-13
39.41667,-14
39.42500,-14
39.43333,-14
39.44167,-14
39.45000,-15
39.45833,-15
39.46667,-14
39.47500,-15
39.48333,-15
39.49167,-15
39.50000,-15
39.50833,-15
39.51667,-15
39.52500,-16
39.53333,-16
39.54167,-16
39.55000,-16
39.55833,-16
39.56667,-16
39.57500,-16
39.58333,-15
39.59167,-15
39.60000,-16
39.60833,-16
39.61667,-16
39.62500,-16
39.63333,-16
39.64167,-16
39.65000,-16
39.65833,-16
39.66667,-16
39.67500,-16
39.68333,-16
39.69167,-16
39.70000,-16
39.70833,-16
39.71667,-16
39.72500,-16
39.73333,-16
39.74167,-16
39.75000,-16
39.75833,-16
39.76667,-16
39.77500,-16
39.78333,-15
39.79167,-16
39.80000,-16
39.80833,-15
39.81667,-15
39.82500,-15
39.83333,-15
39.84167,-15
39.85000,-15
39.85833,-15
39.86667,-15
39.87500,-15
39.88333,-14
39.89167,-14
39.90000,-14
39.90833,-13
39.91667,-13
39.92500,-13
39.93333,-13
39.94167,-13
39.95000,-13
39.95833,-13
39.96667,-13
39.97500,-13
39.98333,-12
39.99167,-12
40.00000,-12

