[Header]
Application Name,LabSolutions
Version,5.97 SP1
Data File Name,C:\Users\cremerlab\Desktop\griffin\2021-04-06_REL606_DM_glucose_turnover\2021-04-06_REL606_DM_glucose_turnover_462021_002_009.lcd
Output Date,4/6/2021
Output Time,11:59:40 PM

[File Information]
Type,Data File
Generated,4/6/2021 11:19:19 PM
Generated by,System Administrator
Modified,4/6/2021 11:59:40 PM
Modified by,System Administrator

[Sample Information]
Operator Name,System Administrator
Acquired,4/6/2021 11:19:39 PM
Sample Type,1:Standard
Level,2
Sample Name,2021-04-04_REL606_replicate_002_timepoint_002
Sample ID,002
ISTD Amount1,1
ISTD Amount2,1
ISTD Amount3,1
ISTD Amount4,1
ISTD Amount5,1
ISTD Amount6,1
ISTD Amount7,1
ISTD Amount8,1
ISTD Amount9,1
ISTD Amount10,1
ISTD Amount11,1
ISTD Amount12,1
ISTD Amount13,1
ISTD Amount14,1
ISTD Amount15,1
ISTD Amount16,1
ISTD Amount17,1
ISTD Amount18,1
ISTD Amount19,1
ISTD Amount20,1
ISTD Amount21,1
ISTD Amount22,1
ISTD Amount23,1
ISTD Amount24,1
ISTD Amount25,1
ISTD Amount26,1
ISTD Amount27,1
ISTD Amount28,1
ISTD Amount29,1
ISTD Amount30,1
ISTD Amount31,1
ISTD Amount32,1
Sample Amount,1
Dilution Factor,1
Vial#,11
Injection Volume,20

[Original Files]
Data File,C:\Users\cremerlab\Desktop\griffin\2021-04-06_REL606_DM_glucose_turnover\2021-04-06_REL606_DM_glucose_turnover_462021_002_009.lcd
Method File,C:\Users\cremerlab\Desktop\griffin\2.5mM_H2SO4_mobile_phase.lcm
Batch File,C:\Users\cremerlab\Desktop\griffin\2021-04-06_REL606_DM_glucose_turnover\2021-04-06_REL606_DM_glucose_turnover.lcb
Report Format File,c:\LabSolutions\System\DEFAULT.lsr

[File Description]


[Configuration]
Instrument Name,HPLC-PC-Instrument1
Instrument #,1
Line #,1
# of Detectors,2
Detector ID,Detector A,Detector B
Detector Name,Detector A,Detector B
# of Channels,1,1

[Peak Table(Detector A)]
# of Peaks,0

[Peak Table(Detector B)]
# of Peaks,5
Peak#,R.Time,I.Time,F.Time,Area,Height,A/H,Conc.,Mark,ID#,Name,k',Plate #,Plate Ht.,Tailing,Resolution,Sep.Factor,Area Ratio,Height Ratio,Conc. %,Norm Conc.
1,10.890,10.400,11.908,300984,17470,17.228,0.000,   ,,,0.000,9077,16.525,1.033,0.000,0.000,0,0,0.000,0.000
2,14.026,12.542,14.975,2270186,52389,43.333,0.000,   ,,,0.288,2921,51.356,0.760,4.194,0.000,0,0,0.000,0.000
3,15.674,14.975,17.650,1351192,53814,25.109,0.000, V ,,,0.439,9176,16.347,1.152,1.947,1.525,0,0,0.000,0.000
4,19.075,18.742,19.575,2832,125,22.739,0.000,   ,,,0.752,15278,9.818,1.168,5.348,1.711,0,0,0.000,0.000
5,25.026,24.592,25.542,4214,159,26.460,0.000,   ,,,1.298,19303,7.771,1.053,8.897,1.727,0,0,0.000,0.000

[LC Chromatogram(Detector B-Ch1)]
Interval(msec),500
# of Points,4801
Start Time(min),0.000
End Time(min),40.000
Intensity Units,mV
Intensity Multiplier,0.001
R.Time (min),Intensity
0.00000,-1
0.00833,-1
0.01667,-0
0.02500,-0
0.03333,-1
0.04167,-1
0.05000,-1
0.05833,-1
0.06667,-2
0.07500,-2
0.08333,-2
0.09167,-2
0.10000,-1
0.10833,-1
0.11667,-2
0.12500,-2
0.13333,-2
0.14167,-2
0.15000,-2
0.15833,-2
0.16667,-2
0.17500,-2
0.18333,-2
0.19167,-2
0.20000,-2
0.20833,-2
0.21667,-2
0.22500,-2
0.23333,-2
0.24167,-2
0.25000,-2
0.25833,-2
0.26667,-2
0.27500,-2
0.28333,-2
0.29167,-3
0.30000,-3
0.30833,-3
0.31667,-3
0.32500,-3
0.33333,-3
0.34167,-3
0.35000,-3
0.35833,-3
0.36667,-3
0.37500,-3
0.38333,-2
0.39167,-2
0.40000,-2
0.40833,-2
0.41667,-2
0.42500,-2
0.43333,-2
0.44167,-1
0.45000,-1
0.45833,-1
0.46667,-1
0.47500,-1
0.48333,-2
0.49167,-2
0.50000,-2
0.50833,-2
0.51667,-2
0.52500,-2
0.53333,-1
0.54167,-1
0.55000,-1
0.55833,-1
0.56667,-1
0.57500,-1
0.58333,-0
0.59167,-0
0.60000,-0
0.60833,-0
0.61667,-0
0.62500,-0
0.63333,-0
0.64167,-1
0.65000,-1
0.65833,-1
0.66667,-1
0.67500,-1
0.68333,-0
0.69167,-0
0.70000,0
0.70833,1
0.71667,1
0.72500,1
0.73333,1
0.74167,1
0.75000,1
0.75833,1
0.76667,1
0.77500,1
0.78333,2
0.79167,2
0.80000,2
0.80833,2
0.81667,3
0.82500,3
0.83333,3
0.84167,3
0.85000,3
0.85833,3
0.86667,3
0.87500,3
0.88333,3
0.89167,3
0.90000,3
0.90833,3
0.91667,3
0.92500,3
0.93333,4
0.94167,4
0.95000,5
0.95833,5
0.96667,6
0.97500,6
0.98333,6
0.99167,6
1.00000,7
1.00833,7
1.01667,7
1.02500,7
1.03333,7
1.04167,6
1.05000,7
1.05833,7
1.06667,7
1.07500,7
1.08333,7
1.09167,7
1.10000,7
1.10833,8
1.11667,8
1.12500,8
1.13333,9
1.14167,9
1.15000,9
1.15833,9
1.16667,9
1.17500,10
1.18333,10
1.19167,10
1.20000,10
1.20833,11
1.21667,11
1.22500,12
1.23333,12
1.24167,12
1.25000,12
1.25833,12
1.26667,12
1.27500,12
1.28333,13
1.29167,13
1.30000,13
1.30833,13
1.31667,13
1.32500,13
1.33333,14
1.34167,14
1.35000,14
1.35833,14
1.36667,14
1.37500,14
1.38333,14
1.39167,14
1.40000,14
1.40833,14
1.41667,14
1.42500,14
1.43333,14
1.44167,14
1.45000,14
1.45833,15
1.46667,15
1.47500,15
1.48333,15
1.49167,15
1.50000,16
1.50833,16
1.51667,16
1.52500,16
1.53333,16
1.54167,16
1.55000,16
1.55833,15
1.56667,15
1.57500,15
1.58333,15
1.59167,15
1.60000,15
1.60833,15
1.61667,15
1.62500,15
1.63333,15
1.64167,15
1.65000,15
1.65833,15
1.66667,15
1.67500,14
1.68333,14
1.69167,14
1.70000,13
1.70833,13
1.71667,12
1.72500,12
1.73333,12
1.74167,12
1.75000,11
1.75833,11
1.76667,11
1.77500,11
1.78333,11
1.79167,11
1.80000,11
1.80833,10
1.81667,10
1.82500,10
1.83333,10
1.84167,10
1.85000,9
1.85833,9
1.86667,9
1.87500,8
1.88333,8
1.89167,8
1.90000,7
1.90833,7
1.91667,7
1.92500,6
1.93333,6
1.94167,5
1.95000,5
1.95833,5
1.96667,5
1.97500,5
1.98333,5
1.99167,4
2.00000,4
2.00833,4
2.01667,4
2.02500,4
2.03333,3
2.04167,3
2.05000,3
2.05833,3
2.06667,3
2.07500,3
2.08333,3
2.09167,3
2.10000,3
2.10833,3
2.11667,3
2.12500,3
2.13333,4
2.14167,4
2.15000,4
2.15833,3
2.16667,3
2.17500,4
2.18333,4
2.19167,3
2.20000,3
2.20833,4
2.21667,4
2.22500,4
2.23333,4
2.24167,4
2.25000,5
2.25833,4
2.26667,4
2.27500,4
2.28333,4
2.29167,4
2.30000,4
2.30833,4
2.31667,4
2.32500,5
2.33333,5
2.34167,5
2.35000,5
2.35833,5
2.36667,5
2.37500,5
2.38333,5
2.39167,5
2.40000,6
2.40833,6
2.41667,6
2.42500,6
2.43333,6
2.44167,6
2.45000,6
2.45833,6
2.46667,6
2.47500,6
2.48333,6
2.49167,6
2.50000,6
2.50833,6
2.51667,6
2.52500,6
2.53333,6
2.54167,6
2.55000,6
2.55833,6
2.56667,6
2.57500,7
2.58333,7
2.59167,7
2.60000,7
2.60833,7
2.61667,6
2.62500,6
2.63333,6
2.64167,6
2.65000,6
2.65833,6
2.66667,6
2.67500,6
2.68333,7
2.69167,7
2.70000,7
2.70833,7
2.71667,7
2.72500,7
2.73333,8
2.74167,8
2.75000,8
2.75833,8
2.76667,8
2.77500,8
2.78333,8
2.79167,8
2.80000,8
2.80833,8
2.81667,8
2.82500,8
2.83333,8
2.84167,8
2.85000,8
2.85833,8
2.86667,9
2.87500,9
2.88333,9
2.89167,9
2.90000,10
2.90833,10
2.91667,10
2.92500,10
2.93333,11
2.94167,10
2.95000,10
2.95833,10
2.96667,10
2.97500,10
2.98333,11
2.99167,11
3.00000,11
3.00833,12
3.01667,12
3.02500,11
3.03333,11
3.04167,11
3.05000,11
3.05833,11
3.06667,11
3.07500,11
3.08333,12
3.09167,12
3.10000,12
3.10833,11
3.11667,11
3.12500,11
3.13333,11
3.14167,12
3.15000,12
3.15833,12
3.16667,12
3.17500,12
3.18333,12
3.19167,12
3.20000,12
3.20833,12
3.21667,12
3.22500,12
3.23333,12
3.24167,12
3.25000,12
3.25833,12
3.26667,12
3.27500,12
3.28333,12
3.29167,13
3.30000,13
3.30833,13
3.31667,13
3.32500,12
3.33333,12
3.34167,12
3.35000,12
3.35833,12
3.36667,12
3.37500,13
3.38333,13
3.39167,12
3.40000,12
3.40833,12
3.41667,12
3.42500,12
3.43333,12
3.44167,12
3.45000,12
3.45833,12
3.46667,12
3.47500,12
3.48333,12
3.49167,13
3.50000,13
3.50833,13
3.51667,13
3.52500,13
3.53333,13
3.54167,14
3.55000,14
3.55833,14
3.56667,14
3.57500,14
3.58333,14
3.59167,14
3.60000,14
3.60833,14
3.61667,15
3.62500,15
3.63333,15
3.64167,15
3.65000,15
3.65833,15
3.66667,15
3.67500,15
3.68333,15
3.69167,16
3.70000,16
3.70833,16
3.71667,16
3.72500,17
3.73333,17
3.74167,17
3.75000,17
3.75833,17
3.76667,18
3.77500,18
3.78333,18
3.79167,19
3.80000,19
3.80833,19
3.81667,20
3.82500,20
3.83333,20
3.84167,21
3.85000,21
3.85833,21
3.86667,21
3.87500,21
3.88333,22
3.89167,21
3.90000,21
3.90833,21
3.91667,21
3.92500,21
3.93333,21
3.94167,22
3.95000,22
3.95833,22
3.96667,22
3.97500,21
3.98333,21
3.99167,21
4.00000,21
4.00833,21
4.01667,22
4.02500,22
4.03333,23
4.04167,23
4.05000,23
4.05833,23
4.06667,23
4.07500,23
4.08333,22
4.09167,22
4.10000,22
4.10833,22
4.11667,22
4.12500,22
4.13333,22
4.14167,22
4.15000,22
4.15833,23
4.16667,23
4.17500,23
4.18333,23
4.19167,22
4.20000,22
4.20833,22
4.21667,22
4.22500,23
4.23333,23
4.24167,23
4.25000,22
4.25833,22
4.26667,22
4.27500,22
4.28333,21
4.29167,21
4.30000,21
4.30833,21
4.31667,21
4.32500,21
4.33333,21
4.34167,21
4.35000,21
4.35833,21
4.36667,21
4.37500,20
4.38333,20
4.39167,20
4.40000,20
4.40833,20
4.41667,20
4.42500,20
4.43333,20
4.44167,20
4.45000,20
4.45833,20
4.46667,20
4.47500,20
4.48333,20
4.49167,20
4.50000,19
4.50833,19
4.51667,19
4.52500,19
4.53333,19
4.54167,19
4.55000,19
4.55833,19
4.56667,19
4.57500,19
4.58333,19
4.59167,19
4.60000,18
4.60833,18
4.61667,18
4.62500,17
4.63333,17
4.64167,17
4.65000,17
4.65833,17
4.66667,17
4.67500,17
4.68333,17
4.69167,17
4.70000,17
4.70833,17
4.71667,17
4.72500,17
4.73333,17
4.74167,18
4.75000,17
4.75833,17
4.76667,17
4.77500,17
4.78333,17
4.79167,17
4.80000,17
4.80833,17
4.81667,17
4.82500,18
4.83333,18
4.84167,19
4.85000,19
4.85833,19
4.86667,19
4.87500,19
4.88333,19
4.89167,19
4.90000,19
4.90833,19
4.91667,20
4.92500,20
4.93333,20
4.94167,20
4.95000,21
4.95833,21
4.96667,21
4.97500,21
4.98333,21
4.99167,22
5.00000,21
5.00833,21
5.01667,21
5.02500,22
5.03333,22
5.04167,22
5.05000,22
5.05833,23
5.06667,23
5.07500,23
5.08333,23
5.09167,24
5.10000,24
5.10833,24
5.11667,24
5.12500,24
5.13333,24
5.14167,25
5.15000,25
5.15833,25
5.16667,25
5.17500,25
5.18333,25
5.19167,25
5.20000,25
5.20833,25
5.21667,25
5.22500,25
5.23333,25
5.24167,25
5.25000,25
5.25833,25
5.26667,25
5.27500,25
5.28333,25
5.29167,25
5.30000,26
5.30833,26
5.31667,26
5.32500,26
5.33333,26
5.34167,26
5.35000,26
5.35833,26
5.36667,26
5.37500,25
5.38333,26
5.39167,25
5.40000,25
5.40833,25
5.41667,26
5.42500,26
5.43333,26
5.44167,27
5.45000,27
5.45833,27
5.46667,27
5.47500,27
5.48333,28
5.49167,28
5.50000,28
5.50833,28
5.51667,28
5.52500,28
5.53333,27
5.54167,27
5.55000,27
5.55833,27
5.56667,27
5.57500,27
5.58333,27
5.59167,26
5.60000,27
5.60833,27
5.61667,27
5.62500,27
5.63333,27
5.64167,27
5.65000,27
5.65833,26
5.66667,26
5.67500,26
5.68333,26
5.69167,26
5.70000,26
5.70833,26
5.71667,26
5.72500,26
5.73333,26
5.74167,27
5.75000,27
5.75833,27
5.76667,27
5.77500,27
5.78333,27
5.79167,27
5.80000,26
5.80833,26
5.81667,26
5.82500,26
5.83333,26
5.84167,26
5.85000,26
5.85833,26
5.86667,26
5.87500,26
5.88333,26
5.89167,26
5.90000,26
5.90833,26
5.91667,25
5.92500,26
5.93333,26
5.94167,25
5.95000,25
5.95833,25
5.96667,25
5.97500,25
5.98333,25
5.99167,25
6.00000,25
6.00833,25
6.01667,25
6.02500,25
6.03333,25
6.04167,24
6.05000,24
6.05833,24
6.06667,25
6.07500,25
6.08333,25
6.09167,25
6.10000,24
6.10833,24
6.11667,24
6.12500,24
6.13333,24
6.14167,24
6.15000,24
6.15833,24
6.16667,24
6.17500,24
6.18333,24
6.19167,24
6.20000,24
6.20833,24
6.21667,24
6.22500,24
6.23333,24
6.24167,24
6.25000,24
6.25833,24
6.26667,24
6.27500,24
6.28333,24
6.29167,24
6.30000,24
6.30833,24
6.31667,24
6.32500,24
6.33333,24
6.34167,24
6.35000,23
6.35833,23
6.36667,23
6.37500,23
6.38333,23
6.39167,24
6.40000,24
6.40833,24
6.41667,24
6.42500,24
6.43333,24
6.44167,24
6.45000,24
6.45833,24
6.46667,24
6.47500,24
6.48333,24
6.49167,24
6.50000,25
6.50833,25
6.51667,25
6.52500,25
6.53333,24
6.54167,24
6.55000,24
6.55833,24
6.56667,24
6.57500,23
6.58333,23
6.59167,23
6.60000,24
6.60833,24
6.61667,24
6.62500,24
6.63333,24
6.64167,24
6.65000,24
6.65833,24
6.66667,24
6.67500,24
6.68333,24
6.69167,24
6.70000,24
6.70833,24
6.71667,24
6.72500,25
6.73333,25
6.74167,25
6.75000,25
6.75833,26
6.76667,27
6.77500,27
6.78333,27
6.79167,27
6.80000,28
6.80833,28
6.81667,28
6.82500,29
6.83333,29
6.84167,29
6.85000,30
6.85833,30
6.86667,30
6.87500,31
6.88333,31
6.89167,31
6.90000,31
6.90833,31
6.91667,32
6.92500,32
6.93333,32
6.94167,33
6.95000,33
6.95833,33
6.96667,33
6.97500,33
6.98333,33
6.99167,33
7.00000,34
7.00833,34
7.01667,35
7.02500,35
7.03333,35
7.04167,35
7.05000,35
7.05833,35
7.06667,35
7.07500,35
7.08333,35
7.09167,36
7.10000,35
7.10833,35
7.11667,35
7.12500,36
7.13333,36
7.14167,36
7.15000,36
7.15833,37
7.16667,37
7.17500,36
7.18333,36
7.19167,36
7.20000,36
7.20833,36
7.21667,36
7.22500,35
7.23333,35
7.24167,36
7.25000,36
7.25833,36
7.26667,36
7.27500,35
7.28333,35
7.29167,35
7.30000,35
7.30833,35
7.31667,34
7.32500,34
7.33333,33
7.34167,33
7.35000,32
7.35833,32
7.36667,32
7.37500,32
7.38333,31
7.39167,31
7.40000,31
7.40833,31
7.41667,31
7.42500,30
7.43333,30
7.44167,30
7.45000,30
7.45833,30
7.46667,30
7.47500,30
7.48333,30
7.49167,30
7.50000,29
7.50833,29
7.51667,29
7.52500,29
7.53333,29
7.54167,29
7.55000,29
7.55833,29
7.56667,29
7.57500,29
7.58333,29
7.59167,29
7.60000,29
7.60833,29
7.61667,29
7.62500,29
7.63333,29
7.64167,29
7.65000,29
7.65833,29
7.66667,29
7.67500,30
7.68333,30
7.69167,30
7.70000,29
7.70833,29
7.71667,29
7.72500,29
7.73333,29
7.74167,30
7.75000,30
7.75833,30
7.76667,30
7.77500,30
7.78333,30
7.79167,30
7.80000,30
7.80833,30
7.81667,30
7.82500,30
7.83333,30
7.84167,30
7.85000,30
7.85833,30
7.86667,30
7.87500,30
7.88333,30
7.89167,30
7.90000,30
7.90833,30
7.91667,31
7.92500,31
7.93333,31
7.94167,32
7.95000,32
7.95833,32
7.96667,33
7.97500,33
7.98333,33
7.99167,33
8.00000,33
8.00833,33
8.01667,33
8.02500,33
8.03333,33
8.04167,33
8.05000,33
8.05833,33
8.06667,34
8.07500,34
8.08333,35
8.09167,35
8.10000,35
8.10833,36
8.11667,36
8.12500,37
8.13333,37
8.14167,37
8.15000,37
8.15833,37
8.16667,37
8.17500,37
8.18333,37
8.19167,37
8.20000,37
8.20833,38
8.21667,38
8.22500,38
8.23333,38
8.24167,38
8.25000,38
8.25833,39
8.26667,39
8.27500,39
8.28333,40
8.29167,40
8.30000,40
8.30833,39
8.31667,40
8.32500,40
8.33333,40
8.34167,40
8.35000,40
8.35833,39
8.36667,39
8.37500,39
8.38333,39
8.39167,40
8.40000,40
8.40833,40
8.41667,40
8.42500,40
8.43333,40
8.44167,41
8.45000,41
8.45833,41
8.46667,41
8.47500,41
8.48333,41
8.49167,41
8.50000,41
8.50833,41
8.51667,41
8.52500,41
8.53333,41
8.54167,41
8.55000,41
8.55833,40
8.56667,40
8.57500,40
8.58333,40
8.59167,40
8.60000,40
8.60833,40
8.61667,40
8.62500,40
8.63333,40
8.64167,40
8.65000,40
8.65833,40
8.66667,40
8.67500,40
8.68333,40
8.69167,40
8.70000,40
8.70833,40
8.71667,40
8.72500,40
8.73333,40
8.74167,39
8.75000,39
8.75833,39
8.76667,38
8.77500,38
8.78333,39
8.79167,39
8.80000,39
8.80833,39
8.81667,39
8.82500,39
8.83333,39
8.84167,39
8.85000,39
8.85833,39
8.86667,39
8.87500,39
8.88333,39
8.89167,38
8.90000,38
8.90833,38
8.91667,38
8.92500,38
8.93333,38
8.94167,38
8.95000,38
8.95833,38
8.96667,37
8.97500,37
8.98333,37
8.99167,36
9.00000,36
9.00833,36
9.01667,36
9.02500,36
9.03333,36
9.04167,36
9.05000,36
9.05833,36
9.06667,36
9.07500,35
9.08333,35
9.09167,35
9.10000,35
9.10833,35
9.11667,35
9.12500,35
9.13333,35
9.14167,35
9.15000,35
9.15833,35
9.16667,35
9.17500,35
9.18333,34
9.19167,34
9.20000,34
9.20833,34
9.21667,34
9.22500,34
9.23333,34
9.24167,34
9.25000,34
9.25833,34
9.26667,34
9.27500,35
9.28333,35
9.29167,34
9.30000,34
9.30833,34
9.31667,35
9.32500,35
9.33333,35
9.34167,35
9.35000,35
9.35833,35
9.36667,36
9.37500,36
9.38333,36
9.39167,37
9.40000,37
9.40833,37
9.41667,37
9.42500,37
9.43333,37
9.44167,38
9.45000,38
9.45833,38
9.46667,38
9.47500,38
9.48333,38
9.49167,39
9.50000,39
9.50833,39
9.51667,39
9.52500,39
9.53333,40
9.54167,40
9.55000,40
9.55833,41
9.56667,41
9.57500,41
9.58333,42
9.59167,42
9.60000,42
9.60833,42
9.61667,42
9.62500,42
9.63333,42
9.64167,42
9.65000,43
9.65833,43
9.66667,43
9.67500,43
9.68333,43
9.69167,43
9.70000,43
9.70833,43
9.71667,43
9.72500,43
9.73333,43
9.74167,43
9.75000,43
9.75833,44
9.76667,44
9.77500,44
9.78333,45
9.79167,45
9.80000,45
9.80833,45
9.81667,46
9.82500,46
9.83333,46
9.84167,46
9.85000,46
9.85833,45
9.86667,45
9.87500,45
9.88333,46
9.89167,46
9.90000,46
9.90833,46
9.91667,46
9.92500,46
9.93333,46
9.94167,46
9.95000,46
9.95833,46
9.96667,46
9.97500,46
9.98333,46
9.99167,47
10.00000,47
10.00833,47
10.01667,47
10.02500,47
10.03333,47
10.04167,47
10.05000,47
10.05833,47
10.06667,47
10.07500,46
10.08333,46
10.09167,46
10.10000,46
10.10833,46
10.11667,45
10.12500,45
10.13333,45
10.14167,45
10.15000,45
10.15833,44
10.16667,44
10.17500,44
10.18333,44
10.19167,44
10.20000,44
10.20833,44
10.21667,43
10.22500,43
10.23333,43
10.24167,43
10.25000,43
10.25833,43
10.26667,42
10.27500,42
10.28333,42
10.29167,42
10.30000,42
10.30833,42
10.31667,42
10.32500,42
10.33333,42
10.34167,42
10.35000,42
10.35833,42
10.36667,42
10.37500,42
10.38333,42
10.39167,43
10.40000,43
10.40833,43
10.41667,44
10.42500,45
10.43333,46
10.44167,48
10.45000,50
10.45833,53
10.46667,57
10.47500,61
10.48333,66
10.49167,73
10.50000,81
10.50833,92
10.51667,107
10.52500,125
10.53333,149
10.54167,178
10.55000,214
10.55833,259
10.56667,314
10.57500,382
10.58333,463
10.59167,562
10.60000,679
10.60833,817
10.61667,979
10.62500,1167
10.63333,1383
10.64167,1630
10.65000,1911
10.65833,2226
10.66667,2579
10.67500,2970
10.68333,3401
10.69167,3872
10.70000,4383
10.70833,4933
10.71667,5521
10.72500,6146
10.73333,6805
10.74167,7494
10.75000,8209
10.75833,8946
10.76667,9699
10.77500,10461
10.78333,11226
10.79167,11985
10.80000,12731
10.80833,13455
10.81667,14147
10.82500,14798
10.83333,15399
10.84167,15940
10.85000,16414
10.85833,16811
10.86667,17126
10.87500,17351
10.88333,17482
10.89167,17516
10.90000,17451
10.90833,17288
10.91667,17029
10.92500,16678
10.93333,16241
10.94167,15726
10.95000,15140
10.95833,14494
10.96667,13799
10.97500,13065
10.98333,12304
10.99167,11526
11.00000,10743
11.00833,9964
11.01667,9197
11.02500,8450
11.03333,7730
11.04167,7041
11.05000,6388
11.05833,5774
11.06667,5201
11.07500,4669
11.08333,4179
11.09167,3730
11.10000,3320
11.10833,2949
11.11667,2613
11.12500,2312
11.13333,2041
11.14167,1800
11.15000,1586
11.15833,1396
11.16667,1229
11.17500,1082
11.18333,953
11.19167,840
11.20000,741
11.20833,655
11.21667,580
11.22500,515
11.23333,459
11.24167,411
11.25000,369
11.25833,334
11.26667,304
11.27500,278
11.28333,256
11.29167,237
11.30000,221
11.30833,207
11.31667,195
11.32500,185
11.33333,177
11.34167,170
11.35000,163
11.35833,158
11.36667,154
11.37500,150
11.38333,146
11.39167,142
11.40000,139
11.40833,137
11.41667,134
11.42500,132
11.43333,130
11.44167,128
11.45000,125
11.45833,123
11.46667,121
11.47500,119
11.48333,117
11.49167,114
11.50000,112
11.50833,110
11.51667,108
11.52500,106
11.53333,104
11.54167,102
11.55000,99
11.55833,98
11.56667,96
11.57500,94
11.58333,92
11.59167,91
11.60000,89
11.60833,87
11.61667,86
11.62500,84
11.63333,83
11.64167,81
11.65000,80
11.65833,78
11.66667,76
11.67500,75
11.68333,73
11.69167,72
11.70000,70
11.70833,69
11.71667,68
11.72500,67
11.73333,66
11.74167,65
11.75000,64
11.75833,63
11.76667,63
11.77500,62
11.78333,61
11.79167,60
11.80000,59
11.80833,59
11.81667,58
11.82500,58
11.83333,57
11.84167,56
11.85000,55
11.85833,54
11.86667,53
11.87500,53
11.88333,52
11.89167,52
11.90000,52
11.90833,51
11.91667,51
11.92500,51
11.93333,50
11.94167,50
11.95000,50
11.95833,49
11.96667,49
11.97500,48
11.98333,48
11.99167,47
12.00000,47
12.00833,47
12.01667,47
12.02500,47
12.03333,47
12.04167,47
12.05000,47
12.05833,46
12.06667,46
12.07500,46
12.08333,45
12.09167,45
12.10000,44
12.10833,44
12.11667,44
12.12500,44
12.13333,44
12.14167,43
12.15000,43
12.15833,42
12.16667,42
12.17500,42
12.18333,41
12.19167,41
12.20000,41
12.20833,41
12.21667,41
12.22500,40
12.23333,40
12.24167,40
12.25000,40
12.25833,40
12.26667,40
12.27500,40
12.28333,40
12.29167,39
12.30000,40
12.30833,40
12.31667,39
12.32500,39
12.33333,39
12.34167,40
12.35000,40
12.35833,39
12.36667,39
12.37500,39
12.38333,39
12.39167,39
12.40000,39
12.40833,40
12.41667,40
12.42500,40
12.43333,40
12.44167,40
12.45000,40
12.45833,40
12.46667,41
12.47500,41
12.48333,41
12.49167,41
12.50000,41
12.50833,42
12.51667,42
12.52500,43
12.53333,43
12.54167,44
12.55000,45
12.55833,45
12.56667,46
12.57500,48
12.58333,50
12.59167,52
12.60000,54
12.60833,57
12.61667,60
12.62500,64
12.63333,69
12.64167,75
12.65000,82
12.65833,91
12.66667,102
12.67500,116
12.68333,131
12.69167,150
12.70000,172
12.70833,197
12.71667,226
12.72500,259
12.73333,296
12.74167,339
12.75000,387
12.75833,441
12.76667,501
12.77500,567
12.78333,638
12.79167,717
12.80000,801
12.80833,893
12.81667,992
12.82500,1097
12.83333,1210
12.84167,1330
12.85000,1456
12.85833,1588
12.86667,1728
12.87500,1874
12.88333,2026
12.89167,2185
12.90000,2350
12.90833,2520
12.91667,2696
12.92500,2878
12.93333,3064
12.94167,3256
12.95000,3453
12.95833,3655
12.96667,3862
12.97500,4073
12.98333,4289
12.99167,4508
13.00000,4732
13.00833,4959
13.01667,5190
13.02500,5424
13.03333,5663
13.04167,5905
13.05000,6150
13.05833,6399
13.06667,6650
13.07500,6904
13.08333,7161
13.09167,7422
13.10000,7685
13.10833,7950
13.11667,8219
13.12500,8491
13.13333,8765
13.14167,9041
13.15000,9321
13.15833,9603
13.16667,9887
13.17500,10174
13.18333,10464
13.19167,10756
13.20000,11050
13.20833,11347
13.21667,11645
13.22500,11947
13.23333,12251
13.24167,12557
13.25000,12866
13.25833,13178
13.26667,13491
13.27500,13808
13.28333,14126
13.29167,14446
13.30000,14769
13.30833,15095
13.31667,15422
13.32500,15753
13.33333,16086
13.34167,16421
13.35000,16759
13.35833,17100
13.36667,17442
13.37500,17788
13.38333,18136
13.39167,18486
13.40000,18839
13.40833,19194
13.41667,19552
13.42500,19912
13.43333,20275
13.44167,20641
13.45000,21009
13.45833,21380
13.46667,21753
13.47500,22130
13.48333,22509
13.49167,22891
13.50000,23276
13.50833,23663
13.51667,24053
13.52500,24446
13.53333,24843
13.54167,25242
13.55000,25643
13.55833,26048
13.56667,26455
13.57500,26865
13.58333,27278
13.59167,27694
13.60000,28113
13.60833,28535
13.61667,28960
13.62500,29388
13.63333,29820
13.64167,30254
13.65000,30692
13.65833,31132
13.66667,31576
13.67500,32023
13.68333,32474
13.69167,32927
13.70000,33384
13.70833,33844
13.71667,34308
13.72500,34775
13.73333,35246
13.74167,35720
13.75000,36197
13.75833,36678
13.76667,37162
13.77500,37650
13.78333,38141
13.79167,38636
13.80000,39135
13.80833,39637
13.81667,40142
13.82500,40651
13.83333,41165
13.84167,41681
13.85000,42202
13.85833,42727
13.86667,43255
13.87500,43787
13.88333,44323
13.89167,44863
13.90000,45407
13.90833,45954
13.91667,46505
13.92500,47060
13.93333,47617
13.94167,48177
13.95000,48737
13.95833,49295
13.96667,49846
13.97500,50383
13.98333,50896
13.99167,51371
14.00000,51791
14.00833,52133
14.01667,52372
14.02500,52479
14.03333,52424
14.04167,52178
14.05000,51714
14.05833,51011
14.06667,50055
14.07500,48841
14.08333,47371
14.09167,45661
14.10000,43737
14.10833,41631
14.11667,39385
14.12500,37043
14.13333,34654
14.14167,32265
14.15000,29922
14.15833,27667
14.16667,25534
14.17500,23551
14.18333,21740
14.19167,20114
14.20000,18679
14.20833,17435
14.21667,16378
14.22500,15497
14.23333,14780
14.24167,14211
14.25000,13773
14.25833,13448
14.26667,13219
14.27500,13067
14.28333,12976
14.29167,12929
14.30000,12912
14.30833,12910
14.31667,12912
14.32500,12907
14.33333,12887
14.34167,12845
14.35000,12773
14.35833,12669
14.36667,12529
14.37500,12353
14.38333,12139
14.39167,11888
14.40000,11604
14.40833,11287
14.41667,10941
14.42500,10569
14.43333,10176
14.44167,9764
14.45000,9340
14.45833,8906
14.46667,8467
14.47500,8026
14.48333,7587
14.49167,7154
14.50000,6728
14.50833,6312
14.51667,5910
14.52500,5522
14.53333,5150
14.54167,4796
14.55000,4459
14.55833,4140
14.56667,3840
14.57500,3559
14.58333,3295
14.59167,3050
14.60000,2822
14.60833,2611
14.61667,2416
14.62500,2236
14.63333,2070
14.64167,1918
14.65000,1779
14.65833,1651
14.66667,1534
14.67500,1426
14.68333,1329
14.69167,1240
14.70000,1159
14.70833,1085
14.71667,1018
14.72500,957
14.73333,901
14.74167,851
14.75000,805
14.75833,763
14.76667,725
14.77500,690
14.78333,659
14.79167,631
14.80000,604
14.80833,580
14.81667,559
14.82500,539
14.83333,521
14.84167,505
14.85000,490
14.85833,477
14.86667,465
14.87500,454
14.88333,444
14.89167,435
14.90000,427
14.90833,421
14.91667,415
14.92500,410
14.93333,405
14.94167,402
14.95000,399
14.95833,397
14.96667,395
14.97500,394
14.98333,394
14.99167,395
15.00000,396
15.00833,398
15.01667,400
15.02500,403
15.03333,406
15.04167,410
15.05000,415
15.05833,420
15.06667,425
15.07500,431
15.08333,437
15.09167,444
15.10000,452
15.10833,460
15.11667,469
15.12500,479
15.13333,491
15.14167,504
15.15000,519
15.15833,537
15.16667,557
15.17500,582
15.18333,610
15.19167,644
15.20000,684
15.20833,732
15.21667,789
15.22500,857
15.23333,938
15.24167,1035
15.25000,1148
15.25833,1282
15.26667,1439
15.27500,1621
15.28333,1833
15.29167,2078
15.30000,2360
15.30833,2683
15.31667,3051
15.32500,3468
15.33333,3939
15.34167,4469
15.35000,5060
15.35833,5718
15.36667,6445
15.37500,7246
15.38333,8122
15.39167,9077
15.40000,10112
15.40833,11229
15.41667,12427
15.42500,13706
15.43333,15066
15.44167,16502
15.45000,18011
15.45833,19590
15.46667,21231
15.47500,22929
15.48333,24676
15.49167,26463
15.50000,28280
15.50833,30119
15.51667,31967
15.52500,33812
15.53333,35643
15.54167,37448
15.55000,39213
15.55833,40928
15.56667,42578
15.57500,44154
15.58333,45643
15.59167,47034
15.60000,48319
15.60833,49488
15.61667,50532
15.62500,51446
15.63333,52224
15.64167,52860
15.65000,53353
15.65833,53700
15.66667,53900
15.67500,53955
15.68333,53865
15.69167,53635
15.70000,53268
15.70833,52769
15.71667,52143
15.72500,51399
15.73333,50542
15.74167,49582
15.75000,48526
15.75833,47384
15.76667,46165
15.77500,44878
15.78333,43531
15.79167,42135
15.80000,40699
15.80833,39230
15.81667,37739
15.82500,36233
15.83333,34720
15.84167,33208
15.85000,31704
15.85833,30213
15.86667,28741
15.87500,27294
15.88333,25877
15.89167,24493
15.90000,23147
15.90833,21842
15.91667,20580
15.92500,19363
15.93333,18193
15.94167,17071
15.95000,15998
15.95833,14975
15.96667,14001
15.97500,13076
15.98333,12200
15.99167,11371
16.00000,10589
16.00833,9853
16.01667,9162
16.02500,8513
16.03333,7905
16.04167,7337
16.05000,6807
16.05833,6314
16.06667,5854
16.07500,5427
16.08333,5030
16.09167,4662
16.10000,4322
16.10833,4007
16.11667,3717
16.12500,3449
16.13333,3203
16.14167,2975
16.15000,2766
16.15833,2573
16.16667,2396
16.17500,2234
16.18333,2085
16.19167,1948
16.20000,1822
16.20833,1707
16.21667,1601
16.22500,1505
16.23333,1416
16.24167,1334
16.25000,1260
16.25833,1191
16.26667,1128
16.27500,1071
16.28333,1018
16.29167,970
16.30000,925
16.30833,884
16.31667,846
16.32500,811
16.33333,779
16.34167,750
16.35000,722
16.35833,697
16.36667,674
16.37500,652
16.38333,632
16.39167,613
16.40000,596
16.40833,580
16.41667,565
16.42500,551
16.43333,538
16.44167,527
16.45000,516
16.45833,506
16.46667,496
16.47500,486
16.48333,478
16.49167,470
16.50000,462
16.50833,455
16.51667,448
16.52500,442
16.53333,436
16.54167,431
16.55000,426
16.55833,421
16.56667,417
16.57500,413
16.58333,409
16.59167,405
16.60000,401
16.60833,397
16.61667,394
16.62500,390
16.63333,387
16.64167,385
16.65000,382
16.65833,379
16.66667,377
16.67500,375
16.68333,373
16.69167,371
16.70000,368
16.70833,366
16.71667,363
16.72500,361
16.73333,359
16.74167,357
16.75000,355
16.75833,353
16.76667,351
16.77500,349
16.78333,347
16.79167,346
16.80000,344
16.80833,342
16.81667,340
16.82500,338
16.83333,336
16.84167,334
16.85000,332
16.85833,330
16.86667,329
16.87500,327
16.88333,325
16.89167,323
16.90000,322
16.90833,320
16.91667,318
16.92500,316
16.93333,314
16.94167,312
16.95000,310
16.95833,308
16.96667,306
16.97500,305
16.98333,303
16.99167,301
17.00000,299
17.00833,298
17.01667,296
17.02500,295
17.03333,293
17.04167,292
17.05000,290
17.05833,288
17.06667,287
17.07500,285
17.08333,283
17.09167,282
17.10000,280
17.10833,278
17.11667,277
17.12500,275
17.13333,273
17.14167,272
17.15000,271
17.15833,269
17.16667,268
17.17500,267
17.18333,266
17.19167,265
17.20000,263
17.20833,262
17.21667,261
17.22500,259
17.23333,257
17.24167,255
17.25000,254
17.25833,252
17.26667,250
17.27500,249
17.28333,248
17.29167,246
17.30000,245
17.30833,244
17.31667,243
17.32500,241
17.33333,239
17.34167,238
17.35000,236
17.35833,235
17.36667,234
17.37500,233
17.38333,232
17.39167,231
17.40000,230
17.40833,228
17.41667,227
17.42500,226
17.43333,225
17.44167,224
17.45000,223
17.45833,222
17.46667,221
17.47500,220
17.48333,219
17.49167,218
17.50000,217
17.50833,216
17.51667,215
17.52500,214
17.53333,213
17.54167,211
17.55000,211
17.55833,210
17.56667,209
17.57500,208
17.58333,207
17.59167,206
17.60000,206
17.60833,205
17.61667,204
17.62500,204
17.63333,203
17.64167,203
17.65000,202
17.65833,202
17.66667,201
17.67500,201
17.68333,200
17.69167,199
17.70000,199
17.70833,198
17.71667,198
17.72500,198
17.73333,197
17.74167,197
17.75000,196
17.75833,195
17.76667,195
17.77500,194
17.78333,194
17.79167,193
17.80000,193
17.80833,192
17.81667,192
17.82500,191
17.83333,190
17.84167,190
17.85000,189
17.85833,189
17.86667,188
17.87500,188
17.88333,188
17.89167,187
17.90000,187
17.90833,186
17.91667,186
17.92500,185
17.93333,185
17.94167,184
17.95000,183
17.95833,183
17.96667,183
17.97500,183
17.98333,182
17.99167,182
18.00000,181
18.00833,181
18.01667,180
18.02500,180
18.03333,180
18.04167,179
18.05000,178
18.05833,178
18.06667,178
18.07500,177
18.08333,177
18.09167,177
18.10000,177
18.10833,176
18.11667,176
18.12500,176
18.13333,176
18.14167,176
18.15000,176
18.15833,176
18.16667,175
18.17500,175
18.18333,175
18.19167,175
18.20000,175
18.20833,175
18.21667,174
18.22500,174
18.23333,174
18.24167,174
18.25000,173
18.25833,173
18.26667,173
18.27500,172
18.28333,172
18.29167,171
18.30000,171
18.30833,171
18.31667,170
18.32500,170
18.33333,169
18.34167,169
18.35000,169
18.35833,168
18.36667,168
18.37500,168
18.38333,168
18.39167,168
18.40000,168
18.40833,167
18.41667,166
18.42500,166
18.43333,165
18.44167,164
18.45000,163
18.45833,163
18.46667,163
18.47500,163
18.48333,162
18.49167,162
18.50000,162
18.50833,161
18.51667,161
18.52500,160
18.53333,160
18.54167,160
18.55000,159
18.55833,159
18.56667,158
18.57500,158
18.58333,158
18.59167,158
18.60000,158
18.60833,157
18.61667,157
18.62500,157
18.63333,157
18.64167,156
18.65000,156
18.65833,156
18.66667,156
18.67500,156
18.68333,157
18.69167,157
18.70000,157
18.70833,158
18.71667,159
18.72500,159
18.73333,160
18.74167,161
18.75000,162
18.75833,164
18.76667,165
18.77500,167
18.78333,168
18.79167,170
18.80000,172
18.80833,175
18.81667,177
18.82500,180
18.83333,183
18.84167,186
18.85000,189
18.85833,193
18.86667,197
18.87500,201
18.88333,205
18.89167,209
18.90000,213
18.90833,217
18.91667,221
18.92500,226
18.93333,230
18.94167,234
18.95000,238
18.95833,242
18.96667,246
18.97500,250
18.98333,253
18.99167,257
19.00000,260
19.00833,263
19.01667,265
19.02500,268
19.03333,270
19.04167,271
19.05000,272
19.05833,273
19.06667,274
19.07500,274
19.08333,274
19.09167,273
19.10000,272
19.10833,271
19.11667,270
19.12500,268
19.13333,266
19.14167,264
19.15000,261
19.15833,259
19.16667,256
19.17500,252
19.18333,249
19.19167,245
19.20000,241
19.20833,237
19.21667,232
19.22500,228
19.23333,224
19.24167,220
19.25000,216
19.25833,212
19.26667,208
19.27500,205
19.28333,201
19.29167,197
19.30000,193
19.30833,190
19.31667,186
19.32500,182
19.33333,179
19.34167,176
19.35000,172
19.35833,169
19.36667,166
19.37500,164
19.38333,161
19.39167,159
19.40000,157
19.40833,154
19.41667,152
19.42500,151
19.43333,149
19.44167,147
19.45000,145
19.45833,144
19.46667,142
19.47500,141
19.48333,140
19.49167,139
19.50000,137
19.50833,137
19.51667,136
19.52500,135
19.53333,134
19.54167,133
19.55000,132
19.55833,132
19.56667,131
19.57500,131
19.58333,131
19.59167,131
19.60000,130
19.60833,130
19.61667,130
19.62500,130
19.63333,129
19.64167,129
19.65000,129
19.65833,128
19.66667,128
19.67500,128
19.68333,128
19.69167,128
19.70000,128
19.70833,128
19.71667,127
19.72500,127
19.73333,127
19.74167,126
19.75000,126
19.75833,125
19.76667,125
19.77500,125
19.78333,125
19.79167,125
19.80000,125
19.80833,125
19.81667,125
19.82500,125
19.83333,125
19.84167,125
19.85000,125
19.85833,125
19.86667,125
19.87500,125
19.88333,125
19.89167,126
19.90000,126
19.90833,126
19.91667,126
19.92500,126
19.93333,126
19.94167,126
19.95000,125
19.95833,125
19.96667,125
19.97500,125
19.98333,125
19.99167,125
20.00000,125
20.00833,125
20.01667,125
20.02500,125
20.03333,125
20.04167,125
20.05000,125
20.05833,125
20.06667,125
20.07500,125
20.08333,125
20.09167,125
20.10000,125
20.10833,125
20.11667,125
20.12500,125
20.13333,125
20.14167,125
20.15000,124
20.15833,125
20.16667,125
20.17500,125
20.18333,125
20.19167,125
20.20000,125
20.20833,125
20.21667,125
20.22500,125
20.23333,125
20.24167,125
20.25000,125
20.25833,125
20.26667,125
20.27500,125
20.28333,125
20.29167,125
20.30000,125
20.30833,125
20.31667,125
20.32500,125
20.33333,125
20.34167,125
20.35000,125
20.35833,125
20.36667,125
20.37500,125
20.38333,125
20.39167,124
20.40000,124
20.40833,124
20.41667,124
20.42500,124
20.43333,124
20.44167,124
20.45000,123
20.45833,123
20.46667,123
20.47500,123
20.48333,123
20.49167,123
20.50000,122
20.50833,121
20.51667,121
20.52500,121
20.53333,121
20.54167,121
20.55000,121
20.55833,120
20.56667,120
20.57500,119
20.58333,119
20.59167,118
20.60000,118
20.60833,117
20.61667,117
20.62500,116
20.63333,116
20.64167,116
20.65000,115
20.65833,115
20.66667,114
20.67500,114
20.68333,113
20.69167,113
20.70000,112
20.70833,112
20.71667,111
20.72500,111
20.73333,111
20.74167,110
20.75000,110
20.75833,110
20.76667,110
20.77500,110
20.78333,110
20.79167,110
20.80000,110
20.80833,110
20.81667,110
20.82500,109
20.83333,109
20.84167,109
20.85000,109
20.85833,109
20.86667,108
20.87500,108
20.88333,109
20.89167,109
20.90000,109
20.90833,109
20.91667,109
20.92500,109
20.93333,110
20.94167,110
20.95000,110
20.95833,110
20.96667,110
20.97500,110
20.98333,110
20.99167,110
21.00000,110
21.00833,110
21.01667,111
21.02500,111
21.03333,112
21.04167,112
21.05000,112
21.05833,112
21.06667,113
21.07500,113
21.08333,113
21.09167,113
21.10000,113
21.10833,114
21.11667,114
21.12500,114
21.13333,115
21.14167,115
21.15000,116
21.15833,116
21.16667,117
21.17500,118
21.18333,118
21.19167,118
21.20000,119
21.20833,119
21.21667,119
21.22500,119
21.23333,120
21.24167,120
21.25000,120
21.25833,120
21.26667,120
21.27500,120
21.28333,120
21.29167,121
21.30000,121
21.30833,121
21.31667,121
21.32500,122
21.33333,122
21.34167,123
21.35000,123
21.35833,123
21.36667,123
21.37500,124
21.38333,124
21.39167,124
21.40000,124
21.40833,125
21.41667,125
21.42500,125
21.43333,125
21.44167,125
21.45000,125
21.45833,125
21.46667,125
21.47500,125
21.48333,125
21.49167,125
21.50000,125
21.50833,125
21.51667,125
21.52500,125
21.53333,125
21.54167,125
21.55000,125
21.55833,125
21.56667,125
21.57500,125
21.58333,125
21.59167,125
21.60000,125
21.60833,125
21.61667,124
21.62500,124
21.63333,124
21.64167,123
21.65000,123
21.65833,122
21.66667,122
21.67500,123
21.68333,123
21.69167,123
21.70000,123
21.70833,123
21.71667,123
21.72500,123
21.73333,122
21.74167,122
21.75000,122
21.75833,121
21.76667,121
21.77500,120
21.78333,120
21.79167,120
21.80000,120
21.80833,119
21.81667,119
21.82500,119
21.83333,119
21.84167,119
21.85000,119
21.85833,119
21.86667,119
21.87500,118
21.88333,118
21.89167,117
21.90000,117
21.90833,117
21.91667,117
21.92500,116
21.93333,116
21.94167,116
21.95000,116
21.95833,116
21.96667,115
21.97500,115
21.98333,115
21.99167,115
22.00000,115
22.00833,115
22.01667,115
22.02500,114
22.03333,114
22.04167,114
22.05000,114
22.05833,114
22.06667,114
22.07500,113
22.08333,113
22.09167,113
22.10000,113
22.10833,112
22.11667,112
22.12500,112
22.13333,111
22.14167,111
22.15000,111
22.15833,111
22.16667,111
22.17500,111
22.18333,111
22.19167,111
22.20000,111
22.20833,110
22.21667,110
22.22500,110
22.23333,110
22.24167,110
22.25000,110
22.25833,110
22.26667,110
22.27500,110
22.28333,110
22.29167,110
22.30000,110
22.30833,110
22.31667,110
22.32500,110
22.33333,110
22.34167,110
22.35000,110
22.35833,111
22.36667,111
22.37500,111
22.38333,112
22.39167,112
22.40000,112
22.40833,112
22.41667,112
22.42500,112
22.43333,112
22.44167,112
22.45000,113
22.45833,113
22.46667,114
22.47500,114
22.48333,114
22.49167,114
22.50000,114
22.50833,115
22.51667,115
22.52500,116
22.53333,116
22.54167,116
22.55000,117
22.55833,117
22.56667,118
22.57500,118
22.58333,119
22.59167,119
22.60000,120
22.60833,120
22.61667,121
22.62500,122
22.63333,122
22.64167,123
22.65000,124
22.65833,125
22.66667,125
22.67500,125
22.68333,126
22.69167,127
22.70000,127
22.70833,128
22.71667,129
22.72500,130
22.73333,130
22.74167,131
22.75000,132
22.75833,133
22.76667,133
22.77500,134
22.78333,135
22.79167,136
22.80000,136
22.80833,137
22.81667,137
22.82500,138
22.83333,139
22.84167,139
22.85000,139
22.85833,140
22.86667,140
22.87500,141
22.88333,141
22.89167,141
22.90000,141
22.90833,141
22.91667,141
22.92500,141
22.93333,141
22.94167,141
22.95000,141
22.95833,141
22.96667,140
22.97500,140
22.98333,139
22.99167,139
23.00000,138
23.00833,138
23.01667,138
23.02500,137
23.03333,137
23.04167,136
23.05000,135
23.05833,135
23.06667,134
23.07500,133
23.08333,132
23.09167,132
23.10000,131
23.10833,130
23.11667,130
23.12500,129
23.13333,128
23.14167,128
23.15000,127
23.15833,127
23.16667,126
23.17500,126
23.18333,125
23.19167,124
23.20000,124
23.20833,123
23.21667,123
23.22500,122
23.23333,122
23.24167,122
23.25000,121
23.25833,121
23.26667,121
23.27500,120
23.28333,120
23.29167,120
23.30000,120
23.30833,120
23.31667,119
23.32500,119
23.33333,119
23.34167,118
23.35000,118
23.35833,117
23.36667,118
23.37500,118
23.38333,118
23.39167,117
23.40000,117
23.40833,117
23.41667,117
23.42500,117
23.43333,117
23.44167,117
23.45000,117
23.45833,117
23.46667,117
23.47500,116
23.48333,116
23.49167,116
23.50000,116
23.50833,117
23.51667,117
23.52500,117
23.53333,117
23.54167,117
23.55000,118
23.55833,118
23.56667,118
23.57500,118
23.58333,118
23.59167,117
23.60000,117
23.60833,116
23.61667,116
23.62500,116
23.63333,117
23.64167,117
23.65000,117
23.65833,117
23.66667,117
23.67500,117
23.68333,117
23.69167,117
23.70000,117
23.70833,117
23.71667,118
23.72500,118
23.73333,118
23.74167,119
23.75000,119
23.75833,119
23.76667,120
23.77500,120
23.78333,120
23.79167,120
23.80000,121
23.80833,121
23.81667,121
23.82500,121
23.83333,121
23.84167,121
23.85000,121
23.85833,122
23.86667,122
23.87500,122
23.88333,123
23.89167,123
23.90000,123
23.90833,124
23.91667,124
23.92500,124
23.93333,124
23.94167,125
23.95000,125
23.95833,126
23.96667,126
23.97500,127
23.98333,127
23.99167,127
24.00000,127
24.00833,127
24.01667,127
24.02500,127
24.03333,127
24.04167,127
24.05000,128
24.05833,128
24.06667,129
24.07500,129
24.08333,129
24.09167,129
24.10000,129
24.10833,130
24.11667,130
24.12500,130
24.13333,130
24.14167,130
24.15000,130
24.15833,130
24.16667,131
24.17500,130
24.18333,130
24.19167,130
24.20000,130
24.20833,130
24.21667,130
24.22500,130
24.23333,130
24.24167,130
24.25000,130
24.25833,130
24.26667,130
24.27500,130
24.28333,130
24.29167,130
24.30000,130
24.30833,130
24.31667,129
24.32500,130
24.33333,130
24.34167,130
24.35000,130
24.35833,129
24.36667,129
24.37500,129
24.38333,128
24.39167,128
24.40000,128
24.40833,128
24.41667,129
24.42500,129
24.43333,128
24.44167,128
24.45000,128
24.45833,128
24.46667,128
24.47500,128
24.48333,127
24.49167,127
24.50000,128
24.50833,128
24.51667,128
24.52500,128
24.53333,129
24.54167,129
24.55000,130
24.55833,131
24.56667,131
24.57500,132
24.58333,132
24.59167,133
24.60000,134
24.60833,135
24.61667,136
24.62500,138
24.63333,139
24.64167,141
24.65000,143
24.65833,145
24.66667,147
24.67500,149
24.68333,151
24.69167,154
24.70000,157
24.70833,159
24.71667,162
24.72500,165
24.73333,169
24.74167,172
24.75000,176
24.75833,180
24.76667,184
24.77500,188
24.78333,192
24.79167,196
24.80000,201
24.80833,206
24.81667,211
24.82500,216
24.83333,221
24.84167,225
24.85000,230
24.85833,234
24.86667,239
24.87500,244
24.88333,248
24.89167,252
24.90000,256
24.90833,260
24.91667,264
24.92500,268
24.93333,271
24.94167,275
24.95000,278
24.95833,281
24.96667,283
24.97500,285
24.98333,287
24.99167,289
25.00000,290
25.00833,291
25.01667,291
25.02500,291
25.03333,291
25.04167,290
25.05000,290
25.05833,289
25.06667,288
25.07500,286
25.08333,284
25.09167,282
25.10000,280
25.10833,277
25.11667,274
25.12500,270
25.13333,267
25.14167,263
25.15000,260
25.15833,256
25.16667,253
25.17500,249
25.18333,244
25.19167,240
25.20000,236
25.20833,231
25.21667,227
25.22500,223
25.23333,218
25.24167,214
25.25000,209
25.25833,205
25.26667,201
25.27500,196
25.28333,192
25.29167,188
25.30000,184
25.30833,180
25.31667,177
25.32500,173
25.33333,170
25.34167,167
25.35000,164
25.35833,161
25.36667,158
25.37500,156
25.38333,153
25.39167,151
25.40000,149
25.40833,147
25.41667,145
25.42500,143
25.43333,142
25.44167,140
25.45000,139
25.45833,137
25.46667,136
25.47500,135
25.48333,134
25.49167,133
25.50000,132
25.50833,132
25.51667,131
25.52500,131
25.53333,130
25.54167,130
25.55000,130
25.55833,130
25.56667,130
25.57500,129
25.58333,130
25.59167,130
25.60000,130
25.60833,130
25.61667,131
25.62500,131
25.63333,131
25.64167,131
25.65000,131
25.65833,131
25.66667,131
25.67500,132
25.68333,132
25.69167,132
25.70000,133
25.70833,133
25.71667,133
25.72500,134
25.73333,134
25.74167,135
25.75000,135
25.75833,135
25.76667,136
25.77500,136
25.78333,136
25.79167,137
25.80000,137
25.80833,137
25.81667,137
25.82500,138
25.83333,138
25.84167,138
25.85000,138
25.85833,139
25.86667,139
25.87500,139
25.88333,140
25.89167,140
25.90000,140
25.90833,140
25.91667,140
25.92500,141
25.93333,141
25.94167,141
25.95000,141
25.95833,141
25.96667,140
25.97500,140
25.98333,140
25.99167,140
26.00000,140
26.00833,140
26.01667,140
26.02500,139
26.03333,139
26.04167,139
26.05000,140
26.05833,140
26.06667,140
26.07500,140
26.08333,140
26.09167,140
26.10000,139
26.10833,139
26.11667,139
26.12500,139
26.13333,138
26.14167,138
26.15000,138
26.15833,137
26.16667,137
26.17500,137
26.18333,136
26.19167,136
26.20000,135
26.20833,134
26.21667,134
26.22500,134
26.23333,134
26.24167,133
26.25000,133
26.25833,133
26.26667,132
26.27500,132
26.28333,132
26.29167,131
26.30000,131
26.30833,131
26.31667,131
26.32500,130
26.33333,130
26.34167,129
26.35000,129
26.35833,128
26.36667,128
26.37500,128
26.38333,128
26.39167,127
26.40000,127
26.40833,127
26.41667,126
26.42500,126
26.43333,126
26.44167,126
26.45000,126
26.45833,125
26.46667,125
26.47500,125
26.48333,125
26.49167,124
26.50000,124
26.50833,124
26.51667,124
26.52500,124
26.53333,124
26.54167,124
26.55000,124
26.55833,124
26.56667,124
26.57500,123
26.58333,123
26.59167,123
26.60000,123
26.60833,123
26.61667,124
26.62500,124
26.63333,124
26.64167,123
26.65000,123
26.65833,123
26.66667,123
26.67500,123
26.68333,123
26.69167,124
26.70000,124
26.70833,125
26.71667,125
26.72500,125
26.73333,126
26.74167,126
26.75000,126
26.75833,126
26.76667,126
26.77500,127
26.78333,127
26.79167,127
26.80000,127
26.80833,128
26.81667,128
26.82500,129
26.83333,129
26.84167,130
26.85000,130
26.85833,130
26.86667,131
26.87500,131
26.88333,132
26.89167,132
26.90000,132
26.90833,132
26.91667,133
26.92500,133
26.93333,134
26.94167,134
26.95000,135
26.95833,135
26.96667,135
26.97500,136
26.98333,136
26.99167,136
27.00000,136
27.00833,137
27.01667,137
27.02500,137
27.03333,137
27.04167,138
27.05000,138
27.05833,138
27.06667,139
27.07500,139
27.08333,140
27.09167,140
27.10000,140
27.10833,140
27.11667,140
27.12500,140
27.13333,140
27.14167,140
27.15000,140
27.15833,141
27.16667,141
27.17500,141
27.18333,141
27.19167,141
27.20000,141
27.20833,141
27.21667,141
27.22500,141
27.23333,141
27.24167,142
27.25000,142
27.25833,142
27.26667,142
27.27500,142
27.28333,142
27.29167,141
27.30000,141
27.30833,141
27.31667,141
27.32500,140
27.33333,140
27.34167,140
27.35000,140
27.35833,140
27.36667,140
27.37500,140
27.38333,139
27.39167,139
27.40000,139
27.40833,139
27.41667,138
27.42500,138
27.43333,138
27.44167,137
27.45000,137
27.45833,137
27.46667,137
27.47500,137
27.48333,137
27.49167,136
27.50000,136
27.50833,136
27.51667,136
27.52500,136
27.53333,136
27.54167,135
27.55000,135
27.55833,135
27.56667,135
27.57500,134
27.58333,134
27.59167,134
27.60000,133
27.60833,132
27.61667,132
27.62500,132
27.63333,131
27.64167,131
27.65000,130
27.65833,130
27.66667,129
27.67500,129
27.68333,128
27.69167,128
27.70000,127
27.70833,127
27.71667,126
27.72500,125
27.73333,125
27.74167,124
27.75000,123
27.75833,123
27.76667,122
27.77500,122
27.78333,121
27.79167,120
27.80000,120
27.80833,119
27.81667,118
27.82500,117
27.83333,116
27.84167,115
27.85000,113
27.85833,111
27.86667,110
27.87500,109
27.88333,108
27.89167,106
27.90000,105
27.90833,103
27.91667,102
27.92500,100
27.93333,98
27.94167,96
27.95000,94
27.95833,92
27.96667,90
27.97500,88
27.98333,86
27.99167,83
28.00000,81
28.00833,78
28.01667,76
28.02500,73
28.03333,71
28.04167,69
28.05000,67
28.05833,64
28.06667,61
28.07500,59
28.08333,56
28.09167,53
28.10000,50
28.10833,47
28.11667,44
28.12500,41
28.13333,38
28.14167,36
28.15000,33
28.15833,30
28.16667,28
28.17500,25
28.18333,23
28.19167,20
28.20000,17
28.20833,14
28.21667,12
28.22500,9
28.23333,7
28.24167,5
28.25000,3
28.25833,1
28.26667,-1
28.27500,-3
28.28333,-4
28.29167,-5
28.30000,-6
28.30833,-7
28.31667,-8
28.32500,-9
28.33333,-10
28.34167,-10
28.35000,-11
28.35833,-10
28.36667,-10
28.37500,-10
28.38333,-10
28.39167,-9
28.40000,-8
28.40833,-7
28.41667,-6
28.42500,-4
28.43333,-3
28.44167,-2
28.45000,-0
28.45833,1
28.46667,2
28.47500,4
28.48333,6
28.49167,8
28.50000,10
28.50833,12
28.51667,14
28.52500,17
28.53333,19
28.54167,21
28.55000,24
28.55833,27
28.56667,29
28.57500,31
28.58333,33
28.59167,35
28.60000,38
28.60833,40
28.61667,43
28.62500,45
28.63333,48
28.64167,50
28.65000,53
28.65833,56
28.66667,58
28.67500,61
28.68333,63
28.69167,65
28.70000,67
28.70833,68
28.71667,70
28.72500,72
28.73333,75
28.74167,77
28.75000,78
28.75833,80
28.76667,82
28.77500,84
28.78333,85
28.79167,87
28.80000,88
28.80833,90
28.81667,92
28.82500,93
28.83333,95
28.84167,96
28.85000,98
28.85833,99
28.86667,100
28.87500,101
28.88333,102
28.89167,103
28.90000,104
28.90833,105
28.91667,106
28.92500,106
28.93333,107
28.94167,108
28.95000,109
28.95833,110
28.96667,111
28.97500,111
28.98333,112
28.99167,113
29.00000,114
29.00833,114
29.01667,115
29.02500,116
29.03333,117
29.04167,117
29.05000,118
29.05833,119
29.06667,119
29.07500,120
29.08333,121
29.09167,121
29.10000,122
29.10833,122
29.11667,123
29.12500,123
29.13333,123
29.14167,124
29.15000,125
29.15833,126
29.16667,126
29.17500,127
29.18333,127
29.19167,127
29.20000,127
29.20833,127
29.21667,128
29.22500,129
29.23333,129
29.24167,129
29.25000,130
29.25833,130
29.26667,131
29.27500,131
29.28333,131
29.29167,131
29.30000,132
29.30833,132
29.31667,132
29.32500,133
29.33333,133
29.34167,134
29.35000,134
29.35833,135
29.36667,135
29.37500,135
29.38333,136
29.39167,136
29.40000,136
29.40833,136
29.41667,136
29.42500,136
29.43333,136
29.44167,136
29.45000,136
29.45833,136
29.46667,136
29.47500,136
29.48333,136
29.49167,136
29.50000,135
29.50833,135
29.51667,135
29.52500,135
29.53333,135
29.54167,134
29.55000,134
29.55833,134
29.56667,133
29.57500,132
29.58333,131
29.59167,131
29.60000,130
29.60833,129
29.61667,128
29.62500,128
29.63333,127
29.64167,126
29.65000,125
29.65833,123
29.66667,122
29.67500,122
29.68333,121
29.69167,120
29.70000,119
29.70833,118
29.71667,117
29.72500,116
29.73333,114
29.74167,113
29.75000,112
29.75833,110
29.76667,109
29.77500,107
29.78333,106
29.79167,104
29.80000,103
29.80833,101
29.81667,99
29.82500,98
29.83333,96
29.84167,95
29.85000,93
29.85833,92
29.86667,90
29.87500,89
29.88333,87
29.89167,85
29.90000,84
29.90833,83
29.91667,82
29.92500,81
29.93333,80
29.94167,78
29.95000,77
29.95833,76
29.96667,76
29.97500,75
29.98333,73
29.99167,73
30.00000,72
30.00833,71
30.01667,70
30.02500,69
30.03333,69
30.04167,68
30.05000,67
30.05833,67
30.06667,66
30.07500,66
30.08333,66
30.09167,66
30.10000,66
30.10833,66
30.11667,66
30.12500,66
30.13333,66
30.14167,66
30.15000,67
30.15833,67
30.16667,67
30.17500,68
30.18333,68
30.19167,69
30.20000,70
30.20833,70
30.21667,71
30.22500,72
30.23333,73
30.24167,74
30.25000,75
30.25833,76
30.26667,77
30.27500,78
30.28333,79
30.29167,80
30.30000,82
30.30833,83
30.31667,85
30.32500,86
30.33333,87
30.34167,88
30.35000,89
30.35833,91
30.36667,92
30.37500,93
30.38333,94
30.39167,95
30.40000,96
30.40833,97
30.41667,98
30.42500,100
30.43333,101
30.44167,103
30.45000,104
30.45833,105
30.46667,106
30.47500,107
30.48333,107
30.49167,108
30.50000,110
30.50833,111
30.51667,112
30.52500,112
30.53333,113
30.54167,114
30.55000,114
30.55833,115
30.56667,116
30.57500,117
30.58333,117
30.59167,118
30.60000,118
30.60833,119
30.61667,120
30.62500,120
30.63333,121
30.64167,120
30.65000,121
30.65833,121
30.66667,122
30.67500,122
30.68333,122
30.69167,123
30.70000,123
30.70833,123
30.71667,123
30.72500,123
30.73333,124
30.74167,124
30.75000,124
30.75833,124
30.76667,124
30.77500,124
30.78333,124
30.79167,124
30.80000,124
30.80833,124
30.81667,124
30.82500,124
30.83333,124
30.84167,124
30.85000,123
30.85833,123
30.86667,123
30.87500,123
30.88333,123
30.89167,123
30.90000,123
30.90833,123
30.91667,122
30.92500,122
30.93333,122
30.94167,122
30.95000,121
30.95833,121
30.96667,121
30.97500,121
30.98333,120
30.99167,120
31.00000,120
31.00833,120
31.01667,120
31.02500,120
31.03333,120
31.04167,120
31.05000,120
31.05833,120
31.06667,120
31.07500,119
31.08333,119
31.09167,119
31.10000,119
31.10833,119
31.11667,119
31.12500,119
31.13333,120
31.14167,120
31.15000,121
31.15833,121
31.16667,121
31.17500,122
31.18333,122
31.19167,121
31.20000,122
31.20833,122
31.21667,123
31.22500,123
31.23333,124
31.24167,125
31.25000,126
31.25833,126
31.26667,127
31.27500,128
31.28333,128
31.29167,129
31.30000,130
31.30833,131
31.31667,131
31.32500,132
31.33333,132
31.34167,133
31.35000,134
31.35833,135
31.36667,136
31.37500,137
31.38333,138
31.39167,138
31.40000,139
31.40833,139
31.41667,140
31.42500,141
31.43333,141
31.44167,142
31.45000,142
31.45833,143
31.46667,144
31.47500,144
31.48333,145
31.49167,146
31.50000,146
31.50833,147
31.51667,147
31.52500,147
31.53333,148
31.54167,148
31.55000,148
31.55833,149
31.56667,149
31.57500,149
31.58333,150
31.59167,150
31.60000,150
31.60833,150
31.61667,151
31.62500,151
31.63333,151
31.64167,151
31.65000,152
31.65833,152
31.66667,152
31.67500,152
31.68333,152
31.69167,151
31.70000,151
31.70833,151
31.71667,151
31.72500,151
31.73333,151
31.74167,151
31.75000,151
31.75833,151
31.76667,151
31.77500,150
31.78333,149
31.79167,149
31.80000,149
31.80833,149
31.81667,148
31.82500,148
31.83333,148
31.84167,148
31.85000,148
31.85833,148
31.86667,148
31.87500,148
31.88333,148
31.89167,148
31.90000,147
31.90833,147
31.91667,147
31.92500,146
31.93333,146
31.94167,146
31.95000,146
31.95833,146
31.96667,145
31.97500,145
31.98333,145
31.99167,145
32.00000,145
32.00833,144
32.01667,144
32.02500,145
32.03333,145
32.04167,145
32.05000,145
32.05833,145
32.06667,145
32.07500,144
32.08333,144
32.09167,144
32.10000,144
32.10833,144
32.11667,144
32.12500,144
32.13333,144
32.14167,145
32.15000,145
32.15833,145
32.16667,145
32.17500,145
32.18333,146
32.19167,147
32.20000,147
32.20833,147
32.21667,147
32.22500,147
32.23333,147
32.24167,148
32.25000,148
32.25833,148
32.26667,148
32.27500,148
32.28333,148
32.29167,149
32.30000,149
32.30833,149
32.31667,149
32.32500,149
32.33333,149
32.34167,149
32.35000,150
32.35833,150
32.36667,150
32.37500,150
32.38333,150
32.39167,150
32.40000,150
32.40833,150
32.41667,150
32.42500,151
32.43333,151
32.44167,151
32.45000,151
32.45833,151
32.46667,151
32.47500,151
32.48333,151
32.49167,151
32.50000,152
32.50833,152
32.51667,152
32.52500,152
32.53333,152
32.54167,152
32.55000,152
32.55833,152
32.56667,152
32.57500,152
32.58333,152
32.59167,152
32.60000,152
32.60833,152
32.61667,152
32.62500,151
32.63333,151
32.64167,151
32.65000,151
32.65833,152
32.66667,151
32.67500,151
32.68333,151
32.69167,151
32.70000,150
32.70833,150
32.71667,150
32.72500,150
32.73333,150
32.74167,151
32.75000,151
32.75833,151
32.76667,151
32.77500,151
32.78333,150
32.79167,150
32.80000,150
32.80833,150
32.81667,150
32.82500,150
32.83333,150
32.84167,150
32.85000,150
32.85833,150
32.86667,150
32.87500,150
32.88333,150
32.89167,150
32.90000,149
32.90833,149
32.91667,148
32.92500,148
32.93333,148
32.94167,148
32.95000,148
32.95833,147
32.96667,148
32.97500,148
32.98333,148
32.99167,147
33.00000,147
33.00833,148
33.01667,147
33.02500,147
33.03333,147
33.04167,146
33.05000,146
33.05833,146
33.06667,146
33.07500,146
33.08333,146
33.09167,146
33.10000,145
33.10833,145
33.11667,145
33.12500,144
33.13333,144
33.14167,144
33.15000,144
33.15833,144
33.16667,144
33.17500,144
33.18333,144
33.19167,143
33.20000,143
33.20833,143
33.21667,143
33.22500,143
33.23333,143
33.24167,142
33.25000,142
33.25833,142
33.26667,142
33.27500,142
33.28333,142
33.29167,143
33.30000,143
33.30833,143
33.31667,143
33.32500,143
33.33333,143
33.34167,142
33.35000,142
33.35833,142
33.36667,142
33.37500,142
33.38333,142
33.39167,142
33.40000,143
33.40833,143
33.41667,143
33.42500,143
33.43333,143
33.44167,143
33.45000,144
33.45833,144
33.46667,144
33.47500,144
33.48333,144
33.49167,144
33.50000,144
33.50833,144
33.51667,144
33.52500,144
33.53333,144
33.54167,144
33.55000,145
33.55833,145
33.56667,145
33.57500,145
33.58333,145
33.59167,145
33.60000,146
33.60833,146
33.61667,146
33.62500,146
33.63333,146
33.64167,146
33.65000,146
33.65833,146
33.66667,146
33.67500,147
33.68333,147
33.69167,148
33.70000,148
33.70833,148
33.71667,148
33.72500,149
33.73333,149
33.74167,149
33.75000,150
33.75833,150
33.76667,150
33.77500,151
33.78333,151
33.79167,151
33.80000,151
33.80833,151
33.81667,151
33.82500,151
33.83333,152
33.84167,152
33.85000,152
33.85833,152
33.86667,152
33.87500,153
33.88333,153
33.89167,153
33.90000,153
33.90833,153
33.91667,153
33.92500,153
33.93333,153
33.94167,153
33.95000,154
33.95833,154
33.96667,154
33.97500,155
33.98333,155
33.99167,155
34.00000,155
34.00833,155
34.01667,155
34.02500,155
34.03333,155
34.04167,155
34.05000,155
34.05833,155
34.06667,155
34.07500,155
34.08333,155
34.09167,156
34.10000,156
34.10833,156
34.11667,156
34.12500,156
34.13333,156
34.14167,156
34.15000,156
34.15833,156
34.16667,156
34.17500,156
34.18333,156
34.19167,156
34.20000,155
34.20833,155
34.21667,155
34.22500,155
34.23333,155
34.24167,155
34.25000,154
34.25833,154
34.26667,154
34.27500,154
34.28333,154
34.29167,153
34.30000,153
34.30833,152
34.31667,152
34.32500,152
34.33333,152
34.34167,151
34.35000,151
34.35833,151
34.36667,150
34.37500,150
34.38333,150
34.39167,150
34.40000,149
34.40833,149
34.41667,148
34.42500,148
34.43333,147
34.44167,147
34.45000,146
34.45833,146
34.46667,146
34.47500,146
34.48333,146
34.49167,146
34.50000,145
34.50833,145
34.51667,145
34.52500,144
34.53333,144
34.54167,143
34.55000,143
34.55833,143
34.56667,143
34.57500,143
34.58333,142
34.59167,142
34.60000,142
34.60833,142
34.61667,142
34.62500,143
34.63333,143
34.64167,143
34.65000,143
34.65833,143
34.66667,143
34.67500,143
34.68333,143
34.69167,143
34.70000,143
34.70833,144
34.71667,144
34.72500,144
34.73333,144
34.74167,144
34.75000,144
34.75833,145
34.76667,145
34.77500,145
34.78333,145
34.79167,145
34.80000,146
34.80833,146
34.81667,147
34.82500,147
34.83333,148
34.84167,148
34.85000,148
34.85833,148
34.86667,148
34.87500,148
34.88333,148
34.89167,148
34.90000,149
34.90833,149
34.91667,149
34.92500,149
34.93333,149
34.94167,149
34.95000,150
34.95833,150
34.96667,150
34.97500,151
34.98333,152
34.99167,152
35.00000,151
35.00833,151
35.01667,151
35.02500,151
35.03333,151
35.04167,151
35.05000,151
35.05833,152
35.06667,152
35.07500,152
35.08333,153
35.09167,153
35.10000,153
35.10833,153
35.11667,153
35.12500,154
35.13333,154
35.14167,154
35.15000,154
35.15833,154
35.16667,154
35.17500,154
35.18333,154
35.19167,154
35.20000,153
35.20833,153
35.21667,153
35.22500,153
35.23333,153
35.24167,153
35.25000,154
35.25833,154
35.26667,154
35.27500,154
35.28333,154
35.29167,153
35.30000,154
35.30833,154
35.31667,154
35.32500,155
35.33333,155
35.34167,155
35.35000,155
35.35833,155
35.36667,155
35.37500,155
35.38333,155
35.39167,154
35.40000,154
35.40833,155
35.41667,155
35.42500,155
35.43333,155
35.44167,155
35.45000,155
35.45833,155
35.46667,155
35.47500,156
35.48333,156
35.49167,155
35.50000,155
35.50833,156
35.51667,156
35.52500,156
35.53333,156
35.54167,156
35.55000,156
35.55833,156
35.56667,156
35.57500,157
35.58333,157
35.59167,157
35.60000,157
35.60833,157
35.61667,156
35.62500,156
35.63333,156
35.64167,156
35.65000,156
35.65833,156
35.66667,156
35.67500,156
35.68333,156
35.69167,156
35.70000,157
35.70833,157
35.71667,157
35.72500,157
35.73333,157
35.74167,158
35.75000,158
35.75833,158
35.76667,159
35.77500,159
35.78333,159
35.79167,160
35.80000,160
35.80833,160
35.81667,160
35.82500,160
35.83333,160
35.84167,160
35.85000,160
35.85833,161
35.86667,161
35.87500,161
35.88333,161
35.89167,160
35.90000,160
35.90833,160
35.91667,160
35.92500,160
35.93333,160
35.94167,160
35.95000,159
35.95833,159
35.96667,160
35.97500,160
35.98333,160
35.99167,160
36.00000,160
36.00833,160
36.01667,159
36.02500,159
36.03333,159
36.04167,159
36.05000,158
36.05833,158
36.06667,158
36.07500,158
36.08333,158
36.09167,158
36.10000,158
36.10833,158
36.11667,158
36.12500,157
36.13333,157
36.14167,157
36.15000,157
36.15833,157
36.16667,157
36.17500,157
36.18333,157
36.19167,157
36.20000,157
36.20833,157
36.21667,157
36.22500,157
36.23333,157
36.24167,157
36.25000,158
36.25833,158
36.26667,158
36.27500,158
36.28333,158
36.29167,158
36.30000,158
36.30833,158
36.31667,159
36.32500,159
36.33333,159
36.34167,159
36.35000,159
36.35833,159
36.36667,159
36.37500,159
36.38333,159
36.39167,159
36.40000,159
36.40833,159
36.41667,159
36.42500,159
36.43333,159
36.44167,159
36.45000,160
36.45833,160
36.46667,160
36.47500,160
36.48333,161
36.49167,161
36.50000,161
36.50833,161
36.51667,161
36.52500,161
36.53333,161
36.54167,161
36.55000,162
36.55833,162
36.56667,162
36.57500,162
36.58333,162
36.59167,162
36.60000,162
36.60833,162
36.61667,162
36.62500,163
36.63333,163
36.64167,163
36.65000,163
36.65833,163
36.66667,163
36.67500,163
36.68333,163
36.69167,163
36.70000,163
36.70833,163
36.71667,163
36.72500,163
36.73333,163
36.74167,164
36.75000,164
36.75833,164
36.76667,164
36.77500,165
36.78333,165
36.79167,165
36.80000,165
36.80833,165
36.81667,165
36.82500,165
36.83333,165
36.84167,165
36.85000,164
36.85833,164
36.86667,165
36.87500,165
36.88333,165
36.89167,165
36.90000,165
36.90833,166
36.91667,166
36.92500,165
36.93333,165
36.94167,165
36.95000,165
36.95833,165
36.96667,165
36.97500,164
36.98333,164
36.99167,164
37.00000,164
37.00833,164
37.01667,163
37.02500,163
37.03333,163
37.04167,163
37.05000,163
37.05833,162
37.06667,162
37.07500,161
37.08333,161
37.09167,161
37.10000,160
37.10833,160
37.11667,160
37.12500,159
37.13333,159
37.14167,159
37.15000,158
37.15833,158
37.16667,157
37.17500,157
37.18333,157
37.19167,156
37.20000,156
37.20833,155
37.21667,155
37.22500,155
37.23333,154
37.24167,154
37.25000,154
37.25833,154
37.26667,153
37.27500,153
37.28333,152
37.29167,151
37.30000,150
37.30833,150
37.31667,150
37.32500,150
37.33333,149
37.34167,149
37.35000,149
37.35833,149
37.36667,148
37.37500,148
37.38333,148
37.39167,148
37.40000,148
37.40833,148
37.41667,148
37.42500,147
37.43333,147
37.44167,147
37.45000,147
37.45833,147
37.46667,147
37.47500,147
37.48333,147
37.49167,147
37.50000,147
37.50833,147
37.51667,147
37.52500,148
37.53333,148
37.54167,148
37.55000,148
37.55833,148
37.56667,149
37.57500,149
37.58333,150
37.59167,150
37.60000,151
37.60833,152
37.61667,152
37.62500,153
37.63333,154
37.64167,154
37.65000,155
37.65833,155
37.66667,156
37.67500,156
37.68333,156
37.69167,157
37.70000,157
37.70833,157
37.71667,158
37.72500,158
37.73333,159
37.74167,160
37.75000,160
37.75833,161
37.76667,162
37.77500,162
37.78333,162
37.79167,163
37.80000,163
37.80833,164
37.81667,164
37.82500,164
37.83333,164
37.84167,164
37.85000,165
37.85833,165
37.86667,165
37.87500,166
37.88333,166
37.89167,166
37.90000,167
37.90833,167
37.91667,167
37.92500,167
37.93333,167
37.94167,168
37.95000,168
37.95833,168
37.96667,168
37.97500,169
37.98333,169
37.99167,170
38.00000,170
38.00833,170
38.01667,170
38.02500,170
38.03333,170
38.04167,170
38.05000,170
38.05833,170
38.06667,169
38.07500,169
38.08333,169
38.09167,169
38.10000,168
38.10833,168
38.11667,169
38.12500,169
38.13333,169
38.14167,169
38.15000,169
38.15833,169
38.16667,169
38.17500,169
38.18333,169
38.19167,169
38.20000,168
38.20833,168
38.21667,168
38.22500,168
38.23333,167
38.24167,167
38.25000,166
38.25833,166
38.26667,165
38.27500,165
38.28333,165
38.29167,165
38.30000,165
38.30833,165
38.31667,165
38.32500,164
38.33333,164
38.34167,164
38.35000,164
38.35833,163
38.36667,163
38.37500,163
38.38333,162
38.39167,162
38.40000,162
38.40833,161
38.41667,161
38.42500,161
38.43333,161
38.44167,160
38.45000,160
38.45833,160
38.46667,159
38.47500,159
38.48333,159
38.49167,158
38.50000,158
38.50833,158
38.51667,159
38.52500,159
38.53333,159
38.54167,159
38.55000,159
38.55833,159
38.56667,158
38.57500,158
38.58333,158
38.59167,158
38.60000,158
38.60833,157
38.61667,157
38.62500,157
38.63333,157
38.64167,157
38.65000,157
38.65833,157
38.66667,157
38.67500,157
38.68333,156
38.69167,157
38.70000,156
38.70833,156
38.71667,156
38.72500,156
38.73333,156
38.74167,156
38.75000,156
38.75833,155
38.76667,155
38.77500,155
38.78333,155
38.79167,155
38.80000,156
38.80833,155
38.81667,155
38.82500,155
38.83333,155
38.84167,155
38.85000,155
38.85833,155
38.86667,154
38.87500,154
38.88333,154
38.89167,154
38.90000,154
38.90833,154
38.91667,154
38.92500,154
38.93333,154
38.94167,154
38.95000,154
38.95833,154
38.96667,154
38.97500,154
38.98333,155
38.99167,155
39.00000,156
39.00833,156
39.01667,156
39.02500,156
39.03333,157
39.04167,157
39.05000,157
39.05833,157
39.06667,157
39.07500,157
39.08333,158
39.09167,158
39.10000,158
39.10833,159
39.11667,159
39.12500,159
39.13333,160
39.14167,161
39.15000,162
39.15833,162
39.16667,162
39.17500,163
39.18333,164
39.19167,164
39.20000,165
39.20833,166
39.21667,166
39.22500,167
39.23333,168
39.24167,169
39.25000,169
39.25833,170
39.26667,170
39.27500,171
39.28333,171
39.29167,172
39.30000,172
39.30833,172
39.31667,173
39.32500,173
39.33333,174
39.34167,174
39.35000,175
39.35833,176
39.36667,176
39.37500,177
39.38333,177
39.39167,177
39.40000,178
39.40833,178
39.41667,178
39.42500,179
39.43333,180
39.44167,180
39.45000,180
39.45833,180
39.46667,180
39.47500,180
39.48333,180
39.49167,180
39.50000,181
39.50833,181
39.51667,180
39.52500,180
39.53333,180
39.54167,180
39.55000,180
39.55833,179
39.56667,179
39.57500,179
39.58333,178
39.59167,178
39.60000,177
39.60833,177
39.61667,177
39.62500,176
39.63333,176
39.64167,175
39.65000,175
39.65833,175
39.66667,175
39.67500,174
39.68333,174
39.69167,173
39.70000,172
39.70833,172
39.71667,171
39.72500,170
39.73333,170
39.74167,170
39.75000,169
39.75833,169
39.76667,169
39.77500,168
39.78333,168
39.79167,167
39.80000,167
39.80833,166
39.81667,166
39.82500,166
39.83333,166
39.84167,166
39.85000,165
39.85833,165
39.86667,165
39.87500,165
39.88333,165
39.89167,164
39.90000,164
39.90833,164
39.91667,164
39.92500,164
39.93333,164
39.94167,164
39.95000,164
39.95833,164
39.96667,163
39.97500,163
39.98333,163
39.99167,164
40.00000,164

