[Header]
Application Name,LabSolutions
Version,5.97 SP1
Data File Name,C:\Users\cremerlab\Desktop\griffin\2021-04-06_REL606_DM_glucose_turnover\2021-04-06_REL606_DM_glucose_turnover_462021_004_011.lcd
Output Date,4/7/2021
Output Time,1:20:22 AM

[File Information]
Type,Data File
Generated,4/7/2021 12:40:01 AM
Generated by,System Administrator
Modified,4/7/2021 1:20:22 AM
Modified by,System Administrator

[Sample Information]
Operator Name,System Administrator
Acquired,4/7/2021 12:40:20 AM
Sample Type,1:Standard
Level,4
Sample Name,2021-04-04_REL606_replicate_002_timepoint_004
Sample ID,004
ISTD Amount1,1
ISTD Amount2,1
ISTD Amount3,1
ISTD Amount4,1
ISTD Amount5,1
ISTD Amount6,1
ISTD Amount7,1
ISTD Amount8,1
ISTD Amount9,1
ISTD Amount10,1
ISTD Amount11,1
ISTD Amount12,1
ISTD Amount13,1
ISTD Amount14,1
ISTD Amount15,1
ISTD Amount16,1
ISTD Amount17,1
ISTD Amount18,1
ISTD Amount19,1
ISTD Amount20,1
ISTD Amount21,1
ISTD Amount22,1
ISTD Amount23,1
ISTD Amount24,1
ISTD Amount25,1
ISTD Amount26,1
ISTD Amount27,1
ISTD Amount28,1
ISTD Amount29,1
ISTD Amount30,1
ISTD Amount31,1
ISTD Amount32,1
Sample Amount,1
Dilution Factor,1
Vial#,13
Injection Volume,20

[Original Files]
Data File,C:\Users\cremerlab\Desktop\griffin\2021-04-06_REL606_DM_glucose_turnover\2021-04-06_REL606_DM_glucose_turnover_462021_004_011.lcd
Method File,C:\Users\cremerlab\Desktop\griffin\2.5mM_H2SO4_mobile_phase.lcm
Batch File,C:\Users\cremerlab\Desktop\griffin\2021-04-06_REL606_DM_glucose_turnover\2021-04-06_REL606_DM_glucose_turnover.lcb
Report Format File,c:\LabSolutions\System\DEFAULT.lsr

[File Description]


[Configuration]
Instrument Name,HPLC-PC-Instrument1
Instrument #,1
Line #,1
# of Detectors,2
Detector ID,Detector A,Detector B
Detector Name,Detector A,Detector B
# of Channels,1,1

[Peak Table(Detector A)]
# of Peaks,0

[Peak Table(Detector B)]
# of Peaks,6
Peak#,R.Time,I.Time,F.Time,Area,Height,A/H,Conc.,Mark,ID#,Name,k',Plate #,Plate Ht.,Tailing,Resolution,Sep.Factor,Area Ratio,Height Ratio,Conc. %,Norm Conc.
1,10.885,10.417,11.975,240834,14026,17.170,0.000,   ,,,0.000,9164,16.369,1.047,0.000,0.000,0,0,0.000,0.000
2,13.921,12.550,14.192,1667289,44557,37.419,0.000,   ,,,0.279,3155,47.545,0.000,4.200,0.000,0,0,0.000,0.000
3,14.328,14.192,14.975,165292,8844,18.690,0.000, V ,,,0.316,6333,23.686,0.000,0.475,1.134,0,0,0.000,0.000
4,15.674,14.975,17.633,978848,38913,25.155,0.000, V ,,,0.440,9168,16.361,1.151,1.958,1.391,0,0,0.000,0.000
5,19.099,18.750,19.658,2572,106,24.252,0.000,   ,,,0.755,14067,10.663,1.217,5.273,1.715,0,0,0.000,0.000
6,25.033,24.558,25.642,6924,245,28.249,0.000,   ,,,1.300,17214,8.714,1.093,8.432,1.722,0,0,0.000,0.000

[LC Chromatogram(Detector B-Ch1)]
Interval(msec),500
# of Points,4801
Start Time(min),0.000
End Time(min),40.000
Intensity Units,mV
Intensity Multiplier,0.001
R.Time (min),Intensity
0.00000,1
0.00833,1
0.01667,1
0.02500,1
0.03333,2
0.04167,2
0.05000,3
0.05833,3
0.06667,3
0.07500,3
0.08333,4
0.09167,4
0.10000,5
0.10833,5
0.11667,6
0.12500,6
0.13333,7
0.14167,7
0.15000,7
0.15833,8
0.16667,8
0.17500,8
0.18333,9
0.19167,9
0.20000,10
0.20833,10
0.21667,10
0.22500,11
0.23333,11
0.24167,11
0.25000,11
0.25833,12
0.26667,12
0.27500,12
0.28333,12
0.29167,13
0.30000,13
0.30833,14
0.31667,14
0.32500,14
0.33333,14
0.34167,14
0.35000,14
0.35833,14
0.36667,14
0.37500,14
0.38333,14
0.39167,14
0.40000,14
0.40833,14
0.41667,14
0.42500,15
0.43333,14
0.44167,14
0.45000,15
0.45833,15
0.46667,15
0.47500,15
0.48333,16
0.49167,16
0.50000,16
0.50833,16
0.51667,16
0.52500,15
0.53333,15
0.54167,15
0.55000,15
0.55833,15
0.56667,15
0.57500,15
0.58333,15
0.59167,15
0.60000,15
0.60833,15
0.61667,14
0.62500,14
0.63333,15
0.64167,14
0.65000,14
0.65833,14
0.66667,14
0.67500,14
0.68333,14
0.69167,14
0.70000,14
0.70833,14
0.71667,14
0.72500,14
0.73333,14
0.74167,13
0.75000,13
0.75833,13
0.76667,13
0.77500,12
0.78333,12
0.79167,12
0.80000,12
0.80833,12
0.81667,12
0.82500,12
0.83333,12
0.84167,11
0.85000,11
0.85833,11
0.86667,11
0.87500,11
0.88333,10
0.89167,10
0.90000,10
0.90833,10
0.91667,10
0.92500,10
0.93333,9
0.94167,9
0.95000,8
0.95833,8
0.96667,8
0.97500,8
0.98333,8
0.99167,7
1.00000,7
1.00833,7
1.01667,7
1.02500,7
1.03333,7
1.04167,6
1.05000,6
1.05833,6
1.06667,5
1.07500,5
1.08333,4
1.09167,4
1.10000,4
1.10833,4
1.11667,3
1.12500,3
1.13333,3
1.14167,3
1.15000,3
1.15833,2
1.16667,2
1.17500,3
1.18333,3
1.19167,3
1.20000,3
1.20833,3
1.21667,3
1.22500,3
1.23333,3
1.24167,3
1.25000,2
1.25833,2
1.26667,2
1.27500,2
1.28333,2
1.29167,2
1.30000,2
1.30833,2
1.31667,2
1.32500,2
1.33333,2
1.34167,3
1.35000,3
1.35833,3
1.36667,4
1.37500,4
1.38333,4
1.39167,5
1.40000,5
1.40833,5
1.41667,5
1.42500,6
1.43333,6
1.44167,6
1.45000,6
1.45833,6
1.46667,6
1.47500,7
1.48333,7
1.49167,8
1.50000,8
1.50833,8
1.51667,8
1.52500,9
1.53333,9
1.54167,10
1.55000,10
1.55833,10
1.56667,10
1.57500,10
1.58333,10
1.59167,10
1.60000,10
1.60833,10
1.61667,11
1.62500,11
1.63333,11
1.64167,11
1.65000,11
1.65833,12
1.66667,12
1.67500,12
1.68333,12
1.69167,12
1.70000,12
1.70833,12
1.71667,12
1.72500,12
1.73333,12
1.74167,12
1.75000,13
1.75833,13
1.76667,13
1.77500,13
1.78333,13
1.79167,13
1.80000,13
1.80833,13
1.81667,12
1.82500,12
1.83333,12
1.84167,12
1.85000,12
1.85833,12
1.86667,12
1.87500,12
1.88333,12
1.89167,12
1.90000,12
1.90833,12
1.91667,12
1.92500,12
1.93333,12
1.94167,12
1.95000,12
1.95833,12
1.96667,12
1.97500,12
1.98333,12
1.99167,12
2.00000,12
2.00833,11
2.01667,11
2.02500,11
2.03333,11
2.04167,10
2.05000,10
2.05833,10
2.06667,10
2.07500,10
2.08333,9
2.09167,9
2.10000,9
2.10833,9
2.11667,8
2.12500,8
2.13333,7
2.14167,7
2.15000,7
2.15833,7
2.16667,6
2.17500,5
2.18333,5
2.19167,4
2.20000,4
2.20833,4
2.21667,3
2.22500,3
2.23333,2
2.24167,2
2.25000,1
2.25833,0
2.26667,-0
2.27500,-1
2.28333,-1
2.29167,-1
2.30000,-2
2.30833,-2
2.31667,-2
2.32500,-2
2.33333,-2
2.34167,-2
2.35000,-3
2.35833,-3
2.36667,-3
2.37500,-3
2.38333,-4
2.39167,-4
2.40000,-3
2.40833,-3
2.41667,-3
2.42500,-3
2.43333,-3
2.44167,-3
2.45000,-3
2.45833,-3
2.46667,-3
2.47500,-3
2.48333,-3
2.49167,-3
2.50000,-2
2.50833,-1
2.51667,-0
2.52500,0
2.53333,0
2.54167,0
2.55000,0
2.55833,0
2.56667,1
2.57500,1
2.58333,2
2.59167,2
2.60000,3
2.60833,4
2.61667,4
2.62500,5
2.63333,5
2.64167,5
2.65000,5
2.65833,6
2.66667,6
2.67500,7
2.68333,7
2.69167,8
2.70000,8
2.70833,8
2.71667,9
2.72500,8
2.73333,9
2.74167,9
2.75000,10
2.75833,10
2.76667,11
2.77500,11
2.78333,11
2.79167,12
2.80000,13
2.80833,13
2.81667,13
2.82500,14
2.83333,14
2.84167,14
2.85000,14
2.85833,14
2.86667,14
2.87500,14
2.88333,14
2.89167,14
2.90000,14
2.90833,14
2.91667,15
2.92500,15
2.93333,15
2.94167,15
2.95000,15
2.95833,14
2.96667,14
2.97500,14
2.98333,14
2.99167,14
3.00000,14
3.00833,14
3.01667,14
3.02500,14
3.03333,15
3.04167,15
3.05000,15
3.05833,15
3.06667,15
3.07500,15
3.08333,15
3.09167,15
3.10000,15
3.10833,15
3.11667,15
3.12500,14
3.13333,14
3.14167,14
3.15000,14
3.15833,14
3.16667,14
3.17500,14
3.18333,14
3.19167,14
3.20000,14
3.20833,14
3.21667,14
3.22500,14
3.23333,14
3.24167,14
3.25000,14
3.25833,13
3.26667,13
3.27500,13
3.28333,13
3.29167,13
3.30000,13
3.30833,12
3.31667,12
3.32500,12
3.33333,12
3.34167,12
3.35000,12
3.35833,12
3.36667,12
3.37500,12
3.38333,12
3.39167,11
3.40000,11
3.40833,11
3.41667,11
3.42500,11
3.43333,10
3.44167,10
3.45000,10
3.45833,9
3.46667,9
3.47500,9
3.48333,9
3.49167,9
3.50000,9
3.50833,9
3.51667,9
3.52500,8
3.53333,8
3.54167,8
3.55000,8
3.55833,8
3.56667,8
3.57500,8
3.58333,8
3.59167,8
3.60000,8
3.60833,8
3.61667,8
3.62500,8
3.63333,8
3.64167,8
3.65000,8
3.65833,9
3.66667,9
3.67500,9
3.68333,9
3.69167,9
3.70000,9
3.70833,9
3.71667,10
3.72500,10
3.73333,10
3.74167,10
3.75000,10
3.75833,11
3.76667,11
3.77500,11
3.78333,12
3.79167,12
3.80000,13
3.80833,13
3.81667,14
3.82500,14
3.83333,14
3.84167,15
3.85000,15
3.85833,16
3.86667,17
3.87500,17
3.88333,18
3.89167,18
3.90000,18
3.90833,19
3.91667,19
3.92500,19
3.93333,20
3.94167,20
3.95000,20
3.95833,21
3.96667,21
3.97500,21
3.98333,22
3.99167,22
4.00000,22
4.00833,22
4.01667,23
4.02500,23
4.03333,23
4.04167,23
4.05000,23
4.05833,23
4.06667,23
4.07500,23
4.08333,23
4.09167,24
4.10000,24
4.10833,24
4.11667,24
4.12500,24
4.13333,24
4.14167,24
4.15000,24
4.15833,23
4.16667,23
4.17500,23
4.18333,23
4.19167,23
4.20000,23
4.20833,22
4.21667,22
4.22500,22
4.23333,22
4.24167,22
4.25000,22
4.25833,22
4.26667,21
4.27500,20
4.28333,20
4.29167,20
4.30000,19
4.30833,19
4.31667,19
4.32500,19
4.33333,19
4.34167,19
4.35000,19
4.35833,18
4.36667,18
4.37500,17
4.38333,17
4.39167,16
4.40000,16
4.40833,16
4.41667,15
4.42500,15
4.43333,15
4.44167,14
4.45000,14
4.45833,13
4.46667,13
4.47500,13
4.48333,13
4.49167,12
4.50000,12
4.50833,11
4.51667,11
4.52500,11
4.53333,10
4.54167,10
4.55000,10
4.55833,10
4.56667,10
4.57500,10
4.58333,9
4.59167,9
4.60000,9
4.60833,9
4.61667,9
4.62500,9
4.63333,9
4.64167,8
4.65000,8
4.65833,8
4.66667,8
4.67500,8
4.68333,8
4.69167,8
4.70000,8
4.70833,8
4.71667,7
4.72500,7
4.73333,7
4.74167,6
4.75000,6
4.75833,6
4.76667,7
4.77500,7
4.78333,7
4.79167,6
4.80000,6
4.80833,7
4.81667,7
4.82500,7
4.83333,7
4.84167,6
4.85000,6
4.85833,6
4.86667,6
4.87500,6
4.88333,7
4.89167,6
4.90000,6
4.90833,6
4.91667,6
4.92500,6
4.93333,6
4.94167,6
4.95000,6
4.95833,7
4.96667,7
4.97500,7
4.98333,7
4.99167,7
5.00000,7
5.00833,7
5.01667,7
5.02500,7
5.03333,7
5.04167,7
5.05000,7
5.05833,7
5.06667,8
5.07500,8
5.08333,8
5.09167,8
5.10000,8
5.10833,8
5.11667,9
5.12500,9
5.13333,9
5.14167,9
5.15000,10
5.15833,10
5.16667,10
5.17500,11
5.18333,11
5.19167,11
5.20000,12
5.20833,12
5.21667,12
5.22500,12
5.23333,13
5.24167,13
5.25000,13
5.25833,14
5.26667,14
5.27500,14
5.28333,14
5.29167,14
5.30000,15
5.30833,15
5.31667,16
5.32500,17
5.33333,17
5.34167,17
5.35000,17
5.35833,17
5.36667,17
5.37500,18
5.38333,18
5.39167,18
5.40000,19
5.40833,19
5.41667,20
5.42500,20
5.43333,20
5.44167,20
5.45000,20
5.45833,20
5.46667,20
5.47500,20
5.48333,21
5.49167,21
5.50000,21
5.50833,21
5.51667,21
5.52500,21
5.53333,22
5.54167,22
5.55000,22
5.55833,22
5.56667,22
5.57500,23
5.58333,23
5.59167,23
5.60000,23
5.60833,23
5.61667,23
5.62500,24
5.63333,24
5.64167,24
5.65000,24
5.65833,24
5.66667,24
5.67500,24
5.68333,24
5.69167,24
5.70000,24
5.70833,24
5.71667,23
5.72500,24
5.73333,24
5.74167,24
5.75000,24
5.75833,24
5.76667,24
5.77500,24
5.78333,23
5.79167,23
5.80000,23
5.80833,22
5.81667,22
5.82500,22
5.83333,21
5.84167,20
5.85000,20
5.85833,20
5.86667,20
5.87500,20
5.88333,20
5.89167,20
5.90000,20
5.90833,19
5.91667,19
5.92500,18
5.93333,18
5.94167,18
5.95000,17
5.95833,18
5.96667,17
5.97500,17
5.98333,17
5.99167,17
6.00000,17
6.00833,17
6.01667,17
6.02500,17
6.03333,16
6.04167,16
6.05000,15
6.05833,15
6.06667,14
6.07500,14
6.08333,13
6.09167,13
6.10000,13
6.10833,13
6.11667,12
6.12500,12
6.13333,12
6.14167,12
6.15000,12
6.15833,12
6.16667,12
6.17500,12
6.18333,12
6.19167,12
6.20000,12
6.20833,12
6.21667,12
6.22500,12
6.23333,11
6.24167,12
6.25000,12
6.25833,12
6.26667,11
6.27500,11
6.28333,11
6.29167,11
6.30000,11
6.30833,11
6.31667,10
6.32500,11
6.33333,11
6.34167,11
6.35000,12
6.35833,11
6.36667,11
6.37500,11
6.38333,11
6.39167,11
6.40000,10
6.40833,10
6.41667,10
6.42500,10
6.43333,10
6.44167,11
6.45000,11
6.45833,11
6.46667,12
6.47500,12
6.48333,12
6.49167,12
6.50000,13
6.50833,13
6.51667,13
6.52500,13
6.53333,14
6.54167,14
6.55000,14
6.55833,14
6.56667,15
6.57500,15
6.58333,16
6.59167,16
6.60000,16
6.60833,17
6.61667,17
6.62500,18
6.63333,18
6.64167,19
6.65000,19
6.65833,19
6.66667,20
6.67500,20
6.68333,21
6.69167,21
6.70000,22
6.70833,22
6.71667,22
6.72500,22
6.73333,23
6.74167,23
6.75000,24
6.75833,24
6.76667,24
6.77500,24
6.78333,25
6.79167,25
6.80000,26
6.80833,26
6.81667,25
6.82500,25
6.83333,25
6.84167,26
6.85000,26
6.85833,26
6.86667,26
6.87500,26
6.88333,26
6.89167,26
6.90000,26
6.90833,26
6.91667,26
6.92500,26
6.93333,25
6.94167,25
6.95000,25
6.95833,25
6.96667,25
6.97500,25
6.98333,25
6.99167,26
7.00000,25
7.00833,25
7.01667,25
7.02500,25
7.03333,24
7.04167,24
7.05000,24
7.05833,24
7.06667,23
7.07500,22
7.08333,22
7.09167,21
7.10000,21
7.10833,21
7.11667,20
7.12500,20
7.13333,20
7.14167,20
7.15000,19
7.15833,19
7.16667,19
7.17500,18
7.18333,18
7.19167,17
7.20000,17
7.20833,16
7.21667,16
7.22500,16
7.23333,15
7.24167,15
7.25000,14
7.25833,14
7.26667,13
7.27500,13
7.28333,13
7.29167,13
7.30000,12
7.30833,12
7.31667,12
7.32500,11
7.33333,11
7.34167,11
7.35000,10
7.35833,10
7.36667,10
7.37500,9
7.38333,9
7.39167,9
7.40000,9
7.40833,9
7.41667,9
7.42500,9
7.43333,8
7.44167,9
7.45000,9
7.45833,8
7.46667,8
7.47500,8
7.48333,8
7.49167,9
7.50000,9
7.50833,9
7.51667,9
7.52500,9
7.53333,9
7.54167,9
7.55000,9
7.55833,9
7.56667,9
7.57500,9
7.58333,9
7.59167,9
7.60000,9
7.60833,9
7.61667,10
7.62500,11
7.63333,11
7.64167,11
7.65000,11
7.65833,11
7.66667,12
7.67500,12
7.68333,12
7.69167,13
7.70000,13
7.70833,13
7.71667,14
7.72500,15
7.73333,15
7.74167,15
7.75000,15
7.75833,16
7.76667,16
7.77500,17
7.78333,17
7.79167,17
7.80000,17
7.80833,17
7.81667,17
7.82500,18
7.83333,18
7.84167,18
7.85000,19
7.85833,19
7.86667,19
7.87500,19
7.88333,20
7.89167,20
7.90000,20
7.90833,21
7.91667,21
7.92500,21
7.93333,21
7.94167,21
7.95000,21
7.95833,21
7.96667,21
7.97500,21
7.98333,21
7.99167,21
8.00000,21
8.00833,21
8.01667,21
8.02500,22
8.03333,22
8.04167,22
8.05000,22
8.05833,22
8.06667,22
8.07500,22
8.08333,23
8.09167,23
8.10000,24
8.10833,24
8.11667,23
8.12500,24
8.13333,24
8.14167,25
8.15000,25
8.15833,26
8.16667,26
8.17500,26
8.18333,27
8.19167,27
8.20000,27
8.20833,27
8.21667,27
8.22500,26
8.23333,26
8.24167,26
8.25000,26
8.25833,26
8.26667,27
8.27500,27
8.28333,27
8.29167,27
8.30000,28
8.30833,28
8.31667,28
8.32500,28
8.33333,28
8.34167,29
8.35000,29
8.35833,28
8.36667,28
8.37500,28
8.38333,28
8.39167,28
8.40000,28
8.40833,28
8.41667,28
8.42500,28
8.43333,28
8.44167,28
8.45000,28
8.45833,28
8.46667,28
8.47500,28
8.48333,27
8.49167,27
8.50000,27
8.50833,27
8.51667,27
8.52500,26
8.53333,26
8.54167,26
8.55000,26
8.55833,26
8.56667,26
8.57500,26
8.58333,26
8.59167,26
8.60000,26
8.60833,26
8.61667,26
8.62500,26
8.63333,25
8.64167,25
8.65000,25
8.65833,25
8.66667,25
8.67500,24
8.68333,24
8.69167,24
8.70000,24
8.70833,23
8.71667,23
8.72500,23
8.73333,23
8.74167,23
8.75000,24
8.75833,24
8.76667,24
8.77500,24
8.78333,24
8.79167,24
8.80000,24
8.80833,24
8.81667,24
8.82500,23
8.83333,24
8.84167,24
8.85000,24
8.85833,24
8.86667,24
8.87500,24
8.88333,24
8.89167,24
8.90000,24
8.90833,24
8.91667,24
8.92500,24
8.93333,24
8.94167,24
8.95000,24
8.95833,24
8.96667,24
8.97500,24
8.98333,24
8.99167,24
9.00000,24
9.00833,24
9.01667,24
9.02500,24
9.03333,24
9.04167,24
9.05000,24
9.05833,24
9.06667,24
9.07500,24
9.08333,24
9.09167,24
9.10000,24
9.10833,24
9.11667,24
9.12500,23
9.13333,23
9.14167,23
9.15000,23
9.15833,23
9.16667,23
9.17500,23
9.18333,22
9.19167,22
9.20000,22
9.20833,22
9.21667,22
9.22500,22
9.23333,22
9.24167,22
9.25000,23
9.25833,23
9.26667,23
9.27500,23
9.28333,23
9.29167,23
9.30000,23
9.30833,23
9.31667,23
9.32500,24
9.33333,24
9.34167,24
9.35000,24
9.35833,24
9.36667,24
9.37500,24
9.38333,24
9.39167,24
9.40000,24
9.40833,24
9.41667,25
9.42500,25
9.43333,25
9.44167,26
9.45000,26
9.45833,26
9.46667,27
9.47500,27
9.48333,28
9.49167,28
9.50000,28
9.50833,27
9.51667,27
9.52500,27
9.53333,27
9.54167,27
9.55000,27
9.55833,28
9.56667,28
9.57500,28
9.58333,28
9.59167,28
9.60000,28
9.60833,28
9.61667,28
9.62500,28
9.63333,27
9.64167,27
9.65000,27
9.65833,27
9.66667,27
9.67500,27
9.68333,27
9.69167,27
9.70000,27
9.70833,27
9.71667,27
9.72500,27
9.73333,26
9.74167,26
9.75000,26
9.75833,25
9.76667,25
9.77500,24
9.78333,24
9.79167,24
9.80000,24
9.80833,23
9.81667,23
9.82500,22
9.83333,22
9.84167,22
9.85000,22
9.85833,21
9.86667,21
9.87500,21
9.88333,20
9.89167,20
9.90000,19
9.90833,19
9.91667,18
9.92500,18
9.93333,17
9.94167,17
9.95000,17
9.95833,17
9.96667,17
9.97500,17
9.98333,17
9.99167,17
10.00000,17
10.00833,17
10.01667,17
10.02500,17
10.03333,17
10.04167,17
10.05000,17
10.05833,17
10.06667,17
10.07500,17
10.08333,17
10.09167,17
10.10000,18
10.10833,19
10.11667,20
10.12500,20
10.13333,21
10.14167,21
10.15000,21
10.15833,22
10.16667,22
10.17500,23
10.18333,24
10.19167,24
10.20000,24
10.20833,25
10.21667,26
10.22500,26
10.23333,27
10.24167,28
10.25000,29
10.25833,29
10.26667,29
10.27500,30
10.28333,31
10.29167,31
10.30000,32
10.30833,32
10.31667,33
10.32500,33
10.33333,34
10.34167,35
10.35000,35
10.35833,36
10.36667,36
10.37500,37
10.38333,37
10.39167,38
10.40000,38
10.40833,39
10.41667,40
10.42500,41
10.43333,43
10.44167,44
10.45000,46
10.45833,47
10.46667,50
10.47500,54
10.48333,58
10.49167,63
10.50000,71
10.50833,80
10.51667,92
10.52500,107
10.53333,126
10.54167,150
10.55000,180
10.55833,217
10.56667,264
10.57500,320
10.58333,388
10.59167,471
10.60000,568
10.60833,684
10.61667,819
10.62500,977
10.63333,1159
10.64167,1367
10.65000,1603
10.65833,1868
10.66667,2165
10.67500,2494
10.68333,2856
10.69167,3251
10.70000,3680
10.70833,4141
10.71667,4634
10.72500,5157
10.73333,5706
10.74167,6279
10.75000,6873
10.75833,7482
10.76667,8102
10.77500,8727
10.78333,9350
10.79167,9965
10.80000,10564
10.80833,11139
10.81667,11684
10.82500,12189
10.83333,12648
10.84167,13053
10.85000,13398
10.85833,13676
10.86667,13882
10.87500,14012
10.88333,14063
10.89167,14035
10.90000,13926
10.90833,13740
10.91667,13478
10.92500,13146
10.93333,12749
10.94167,12294
10.95000,11789
10.95833,11243
10.96667,10665
10.97500,10062
10.98333,9445
10.99167,8820
11.00000,8197
11.00833,7582
11.01667,6981
11.02500,6401
11.03333,5845
11.04167,5316
11.05000,4818
11.05833,4351
11.06667,3917
11.07500,3516
11.08333,3147
11.09167,2809
11.10000,2502
11.10833,2224
11.11667,1973
11.12500,1747
11.13333,1545
11.14167,1365
11.15000,1205
11.15833,1063
11.16667,937
11.17500,827
11.18333,730
11.19167,645
11.20000,571
11.20833,506
11.21667,450
11.22500,401
11.23333,359
11.24167,323
11.25000,292
11.25833,265
11.26667,242
11.27500,223
11.28333,206
11.29167,192
11.30000,180
11.30833,170
11.31667,161
11.32500,153
11.33333,147
11.34167,141
11.35000,137
11.35833,133
11.36667,129
11.37500,126
11.38333,123
11.39167,121
11.40000,118
11.40833,115
11.41667,113
11.42500,111
11.43333,108
11.44167,106
11.45000,104
11.45833,101
11.46667,99
11.47500,97
11.48333,95
11.49167,93
11.50000,91
11.50833,89
11.51667,87
11.52500,85
11.53333,82
11.54167,80
11.55000,78
11.55833,76
11.56667,74
11.57500,73
11.58333,71
11.59167,70
11.60000,68
11.60833,66
11.61667,64
11.62500,63
11.63333,61
11.64167,60
11.65000,59
11.65833,57
11.66667,56
11.67500,55
11.68333,53
11.69167,52
11.70000,51
11.70833,50
11.71667,49
11.72500,48
11.73333,48
11.74167,47
11.75000,46
11.75833,46
11.76667,44
11.77500,44
11.78333,43
11.79167,42
11.80000,42
11.80833,41
11.81667,41
11.82500,40
11.83333,39
11.84167,39
11.85000,38
11.85833,38
11.86667,38
11.87500,37
11.88333,36
11.89167,36
11.90000,35
11.90833,34
11.91667,33
11.92500,33
11.93333,32
11.94167,31
11.95000,31
11.95833,30
11.96667,30
11.97500,30
11.98333,29
11.99167,29
12.00000,28
12.00833,28
12.01667,27
12.02500,27
12.03333,27
12.04167,26
12.05000,26
12.05833,26
12.06667,25
12.07500,25
12.08333,24
12.09167,24
12.10000,24
12.10833,23
12.11667,22
12.12500,22
12.13333,21
12.14167,21
12.15000,20
12.15833,20
12.16667,20
12.17500,20
12.18333,19
12.19167,18
12.20000,18
12.20833,17
12.21667,17
12.22500,17
12.23333,16
12.24167,16
12.25000,16
12.25833,16
12.26667,15
12.27500,15
12.28333,14
12.29167,14
12.30000,13
12.30833,13
12.31667,13
12.32500,13
12.33333,13
12.34167,13
12.35000,12
12.35833,12
12.36667,12
12.37500,12
12.38333,12
12.39167,12
12.40000,12
12.40833,12
12.41667,12
12.42500,12
12.43333,13
12.44167,13
12.45000,13
12.45833,13
12.46667,14
12.47500,14
12.48333,14
12.49167,14
12.50000,14
12.50833,14
12.51667,15
12.52500,15
12.53333,16
12.54167,17
12.55000,18
12.55833,19
12.56667,20
12.57500,22
12.58333,24
12.59167,25
12.60000,28
12.60833,31
12.61667,34
12.62500,39
12.63333,45
12.64167,51
12.65000,59
12.65833,69
12.66667,81
12.67500,95
12.68333,113
12.69167,133
12.70000,156
12.70833,182
12.71667,212
12.72500,248
12.73333,287
12.74167,332
12.75000,382
12.75833,438
12.76667,500
12.77500,567
12.78333,642
12.79167,722
12.80000,809
12.80833,903
12.81667,1004
12.82500,1111
12.83333,1226
12.84167,1347
12.85000,1474
12.85833,1609
12.86667,1749
12.87500,1896
12.88333,2049
12.89167,2208
12.90000,2374
12.90833,2545
12.91667,2721
12.92500,2902
12.93333,3089
12.94167,3281
12.95000,3477
12.95833,3678
12.96667,3884
12.97500,4094
12.98333,4308
12.99167,4526
13.00000,4748
13.00833,4974
13.01667,5203
13.02500,5437
13.03333,5673
13.04167,5913
13.05000,6156
13.05833,6402
13.06667,6651
13.07500,6903
13.08333,7159
13.09167,7416
13.10000,7677
13.10833,7940
13.11667,8206
13.12500,8475
13.13333,8746
13.14167,9020
13.15000,9296
13.15833,9575
13.16667,9857
13.17500,10140
13.18333,10426
13.19167,10715
13.20000,11006
13.20833,11300
13.21667,11595
13.22500,11893
13.23333,12194
13.24167,12497
13.25000,12803
13.25833,13111
13.26667,13421
13.27500,13733
13.28333,14048
13.29167,14365
13.30000,14684
13.30833,15005
13.31667,15329
13.32500,15655
13.33333,15984
13.34167,16315
13.35000,16649
13.35833,16984
13.36667,17322
13.37500,17663
13.38333,18006
13.39167,18352
13.40000,18700
13.40833,19050
13.41667,19403
13.42500,19759
13.43333,20117
13.44167,20477
13.45000,20839
13.45833,21205
13.46667,21573
13.47500,21944
13.48333,22318
13.49167,22694
13.50000,23072
13.50833,23453
13.51667,23837
13.52500,24224
13.53333,24613
13.54167,25005
13.55000,25399
13.55833,25797
13.56667,26197
13.57500,26600
13.58333,27006
13.59167,27415
13.60000,27827
13.60833,28242
13.61667,28659
13.62500,29080
13.63333,29503
13.64167,29929
13.65000,30358
13.65833,30791
13.66667,31227
13.67500,31665
13.68333,32107
13.69167,32552
13.70000,32999
13.70833,33450
13.71667,33905
13.72500,34362
13.73333,34823
13.74167,35286
13.75000,35754
13.75833,36224
13.76667,36698
13.77500,37174
13.78333,37654
13.79167,38137
13.80000,38624
13.80833,39114
13.81667,39607
13.82500,40102
13.83333,40600
13.84167,41098
13.85000,41596
13.85833,42088
13.86667,42571
13.87500,43035
13.88333,43472
13.89167,43865
13.90000,44199
13.90833,44450
13.91667,44594
13.92500,44606
13.93333,44459
13.94167,44128
13.95000,43592
13.95833,42835
13.96667,41849
13.97500,40633
13.98333,39194
13.99167,37551
14.00000,35728
14.00833,33758
14.01667,31679
14.02500,29529
14.03333,27350
14.04167,25183
14.05000,23063
14.05833,21024
14.06667,19091
14.07500,17287
14.08333,15627
14.09167,14120
14.10000,12771
14.10833,11580
14.11667,10545
14.12500,9659
14.13333,8916
14.14167,8304
14.15000,7816
14.15833,7438
14.16667,7162
14.17500,6976
14.18333,6871
14.19167,6835
14.20000,6859
14.20833,6932
14.21667,7047
14.22500,7193
14.23333,7363
14.24167,7548
14.25000,7742
14.25833,7936
14.26667,8126
14.27500,8304
14.28333,8466
14.29167,8608
14.30000,8725
14.30833,8814
14.31667,8874
14.32500,8902
14.33333,8897
14.34167,8859
14.35000,8789
14.35833,8687
14.36667,8555
14.37500,8394
14.38333,8206
14.39167,7994
14.40000,7761
14.40833,7510
14.41667,7243
14.42500,6963
14.43333,6673
14.44167,6376
14.45000,6076
14.45833,5773
14.46667,5472
14.47500,5173
14.48333,4879
14.49167,4592
14.50000,4313
14.50833,4043
14.51667,3783
14.52500,3535
14.53333,3298
14.54167,3072
14.55000,2859
14.55833,2658
14.56667,2469
14.57500,2293
14.58333,2127
14.59167,1974
14.60000,1831
14.60833,1699
14.61667,1577
14.62500,1465
14.63333,1360
14.64167,1265
14.65000,1177
14.65833,1097
14.66667,1023
14.67500,956
14.68333,895
14.69167,838
14.70000,787
14.70833,740
14.71667,698
14.72500,659
14.73333,623
14.74167,592
14.75000,563
14.75833,536
14.76667,512
14.77500,490
14.78333,470
14.79167,451
14.80000,435
14.80833,419
14.81667,405
14.82500,393
14.83333,381
14.84167,370
14.85000,361
14.85833,352
14.86667,344
14.87500,337
14.88333,331
14.89167,325
14.90000,320
14.90833,315
14.91667,311
14.92500,308
14.93333,305
14.94167,303
14.95000,301
14.95833,300
14.96667,299
14.97500,299
14.98333,299
14.99167,300
15.00000,301
15.00833,302
15.01667,303
15.02500,306
15.03333,308
15.04167,311
15.05000,314
15.05833,318
15.06667,322
15.07500,325
15.08333,330
15.09167,334
15.10000,340
15.10833,346
15.11667,352
15.12500,360
15.13333,368
15.14167,378
15.15000,388
15.15833,401
15.16667,415
15.17500,432
15.18333,453
15.19167,477
15.20000,505
15.20833,539
15.21667,580
15.22500,629
15.23333,686
15.24167,755
15.25000,837
15.25833,933
15.26667,1044
15.27500,1175
15.28333,1327
15.29167,1502
15.30000,1704
15.30833,1936
15.31667,2200
15.32500,2500
15.33333,2839
15.34167,3219
15.35000,3645
15.35833,4119
15.36667,4642
15.37500,5219
15.38333,5851
15.39167,6539
15.40000,7286
15.40833,8092
15.41667,8957
15.42500,9880
15.43333,10861
15.44167,11898
15.45000,12988
15.45833,14128
15.46667,15313
15.47500,16540
15.48333,17802
15.49167,19093
15.50000,20406
15.50833,21734
15.51667,23069
15.52500,24401
15.53333,25724
15.54167,27028
15.55000,28304
15.55833,29544
15.56667,30738
15.57500,31878
15.58333,32955
15.59167,33963
15.60000,34894
15.60833,35741
15.61667,36498
15.62500,37162
15.63333,37728
15.64167,38192
15.65000,38552
15.65833,38808
15.66667,38957
15.67500,39001
15.68333,38942
15.69167,38780
15.70000,38519
15.70833,38163
15.71667,37715
15.72500,37181
15.73333,36566
15.74167,35876
15.75000,35117
15.75833,34294
15.76667,33416
15.77500,32487
15.78333,31516
15.79167,30509
15.80000,29472
15.80833,28412
15.81667,27335
15.82500,26246
15.83333,25152
15.84167,24058
15.85000,22969
15.85833,21889
15.86667,20824
15.87500,19777
15.88333,18751
15.89167,17750
15.90000,16775
15.90833,15830
15.91667,14915
15.92500,14033
15.93333,13185
15.94167,12372
15.95000,11594
15.95833,10852
15.96667,10146
15.97500,9476
15.98333,8841
15.99167,8240
16.00000,7673
16.00833,7139
16.01667,6637
16.02500,6167
16.03333,5726
16.04167,5313
16.05000,4929
16.05833,4571
16.06667,4237
16.07500,3927
16.08333,3640
16.09167,3374
16.10000,3127
16.10833,2899
16.11667,2689
16.12500,2495
16.13333,2316
16.14167,2151
16.15000,2000
16.15833,1860
16.16667,1732
16.17500,1614
16.18333,1506
16.19167,1407
16.20000,1316
16.20833,1233
16.21667,1156
16.22500,1086
16.23333,1022
16.24167,963
16.25000,909
16.25833,859
16.26667,814
16.27500,772
16.28333,734
16.29167,699
16.30000,667
16.30833,637
16.31667,610
16.32500,585
16.33333,563
16.34167,541
16.35000,522
16.35833,503
16.36667,486
16.37500,471
16.38333,456
16.39167,443
16.40000,431
16.40833,420
16.41667,409
16.42500,399
16.43333,390
16.44167,381
16.45000,373
16.45833,365
16.46667,358
16.47500,351
16.48333,345
16.49167,339
16.50000,334
16.50833,329
16.51667,325
16.52500,320
16.53333,316
16.54167,312
16.55000,308
16.55833,305
16.56667,301
16.57500,298
16.58333,295
16.59167,293
16.60000,290
16.60833,288
16.61667,285
16.62500,283
16.63333,281
16.64167,279
16.65000,277
16.65833,275
16.66667,273
16.67500,271
16.68333,269
16.69167,267
16.70000,266
16.70833,264
16.71667,262
16.72500,261
16.73333,259
16.74167,258
16.75000,256
16.75833,254
16.76667,253
16.77500,251
16.78333,249
16.79167,247
16.80000,246
16.80833,244
16.81667,243
16.82500,241
16.83333,239
16.84167,238
16.85000,236
16.85833,235
16.86667,234
16.87500,232
16.88333,231
16.89167,229
16.90000,227
16.90833,226
16.91667,224
16.92500,223
16.93333,221
16.94167,219
16.95000,218
16.95833,216
16.96667,215
16.97500,213
16.98333,212
16.99167,211
17.00000,209
17.00833,208
17.01667,207
17.02500,205
17.03333,204
17.04167,203
17.05000,202
17.05833,200
17.06667,199
17.07500,198
17.08333,197
17.09167,195
17.10000,194
17.10833,193
17.11667,192
17.12500,191
17.13333,190
17.14167,189
17.15000,187
17.15833,186
17.16667,185
17.17500,184
17.18333,183
17.19167,181
17.20000,180
17.20833,178
17.21667,177
17.22500,176
17.23333,175
17.24167,174
17.25000,173
17.25833,172
17.26667,171
17.27500,170
17.28333,169
17.29167,168
17.30000,167
17.30833,166
17.31667,165
17.32500,164
17.33333,163
17.34167,161
17.35000,160
17.35833,159
17.36667,158
17.37500,157
17.38333,156
17.39167,155
17.40000,154
17.40833,153
17.41667,152
17.42500,151
17.43333,150
17.44167,149
17.45000,149
17.45833,148
17.46667,147
17.47500,146
17.48333,145
17.49167,143
17.50000,142
17.50833,141
17.51667,141
17.52500,140
17.53333,139
17.54167,139
17.55000,138
17.55833,137
17.56667,137
17.57500,136
17.58333,135
17.59167,134
17.60000,134
17.60833,133
17.61667,133
17.62500,132
17.63333,132
17.64167,132
17.65000,132
17.65833,132
17.66667,131
17.67500,131
17.68333,131
17.69167,131
17.70000,131
17.70833,131
17.71667,131
17.72500,131
17.73333,131
17.74167,131
17.75000,131
17.75833,131
17.76667,131
17.77500,132
17.78333,132
17.79167,132
17.80000,132
17.80833,132
17.81667,132
17.82500,132
17.83333,132
17.84167,133
17.85000,133
17.85833,134
17.86667,134
17.87500,135
17.88333,135
17.89167,135
17.90000,135
17.90833,135
17.91667,135
17.92500,135
17.93333,135
17.94167,135
17.95000,136
17.95833,136
17.96667,136
17.97500,136
17.98333,137
17.99167,137
18.00000,138
18.00833,138
18.01667,138
18.02500,139
18.03333,139
18.04167,139
18.05000,139
18.05833,139
18.06667,139
18.07500,139
18.08333,140
18.09167,140
18.10000,139
18.10833,139
18.11667,139
18.12500,138
18.13333,138
18.14167,138
18.15000,138
18.15833,138
18.16667,138
18.17500,138
18.18333,137
18.19167,137
18.20000,136
18.20833,136
18.21667,136
18.22500,136
18.23333,135
18.24167,135
18.25000,134
18.25833,134
18.26667,133
18.27500,133
18.28333,132
18.29167,131
18.30000,130
18.30833,129
18.31667,128
18.32500,128
18.33333,127
18.34167,127
18.35000,126
18.35833,125
18.36667,124
18.37500,124
18.38333,123
18.39167,122
18.40000,121
18.40833,120
18.41667,119
18.42500,119
18.43333,118
18.44167,117
18.45000,116
18.45833,115
18.46667,114
18.47500,114
18.48333,113
18.49167,112
18.50000,111
18.50833,110
18.51667,110
18.52500,109
18.53333,109
18.54167,108
18.55000,107
18.55833,107
18.56667,106
18.57500,105
18.58333,104
18.59167,103
18.60000,102
18.60833,102
18.61667,101
18.62500,101
18.63333,101
18.64167,101
18.65000,101
18.65833,101
18.66667,100
18.67500,100
18.68333,100
18.69167,100
18.70000,99
18.70833,99
18.71667,100
18.72500,100
18.73333,101
18.74167,102
18.75000,102
18.75833,103
18.76667,104
18.77500,106
18.78333,107
18.79167,109
18.80000,111
18.80833,112
18.81667,115
18.82500,117
18.83333,120
18.84167,122
18.85000,124
18.85833,127
18.86667,130
18.87500,134
18.88333,137
18.89167,141
18.90000,145
18.90833,148
18.91667,153
18.92500,157
18.93333,161
18.94167,164
18.95000,168
18.95833,172
18.96667,176
18.97500,179
18.98333,182
18.99167,186
19.00000,188
19.00833,191
19.01667,193
19.02500,196
19.03333,198
19.04167,200
19.05000,202
19.05833,203
19.06667,204
19.07500,205
19.08333,205
19.09167,205
19.10000,206
19.10833,205
19.11667,205
19.12500,204
19.13333,203
19.14167,202
19.15000,200
19.15833,199
19.16667,197
19.17500,195
19.18333,192
19.19167,190
19.20000,187
19.20833,185
19.21667,182
19.22500,180
19.23333,177
19.24167,174
19.25000,170
19.25833,167
19.26667,164
19.27500,161
19.28333,158
19.29167,156
19.30000,153
19.30833,150
19.31667,147
19.32500,144
19.33333,142
19.34167,140
19.35000,137
19.35833,135
19.36667,132
19.37500,130
19.38333,128
19.39167,126
19.40000,124
19.40833,122
19.41667,120
19.42500,119
19.43333,117
19.44167,115
19.45000,113
19.45833,112
19.46667,111
19.47500,109
19.48333,108
19.49167,107
19.50000,106
19.50833,106
19.51667,105
19.52500,104
19.53333,103
19.54167,102
19.55000,101
19.55833,101
19.56667,100
19.57500,100
19.58333,100
19.59167,99
19.60000,98
19.60833,98
19.61667,97
19.62500,97
19.63333,96
19.64167,96
19.65000,95
19.65833,95
19.66667,95
19.67500,95
19.68333,94
19.69167,93
19.70000,93
19.70833,92
19.71667,92
19.72500,92
19.73333,91
19.74167,91
19.75000,91
19.75833,91
19.76667,90
19.77500,90
19.78333,90
19.79167,90
19.80000,89
19.80833,89
19.81667,90
19.82500,90
19.83333,90
19.84167,89
19.85000,89
19.85833,89
19.86667,88
19.87500,88
19.88333,88
19.89167,88
19.90000,88
19.90833,87
19.91667,87
19.92500,86
19.93333,86
19.94167,86
19.95000,86
19.95833,86
19.96667,86
19.97500,86
19.98333,85
19.99167,85
20.00000,84
20.00833,84
20.01667,84
20.02500,83
20.03333,83
20.04167,82
20.05000,82
20.05833,81
20.06667,81
20.07500,81
20.08333,81
20.09167,81
20.10000,80
20.10833,80
20.11667,80
20.12500,80
20.13333,79
20.14167,79
20.15000,78
20.15833,78
20.16667,78
20.17500,78
20.18333,77
20.19167,77
20.20000,77
20.20833,76
20.21667,76
20.22500,76
20.23333,76
20.24167,75
20.25000,75
20.25833,75
20.26667,75
20.27500,75
20.28333,75
20.29167,74
20.30000,74
20.30833,74
20.31667,73
20.32500,73
20.33333,73
20.34167,73
20.35000,73
20.35833,73
20.36667,73
20.37500,74
20.38333,74
20.39167,74
20.40000,73
20.40833,73
20.41667,73
20.42500,73
20.43333,73
20.44167,73
20.45000,73
20.45833,73
20.46667,73
20.47500,72
20.48333,72
20.49167,72
20.50000,72
20.50833,72
20.51667,72
20.52500,72
20.53333,72
20.54167,72
20.55000,72
20.55833,72
20.56667,72
20.57500,72
20.58333,72
20.59167,72
20.60000,72
20.60833,72
20.61667,72
20.62500,73
20.63333,72
20.64167,72
20.65000,72
20.65833,72
20.66667,72
20.67500,72
20.68333,72
20.69167,72
20.70000,72
20.70833,72
20.71667,72
20.72500,73
20.73333,73
20.74167,73
20.75000,73
20.75833,73
20.76667,73
20.77500,73
20.78333,73
20.79167,73
20.80000,73
20.80833,73
20.81667,73
20.82500,73
20.83333,73
20.84167,73
20.85000,74
20.85833,74
20.86667,74
20.87500,74
20.88333,74
20.89167,74
20.90000,74
20.90833,74
20.91667,74
20.92500,75
20.93333,75
20.94167,75
20.95000,76
20.95833,76
20.96667,76
20.97500,76
20.98333,76
20.99167,76
21.00000,76
21.00833,76
21.01667,76
21.02500,76
21.03333,76
21.04167,77
21.05000,77
21.05833,77
21.06667,77
21.07500,77
21.08333,78
21.09167,78
21.10000,78
21.10833,78
21.11667,78
21.12500,79
21.13333,79
21.14167,80
21.15000,80
21.15833,80
21.16667,80
21.17500,80
21.18333,80
21.19167,80
21.20000,80
21.20833,80
21.21667,80
21.22500,80
21.23333,80
21.24167,80
21.25000,80
21.25833,81
21.26667,81
21.27500,81
21.28333,80
21.29167,80
21.30000,79
21.30833,79
21.31667,79
21.32500,79
21.33333,79
21.34167,79
21.35000,79
21.35833,78
21.36667,78
21.37500,78
21.38333,77
21.39167,77
21.40000,77
21.40833,77
21.41667,76
21.42500,76
21.43333,76
21.44167,75
21.45000,75
21.45833,74
21.46667,74
21.47500,73
21.48333,73
21.49167,73
21.50000,72
21.50833,72
21.51667,72
21.52500,72
21.53333,71
21.54167,71
21.55000,71
21.55833,71
21.56667,71
21.57500,71
21.58333,71
21.59167,71
21.60000,71
21.60833,71
21.61667,71
21.62500,70
21.63333,70
21.64167,69
21.65000,69
21.65833,69
21.66667,69
21.67500,69
21.68333,69
21.69167,69
21.70000,69
21.70833,68
21.71667,68
21.72500,68
21.73333,68
21.74167,68
21.75000,68
21.75833,68
21.76667,68
21.77500,68
21.78333,68
21.79167,68
21.80000,68
21.80833,68
21.81667,68
21.82500,68
21.83333,68
21.84167,68
21.85000,68
21.85833,68
21.86667,68
21.87500,68
21.88333,68
21.89167,68
21.90000,68
21.90833,68
21.91667,67
21.92500,67
21.93333,68
21.94167,68
21.95000,68
21.95833,68
21.96667,68
21.97500,68
21.98333,68
21.99167,68
22.00000,68
22.00833,68
22.01667,67
22.02500,67
22.03333,68
22.04167,68
22.05000,68
22.05833,68
22.06667,68
22.07500,68
22.08333,68
22.09167,68
22.10000,67
22.10833,67
22.11667,67
22.12500,67
22.13333,67
22.14167,67
22.15000,67
22.15833,67
22.16667,67
22.17500,66
22.18333,66
22.19167,66
22.20000,66
22.20833,67
22.21667,67
22.22500,66
22.23333,66
22.24167,66
22.25000,66
22.25833,66
22.26667,67
22.27500,67
22.28333,67
22.29167,67
22.30000,68
22.30833,68
22.31667,68
22.32500,68
22.33333,68
22.34167,68
22.35000,68
22.35833,69
22.36667,69
22.37500,69
22.38333,70
22.39167,70
22.40000,70
22.40833,70
22.41667,71
22.42500,71
22.43333,71
22.44167,71
22.45000,71
22.45833,71
22.46667,71
22.47500,71
22.48333,71
22.49167,71
22.50000,71
22.50833,71
22.51667,71
22.52500,72
22.53333,72
22.54167,71
22.55000,72
22.55833,72
22.56667,72
22.57500,73
22.58333,74
22.59167,74
22.60000,74
22.60833,74
22.61667,74
22.62500,74
22.63333,74
22.64167,75
22.65000,75
22.65833,75
22.66667,76
22.67500,76
22.68333,77
22.69167,77
22.70000,77
22.70833,78
22.71667,78
22.72500,79
22.73333,79
22.74167,80
22.75000,80
22.75833,80
22.76667,81
22.77500,82
22.78333,82
22.79167,82
22.80000,83
22.80833,83
22.81667,84
22.82500,84
22.83333,85
22.84167,85
22.85000,86
22.85833,86
22.86667,87
22.87500,87
22.88333,88
22.89167,88
22.90000,89
22.90833,89
22.91667,90
22.92500,90
22.93333,89
22.94167,89
22.95000,89
22.95833,89
22.96667,89
22.97500,89
22.98333,89
22.99167,90
23.00000,90
23.00833,90
23.01667,90
23.02500,90
23.03333,90
23.04167,90
23.05000,90
23.05833,90
23.06667,90
23.07500,89
23.08333,89
23.09167,89
23.10000,89
23.10833,89
23.11667,88
23.12500,88
23.13333,88
23.14167,88
23.15000,88
23.15833,87
23.16667,87
23.17500,87
23.18333,87
23.19167,87
23.20000,86
23.20833,86
23.21667,86
23.22500,85
23.23333,85
23.24167,85
23.25000,84
23.25833,83
23.26667,83
23.27500,82
23.28333,82
23.29167,82
23.30000,82
23.30833,81
23.31667,81
23.32500,81
23.33333,81
23.34167,80
23.35000,80
23.35833,79
23.36667,79
23.37500,78
23.38333,78
23.39167,78
23.40000,77
23.40833,77
23.41667,77
23.42500,76
23.43333,76
23.44167,75
23.45000,75
23.45833,74
23.46667,74
23.47500,74
23.48333,74
23.49167,74
23.50000,73
23.50833,73
23.51667,73
23.52500,72
23.53333,72
23.54167,72
23.55000,71
23.55833,71
23.56667,70
23.57500,69
23.58333,69
23.59167,68
23.60000,68
23.60833,68
23.61667,68
23.62500,68
23.63333,68
23.64167,67
23.65000,67
23.65833,67
23.66667,67
23.67500,66
23.68333,66
23.69167,66
23.70000,66
23.70833,67
23.71667,67
23.72500,67
23.73333,67
23.74167,67
23.75000,67
23.75833,67
23.76667,67
23.77500,67
23.78333,67
23.79167,67
23.80000,66
23.80833,66
23.81667,66
23.82500,66
23.83333,65
23.84167,66
23.85000,66
23.85833,66
23.86667,66
23.87500,66
23.88333,66
23.89167,66
23.90000,66
23.90833,67
23.91667,67
23.92500,67
23.93333,67
23.94167,67
23.95000,67
23.95833,67
23.96667,68
23.97500,68
23.98333,68
23.99167,68
24.00000,68
24.00833,68
24.01667,68
24.02500,69
24.03333,69
24.04167,69
24.05000,69
24.05833,69
24.06667,70
24.07500,70
24.08333,70
24.09167,70
24.10000,70
24.10833,70
24.11667,70
24.12500,70
24.13333,71
24.14167,71
24.15000,71
24.15833,71
24.16667,71
24.17500,72
24.18333,72
24.19167,72
24.20000,72
24.20833,72
24.21667,73
24.22500,73
24.23333,73
24.24167,73
24.25000,74
24.25833,74
24.26667,74
24.27500,75
24.28333,75
24.29167,75
24.30000,75
24.30833,75
24.31667,75
24.32500,75
24.33333,75
24.34167,76
24.35000,76
24.35833,76
24.36667,76
24.37500,77
24.38333,77
24.39167,77
24.40000,77
24.40833,77
24.41667,78
24.42500,78
24.43333,79
24.44167,79
24.45000,79
24.45833,79
24.46667,79
24.47500,80
24.48333,80
24.49167,80
24.50000,81
24.50833,82
24.51667,83
24.52500,83
24.53333,84
24.54167,85
24.55000,86
24.55833,87
24.56667,88
24.57500,89
24.58333,91
24.59167,92
24.60000,94
24.60833,97
24.61667,99
24.62500,101
24.63333,103
24.64167,105
24.65000,108
24.65833,110
24.66667,113
24.67500,117
24.68333,121
24.69167,125
24.70000,129
24.70833,134
24.71667,138
24.72500,143
24.73333,148
24.74167,153
24.75000,158
24.75833,163
24.76667,169
24.77500,175
24.78333,181
24.79167,188
24.80000,195
24.80833,202
24.81667,208
24.82500,215
24.83333,222
24.84167,229
24.85000,235
24.85833,242
24.86667,249
24.87500,256
24.88333,263
24.89167,270
24.90000,276
24.90833,283
24.91667,289
24.92500,294
24.93333,300
24.94167,305
24.95000,309
24.95833,313
24.96667,317
24.97500,321
24.98333,324
24.99167,327
25.00000,329
25.00833,332
25.01667,333
25.02500,334
25.03333,334
25.04167,334
25.05000,333
25.05833,332
25.06667,331
25.07500,329
25.08333,326
25.09167,324
25.10000,320
25.10833,317
25.11667,313
25.12500,309
25.13333,305
25.14167,301
25.15000,296
25.15833,291
25.16667,286
25.17500,280
25.18333,274
25.19167,269
25.20000,263
25.20833,257
25.21667,251
25.22500,245
25.23333,239
25.24167,233
25.25000,226
25.25833,220
25.26667,214
25.27500,208
25.28333,202
25.29167,197
25.30000,192
25.30833,186
25.31667,181
25.32500,176
25.33333,171
25.34167,166
25.35000,161
25.35833,157
25.36667,153
25.37500,149
25.38333,145
25.39167,142
25.40000,138
25.40833,135
25.41667,131
25.42500,129
25.43333,126
25.44167,123
25.45000,121
25.45833,118
25.46667,116
25.47500,114
25.48333,112
25.49167,110
25.50000,108
25.50833,106
25.51667,105
25.52500,104
25.53333,102
25.54167,101
25.55000,100
25.55833,99
25.56667,99
25.57500,98
25.58333,97
25.59167,96
25.60000,95
25.60833,94
25.61667,93
25.62500,93
25.63333,93
25.64167,92
25.65000,92
25.65833,92
25.66667,91
25.67500,90
25.68333,90
25.69167,90
25.70000,89
25.70833,89
25.71667,88
25.72500,88
25.73333,88
25.74167,88
25.75000,88
25.75833,87
25.76667,87
25.77500,86
25.78333,86
25.79167,85
25.80000,85
25.80833,85
25.81667,85
25.82500,85
25.83333,85
25.84167,85
25.85000,85
25.85833,84
25.86667,84
25.87500,84
25.88333,84
25.89167,84
25.90000,84
25.90833,83
25.91667,83
25.92500,83
25.93333,83
25.94167,83
25.95000,83
25.95833,83
25.96667,82
25.97500,82
25.98333,82
25.99167,82
26.00000,82
26.00833,82
26.01667,82
26.02500,82
26.03333,82
26.04167,82
26.05000,82
26.05833,81
26.06667,81
26.07500,81
26.08333,81
26.09167,82
26.10000,82
26.10833,82
26.11667,82
26.12500,82
26.13333,82
26.14167,81
26.15000,81
26.15833,81
26.16667,81
26.17500,82
26.18333,82
26.19167,82
26.20000,82
26.20833,82
26.21667,81
26.22500,81
26.23333,81
26.24167,81
26.25000,81
26.25833,81
26.26667,80
26.27500,80
26.28333,80
26.29167,80
26.30000,80
26.30833,80
26.31667,80
26.32500,80
26.33333,80
26.34167,80
26.35000,80
26.35833,80
26.36667,80
26.37500,80
26.38333,80
26.39167,80
26.40000,80
26.40833,80
26.41667,80
26.42500,80
26.43333,80
26.44167,81
26.45000,81
26.45833,82
26.46667,82
26.47500,82
26.48333,82
26.49167,82
26.50000,83
26.50833,83
26.51667,83
26.52500,83
26.53333,83
26.54167,83
26.55000,83
26.55833,83
26.56667,83
26.57500,83
26.58333,83
26.59167,83
26.60000,83
26.60833,83
26.61667,84
26.62500,84
26.63333,84
26.64167,85
26.65000,85
26.65833,85
26.66667,85
26.67500,85
26.68333,85
26.69167,86
26.70000,86
26.70833,86
26.71667,86
26.72500,86
26.73333,86
26.74167,87
26.75000,87
26.75833,87
26.76667,86
26.77500,86
26.78333,87
26.79167,87
26.80000,87
26.80833,88
26.81667,88
26.82500,88
26.83333,88
26.84167,88
26.85000,88
26.85833,88
26.86667,88
26.87500,89
26.88333,89
26.89167,89
26.90000,89
26.90833,89
26.91667,89
26.92500,89
26.93333,89
26.94167,90
26.95000,90
26.95833,90
26.96667,90
26.97500,90
26.98333,90
26.99167,89
27.00000,89
27.00833,89
27.01667,89
27.02500,88
27.03333,88
27.04167,88
27.05000,88
27.05833,87
27.06667,87
27.07500,87
27.08333,87
27.09167,87
27.10000,87
27.10833,87
27.11667,87
27.12500,86
27.13333,86
27.14167,86
27.15000,86
27.15833,86
27.16667,86
27.17500,86
27.18333,86
27.19167,86
27.20000,85
27.20833,85
27.21667,85
27.22500,85
27.23333,85
27.24167,85
27.25000,84
27.25833,84
27.26667,84
27.27500,84
27.28333,84
27.29167,84
27.30000,84
27.30833,84
27.31667,84
27.32500,84
27.33333,84
27.34167,84
27.35000,84
27.35833,84
27.36667,84
27.37500,84
27.38333,84
27.39167,84
27.40000,84
27.40833,84
27.41667,84
27.42500,84
27.43333,84
27.44167,84
27.45000,84
27.45833,85
27.46667,85
27.47500,85
27.48333,85
27.49167,85
27.50000,85
27.50833,85
27.51667,85
27.52500,85
27.53333,86
27.54167,86
27.55000,86
27.55833,86
27.56667,86
27.57500,86
27.58333,86
27.59167,86
27.60000,86
27.60833,86
27.61667,86
27.62500,86
27.63333,86
27.64167,85
27.65000,85
27.65833,85
27.66667,85
27.67500,84
27.68333,84
27.69167,84
27.70000,84
27.70833,84
27.71667,83
27.72500,82
27.73333,82
27.74167,81
27.75000,80
27.75833,80
27.76667,79
27.77500,78
27.78333,77
27.79167,76
27.80000,76
27.80833,75
27.81667,74
27.82500,73
27.83333,72
27.84167,70
27.85000,69
27.85833,67
27.86667,66
27.87500,65
27.88333,63
27.89167,61
27.90000,59
27.90833,57
27.91667,55
27.92500,53
27.93333,51
27.94167,48
27.95000,46
27.95833,43
27.96667,40
27.97500,38
27.98333,35
27.99167,33
28.00000,30
28.00833,27
28.01667,24
28.02500,21
28.03333,18
28.04167,15
28.05000,12
28.05833,9
28.06667,5
28.07500,2
28.08333,-1
28.09167,-4
28.10000,-8
28.10833,-11
28.11667,-14
28.12500,-17
28.13333,-21
28.14167,-24
28.15000,-27
28.15833,-30
28.16667,-33
28.17500,-36
28.18333,-39
28.19167,-42
28.20000,-45
28.20833,-47
28.21667,-50
28.22500,-53
28.23333,-55
28.24167,-57
28.25000,-60
28.25833,-61
28.26667,-63
28.27500,-64
28.28333,-66
28.29167,-67
28.30000,-69
28.30833,-70
28.31667,-71
28.32500,-71
28.33333,-72
28.34167,-72
28.35000,-73
28.35833,-73
28.36667,-72
28.37500,-72
28.38333,-72
28.39167,-71
28.40000,-70
28.40833,-69
28.41667,-68
28.42500,-66
28.43333,-65
28.44167,-63
28.45000,-62
28.45833,-60
28.46667,-58
28.47500,-56
28.48333,-54
28.49167,-52
28.50000,-50
28.50833,-48
28.51667,-45
28.52500,-42
28.53333,-40
28.54167,-37
28.55000,-35
28.55833,-32
28.56667,-30
28.57500,-27
28.58333,-24
28.59167,-21
28.60000,-18
28.60833,-15
28.61667,-13
28.62500,-11
28.63333,-8
28.64167,-6
28.65000,-4
28.65833,-1
28.66667,1
28.67500,4
28.68333,7
28.69167,9
28.70000,11
28.70833,14
28.71667,16
28.72500,19
28.73333,21
28.74167,23
28.75000,26
28.75833,28
28.76667,30
28.77500,32
28.78333,34
28.79167,36
28.80000,38
28.80833,40
28.81667,42
28.82500,43
28.83333,45
28.84167,47
28.85000,48
28.85833,50
28.86667,51
28.87500,52
28.88333,54
28.89167,55
28.90000,57
28.90833,58
28.91667,59
28.92500,60
28.93333,61
28.94167,62
28.95000,63
28.95833,64
28.96667,65
28.97500,66
28.98333,67
28.99167,68
29.00000,69
29.00833,70
29.01667,71
29.02500,72
29.03333,73
29.04167,73
29.05000,74
29.05833,75
29.06667,76
29.07500,77
29.08333,78
29.09167,79
29.10000,79
29.10833,79
29.11667,79
29.12500,80
29.13333,80
29.14167,80
29.15000,81
29.15833,81
29.16667,82
29.17500,82
29.18333,82
29.19167,83
29.20000,83
29.20833,83
29.21667,83
29.22500,83
29.23333,83
29.24167,83
29.25000,83
29.25833,83
29.26667,83
29.27500,83
29.28333,83
29.29167,84
29.30000,84
29.30833,84
29.31667,84
29.32500,84
29.33333,84
29.34167,84
29.35000,83
29.35833,83
29.36667,83
29.37500,83
29.38333,82
29.39167,82
29.40000,81
29.40833,80
29.41667,80
29.42500,79
29.43333,79
29.44167,78
29.45000,78
29.45833,77
29.46667,77
29.47500,76
29.48333,75
29.49167,75
29.50000,75
29.50833,74
29.51667,73
29.52500,72
29.53333,71
29.54167,70
29.55000,70
29.55833,69
29.56667,68
29.57500,68
29.58333,67
29.59167,65
29.60000,64
29.60833,63
29.61667,63
29.62500,62
29.63333,61
29.64167,60
29.65000,58
29.65833,57
29.66667,57
29.67500,56
29.68333,55
29.69167,54
29.70000,53
29.70833,51
29.71667,50
29.72500,49
29.73333,48
29.74167,47
29.75000,46
29.75833,45
29.76667,44
29.77500,42
29.78333,41
29.79167,39
29.80000,38
29.80833,37
29.81667,35
29.82500,34
29.83333,32
29.84167,31
29.85000,29
29.85833,28
29.86667,27
29.87500,26
29.88333,25
29.89167,23
29.90000,22
29.90833,20
29.91667,19
29.92500,18
29.93333,17
29.94167,16
29.95000,15
29.95833,14
29.96667,13
29.97500,13
29.98333,12
29.99167,12
30.00000,11
30.00833,10
30.01667,9
30.02500,9
30.03333,8
30.04167,8
30.05000,8
30.05833,8
30.06667,8
30.07500,8
30.08333,8
30.09167,8
30.10000,8
30.10833,8
30.11667,8
30.12500,9
30.13333,9
30.14167,10
30.15000,11
30.15833,12
30.16667,13
30.17500,14
30.18333,16
30.19167,17
30.20000,17
30.20833,18
30.21667,19
30.22500,20
30.23333,22
30.24167,23
30.25000,24
30.25833,26
30.26667,27
30.27500,29
30.28333,30
30.29167,32
30.30000,33
30.30833,34
30.31667,36
30.32500,37
30.33333,39
30.34167,40
30.35000,41
30.35833,42
30.36667,43
30.37500,45
30.38333,46
30.39167,47
30.40000,48
30.40833,50
30.41667,51
30.42500,53
30.43333,54
30.44167,55
30.45000,56
30.45833,57
30.46667,58
30.47500,58
30.48333,59
30.49167,61
30.50000,61
30.50833,62
30.51667,62
30.52500,63
30.53333,64
30.54167,64
30.55000,64
30.55833,65
30.56667,65
30.57500,65
30.58333,65
30.59167,65
30.60000,65
30.60833,64
30.61667,65
30.62500,65
30.63333,65
30.64167,64
30.65000,64
30.65833,64
30.66667,64
30.67500,63
30.68333,63
30.69167,63
30.70000,62
30.70833,62
30.71667,61
30.72500,61
30.73333,61
30.74167,61
30.75000,60
30.75833,60
30.76667,59
30.77500,59
30.78333,58
30.79167,57
30.80000,56
30.80833,55
30.81667,55
30.82500,54
30.83333,53
30.84167,52
30.85000,51
30.85833,50
30.86667,50
30.87500,49
30.88333,48
30.89167,48
30.90000,47
30.90833,46
30.91667,45
30.92500,45
30.93333,44
30.94167,44
30.95000,44
30.95833,43
30.96667,43
30.97500,43
30.98333,43
30.99167,42
31.00000,42
31.00833,42
31.01667,41
31.02500,41
31.03333,41
31.04167,42
31.05000,42
31.05833,42
31.06667,42
31.07500,42
31.08333,43
31.09167,43
31.10000,44
31.10833,44
31.11667,44
31.12500,45
31.13333,45
31.14167,46
31.15000,47
31.15833,47
31.16667,48
31.17500,49
31.18333,50
31.19167,51
31.20000,52
31.20833,53
31.21667,54
31.22500,56
31.23333,57
31.24167,57
31.25000,58
31.25833,59
31.26667,60
31.27500,61
31.28333,62
31.29167,63
31.30000,64
31.30833,65
31.31667,67
31.32500,68
31.33333,69
31.34167,70
31.35000,71
31.35833,72
31.36667,73
31.37500,74
31.38333,75
31.39167,76
31.40000,77
31.40833,79
31.41667,80
31.42500,81
31.43333,82
31.44167,83
31.45000,83
31.45833,84
31.46667,84
31.47500,85
31.48333,86
31.49167,87
31.50000,87
31.50833,88
31.51667,88
31.52500,89
31.53333,89
31.54167,89
31.55000,90
31.55833,90
31.56667,90
31.57500,90
31.58333,91
31.59167,92
31.60000,92
31.60833,93
31.61667,93
31.62500,93
31.63333,93
31.64167,93
31.65000,93
31.65833,93
31.66667,92
31.67500,92
31.68333,92
31.69167,92
31.70000,92
31.70833,92
31.71667,92
31.72500,91
31.73333,91
31.74167,91
31.75000,91
31.75833,91
31.76667,91
31.77500,91
31.78333,91
31.79167,90
31.80000,90
31.80833,90
31.81667,89
31.82500,89
31.83333,88
31.84167,88
31.85000,88
31.85833,88
31.86667,87
31.87500,87
31.88333,87
31.89167,86
31.90000,86
31.90833,86
31.91667,86
31.92500,86
31.93333,85
31.94167,85
31.95000,84
31.95833,84
31.96667,84
31.97500,84
31.98333,83
31.99167,83
32.00000,82
32.00833,82
32.01667,82
32.02500,82
32.03333,83
32.04167,83
32.05000,83
32.05833,83
32.06667,83
32.07500,83
32.08333,83
32.09167,84
32.10000,84
32.10833,84
32.11667,84
32.12500,84
32.13333,84
32.14167,84
32.15000,84
32.15833,84
32.16667,85
32.17500,85
32.18333,85
32.19167,86
32.20000,86
32.20833,86
32.21667,86
32.22500,86
32.23333,86
32.24167,86
32.25000,86
32.25833,87
32.26667,87
32.27500,87
32.28333,88
32.29167,88
32.30000,88
32.30833,88
32.31667,88
32.32500,88
32.33333,88
32.34167,88
32.35000,89
32.35833,89
32.36667,89
32.37500,89
32.38333,90
32.39167,90
32.40000,90
32.40833,90
32.41667,91
32.42500,91
32.43333,91
32.44167,91
32.45000,91
32.45833,91
32.46667,91
32.47500,92
32.48333,92
32.49167,92
32.50000,92
32.50833,92
32.51667,92
32.52500,92
32.53333,92
32.54167,93
32.55000,93
32.55833,94
32.56667,93
32.57500,93
32.58333,93
32.59167,93
32.60000,93
32.60833,93
32.61667,93
32.62500,93
32.63333,93
32.64167,93
32.65000,94
32.65833,94
32.66667,94
32.67500,94
32.68333,94
32.69167,94
32.70000,94
32.70833,94
32.71667,95
32.72500,95
32.73333,95
32.74167,95
32.75000,95
32.75833,95
32.76667,95
32.77500,95
32.78333,94
32.79167,94
32.80000,95
32.80833,95
32.81667,95
32.82500,95
32.83333,95
32.84167,95
32.85000,95
32.85833,95
32.86667,95
32.87500,95
32.88333,94
32.89167,94
32.90000,94
32.90833,94
32.91667,94
32.92500,93
32.93333,93
32.94167,92
32.95000,92
32.95833,91
32.96667,91
32.97500,91
32.98333,91
32.99167,90
33.00000,90
33.00833,90
33.01667,89
33.02500,89
33.03333,89
33.04167,88
33.05000,88
33.05833,88
33.06667,87
33.07500,87
33.08333,87
33.09167,86
33.10000,86
33.10833,86
33.11667,85
33.12500,85
33.13333,84
33.14167,84
33.15000,84
33.15833,83
33.16667,83
33.17500,83
33.18333,83
33.19167,83
33.20000,83
33.20833,84
33.21667,84
33.22500,84
33.23333,84
33.24167,84
33.25000,84
33.25833,84
33.26667,84
33.27500,84
33.28333,84
33.29167,84
33.30000,84
33.30833,84
33.31667,84
33.32500,84
33.33333,85
33.34167,85
33.35000,85
33.35833,85
33.36667,85
33.37500,85
33.38333,85
33.39167,86
33.40000,86
33.40833,86
33.41667,86
33.42500,86
33.43333,86
33.44167,86
33.45000,86
33.45833,86
33.46667,86
33.47500,86
33.48333,86
33.49167,86
33.50000,86
33.50833,87
33.51667,87
33.52500,87
33.53333,87
33.54167,88
33.55000,88
33.55833,88
33.56667,88
33.57500,89
33.58333,89
33.59167,90
33.60000,90
33.60833,91
33.61667,91
33.62500,91
33.63333,92
33.64167,92
33.65000,93
33.65833,93
33.66667,94
33.67500,94
33.68333,94
33.69167,94
33.70000,95
33.70833,95
33.71667,95
33.72500,96
33.73333,96
33.74167,97
33.75000,97
33.75833,98
33.76667,98
33.77500,98
33.78333,98
33.79167,98
33.80000,99
33.80833,99
33.81667,99
33.82500,99
33.83333,99
33.84167,100
33.85000,100
33.85833,100
33.86667,100
33.87500,100
33.88333,100
33.89167,100
33.90000,100
33.90833,100
33.91667,100
33.92500,100
33.93333,100
33.94167,100
33.95000,100
33.95833,100
33.96667,101
33.97500,101
33.98333,101
33.99167,101
34.00000,101
34.00833,100
34.01667,100
34.02500,99
34.03333,99
34.04167,98
34.05000,98
34.05833,98
34.06667,98
34.07500,97
34.08333,97
34.09167,97
34.10000,97
34.10833,97
34.11667,97
34.12500,97
34.13333,97
34.14167,96
34.15000,96
34.15833,95
34.16667,95
34.17500,95
34.18333,95
34.19167,95
34.20000,94
34.20833,94
34.21667,93
34.22500,93
34.23333,93
34.24167,92
34.25000,92
34.25833,92
34.26667,91
34.27500,91
34.28333,91
34.29167,90
34.30000,90
34.30833,90
34.31667,90
34.32500,89
34.33333,89
34.34167,88
34.35000,88
34.35833,88
34.36667,88
34.37500,87
34.38333,87
34.39167,87
34.40000,87
34.40833,87
34.41667,87
34.42500,87
34.43333,87
34.44167,87
34.45000,87
34.45833,87
34.46667,87
34.47500,87
34.48333,86
34.49167,86
34.50000,86
34.50833,87
34.51667,87
34.52500,87
34.53333,87
34.54167,86
34.55000,86
34.55833,86
34.56667,86
34.57500,87
34.58333,87
34.59167,87
34.60000,87
34.60833,87
34.61667,86
34.62500,86
34.63333,86
34.64167,86
34.65000,86
34.65833,86
34.66667,87
34.67500,88
34.68333,88
34.69167,88
34.70000,88
34.70833,88
34.71667,88
34.72500,88
34.73333,88
34.74167,88
34.75000,88
34.75833,88
34.76667,88
34.77500,89
34.78333,89
34.79167,88
34.80000,88
34.80833,88
34.81667,88
34.82500,88
34.83333,88
34.84167,88
34.85000,88
34.85833,88
34.86667,88
34.87500,89
34.88333,89
34.89167,89
34.90000,89
34.90833,89
34.91667,89
34.92500,89
34.93333,88
34.94167,88
34.95000,89
34.95833,89
34.96667,89
34.97500,89
34.98333,90
34.99167,90
35.00000,90
35.00833,90
35.01667,90
35.02500,90
35.03333,90
35.04167,90
35.05000,91
35.05833,91
35.06667,91
35.07500,91
35.08333,91
35.09167,92
35.10000,92
35.10833,92
35.11667,92
35.12500,92
35.13333,92
35.14167,93
35.15000,93
35.15833,93
35.16667,92
35.17500,93
35.18333,93
35.19167,93
35.20000,93
35.20833,92
35.21667,93
35.22500,93
35.23333,93
35.24167,93
35.25000,93
35.25833,93
35.26667,93
35.27500,93
35.28333,94
35.29167,94
35.30000,94
35.30833,94
35.31667,94
35.32500,94
35.33333,94
35.34167,94
35.35000,94
35.35833,94
35.36667,94
35.37500,94
35.38333,94
35.39167,94
35.40000,94
35.40833,94
35.41667,94
35.42500,93
35.43333,93
35.44167,93
35.45000,93
35.45833,93
35.46667,93
35.47500,93
35.48333,93
35.49167,93
35.50000,93
35.50833,93
35.51667,92
35.52500,92
35.53333,92
35.54167,91
35.55000,91
35.55833,91
35.56667,91
35.57500,91
35.58333,91
35.59167,91
35.60000,91
35.60833,90
35.61667,89
35.62500,89
35.63333,88
35.64167,88
35.65000,88
35.65833,88
35.66667,88
35.67500,87
35.68333,87
35.69167,87
35.70000,87
35.70833,87
35.71667,86
35.72500,86
35.73333,86
35.74167,86
35.75000,86
35.75833,86
35.76667,86
35.77500,86
35.78333,85
35.79167,85
35.80000,85
35.80833,84
35.81667,84
35.82500,84
35.83333,84
35.84167,84
35.85000,84
35.85833,84
35.86667,84
35.87500,85
35.88333,85
35.89167,84
35.90000,84
35.90833,84
35.91667,84
35.92500,84
35.93333,84
35.94167,83
35.95000,83
35.95833,84
35.96667,84
35.97500,84
35.98333,84
35.99167,84
36.00000,84
36.00833,84
36.01667,85
36.02500,85
36.03333,85
36.04167,85
36.05000,85
36.05833,85
36.06667,85
36.07500,86
36.08333,86
36.09167,86
36.10000,86
36.10833,86
36.11667,87
36.12500,87
36.13333,86
36.14167,86
36.15000,86
36.15833,86
36.16667,86
36.17500,86
36.18333,87
36.19167,87
36.20000,87
36.20833,88
36.21667,88
36.22500,88
36.23333,88
36.24167,89
36.25000,89
36.25833,89
36.26667,89
36.27500,90
36.28333,90
36.29167,90
36.30000,91
36.30833,91
36.31667,91
36.32500,92
36.33333,92
36.34167,92
36.35000,93
36.35833,93
36.36667,94
36.37500,94
36.38333,95
36.39167,95
36.40000,96
36.40833,96
36.41667,96
36.42500,97
36.43333,97
36.44167,97
36.45000,98
36.45833,98
36.46667,99
36.47500,99
36.48333,99
36.49167,99
36.50000,100
36.50833,100
36.51667,100
36.52500,100
36.53333,100
36.54167,100
36.55000,101
36.55833,101
36.56667,101
36.57500,101
36.58333,101
36.59167,101
36.60000,100
36.60833,101
36.61667,101
36.62500,101
36.63333,100
36.64167,100
36.65000,100
36.65833,100
36.66667,101
36.67500,101
36.68333,101
36.69167,101
36.70000,101
36.70833,101
36.71667,100
36.72500,100
36.73333,100
36.74167,100
36.75000,100
36.75833,99
36.76667,99
36.77500,99
36.78333,98
36.79167,98
36.80000,98
36.80833,97
36.81667,97
36.82500,97
36.83333,97
36.84167,97
36.85000,97
36.85833,97
36.86667,97
36.87500,97
36.88333,97
36.89167,96
36.90000,96
36.90833,96
36.91667,96
36.92500,96
36.93333,96
36.94167,96
36.95000,96
36.95833,96
36.96667,96
36.97500,96
36.98333,96
36.99167,96
37.00000,96
37.00833,96
37.01667,96
37.02500,96
37.03333,96
37.04167,96
37.05000,96
37.05833,97
37.06667,97
37.07500,97
37.08333,97
37.09167,97
37.10000,97
37.10833,97
37.11667,97
37.12500,97
37.13333,97
37.14167,97
37.15000,97
37.15833,98
37.16667,98
37.17500,99
37.18333,100
37.19167,100
37.20000,100
37.20833,100
37.21667,100
37.22500,100
37.23333,101
37.24167,101
37.25000,101
37.25833,101
37.26667,101
37.27500,101
37.28333,101
37.29167,100
37.30000,100
37.30833,100
37.31667,100
37.32500,101
37.33333,101
37.34167,101
37.35000,101
37.35833,101
37.36667,101
37.37500,101
37.38333,101
37.39167,101
37.40000,101
37.40833,101
37.41667,101
37.42500,101
37.43333,102
37.44167,102
37.45000,101
37.45833,101
37.46667,101
37.47500,100
37.48333,100
37.49167,100
37.50000,100
37.50833,100
37.51667,100
37.52500,100
37.53333,100
37.54167,99
37.55000,99
37.55833,99
37.56667,99
37.57500,98
37.58333,98
37.59167,99
37.60000,99
37.60833,99
37.61667,99
37.62500,99
37.63333,99
37.64167,99
37.65000,99
37.65833,99
37.66667,99
37.67500,99
37.68333,99
37.69167,100
37.70000,100
37.70833,100
37.71667,100
37.72500,100
37.73333,100
37.74167,100
37.75000,100
37.75833,100
37.76667,100
37.77500,100
37.78333,100
37.79167,100
37.80000,100
37.80833,100
37.81667,101
37.82500,101
37.83333,101
37.84167,101
37.85000,101
37.85833,101
37.86667,101
37.87500,101
37.88333,102
37.89167,102
37.90000,102
37.90833,103
37.91667,103
37.92500,103
37.93333,103
37.94167,103
37.95000,103
37.95833,103
37.96667,103
37.97500,103
37.98333,103
37.99167,103
38.00000,103
38.00833,103
38.01667,104
38.02500,104
38.03333,104
38.04167,104
38.05000,104
38.05833,104
38.06667,104
38.07500,104
38.08333,103
38.09167,103
38.10000,103
38.10833,103
38.11667,103
38.12500,103
38.13333,103
38.14167,103
38.15000,103
38.15833,103
38.16667,103
38.17500,103
38.18333,103
38.19167,103
38.20000,104
38.20833,104
38.21667,103
38.22500,103
38.23333,103
38.24167,103
38.25000,103
38.25833,102
38.26667,102
38.27500,102
38.28333,102
38.29167,102
38.30000,102
38.30833,102
38.31667,102
38.32500,102
38.33333,102
38.34167,102
38.35000,102
38.35833,102
38.36667,102
38.37500,102
38.38333,102
38.39167,102
38.40000,102
38.40833,102
38.41667,102
38.42500,102
38.43333,102
38.44167,102
38.45000,102
38.45833,102
38.46667,102
38.47500,102
38.48333,101
38.49167,101
38.50000,101
38.50833,101
38.51667,101
38.52500,101
38.53333,101
38.54167,101
38.55000,101
38.55833,101
38.56667,101
38.57500,101
38.58333,101
38.59167,101
38.60000,101
38.60833,101
38.61667,100
38.62500,100
38.63333,100
38.64167,100
38.65000,100
38.65833,100
38.66667,99
38.67500,99
38.68333,99
38.69167,99
38.70000,98
38.70833,98
38.71667,98
38.72500,98
38.73333,98
38.74167,98
38.75000,97
38.75833,97
38.76667,97
38.77500,96
38.78333,96
38.79167,96
38.80000,96
38.80833,96
38.81667,96
38.82500,95
38.83333,95
38.84167,95
38.85000,95
38.85833,95
38.86667,95
38.87500,95
38.88333,95
38.89167,95
38.90000,95
38.90833,95
38.91667,94
38.92500,94
38.93333,94
38.94167,94
38.95000,94
38.95833,94
38.96667,94
38.97500,94
38.98333,94
38.99167,95
39.00000,95
39.00833,96
39.01667,96
39.02500,95
39.03333,95
39.04167,95
39.05000,96
39.05833,96
39.06667,96
39.07500,96
39.08333,97
39.09167,97
39.10000,97
39.10833,98
39.11667,98
39.12500,98
39.13333,99
39.14167,99
39.15000,99
39.15833,99
39.16667,100
39.17500,100
39.18333,100
39.19167,100
39.20000,100
39.20833,100
39.21667,101
39.22500,101
39.23333,102
39.24167,102
39.25000,102
39.25833,102
39.26667,102
39.27500,102
39.28333,102
39.29167,102
39.30000,103
39.30833,103
39.31667,103
39.32500,103
39.33333,103
39.34167,103
39.35000,102
39.35833,102
39.36667,103
39.37500,103
39.38333,103
39.39167,103
39.40000,103
39.40833,104
39.41667,103
39.42500,103
39.43333,103
39.44167,103
39.45000,103
39.45833,103
39.46667,103
39.47500,104
39.48333,104
39.49167,104
39.50000,104
39.50833,104
39.51667,104
39.52500,104
39.53333,104
39.54167,104
39.55000,104
39.55833,104
39.56667,104
39.57500,104
39.58333,104
39.59167,105
39.60000,105
39.60833,105
39.61667,105
39.62500,105
39.63333,105
39.64167,106
39.65000,106
39.65833,107
39.66667,107
39.67500,108
39.68333,108
39.69167,108
39.70000,108
39.70833,108
39.71667,108
39.72500,109
39.73333,109
39.74167,109
39.75000,109
39.75833,109
39.76667,109
39.77500,109
39.78333,109
39.79167,109
39.80000,109
39.80833,110
39.81667,111
39.82500,111
39.83333,111
39.84167,111
39.85000,111
39.85833,111
39.86667,111
39.87500,111
39.88333,112
39.89167,112
39.90000,111
39.90833,111
39.91667,112
39.92500,112
39.93333,112
39.94167,112
39.95000,112
39.95833,112
39.96667,112
39.97500,112
39.98333,112
39.99167,112
40.00000,112

