[Header]
Application Name,LabSolutions
Version,5.97 SP1
Data File Name,C:\Users\cremerlab\Desktop\griffin\2021-04-06_REL606_DM_glucose_turnover\2021-04-06_REL606_DM_glucose_turnover_462021_003_010.lcd
Output Date,4/7/2021
Output Time,12:40:01 AM

[File Information]
Type,Data File
Generated,4/6/2021 11:59:40 PM
Generated by,System Administrator
Modified,4/7/2021 12:40:01 AM
Modified by,System Administrator

[Sample Information]
Operator Name,System Administrator
Acquired,4/7/2021 12:00:00 AM
Sample Type,1:Standard
Level,3
Sample Name,2021-04-04_REL606_replicate_002_timepoint_003
Sample ID,003
ISTD Amount1,1
ISTD Amount2,1
ISTD Amount3,1
ISTD Amount4,1
ISTD Amount5,1
ISTD Amount6,1
ISTD Amount7,1
ISTD Amount8,1
ISTD Amount9,1
ISTD Amount10,1
ISTD Amount11,1
ISTD Amount12,1
ISTD Amount13,1
ISTD Amount14,1
ISTD Amount15,1
ISTD Amount16,1
ISTD Amount17,1
ISTD Amount18,1
ISTD Amount19,1
ISTD Amount20,1
ISTD Amount21,1
ISTD Amount22,1
ISTD Amount23,1
ISTD Amount24,1
ISTD Amount25,1
ISTD Amount26,1
ISTD Amount27,1
ISTD Amount28,1
ISTD Amount29,1
ISTD Amount30,1
ISTD Amount31,1
ISTD Amount32,1
Sample Amount,1
Dilution Factor,1
Vial#,12
Injection Volume,20

[Original Files]
Data File,C:\Users\cremerlab\Desktop\griffin\2021-04-06_REL606_DM_glucose_turnover\2021-04-06_REL606_DM_glucose_turnover_462021_003_010.lcd
Method File,C:\Users\cremerlab\Desktop\griffin\2.5mM_H2SO4_mobile_phase.lcm
Batch File,C:\Users\cremerlab\Desktop\griffin\2021-04-06_REL606_DM_glucose_turnover\2021-04-06_REL606_DM_glucose_turnover.lcb
Report Format File,c:\LabSolutions\System\DEFAULT.lsr

[File Description]


[Configuration]
Instrument Name,HPLC-PC-Instrument1
Instrument #,1
Line #,1
# of Detectors,2
Detector ID,Detector A,Detector B
Detector Name,Detector A,Detector B
# of Channels,1,1

[Peak Table(Detector A)]
# of Peaks,0

[Peak Table(Detector B)]
# of Peaks,6
Peak#,R.Time,I.Time,F.Time,Area,Height,A/H,Conc.,Mark,ID#,Name,k',Plate #,Plate Ht.,Tailing,Resolution,Sep.Factor,Area Ratio,Height Ratio,Conc. %,Norm Conc.
1,10.890,10.417,11.942,267968,15599,17.179,0.000,   ,,,0.000,9124,16.440,1.038,0.000,0.000,0,0,0.000,0.000
2,13.977,12.558,14.242,1872738,48445,38.657,0.000,   ,,,0.283,3033,49.450,0.000,4.197,0.000,0,0,0.000,0.000
3,14.335,14.242,14.983,176968,10544,16.785,0.000, V ,,,0.316,2825,53.092,0.000,0.342,1.116,0,0,0.000,0.000
4,15.677,14.983,17.567,1175171,46745,25.140,0.000, V ,,,0.440,9153,16.388,1.152,1.547,1.389,0,0,0.000,0.000
5,19.069,18.767,19.583,2258,102,22.164,0.000,   ,,,0.751,16165,9.279,1.251,5.403,1.708,0,0,0.000,0.000
6,25.047,24.583,25.658,5622,196,28.619,0.000,   ,,,1.300,16386,9.154,1.099,8.648,1.731,0,0,0.000,0.000

[LC Chromatogram(Detector B-Ch1)]
Interval(msec),500
# of Points,4801
Start Time(min),0.000
End Time(min),40.000
Intensity Units,mV
Intensity Multiplier,0.001
R.Time (min),Intensity
0.00000,2
0.00833,2
0.01667,0
0.02500,0
0.03333,-0
0.04167,-1
0.05000,-1
0.05833,-1
0.06667,-2
0.07500,-2
0.08333,-3
0.09167,-3
0.10000,-3
0.10833,-4
0.11667,-4
0.12500,-4
0.13333,-4
0.14167,-4
0.15000,-5
0.15833,-5
0.16667,-6
0.17500,-6
0.18333,-7
0.19167,-7
0.20000,-7
0.20833,-7
0.21667,-8
0.22500,-8
0.23333,-8
0.24167,-9
0.25000,-9
0.25833,-9
0.26667,-10
0.27500,-10
0.28333,-10
0.29167,-10
0.30000,-10
0.30833,-11
0.31667,-11
0.32500,-11
0.33333,-11
0.34167,-10
0.35000,-10
0.35833,-10
0.36667,-10
0.37500,-11
0.38333,-11
0.39167,-11
0.40000,-10
0.40833,-10
0.41667,-10
0.42500,-10
0.43333,-9
0.44167,-9
0.45000,-9
0.45833,-9
0.46667,-9
0.47500,-8
0.48333,-8
0.49167,-7
0.50000,-7
0.50833,-7
0.51667,-6
0.52500,-6
0.53333,-5
0.54167,-4
0.55000,-4
0.55833,-3
0.56667,-3
0.57500,-2
0.58333,-2
0.59167,-2
0.60000,-1
0.60833,-1
0.61667,-1
0.62500,-0
0.63333,0
0.64167,0
0.65000,0
0.65833,0
0.66667,0
0.67500,1
0.68333,1
0.69167,1
0.70000,2
0.70833,2
0.71667,2
0.72500,2
0.73333,2
0.74167,2
0.75000,2
0.75833,2
0.76667,2
0.77500,2
0.78333,2
0.79167,2
0.80000,3
0.80833,3
0.81667,3
0.82500,3
0.83333,3
0.84167,4
0.85000,4
0.85833,4
0.86667,4
0.87500,4
0.88333,4
0.89167,4
0.90000,4
0.90833,5
0.91667,5
0.92500,5
0.93333,5
0.94167,5
0.95000,6
0.95833,6
0.96667,6
0.97500,6
0.98333,6
0.99167,6
1.00000,6
1.00833,6
1.01667,6
1.02500,6
1.03333,7
1.04167,7
1.05000,7
1.05833,7
1.06667,7
1.07500,7
1.08333,7
1.09167,7
1.10000,7
1.10833,7
1.11667,7
1.12500,7
1.13333,7
1.14167,7
1.15000,7
1.15833,8
1.16667,8
1.17500,8
1.18333,8
1.19167,8
1.20000,7
1.20833,7
1.21667,7
1.22500,8
1.23333,8
1.24167,8
1.25000,8
1.25833,8
1.26667,9
1.27500,9
1.28333,9
1.29167,9
1.30000,9
1.30833,10
1.31667,10
1.32500,11
1.33333,11
1.34167,11
1.35000,11
1.35833,11
1.36667,11
1.37500,11
1.38333,11
1.39167,11
1.40000,12
1.40833,12
1.41667,13
1.42500,13
1.43333,13
1.44167,14
1.45000,14
1.45833,14
1.46667,15
1.47500,15
1.48333,15
1.49167,15
1.50000,15
1.50833,15
1.51667,16
1.52500,16
1.53333,15
1.54167,15
1.55000,16
1.55833,16
1.56667,17
1.57500,17
1.58333,17
1.59167,18
1.60000,18
1.60833,19
1.61667,19
1.62500,19
1.63333,20
1.64167,21
1.65000,21
1.65833,21
1.66667,21
1.67500,21
1.68333,21
1.69167,21
1.70000,22
1.70833,22
1.71667,22
1.72500,23
1.73333,23
1.74167,23
1.75000,24
1.75833,24
1.76667,24
1.77500,24
1.78333,24
1.79167,24
1.80000,24
1.80833,24
1.81667,24
1.82500,24
1.83333,23
1.84167,23
1.85000,23
1.85833,23
1.86667,23
1.87500,22
1.88333,22
1.89167,21
1.90000,21
1.90833,21
1.91667,21
1.92500,21
1.93333,20
1.94167,20
1.95000,20
1.95833,19
1.96667,19
1.97500,19
1.98333,19
1.99167,18
2.00000,18
2.00833,18
2.01667,17
2.02500,17
2.03333,16
2.04167,16
2.05000,15
2.05833,15
2.06667,15
2.07500,15
2.08333,14
2.09167,14
2.10000,14
2.10833,13
2.11667,12
2.12500,12
2.13333,11
2.14167,11
2.15000,11
2.15833,10
2.16667,10
2.17500,9
2.18333,8
2.19167,8
2.20000,7
2.20833,7
2.21667,7
2.22500,7
2.23333,7
2.24167,7
2.25000,7
2.25833,7
2.26667,7
2.27500,7
2.28333,7
2.29167,6
2.30000,6
2.30833,5
2.31667,5
2.32500,5
2.33333,5
2.34167,5
2.35000,5
2.35833,6
2.36667,5
2.37500,5
2.38333,5
2.39167,5
2.40000,5
2.40833,5
2.41667,5
2.42500,5
2.43333,5
2.44167,5
2.45000,5
2.45833,5
2.46667,5
2.47500,5
2.48333,4
2.49167,4
2.50000,4
2.50833,4
2.51667,4
2.52500,4
2.53333,5
2.54167,5
2.55000,4
2.55833,4
2.56667,4
2.57500,4
2.58333,4
2.59167,4
2.60000,4
2.60833,4
2.61667,4
2.62500,5
2.63333,5
2.64167,4
2.65000,4
2.65833,4
2.66667,4
2.67500,4
2.68333,4
2.69167,4
2.70000,4
2.70833,4
2.71667,4
2.72500,4
2.73333,4
2.74167,3
2.75000,3
2.75833,4
2.76667,4
2.77500,4
2.78333,4
2.79167,4
2.80000,4
2.80833,4
2.81667,4
2.82500,5
2.83333,5
2.84167,4
2.85000,4
2.85833,4
2.86667,4
2.87500,4
2.88333,4
2.89167,5
2.90000,5
2.90833,6
2.91667,6
2.92500,6
2.93333,6
2.94167,6
2.95000,6
2.95833,7
2.96667,7
2.97500,7
2.98333,8
2.99167,8
3.00000,8
3.00833,9
3.01667,9
3.02500,9
3.03333,9
3.04167,10
3.05000,10
3.05833,10
3.06667,10
3.07500,10
3.08333,10
3.09167,10
3.10000,10
3.10833,10
3.11667,11
3.12500,11
3.13333,11
3.14167,12
3.15000,12
3.15833,12
3.16667,12
3.17500,12
3.18333,12
3.19167,12
3.20000,12
3.20833,13
3.21667,13
3.22500,12
3.23333,12
3.24167,13
3.25000,13
3.25833,13
3.26667,13
3.27500,13
3.28333,13
3.29167,13
3.30000,13
3.30833,13
3.31667,13
3.32500,13
3.33333,13
3.34167,13
3.35000,14
3.35833,14
3.36667,14
3.37500,14
3.38333,14
3.39167,14
3.40000,14
3.40833,14
3.41667,14
3.42500,14
3.43333,14
3.44167,14
3.45000,14
3.45833,14
3.46667,14
3.47500,14
3.48333,14
3.49167,13
3.50000,13
3.50833,13
3.51667,13
3.52500,13
3.53333,13
3.54167,14
3.55000,14
3.55833,14
3.56667,14
3.57500,13
3.58333,13
3.59167,13
3.60000,13
3.60833,13
3.61667,13
3.62500,14
3.63333,14
3.64167,15
3.65000,15
3.65833,15
3.66667,15
3.67500,15
3.68333,16
3.69167,16
3.70000,16
3.70833,16
3.71667,16
3.72500,16
3.73333,16
3.74167,16
3.75000,16
3.75833,17
3.76667,17
3.77500,17
3.78333,17
3.79167,18
3.80000,18
3.80833,18
3.81667,19
3.82500,19
3.83333,19
3.84167,19
3.85000,20
3.85833,20
3.86667,20
3.87500,20
3.88333,21
3.89167,21
3.90000,22
3.90833,22
3.91667,22
3.92500,22
3.93333,22
3.94167,23
3.95000,23
3.95833,24
3.96667,24
3.97500,24
3.98333,24
3.99167,25
4.00000,25
4.00833,25
4.01667,25
4.02500,25
4.03333,25
4.04167,25
4.05000,26
4.05833,26
4.06667,26
4.07500,26
4.08333,26
4.09167,26
4.10000,26
4.10833,26
4.11667,26
4.12500,26
4.13333,26
4.14167,26
4.15000,26
4.15833,26
4.16667,26
4.17500,26
4.18333,26
4.19167,26
4.20000,26
4.20833,26
4.21667,27
4.22500,27
4.23333,27
4.24167,28
4.25000,28
4.25833,28
4.26667,27
4.27500,27
4.28333,27
4.29167,27
4.30000,27
4.30833,27
4.31667,27
4.32500,27
4.33333,27
4.34167,27
4.35000,27
4.35833,27
4.36667,27
4.37500,27
4.38333,28
4.39167,28
4.40000,27
4.40833,27
4.41667,27
4.42500,27
4.43333,27
4.44167,27
4.45000,27
4.45833,27
4.46667,26
4.47500,26
4.48333,26
4.49167,26
4.50000,26
4.50833,26
4.51667,25
4.52500,25
4.53333,25
4.54167,24
4.55000,24
4.55833,23
4.56667,23
4.57500,23
4.58333,23
4.59167,23
4.60000,23
4.60833,23
4.61667,23
4.62500,23
4.63333,22
4.64167,22
4.65000,22
4.65833,22
4.66667,21
4.67500,21
4.68333,21
4.69167,20
4.70000,20
4.70833,20
4.71667,20
4.72500,19
4.73333,19
4.74167,18
4.75000,18
4.75833,18
4.76667,18
4.77500,17
4.78333,17
4.79167,16
4.80000,16
4.80833,16
4.81667,16
4.82500,15
4.83333,15
4.84167,14
4.85000,14
4.85833,14
4.86667,13
4.87500,13
4.88333,13
4.89167,14
4.90000,14
4.90833,13
4.91667,13
4.92500,13
4.93333,13
4.94167,13
4.95000,13
4.95833,13
4.96667,13
4.97500,13
4.98333,13
4.99167,12
5.00000,12
5.00833,12
5.01667,12
5.02500,12
5.03333,12
5.04167,12
5.05000,12
5.05833,12
5.06667,12
5.07500,12
5.08333,12
5.09167,13
5.10000,13
5.10833,13
5.11667,13
5.12500,14
5.13333,14
5.14167,14
5.15000,14
5.15833,14
5.16667,15
5.17500,14
5.18333,14
5.19167,15
5.20000,15
5.20833,15
5.21667,16
5.22500,16
5.23333,16
5.24167,16
5.25000,15
5.25833,15
5.26667,16
5.27500,16
5.28333,16
5.29167,16
5.30000,17
5.30833,17
5.31667,17
5.32500,17
5.33333,17
5.34167,17
5.35000,17
5.35833,17
5.36667,17
5.37500,17
5.38333,17
5.39167,17
5.40000,17
5.40833,16
5.41667,16
5.42500,16
5.43333,16
5.44167,16
5.45000,16
5.45833,16
5.46667,16
5.47500,16
5.48333,16
5.49167,16
5.50000,16
5.50833,16
5.51667,16
5.52500,16
5.53333,16
5.54167,16
5.55000,16
5.55833,16
5.56667,16
5.57500,16
5.58333,16
5.59167,16
5.60000,16
5.60833,15
5.61667,15
5.62500,15
5.63333,16
5.64167,16
5.65000,16
5.65833,17
5.66667,17
5.67500,17
5.68333,17
5.69167,18
5.70000,18
5.70833,18
5.71667,19
5.72500,19
5.73333,19
5.74167,19
5.75000,20
5.75833,20
5.76667,20
5.77500,20
5.78333,21
5.79167,21
5.80000,21
5.80833,21
5.81667,21
5.82500,22
5.83333,22
5.84167,22
5.85000,22
5.85833,22
5.86667,23
5.87500,23
5.88333,24
5.89167,24
5.90000,24
5.90833,25
5.91667,25
5.92500,26
5.93333,26
5.94167,26
5.95000,26
5.95833,26
5.96667,26
5.97500,26
5.98333,27
5.99167,27
6.00000,27
6.00833,27
6.01667,27
6.02500,27
6.03333,27
6.04167,27
6.05000,28
6.05833,28
6.06667,28
6.07500,28
6.08333,28
6.09167,28
6.10000,28
6.10833,29
6.11667,29
6.12500,29
6.13333,29
6.14167,29
6.15000,29
6.15833,29
6.16667,29
6.17500,29
6.18333,29
6.19167,29
6.20000,30
6.20833,30
6.21667,29
6.22500,29
6.23333,29
6.24167,29
6.25000,28
6.25833,28
6.26667,28
6.27500,27
6.28333,27
6.29167,27
6.30000,27
6.30833,26
6.31667,26
6.32500,26
6.33333,26
6.34167,26
6.35000,26
6.35833,25
6.36667,25
6.37500,25
6.38333,24
6.39167,24
6.40000,23
6.40833,23
6.41667,22
6.42500,22
6.43333,22
6.44167,22
6.45000,22
6.45833,22
6.46667,22
6.47500,22
6.48333,23
6.49167,23
6.50000,23
6.50833,23
6.51667,23
6.52500,23
6.53333,23
6.54167,23
6.55000,23
6.55833,23
6.56667,22
6.57500,23
6.58333,23
6.59167,23
6.60000,23
6.60833,23
6.61667,23
6.62500,23
6.63333,23
6.64167,23
6.65000,24
6.65833,24
6.66667,24
6.67500,24
6.68333,25
6.69167,25
6.70000,25
6.70833,25
6.71667,25
6.72500,25
6.73333,25
6.74167,25
6.75000,25
6.75833,26
6.76667,26
6.77500,25
6.78333,26
6.79167,26
6.80000,26
6.80833,26
6.81667,26
6.82500,26
6.83333,27
6.84167,27
6.85000,28
6.85833,28
6.86667,28
6.87500,28
6.88333,28
6.89167,28
6.90000,28
6.90833,28
6.91667,27
6.92500,27
6.93333,27
6.94167,27
6.95000,26
6.95833,26
6.96667,26
6.97500,26
6.98333,26
6.99167,27
7.00000,27
7.00833,27
7.01667,27
7.02500,27
7.03333,27
7.04167,27
7.05000,27
7.05833,27
7.06667,26
7.07500,26
7.08333,26
7.09167,26
7.10000,26
7.10833,27
7.11667,27
7.12500,27
7.13333,27
7.14167,27
7.15000,27
7.15833,27
7.16667,27
7.17500,26
7.18333,26
7.19167,26
7.20000,27
7.20833,27
7.21667,27
7.22500,27
7.23333,28
7.24167,28
7.25000,28
7.25833,28
7.26667,28
7.27500,29
7.28333,30
7.29167,30
7.30000,30
7.30833,31
7.31667,31
7.32500,31
7.33333,31
7.34167,31
7.35000,32
7.35833,32
7.36667,33
7.37500,33
7.38333,33
7.39167,33
7.40000,33
7.40833,34
7.41667,34
7.42500,35
7.43333,35
7.44167,36
7.45000,36
7.45833,36
7.46667,36
7.47500,35
7.48333,35
7.49167,35
7.50000,35
7.50833,36
7.51667,36
7.52500,37
7.53333,37
7.54167,37
7.55000,37
7.55833,37
7.56667,37
7.57500,37
7.58333,38
7.59167,38
7.60000,39
7.60833,39
7.61667,38
7.62500,38
7.63333,38
7.64167,38
7.65000,39
7.65833,39
7.66667,39
7.67500,39
7.68333,39
7.69167,39
7.70000,39
7.70833,39
7.71667,39
7.72500,39
7.73333,38
7.74167,38
7.75000,38
7.75833,38
7.76667,37
7.77500,37
7.78333,37
7.79167,36
7.80000,36
7.80833,36
7.81667,36
7.82500,36
7.83333,36
7.84167,36
7.85000,36
7.85833,36
7.86667,35
7.87500,35
7.88333,35
7.89167,35
7.90000,34
7.90833,33
7.91667,33
7.92500,32
7.93333,32
7.94167,32
7.95000,32
7.95833,32
7.96667,32
7.97500,32
7.98333,32
7.99167,31
8.00000,31
8.00833,31
8.01667,31
8.02500,30
8.03333,29
8.04167,29
8.05000,29
8.05833,29
8.06667,29
8.07500,29
8.08333,29
8.09167,29
8.10000,29
8.10833,29
8.11667,29
8.12500,29
8.13333,29
8.14167,29
8.15000,29
8.15833,29
8.16667,29
8.17500,29
8.18333,29
8.19167,29
8.20000,29
8.20833,29
8.21667,29
8.22500,29
8.23333,29
8.24167,28
8.25000,28
8.25833,28
8.26667,28
8.27500,28
8.28333,28
8.29167,27
8.30000,27
8.30833,27
8.31667,28
8.32500,28
8.33333,29
8.34167,29
8.35000,29
8.35833,29
8.36667,29
8.37500,30
8.38333,29
8.39167,29
8.40000,29
8.40833,29
8.41667,28
8.42500,28
8.43333,28
8.44167,28
8.45000,28
8.45833,28
8.46667,28
8.47500,28
8.48333,28
8.49167,28
8.50000,28
8.50833,28
8.51667,28
8.52500,28
8.53333,28
8.54167,28
8.55000,28
8.55833,28
8.56667,28
8.57500,28
8.58333,28
8.59167,28
8.60000,28
8.60833,28
8.61667,28
8.62500,29
8.63333,29
8.64167,28
8.65000,28
8.65833,28
8.66667,28
8.67500,28
8.68333,28
8.69167,28
8.70000,28
8.70833,28
8.71667,28
8.72500,28
8.73333,28
8.74167,27
8.75000,27
8.75833,28
8.76667,28
8.77500,28
8.78333,28
8.79167,27
8.80000,27
8.80833,27
8.81667,27
8.82500,27
8.83333,28
8.84167,28
8.85000,28
8.85833,28
8.86667,28
8.87500,28
8.88333,28
8.89167,28
8.90000,28
8.90833,28
8.91667,28
8.92500,28
8.93333,28
8.94167,28
8.95000,28
8.95833,28
8.96667,28
8.97500,28
8.98333,29
8.99167,29
9.00000,29
9.00833,29
9.01667,29
9.02500,30
9.03333,30
9.04167,30
9.05000,30
9.05833,30
9.06667,30
9.07500,31
9.08333,31
9.09167,31
9.10000,32
9.10833,32
9.11667,32
9.12500,33
9.13333,33
9.14167,34
9.15000,34
9.15833,34
9.16667,34
9.17500,35
9.18333,35
9.19167,35
9.20000,35
9.20833,36
9.21667,36
9.22500,36
9.23333,37
9.24167,37
9.25000,37
9.25833,37
9.26667,37
9.27500,38
9.28333,38
9.29167,38
9.30000,38
9.30833,38
9.31667,38
9.32500,38
9.33333,39
9.34167,38
9.35000,38
9.35833,38
9.36667,38
9.37500,38
9.38333,38
9.39167,39
9.40000,39
9.40833,39
9.41667,39
9.42500,39
9.43333,39
9.44167,39
9.45000,40
9.45833,40
9.46667,40
9.47500,39
9.48333,39
9.49167,39
9.50000,39
9.50833,39
9.51667,40
9.52500,40
9.53333,40
9.54167,40
9.55000,40
9.55833,40
9.56667,40
9.57500,40
9.58333,39
9.59167,39
9.60000,39
9.60833,39
9.61667,39
9.62500,39
9.63333,39
9.64167,38
9.65000,38
9.65833,38
9.66667,38
9.67500,39
9.68333,39
9.69167,38
9.70000,38
9.70833,38
9.71667,38
9.72500,38
9.73333,38
9.74167,38
9.75000,38
9.75833,38
9.76667,38
9.77500,38
9.78333,38
9.79167,38
9.80000,38
9.80833,37
9.81667,37
9.82500,37
9.83333,37
9.84167,37
9.85000,38
9.85833,38
9.86667,39
9.87500,39
9.88333,39
9.89167,38
9.90000,38
9.90833,38
9.91667,38
9.92500,38
9.93333,38
9.94167,38
9.95000,39
9.95833,39
9.96667,39
9.97500,39
9.98333,39
9.99167,39
10.00000,39
10.00833,40
10.01667,40
10.02500,41
10.03333,41
10.04167,41
10.05000,41
10.05833,42
10.06667,42
10.07500,42
10.08333,42
10.09167,43
10.10000,43
10.10833,43
10.11667,43
10.12500,43
10.13333,43
10.14167,44
10.15000,44
10.15833,44
10.16667,44
10.17500,44
10.18333,44
10.19167,44
10.20000,44
10.20833,45
10.21667,45
10.22500,45
10.23333,45
10.24167,45
10.25000,45
10.25833,46
10.26667,45
10.27500,45
10.28333,45
10.29167,46
10.30000,46
10.30833,46
10.31667,46
10.32500,46
10.33333,46
10.34167,46
10.35000,46
10.35833,46
10.36667,46
10.37500,46
10.38333,46
10.39167,46
10.40000,46
10.40833,47
10.41667,47
10.42500,48
10.43333,49
10.44167,50
10.45000,52
10.45833,54
10.46667,56
10.47500,60
10.48333,64
10.49167,70
10.50000,77
10.50833,86
10.51667,98
10.52500,114
10.53333,133
10.54167,158
10.55000,189
10.55833,228
10.56667,276
10.57500,334
10.58333,405
10.59167,490
10.60000,592
10.60833,712
10.61667,853
10.62500,1017
10.63333,1207
10.64167,1425
10.65000,1673
10.65833,1952
10.66667,2264
10.67500,2611
10.68333,2995
10.69167,3414
10.70000,3871
10.70833,4362
10.71667,4889
10.72500,5449
10.73333,6039
10.74167,6658
10.75000,7301
10.75833,7964
10.76667,8641
10.77500,9327
10.78333,10015
10.79167,10698
10.80000,11369
10.80833,12019
10.81667,12641
10.82500,13226
10.83333,13765
10.84167,14250
10.85000,14674
10.85833,15028
10.86667,15307
10.87500,15505
10.88333,15619
10.89167,15645
10.90000,15583
10.90833,15433
10.91667,15197
10.92500,14879
10.93333,14485
10.94167,14021
10.95000,13494
10.95833,12915
10.96667,12292
10.97500,11637
10.98333,10958
10.99167,10265
11.00000,9567
11.00833,8873
11.01667,8191
11.02500,7527
11.03333,6887
11.04167,6275
11.05000,5695
11.05833,5150
11.06667,4641
11.07500,4169
11.08333,3733
11.09167,3333
11.10000,2968
11.10833,2637
11.11667,2338
11.12500,2070
11.13333,1829
11.14167,1614
11.15000,1423
11.15833,1254
11.16667,1104
11.17500,972
11.18333,855
11.19167,754
11.20000,665
11.20833,587
11.21667,520
11.22500,461
11.23333,411
11.24167,368
11.25000,331
11.25833,298
11.26667,271
11.27500,247
11.28333,227
11.29167,210
11.30000,195
11.30833,183
11.31667,173
11.32500,165
11.33333,157
11.34167,151
11.35000,145
11.35833,141
11.36667,137
11.37500,133
11.38333,130
11.39167,127
11.40000,125
11.40833,122
11.41667,120
11.42500,118
11.43333,115
11.44167,113
11.45000,111
11.45833,109
11.46667,107
11.47500,105
11.48333,103
11.49167,101
11.50000,99
11.50833,97
11.51667,95
11.52500,93
11.53333,91
11.54167,89
11.55000,87
11.55833,85
11.56667,84
11.57500,82
11.58333,80
11.59167,78
11.60000,76
11.60833,75
11.61667,73
11.62500,72
11.63333,71
11.64167,69
11.65000,68
11.65833,67
11.66667,66
11.67500,65
11.68333,64
11.69167,63
11.70000,63
11.70833,62
11.71667,61
11.72500,60
11.73333,59
11.74167,58
11.75000,58
11.75833,57
11.76667,57
11.77500,56
11.78333,55
11.79167,54
11.80000,54
11.80833,53
11.81667,53
11.82500,52
11.83333,52
11.84167,51
11.85000,51
11.85833,50
11.86667,49
11.87500,49
11.88333,48
11.89167,48
11.90000,47
11.90833,47
11.91667,46
11.92500,46
11.93333,45
11.94167,45
11.95000,45
11.95833,45
11.96667,44
11.97500,44
11.98333,43
11.99167,43
12.00000,42
12.00833,42
12.01667,42
12.02500,42
12.03333,42
12.04167,42
12.05000,41
12.05833,41
12.06667,40
12.07500,40
12.08333,39
12.09167,39
12.10000,39
12.10833,39
12.11667,39
12.12500,38
12.13333,38
12.14167,37
12.15000,37
12.15833,37
12.16667,36
12.17500,36
12.18333,36
12.19167,35
12.20000,34
12.20833,34
12.21667,34
12.22500,34
12.23333,34
12.24167,33
12.25000,33
12.25833,33
12.26667,32
12.27500,32
12.28333,32
12.29167,32
12.30000,32
12.30833,31
12.31667,31
12.32500,31
12.33333,31
12.34167,31
12.35000,32
12.35833,32
12.36667,32
12.37500,32
12.38333,31
12.39167,31
12.40000,31
12.40833,30
12.41667,30
12.42500,30
12.43333,30
12.44167,30
12.45000,30
12.45833,30
12.46667,30
12.47500,31
12.48333,31
12.49167,31
12.50000,31
12.50833,31
12.51667,31
12.52500,32
12.53333,32
12.54167,33
12.55000,33
12.55833,34
12.56667,35
12.57500,36
12.58333,38
12.59167,39
12.60000,41
12.60833,44
12.61667,48
12.62500,52
12.63333,58
12.64167,64
12.65000,72
12.65833,81
12.66667,92
12.67500,105
12.68333,120
12.69167,139
12.70000,160
12.70833,186
12.71667,215
12.72500,248
12.73333,286
12.74167,329
12.75000,377
12.75833,431
12.76667,491
12.77500,557
12.78333,629
12.79167,708
12.80000,793
12.80833,885
12.81667,983
12.82500,1089
12.83333,1201
12.84167,1321
12.85000,1446
12.85833,1578
12.86667,1717
12.87500,1863
12.88333,2014
12.89167,2172
12.90000,2336
12.90833,2506
12.91667,2681
12.92500,2862
12.93333,3048
12.94167,3239
12.95000,3435
12.95833,3636
12.96667,3842
12.97500,4052
12.98333,4266
12.99167,4484
13.00000,4706
13.00833,4932
13.01667,5162
13.02500,5396
13.03333,5632
13.04167,5872
13.05000,6115
13.05833,6362
13.06667,6611
13.07500,6864
13.08333,7120
13.09167,7378
13.10000,7640
13.10833,7904
13.11667,8170
13.12500,8440
13.13333,8712
13.14167,8987
13.15000,9264
13.15833,9544
13.16667,9826
13.17500,10111
13.18333,10398
13.19167,10688
13.20000,10980
13.20833,11275
13.21667,11572
13.22500,11872
13.23333,12174
13.24167,12478
13.25000,12784
13.25833,13093
13.26667,13404
13.27500,13717
13.28333,14033
13.29167,14352
13.30000,14673
13.30833,14996
13.31667,15321
13.32500,15649
13.33333,15980
13.34167,16312
13.35000,16647
13.35833,16984
13.36667,17324
13.37500,17666
13.38333,18011
13.39167,18359
13.40000,18709
13.40833,19061
13.41667,19416
13.42500,19774
13.43333,20134
13.44167,20496
13.45000,20861
13.45833,21228
13.46667,21598
13.47500,21971
13.48333,22347
13.49167,22725
13.50000,23106
13.50833,23489
13.51667,23876
13.52500,24265
13.53333,24657
13.54167,25051
13.55000,25448
13.55833,25848
13.56667,26250
13.57500,26656
13.58333,27065
13.59167,27477
13.60000,27892
13.60833,28310
13.61667,28731
13.62500,29155
13.63333,29582
13.64167,30012
13.65000,30444
13.65833,30880
13.66667,31319
13.67500,31761
13.68333,32207
13.69167,32655
13.70000,33107
13.70833,33562
13.71667,34020
13.72500,34482
13.73333,34947
13.74167,35415
13.75000,35886
13.75833,36361
13.76667,36839
13.77500,37320
13.78333,37805
13.79167,38294
13.80000,38785
13.80833,39280
13.81667,39778
13.82500,40281
13.83333,40787
13.84167,41296
13.85000,41809
13.85833,42326
13.86667,42845
13.87500,43368
13.88333,43894
13.89167,44422
13.90000,44950
13.90833,45476
13.91667,45996
13.92500,46504
13.93333,46990
13.94167,47441
13.95000,47843
13.95833,48173
13.96667,48408
13.97500,48521
13.98333,48485
13.99167,48271
14.00000,47853
14.00833,47211
14.01667,46330
14.02500,45202
14.03333,43830
14.04167,42227
14.05000,40413
14.05833,38419
14.06667,36282
14.07500,34042
14.08333,31745
14.09167,29435
14.10000,27155
14.10833,24945
14.11667,22838
14.12500,20863
14.13333,19040
14.14167,17383
14.15000,15903
14.15833,14601
14.16667,13476
14.17500,12522
14.18333,11730
14.19167,11089
14.20000,10587
14.20833,10209
14.21667,9941
14.22500,9769
14.23333,9679
14.24167,9656
14.25000,9688
14.25833,9761
14.26667,9864
14.27500,9985
14.28333,10115
14.29167,10243
14.30000,10364
14.30833,10468
14.31667,10550
14.32500,10605
14.33333,10630
14.34167,10622
14.35000,10579
14.35833,10499
14.36667,10383
14.37500,10231
14.38333,10046
14.39167,9828
14.40000,9582
14.40833,9309
14.41667,9012
14.42500,8696
14.43333,8363
14.44167,8018
14.45000,7663
14.45833,7302
14.46667,6938
14.47500,6575
14.48333,6215
14.49167,5860
14.50000,5512
14.50833,5175
14.51667,4847
14.52500,4533
14.53333,4232
14.54167,3945
14.55000,3672
14.55833,3415
14.56667,3172
14.57500,2944
14.58333,2731
14.59167,2533
14.60000,2348
14.60833,2177
14.61667,2018
14.62500,1872
14.63333,1737
14.64167,1613
14.65000,1498
14.65833,1394
14.66667,1298
14.67500,1210
14.68333,1130
14.69167,1057
14.70000,991
14.70833,930
14.71667,875
14.72500,825
14.73333,779
14.74167,738
14.75000,700
14.75833,665
14.76667,634
14.77500,605
14.78333,579
14.79167,555
14.80000,534
14.80833,514
14.81667,496
14.82500,480
14.83333,465
14.84167,452
14.85000,440
14.85833,428
14.86667,418
14.87500,409
14.88333,400
14.89167,393
14.90000,386
14.90833,380
14.91667,375
14.92500,370
14.93333,366
14.94167,364
14.95000,361
14.95833,360
14.96667,358
14.97500,357
14.98333,357
14.99167,357
15.00000,358
15.00833,360
15.01667,362
15.02500,364
15.03333,366
15.04167,369
15.05000,372
15.05833,376
15.06667,380
15.07500,384
15.08333,389
15.09167,395
15.10000,401
15.10833,407
15.11667,415
15.12500,423
15.13333,432
15.14167,442
15.15000,454
15.15833,468
15.16667,484
15.17500,503
15.18333,526
15.19167,554
15.20000,586
15.20833,626
15.21667,672
15.22500,728
15.23333,794
15.24167,873
15.25000,966
15.25833,1075
15.26667,1204
15.27500,1355
15.28333,1531
15.29167,1734
15.30000,1967
15.30833,2236
15.31667,2542
15.32500,2890
15.33333,3283
15.34167,3726
15.35000,4222
15.35833,4774
15.36667,5386
15.37500,6060
15.38333,6800
15.39167,7607
15.40000,8482
15.40833,9429
15.41667,10446
15.42500,11533
15.43333,12690
15.44167,13915
15.45000,15204
15.45833,16554
15.46667,17961
15.47500,19419
15.48333,20921
15.49167,22460
15.50000,24028
15.50833,25618
15.51667,27218
15.52500,28820
15.53333,30413
15.54167,31986
15.55000,33529
15.55833,35032
15.56667,36484
15.57500,37874
15.58333,39193
15.59167,40431
15.60000,41579
15.60833,42630
15.61667,43576
15.62500,44411
15.63333,45130
15.64167,45728
15.65000,46203
15.65833,46553
15.66667,46776
15.67500,46872
15.68333,46844
15.69167,46692
15.70000,46421
15.70833,46034
15.71667,45536
15.72500,44932
15.73333,44228
15.74167,43432
15.75000,42551
15.75833,41591
15.76667,40561
15.77500,39469
15.78333,38323
15.79167,37130
15.80000,35899
15.80833,34637
15.81667,33352
15.82500,32051
15.83333,30741
15.84167,29429
15.85000,28120
15.85833,26821
15.86667,25537
15.87500,24272
15.88333,23031
15.89167,21817
15.90000,20635
15.90833,19487
15.91667,18374
15.92500,17301
15.93333,16267
15.94167,15275
15.95000,14325
15.95833,13417
15.96667,12553
15.97500,11730
15.98333,10950
15.99167,10212
16.00000,9515
16.00833,8858
16.01667,8240
16.02500,7660
16.03333,7116
16.04167,6607
16.05000,6132
16.05833,5688
16.06667,5275
16.07500,4892
16.08333,4535
16.09167,4204
16.10000,3898
16.10833,3615
16.11667,3353
16.12500,3112
16.13333,2889
16.14167,2684
16.15000,2495
16.15833,2321
16.16667,2161
16.17500,2014
16.18333,1879
16.19167,1756
16.20000,1642
16.20833,1538
16.21667,1443
16.22500,1355
16.23333,1275
16.24167,1202
16.25000,1135
16.25833,1074
16.26667,1017
16.27500,965
16.28333,917
16.29167,873
16.30000,833
16.30833,797
16.31667,763
16.32500,731
16.33333,703
16.34167,676
16.35000,652
16.35833,629
16.36667,608
16.37500,588
16.38333,570
16.39167,553
16.40000,538
16.40833,523
16.41667,510
16.42500,497
16.43333,485
16.44167,474
16.45000,464
16.45833,455
16.46667,446
16.47500,437
16.48333,429
16.49167,421
16.50000,414
16.50833,407
16.51667,401
16.52500,395
16.53333,389
16.54167,384
16.55000,380
16.55833,375
16.56667,370
16.57500,365
16.58333,361
16.59167,357
16.60000,353
16.60833,350
16.61667,347
16.62500,343
16.63333,340
16.64167,337
16.65000,334
16.65833,331
16.66667,327
16.67500,324
16.68333,321
16.69167,318
16.70000,315
16.70833,312
16.71667,310
16.72500,308
16.73333,305
16.74167,303
16.75000,301
16.75833,298
16.76667,296
16.77500,294
16.78333,292
16.79167,289
16.80000,288
16.80833,286
16.81667,284
16.82500,281
16.83333,279
16.84167,277
16.85000,275
16.85833,273
16.86667,271
16.87500,269
16.88333,266
16.89167,264
16.90000,262
16.90833,260
16.91667,258
16.92500,256
16.93333,254
16.94167,253
16.95000,251
16.95833,249
16.96667,247
16.97500,246
16.98333,244
16.99167,242
17.00000,241
17.00833,239
17.01667,238
17.02500,237
17.03333,235
17.04167,234
17.05000,233
17.05833,232
17.06667,231
17.07500,230
17.08333,228
17.09167,227
17.10000,226
17.10833,224
17.11667,223
17.12500,222
17.13333,221
17.14167,220
17.15000,219
17.15833,219
17.16667,218
17.17500,216
17.18333,216
17.19167,215
17.20000,214
17.20833,213
17.21667,213
17.22500,212
17.23333,211
17.24167,211
17.25000,210
17.25833,208
17.26667,207
17.27500,206
17.28333,205
17.29167,205
17.30000,204
17.30833,203
17.31667,203
17.32500,202
17.33333,201
17.34167,200
17.35000,200
17.35833,199
17.36667,199
17.37500,198
17.38333,198
17.39167,197
17.40000,195
17.40833,194
17.41667,194
17.42500,193
17.43333,192
17.44167,191
17.45000,191
17.45833,190
17.46667,189
17.47500,189
17.48333,188
17.49167,188
17.50000,187
17.50833,186
17.51667,186
17.52500,185
17.53333,184
17.54167,183
17.55000,183
17.55833,183
17.56667,183
17.57500,182
17.58333,182
17.59167,181
17.60000,181
17.60833,180
17.61667,179
17.62500,179
17.63333,178
17.64167,178
17.65000,178
17.65833,177
17.66667,177
17.67500,177
17.68333,177
17.69167,177
17.70000,176
17.70833,176
17.71667,175
17.72500,175
17.73333,175
17.74167,175
17.75000,175
17.75833,174
17.76667,174
17.77500,173
17.78333,173
17.79167,172
17.80000,172
17.80833,172
17.81667,171
17.82500,171
17.83333,171
17.84167,171
17.85000,171
17.85833,170
17.86667,170
17.87500,169
17.88333,169
17.89167,168
17.90000,167
17.90833,167
17.91667,166
17.92500,166
17.93333,165
17.94167,165
17.95000,164
17.95833,163
17.96667,162
17.97500,161
17.98333,160
17.99167,159
18.00000,158
18.00833,158
18.01667,157
18.02500,156
18.03333,156
18.04167,155
18.05000,154
18.05833,153
18.06667,152
18.07500,152
18.08333,151
18.09167,150
18.10000,150
18.10833,149
18.11667,149
18.12500,148
18.13333,147
18.14167,146
18.15000,145
18.15833,144
18.16667,144
18.17500,143
18.18333,142
18.19167,142
18.20000,141
18.20833,140
18.21667,140
18.22500,139
18.23333,139
18.24167,138
18.25000,137
18.25833,137
18.26667,136
18.27500,136
18.28333,135
18.29167,134
18.30000,134
18.30833,134
18.31667,134
18.32500,133
18.33333,133
18.34167,133
18.35000,133
18.35833,132
18.36667,132
18.37500,132
18.38333,132
18.39167,132
18.40000,132
18.40833,132
18.41667,131
18.42500,131
18.43333,131
18.44167,131
18.45000,131
18.45833,130
18.46667,130
18.47500,130
18.48333,130
18.49167,129
18.50000,129
18.50833,129
18.51667,129
18.52500,129
18.53333,130
18.54167,130
18.55000,130
18.55833,130
18.56667,130
18.57500,130
18.58333,130
18.59167,130
18.60000,130
18.60833,130
18.61667,130
18.62500,130
18.63333,131
18.64167,131
18.65000,131
18.65833,131
18.66667,131
18.67500,131
18.68333,132
18.69167,133
18.70000,134
18.70833,134
18.71667,135
18.72500,136
18.73333,137
18.74167,138
18.75000,139
18.75833,140
18.76667,142
18.77500,143
18.78333,144
18.79167,146
18.80000,147
18.80833,149
18.81667,152
18.82500,154
18.83333,157
18.84167,159
18.85000,162
18.85833,166
18.86667,169
18.87500,172
18.88333,176
18.89167,179
18.90000,183
18.90833,186
18.91667,189
18.92500,193
18.93333,196
18.94167,200
18.95000,204
18.95833,207
18.96667,211
18.97500,214
18.98333,217
18.99167,220
19.00000,223
19.00833,225
19.01667,227
19.02500,229
19.03333,231
19.04167,233
19.05000,234
19.05833,235
19.06667,235
19.07500,235
19.08333,235
19.09167,235
19.10000,234
19.10833,233
19.11667,232
19.12500,230
19.13333,229
19.14167,226
19.15000,224
19.15833,222
19.16667,219
19.17500,217
19.18333,214
19.19167,211
19.20000,208
19.20833,204
19.21667,201
19.22500,198
19.23333,194
19.24167,191
19.25000,187
19.25833,184
19.26667,180
19.27500,177
19.28333,173
19.29167,170
19.30000,168
19.30833,165
19.31667,162
19.32500,159
19.33333,156
19.34167,153
19.35000,151
19.35833,148
19.36667,146
19.37500,144
19.38333,142
19.39167,140
19.40000,139
19.40833,138
19.41667,136
19.42500,134
19.43333,133
19.44167,131
19.45000,130
19.45833,130
19.46667,129
19.47500,128
19.48333,127
19.49167,126
19.50000,126
19.50833,125
19.51667,124
19.52500,123
19.53333,122
19.54167,121
19.55000,121
19.55833,120
19.56667,120
19.57500,119
19.58333,119
19.59167,119
19.60000,119
19.60833,119
19.61667,118
19.62500,118
19.63333,117
19.64167,117
19.65000,116
19.65833,115
19.66667,115
19.67500,114
19.68333,113
19.69167,112
19.70000,112
19.70833,112
19.71667,111
19.72500,111
19.73333,111
19.74167,110
19.75000,109
19.75833,109
19.76667,108
19.77500,108
19.78333,107
19.79167,107
19.80000,106
19.80833,106
19.81667,105
19.82500,105
19.83333,105
19.84167,104
19.85000,104
19.85833,104
19.86667,103
19.87500,103
19.88333,102
19.89167,102
19.90000,102
19.90833,102
19.91667,102
19.92500,102
19.93333,102
19.94167,102
19.95000,101
19.95833,101
19.96667,101
19.97500,101
19.98333,101
19.99167,102
20.00000,102
20.00833,102
20.01667,102
20.02500,102
20.03333,101
20.04167,101
20.05000,101
20.05833,101
20.06667,101
20.07500,101
20.08333,100
20.09167,101
20.10000,101
20.10833,101
20.11667,101
20.12500,101
20.13333,101
20.14167,102
20.15000,102
20.15833,102
20.16667,102
20.17500,101
20.18333,101
20.19167,101
20.20000,101
20.20833,101
20.21667,101
20.22500,101
20.23333,101
20.24167,101
20.25000,101
20.25833,101
20.26667,100
20.27500,100
20.28333,100
20.29167,100
20.30000,100
20.30833,99
20.31667,99
20.32500,99
20.33333,99
20.34167,98
20.35000,98
20.35833,98
20.36667,98
20.37500,97
20.38333,97
20.39167,96
20.40000,96
20.40833,96
20.41667,95
20.42500,95
20.43333,94
20.44167,94
20.45000,94
20.45833,93
20.46667,93
20.47500,93
20.48333,93
20.49167,92
20.50000,92
20.50833,92
20.51667,91
20.52500,91
20.53333,91
20.54167,91
20.55000,90
20.55833,90
20.56667,90
20.57500,89
20.58333,89
20.59167,88
20.60000,88
20.60833,88
20.61667,88
20.62500,88
20.63333,88
20.64167,88
20.65000,87
20.65833,87
20.66667,87
20.67500,88
20.68333,88
20.69167,88
20.70000,87
20.70833,87
20.71667,86
20.72500,86
20.73333,86
20.74167,86
20.75000,86
20.75833,86
20.76667,85
20.77500,85
20.78333,85
20.79167,86
20.80000,85
20.80833,85
20.81667,86
20.82500,86
20.83333,86
20.84167,86
20.85000,86
20.85833,86
20.86667,86
20.87500,86
20.88333,86
20.89167,87
20.90000,87
20.90833,86
20.91667,86
20.92500,86
20.93333,86
20.94167,86
20.95000,87
20.95833,87
20.96667,86
20.97500,86
20.98333,87
20.99167,87
21.00000,88
21.00833,88
21.01667,88
21.02500,88
21.03333,88
21.04167,88
21.05000,88
21.05833,88
21.06667,88
21.07500,89
21.08333,89
21.09167,89
21.10000,90
21.10833,90
21.11667,91
21.12500,91
21.13333,91
21.14167,91
21.15000,91
21.15833,90
21.16667,90
21.17500,90
21.18333,91
21.19167,91
21.20000,91
21.20833,91
21.21667,91
21.22500,92
21.23333,92
21.24167,93
21.25000,93
21.25833,93
21.26667,93
21.27500,93
21.28333,92
21.29167,92
21.30000,92
21.30833,92
21.31667,92
21.32500,92
21.33333,92
21.34167,93
21.35000,92
21.35833,92
21.36667,91
21.37500,91
21.38333,91
21.39167,91
21.40000,91
21.40833,90
21.41667,90
21.42500,89
21.43333,89
21.44167,89
21.45000,89
21.45833,88
21.46667,88
21.47500,87
21.48333,87
21.49167,87
21.50000,87
21.50833,86
21.51667,85
21.52500,84
21.53333,84
21.54167,83
21.55000,83
21.55833,83
21.56667,82
21.57500,82
21.58333,82
21.59167,82
21.60000,81
21.60833,81
21.61667,81
21.62500,81
21.63333,81
21.64167,81
21.65000,81
21.65833,81
21.66667,81
21.67500,80
21.68333,80
21.69167,80
21.70000,80
21.70833,79
21.71667,79
21.72500,79
21.73333,79
21.74167,79
21.75000,79
21.75833,79
21.76667,79
21.77500,79
21.78333,79
21.79167,79
21.80000,78
21.80833,78
21.81667,78
21.82500,79
21.83333,79
21.84167,79
21.85000,79
21.85833,80
21.86667,80
21.87500,80
21.88333,80
21.89167,81
21.90000,81
21.90833,81
21.91667,81
21.92500,81
21.93333,81
21.94167,81
21.95000,81
21.95833,81
21.96667,82
21.97500,82
21.98333,82
21.99167,82
22.00000,82
22.00833,82
22.01667,82
22.02500,83
22.03333,83
22.04167,83
22.05000,83
22.05833,84
22.06667,84
22.07500,84
22.08333,84
22.09167,84
22.10000,85
22.10833,85
22.11667,85
22.12500,86
22.13333,86
22.14167,86
22.15000,86
22.15833,86
22.16667,87
22.17500,87
22.18333,88
22.19167,88
22.20000,89
22.20833,89
22.21667,89
22.22500,89
22.23333,89
22.24167,90
22.25000,90
22.25833,90
22.26667,90
22.27500,90
22.28333,90
22.29167,91
22.30000,91
22.30833,91
22.31667,92
22.32500,92
22.33333,92
22.34167,92
22.35000,93
22.35833,94
22.36667,94
22.37500,95
22.38333,95
22.39167,95
22.40000,95
22.40833,95
22.41667,95
22.42500,95
22.43333,95
22.44167,95
22.45000,95
22.45833,95
22.46667,95
22.47500,96
22.48333,96
22.49167,96
22.50000,96
22.50833,96
22.51667,96
22.52500,96
22.53333,97
22.54167,97
22.55000,96
22.55833,96
22.56667,97
22.57500,97
22.58333,97
22.59167,97
22.60000,98
22.60833,98
22.61667,99
22.62500,99
22.63333,100
22.64167,100
22.65000,101
22.65833,101
22.66667,102
22.67500,103
22.68333,103
22.69167,103
22.70000,103
22.70833,104
22.71667,105
22.72500,105
22.73333,106
22.74167,107
22.75000,107
22.75833,108
22.76667,109
22.77500,109
22.78333,110
22.79167,111
22.80000,111
22.80833,112
22.81667,113
22.82500,114
22.83333,115
22.84167,116
22.85000,116
22.85833,117
22.86667,117
22.87500,118
22.88333,118
22.89167,118
22.90000,119
22.90833,119
22.91667,120
22.92500,120
22.93333,120
22.94167,120
22.95000,120
22.95833,120
22.96667,120
22.97500,120
22.98333,121
22.99167,121
23.00000,121
23.00833,121
23.01667,120
23.02500,120
23.03333,120
23.04167,119
23.05000,119
23.05833,119
23.06667,119
23.07500,119
23.08333,118
23.09167,117
23.10000,117
23.10833,116
23.11667,116
23.12500,115
23.13333,115
23.14167,114
23.15000,113
23.15833,113
23.16667,112
23.17500,112
23.18333,111
23.19167,110
23.20000,110
23.20833,109
23.21667,109
23.22500,108
23.23333,107
23.24167,106
23.25000,106
23.25833,105
23.26667,105
23.27500,104
23.28333,103
23.29167,103
23.30000,102
23.30833,102
23.31667,101
23.32500,100
23.33333,99
23.34167,99
23.35000,98
23.35833,97
23.36667,96
23.37500,95
23.38333,94
23.39167,94
23.40000,93
23.40833,93
23.41667,92
23.42500,92
23.43333,91
23.44167,91
23.45000,90
23.45833,89
23.46667,88
23.47500,87
23.48333,86
23.49167,86
23.50000,85
23.50833,85
23.51667,84
23.52500,84
23.53333,83
23.54167,83
23.55000,83
23.55833,82
23.56667,82
23.57500,81
23.58333,81
23.59167,81
23.60000,81
23.60833,81
23.61667,81
23.62500,81
23.63333,82
23.64167,82
23.65000,82
23.65833,82
23.66667,81
23.67500,81
23.68333,81
23.69167,82
23.70000,82
23.70833,83
23.71667,83
23.72500,84
23.73333,84
23.74167,85
23.75000,86
23.75833,86
23.76667,87
23.77500,88
23.78333,88
23.79167,89
23.80000,89
23.80833,90
23.81667,90
23.82500,91
23.83333,91
23.84167,92
23.85000,92
23.85833,93
23.86667,94
23.87500,95
23.88333,96
23.89167,97
23.90000,97
23.90833,98
23.91667,98
23.92500,99
23.93333,100
23.94167,100
23.95000,101
23.95833,101
23.96667,102
23.97500,102
23.98333,102
23.99167,102
24.00000,102
24.00833,102
24.01667,103
24.02500,103
24.03333,104
24.04167,104
24.05000,104
24.05833,105
24.06667,104
24.07500,104
24.08333,104
24.09167,104
24.10000,104
24.10833,105
24.11667,104
24.12500,104
24.13333,104
24.14167,104
24.15000,104
24.15833,104
24.16667,104
24.17500,104
24.18333,104
24.19167,104
24.20000,104
24.20833,104
24.21667,104
24.22500,104
24.23333,103
24.24167,103
24.25000,103
24.25833,103
24.26667,102
24.27500,103
24.28333,103
24.29167,103
24.30000,103
24.30833,103
24.31667,102
24.32500,102
24.33333,102
24.34167,102
24.35000,102
24.35833,102
24.36667,102
24.37500,102
24.38333,102
24.39167,102
24.40000,102
24.40833,102
24.41667,101
24.42500,101
24.43333,101
24.44167,101
24.45000,101
24.45833,101
24.46667,101
24.47500,101
24.48333,102
24.49167,102
24.50000,103
24.50833,103
24.51667,103
24.52500,104
24.53333,104
24.54167,105
24.55000,105
24.55833,106
24.56667,107
24.57500,108
24.58333,109
24.59167,110
24.60000,111
24.60833,113
24.61667,114
24.62500,116
24.63333,118
24.64167,121
24.65000,123
24.65833,125
24.66667,128
24.67500,131
24.68333,134
24.69167,137
24.70000,141
24.70833,144
24.71667,147
24.72500,151
24.73333,155
24.74167,160
24.75000,164
24.75833,169
24.76667,173
24.77500,178
24.78333,183
24.79167,188
24.80000,193
24.80833,198
24.81667,203
24.82500,209
24.83333,214
24.84167,220
24.85000,225
24.85833,230
24.86667,236
24.87500,241
24.88333,247
24.89167,252
24.90000,257
24.90833,262
24.91667,267
24.92500,272
24.93333,276
24.94167,279
24.95000,283
24.95833,286
24.96667,289
24.97500,293
24.98333,296
24.99167,297
25.00000,299
25.00833,300
25.01667,301
25.02500,302
25.03333,302
25.04167,302
25.05000,302
25.05833,302
25.06667,301
25.07500,299
25.08333,298
25.09167,295
25.10000,293
25.10833,290
25.11667,287
25.12500,284
25.13333,281
25.14167,277
25.15000,273
25.15833,269
25.16667,264
25.17500,260
25.18333,255
25.19167,251
25.20000,246
25.20833,242
25.21667,237
25.22500,232
25.23333,227
25.24167,223
25.25000,218
25.25833,213
25.26667,208
25.27500,204
25.28333,199
25.29167,194
25.30000,190
25.30833,185
25.31667,180
25.32500,176
25.33333,172
25.34167,168
25.35000,164
25.35833,161
25.36667,157
25.37500,154
25.38333,150
25.39167,147
25.40000,144
25.40833,141
25.41667,137
25.42500,134
25.43333,132
25.44167,130
25.45000,127
25.45833,125
25.46667,123
25.47500,121
25.48333,119
25.49167,118
25.50000,116
25.50833,115
25.51667,114
25.52500,113
25.53333,112
25.54167,111
25.55000,110
25.55833,109
25.56667,108
25.57500,107
25.58333,107
25.59167,106
25.60000,105
25.60833,105
25.61667,104
25.62500,103
25.63333,102
25.64167,102
25.65000,101
25.65833,101
25.66667,101
25.67500,101
25.68333,101
25.69167,100
25.70000,100
25.70833,100
25.71667,99
25.72500,99
25.73333,99
25.74167,98
25.75000,98
25.75833,98
25.76667,97
25.77500,96
25.78333,96
25.79167,95
25.80000,94
25.80833,94
25.81667,93
25.82500,93
25.83333,93
25.84167,93
25.85000,92
25.85833,92
25.86667,92
25.87500,92
25.88333,92
25.89167,92
25.90000,91
25.90833,91
25.91667,90
25.92500,90
25.93333,89
25.94167,89
25.95000,89
25.95833,88
25.96667,88
25.97500,88
25.98333,88
25.99167,88
26.00000,88
26.00833,88
26.01667,88
26.02500,88
26.03333,88
26.04167,88
26.05000,87
26.05833,87
26.06667,87
26.07500,87
26.08333,87
26.09167,87
26.10000,87
26.10833,87
26.11667,87
26.12500,87
26.13333,88
26.14167,89
26.15000,89
26.15833,90
26.16667,90
26.17500,91
26.18333,91
26.19167,92
26.20000,92
26.20833,92
26.21667,92
26.22500,93
26.23333,93
26.24167,93
26.25000,94
26.25833,94
26.26667,95
26.27500,95
26.28333,96
26.29167,96
26.30000,96
26.30833,97
26.31667,98
26.32500,99
26.33333,99
26.34167,100
26.35000,100
26.35833,101
26.36667,101
26.37500,102
26.38333,102
26.39167,103
26.40000,103
26.40833,104
26.41667,104
26.42500,104
26.43333,105
26.44167,105
26.45000,105
26.45833,105
26.46667,105
26.47500,106
26.48333,106
26.49167,107
26.50000,107
26.50833,108
26.51667,108
26.52500,108
26.53333,108
26.54167,108
26.55000,109
26.55833,109
26.56667,109
26.57500,110
26.58333,110
26.59167,110
26.60000,110
26.60833,110
26.61667,110
26.62500,110
26.63333,110
26.64167,111
26.65000,111
26.65833,111
26.66667,111
26.67500,111
26.68333,111
26.69167,110
26.70000,110
26.70833,110
26.71667,109
26.72500,109
26.73333,109
26.74167,109
26.75000,109
26.75833,109
26.76667,109
26.77500,109
26.78333,109
26.79167,109
26.80000,109
26.80833,108
26.81667,108
26.82500,108
26.83333,107
26.84167,107
26.85000,107
26.85833,107
26.86667,107
26.87500,106
26.88333,106
26.89167,105
26.90000,105
26.90833,104
26.91667,104
26.92500,104
26.93333,104
26.94167,104
26.95000,104
26.95833,104
26.96667,104
26.97500,104
26.98333,103
26.99167,102
27.00000,102
27.00833,102
27.01667,102
27.02500,102
27.03333,102
27.04167,102
27.05000,102
27.05833,102
27.06667,102
27.07500,102
27.08333,103
27.09167,103
27.10000,103
27.10833,103
27.11667,103
27.12500,103
27.13333,103
27.14167,102
27.15000,103
27.15833,103
27.16667,103
27.17500,103
27.18333,103
27.19167,103
27.20000,103
27.20833,103
27.21667,103
27.22500,103
27.23333,104
27.24167,104
27.25000,104
27.25833,105
27.26667,105
27.27500,105
27.28333,106
27.29167,106
27.30000,106
27.30833,106
27.31667,106
27.32500,107
27.33333,107
27.34167,107
27.35000,107
27.35833,107
27.36667,107
27.37500,107
27.38333,107
27.39167,108
27.40000,108
27.40833,108
27.41667,108
27.42500,108
27.43333,109
27.44167,109
27.45000,110
27.45833,110
27.46667,110
27.47500,110
27.48333,110
27.49167,110
27.50000,111
27.50833,111
27.51667,111
27.52500,111
27.53333,111
27.54167,111
27.55000,111
27.55833,111
27.56667,111
27.57500,111
27.58333,111
27.59167,111
27.60000,111
27.60833,111
27.61667,111
27.62500,111
27.63333,111
27.64167,111
27.65000,111
27.65833,110
27.66667,110
27.67500,110
27.68333,110
27.69167,110
27.70000,110
27.70833,110
27.71667,110
27.72500,110
27.73333,110
27.74167,110
27.75000,109
27.75833,108
27.76667,107
27.77500,106
27.78333,105
27.79167,104
27.80000,104
27.80833,103
27.81667,102
27.82500,100
27.83333,99
27.84167,98
27.85000,97
27.85833,97
27.86667,95
27.87500,94
27.88333,92
27.89167,90
27.90000,88
27.90833,87
27.91667,85
27.92500,83
27.93333,80
27.94167,78
27.95000,76
27.95833,73
27.96667,70
27.97500,68
27.98333,65
27.99167,62
28.00000,59
28.00833,56
28.01667,53
28.02500,50
28.03333,47
28.04167,44
28.05000,40
28.05833,37
28.06667,33
28.07500,30
28.08333,26
28.09167,23
28.10000,19
28.10833,16
28.11667,13
28.12500,9
28.13333,6
28.14167,2
28.15000,-0
28.15833,-3
28.16667,-7
28.17500,-10
28.18333,-13
28.19167,-17
28.20000,-20
28.20833,-23
28.21667,-26
28.22500,-29
28.23333,-31
28.24167,-33
28.25000,-35
28.25833,-37
28.26667,-40
28.27500,-41
28.28333,-43
28.29167,-44
28.30000,-45
28.30833,-47
28.31667,-48
28.32500,-49
28.33333,-50
28.34167,-51
28.35000,-51
28.35833,-51
28.36667,-51
28.37500,-50
28.38333,-49
28.39167,-48
28.40000,-48
28.40833,-48
28.41667,-47
28.42500,-46
28.43333,-45
28.44167,-44
28.45000,-43
28.45833,-41
28.46667,-40
28.47500,-38
28.48333,-36
28.49167,-34
28.50000,-31
28.50833,-29
28.51667,-26
28.52500,-24
28.53333,-21
28.54167,-19
28.55000,-16
28.55833,-13
28.56667,-11
28.57500,-8
28.58333,-5
28.59167,-3
28.60000,1
28.60833,4
28.61667,6
28.62500,9
28.63333,11
28.64167,14
28.65000,17
28.65833,20
28.66667,23
28.67500,26
28.68333,29
28.69167,31
28.70000,34
28.70833,37
28.71667,40
28.72500,42
28.73333,44
28.74167,47
28.75000,49
28.75833,51
28.76667,53
28.77500,55
28.78333,57
28.79167,59
28.80000,61
28.80833,63
28.81667,66
28.82500,67
28.83333,69
28.84167,71
28.85000,73
28.85833,75
28.86667,76
28.87500,78
28.88333,80
28.89167,82
28.90000,83
28.90833,85
28.91667,86
28.92500,88
28.93333,89
28.94167,90
28.95000,91
28.95833,92
28.96667,93
28.97500,95
28.98333,97
28.99167,98
29.00000,99
29.00833,100
29.01667,101
29.02500,102
29.03333,102
29.04167,103
29.05000,104
29.05833,105
29.06667,106
29.07500,107
29.08333,107
29.09167,108
29.10000,109
29.10833,109
29.11667,110
29.12500,111
29.13333,111
29.14167,112
29.15000,112
29.15833,112
29.16667,113
29.17500,113
29.18333,113
29.19167,113
29.20000,113
29.20833,114
29.21667,114
29.22500,114
29.23333,114
29.24167,114
29.25000,114
29.25833,115
29.26667,115
29.27500,115
29.28333,115
29.29167,115
29.30000,115
29.30833,115
29.31667,115
29.32500,115
29.33333,114
29.34167,114
29.35000,114
29.35833,113
29.36667,113
29.37500,112
29.38333,112
29.39167,111
29.40000,111
29.40833,111
29.41667,110
29.42500,110
29.43333,109
29.44167,109
29.45000,108
29.45833,107
29.46667,106
29.47500,106
29.48333,105
29.49167,104
29.50000,103
29.50833,102
29.51667,100
29.52500,99
29.53333,98
29.54167,97
29.55000,95
29.55833,94
29.56667,93
29.57500,92
29.58333,91
29.59167,90
29.60000,88
29.60833,87
29.61667,86
29.62500,85
29.63333,84
29.64167,83
29.65000,81
29.65833,80
29.66667,79
29.67500,77
29.68333,76
29.69167,75
29.70000,74
29.70833,72
29.71667,71
29.72500,70
29.73333,69
29.74167,68
29.75000,67
29.75833,65
29.76667,64
29.77500,63
29.78333,61
29.79167,60
29.80000,59
29.80833,58
29.81667,57
29.82500,56
29.83333,55
29.84167,53
29.85000,52
29.85833,51
29.86667,50
29.87500,49
29.88333,48
29.89167,47
29.90000,46
29.90833,45
29.91667,44
29.92500,43
29.93333,42
29.94167,42
29.95000,41
29.95833,40
29.96667,40
29.97500,39
29.98333,38
29.99167,38
30.00000,37
30.00833,37
30.01667,37
30.02500,37
30.03333,37
30.04167,37
30.05000,37
30.05833,37
30.06667,37
30.07500,37
30.08333,37
30.09167,37
30.10000,37
30.10833,37
30.11667,38
30.12500,38
30.13333,39
30.14167,39
30.15000,40
30.15833,41
30.16667,42
30.17500,43
30.18333,44
30.19167,45
30.20000,45
30.20833,46
30.21667,47
30.22500,48
30.23333,50
30.24167,51
30.25000,52
30.25833,53
30.26667,54
30.27500,55
30.28333,57
30.29167,58
30.30000,60
30.30833,61
30.31667,62
30.32500,63
30.33333,64
30.34167,65
30.35000,67
30.35833,68
30.36667,69
30.37500,71
30.38333,72
30.39167,73
30.40000,74
30.40833,75
30.41667,76
30.42500,77
30.43333,78
30.44167,79
30.45000,79
30.45833,80
30.46667,81
30.47500,83
30.48333,84
30.49167,85
30.50000,86
30.50833,87
30.51667,88
30.52500,88
30.53333,89
30.54167,89
30.55000,90
30.55833,90
30.56667,91
30.57500,92
30.58333,92
30.59167,93
30.60000,93
30.60833,93
30.61667,93
30.62500,94
30.63333,94
30.64167,94
30.65000,95
30.65833,96
30.66667,96
30.67500,96
30.68333,96
30.69167,96
30.70000,96
30.70833,96
30.71667,96
30.72500,96
30.73333,96
30.74167,96
30.75000,96
30.75833,96
30.76667,95
30.77500,95
30.78333,95
30.79167,95
30.80000,95
30.80833,94
30.81667,94
30.82500,94
30.83333,94
30.84167,94
30.85000,94
30.85833,94
30.86667,93
30.87500,93
30.88333,94
30.89167,94
30.90000,94
30.90833,94
30.91667,93
30.92500,93
30.93333,93
30.94167,93
30.95000,92
30.95833,92
30.96667,92
30.97500,91
30.98333,91
30.99167,91
31.00000,91
31.00833,91
31.01667,91
31.02500,91
31.03333,90
31.04167,90
31.05000,90
31.05833,91
31.06667,91
31.07500,91
31.08333,91
31.09167,91
31.10000,91
31.10833,91
31.11667,91
31.12500,91
31.13333,92
31.14167,92
31.15000,92
31.15833,92
31.16667,92
31.17500,92
31.18333,93
31.19167,93
31.20000,94
31.20833,94
31.21667,95
31.22500,95
31.23333,95
31.24167,96
31.25000,96
31.25833,96
31.26667,96
31.27500,97
31.28333,98
31.29167,98
31.30000,99
31.30833,99
31.31667,99
31.32500,99
31.33333,100
31.34167,100
31.35000,100
31.35833,101
31.36667,101
31.37500,101
31.38333,101
31.39167,101
31.40000,101
31.40833,101
31.41667,101
31.42500,102
31.43333,102
31.44167,103
31.45000,103
31.45833,103
31.46667,103
31.47500,104
31.48333,104
31.49167,104
31.50000,104
31.50833,104
31.51667,104
31.52500,104
31.53333,104
31.54167,104
31.55000,104
31.55833,104
31.56667,105
31.57500,105
31.58333,106
31.59167,106
31.60000,106
31.60833,107
31.61667,107
31.62500,107
31.63333,108
31.64167,108
31.65000,108
31.65833,109
31.66667,109
31.67500,110
31.68333,110
31.69167,110
31.70000,110
31.70833,111
31.71667,111
31.72500,111
31.73333,111
31.74167,111
31.75000,111
31.75833,112
31.76667,112
31.77500,112
31.78333,112
31.79167,113
31.80000,113
31.80833,114
31.81667,114
31.82500,114
31.83333,114
31.84167,114
31.85000,114
31.85833,115
31.86667,115
31.87500,115
31.88333,116
31.89167,116
31.90000,116
31.90833,116
31.91667,116
31.92500,117
31.93333,117
31.94167,117
31.95000,116
31.95833,116
31.96667,116
31.97500,116
31.98333,116
31.99167,116
32.00000,116
32.00833,116
32.01667,116
32.02500,116
32.03333,116
32.04167,116
32.05000,116
32.05833,116
32.06667,116
32.07500,116
32.08333,116
32.09167,116
32.10000,115
32.10833,115
32.11667,115
32.12500,116
32.13333,115
32.14167,115
32.15000,114
32.15833,114
32.16667,113
32.17500,113
32.18333,113
32.19167,112
32.20000,112
32.20833,112
32.21667,112
32.22500,111
32.23333,111
32.24167,111
32.25000,110
32.25833,110
32.26667,110
32.27500,111
32.28333,111
32.29167,110
32.30000,110
32.30833,109
32.31667,108
32.32500,108
32.33333,107
32.34167,107
32.35000,107
32.35833,108
32.36667,107
32.37500,107
32.38333,107
32.39167,107
32.40000,106
32.40833,106
32.41667,106
32.42500,107
32.43333,107
32.44167,107
32.45000,106
32.45833,106
32.46667,106
32.47500,105
32.48333,105
32.49167,105
32.50000,105
32.50833,105
32.51667,105
32.52500,105
32.53333,105
32.54167,105
32.55000,105
32.55833,105
32.56667,105
32.57500,105
32.58333,105
32.59167,105
32.60000,105
32.60833,105
32.61667,105
32.62500,105
32.63333,105
32.64167,105
32.65000,105
32.65833,105
32.66667,105
32.67500,105
32.68333,106
32.69167,106
32.70000,106
32.70833,106
32.71667,106
32.72500,106
32.73333,107
32.74167,107
32.75000,107
32.75833,107
32.76667,108
32.77500,108
32.78333,108
32.79167,109
32.80000,109
32.80833,109
32.81667,109
32.82500,109
32.83333,109
32.84167,110
32.85000,110
32.85833,110
32.86667,110
32.87500,111
32.88333,111
32.89167,111
32.90000,111
32.90833,112
32.91667,112
32.92500,112
32.93333,112
32.94167,112
32.95000,112
32.95833,112
32.96667,113
32.97500,113
32.98333,114
32.99167,114
33.00000,115
33.00833,115
33.01667,115
33.02500,116
33.03333,116
33.04167,116
33.05000,116
33.05833,116
33.06667,116
33.07500,116
33.08333,117
33.09167,117
33.10000,117
33.10833,118
33.11667,118
33.12500,118
33.13333,119
33.14167,119
33.15000,119
33.15833,120
33.16667,120
33.17500,120
33.18333,120
33.19167,120
33.20000,119
33.20833,119
33.21667,120
33.22500,120
33.23333,120
33.24167,121
33.25000,120
33.25833,120
33.26667,120
33.27500,119
33.28333,119
33.29167,119
33.30000,119
33.30833,119
33.31667,120
33.32500,120
33.33333,120
33.34167,120
33.35000,120
33.35833,120
33.36667,119
33.37500,119
33.38333,118
33.39167,118
33.40000,118
33.40833,118
33.41667,118
33.42500,117
33.43333,117
33.44167,116
33.45000,116
33.45833,116
33.46667,116
33.47500,115
33.48333,115
33.49167,115
33.50000,115
33.50833,115
33.51667,114
33.52500,114
33.53333,113
33.54167,113
33.55000,113
33.55833,112
33.56667,112
33.57500,112
33.58333,111
33.59167,111
33.60000,111
33.60833,111
33.61667,111
33.62500,111
33.63333,111
33.64167,111
33.65000,110
33.65833,110
33.66667,110
33.67500,110
33.68333,110
33.69167,110
33.70000,110
33.70833,109
33.71667,109
33.72500,109
33.73333,109
33.74167,109
33.75000,109
33.75833,109
33.76667,109
33.77500,109
33.78333,109
33.79167,108
33.80000,108
33.80833,108
33.81667,108
33.82500,108
33.83333,108
33.84167,108
33.85000,108
33.85833,108
33.86667,108
33.87500,108
33.88333,108
33.89167,108
33.90000,108
33.90833,108
33.91667,108
33.92500,109
33.93333,109
33.94167,109
33.95000,109
33.95833,109
33.96667,109
33.97500,109
33.98333,110
33.99167,111
34.00000,111
34.00833,111
34.01667,112
34.02500,112
34.03333,112
34.04167,111
34.05000,111
34.05833,112
34.06667,112
34.07500,113
34.08333,113
34.09167,113
34.10000,113
34.10833,113
34.11667,114
34.12500,114
34.13333,115
34.14167,116
34.15000,117
34.15833,117
34.16667,118
34.17500,118
34.18333,118
34.19167,118
34.20000,119
34.20833,119
34.21667,120
34.22500,120
34.23333,121
34.24167,121
34.25000,121
34.25833,122
34.26667,122
34.27500,123
34.28333,123
34.29167,123
34.30000,123
34.30833,123
34.31667,123
34.32500,123
34.33333,123
34.34167,124
34.35000,124
34.35833,125
34.36667,125
34.37500,126
34.38333,126
34.39167,126
34.40000,127
34.40833,127
34.41667,127
34.42500,127
34.43333,128
34.44167,128
34.45000,128
34.45833,128
34.46667,129
34.47500,129
34.48333,129
34.49167,130
34.50000,130
34.50833,130
34.51667,129
34.52500,129
34.53333,130
34.54167,130
34.55000,131
34.55833,131
34.56667,131
34.57500,131
34.58333,130
34.59167,130
34.60000,129
34.60833,129
34.61667,128
34.62500,128
34.63333,127
34.64167,127
34.65000,126
34.65833,126
34.66667,126
34.67500,126
34.68333,126
34.69167,125
34.70000,125
34.70833,125
34.71667,124
34.72500,124
34.73333,123
34.74167,123
34.75000,122
34.75833,122
34.76667,122
34.77500,121
34.78333,120
34.79167,120
34.80000,119
34.80833,119
34.81667,119
34.82500,118
34.83333,118
34.84167,117
34.85000,117
34.85833,116
34.86667,116
34.87500,115
34.88333,115
34.89167,115
34.90000,115
34.90833,114
34.91667,114
34.92500,114
34.93333,114
34.94167,114
34.95000,114
34.95833,114
34.96667,114
34.97500,113
34.98333,113
34.99167,113
35.00000,114
35.00833,114
35.01667,114
35.02500,114
35.03333,113
35.04167,113
35.05000,113
35.05833,113
35.06667,113
35.07500,114
35.08333,113
35.09167,114
35.10000,114
35.10833,114
35.11667,114
35.12500,114
35.13333,114
35.14167,114
35.15000,113
35.15833,114
35.16667,114
35.17500,114
35.18333,114
35.19167,114
35.20000,114
35.20833,114
35.21667,114
35.22500,114
35.23333,114
35.24167,114
35.25000,114
35.25833,114
35.26667,115
35.27500,115
35.28333,115
35.29167,115
35.30000,115
35.30833,115
35.31667,115
35.32500,114
35.33333,115
35.34167,115
35.35000,115
35.35833,115
35.36667,115
35.37500,115
35.38333,115
35.39167,115
35.40000,115
35.40833,115
35.41667,116
35.42500,116
35.43333,116
35.44167,116
35.45000,116
35.45833,116
35.46667,116
35.47500,117
35.48333,117
35.49167,117
35.50000,118
35.50833,118
35.51667,118
35.52500,118
35.53333,118
35.54167,119
35.55000,119
35.55833,120
35.56667,121
35.57500,121
35.58333,122
35.59167,122
35.60000,123
35.60833,124
35.61667,124
35.62500,125
35.63333,125
35.64167,126
35.65000,126
35.65833,126
35.66667,127
35.67500,127
35.68333,127
35.69167,127
35.70000,127
35.70833,127
35.71667,127
35.72500,128
35.73333,128
35.74167,128
35.75000,128
35.75833,128
35.76667,128
35.77500,129
35.78333,129
35.79167,129
35.80000,129
35.80833,129
35.81667,129
35.82500,129
35.83333,129
35.84167,129
35.85000,130
35.85833,130
35.86667,130
35.87500,130
35.88333,129
35.89167,129
35.90000,129
35.90833,129
35.91667,130
35.92500,130
35.93333,130
35.94167,129
35.95000,129
35.95833,129
35.96667,129
35.97500,129
35.98333,128
35.99167,128
36.00000,128
36.00833,127
36.01667,127
36.02500,127
36.03333,127
36.04167,127
36.05000,127
36.05833,126
36.06667,126
36.07500,126
36.08333,125
36.09167,125
36.10000,125
36.10833,124
36.11667,124
36.12500,123
36.13333,123
36.14167,123
36.15000,123
36.15833,123
36.16667,123
36.17500,122
36.18333,122
36.19167,122
36.20000,122
36.20833,122
36.21667,122
36.22500,122
36.23333,121
36.24167,121
36.25000,120
36.25833,120
36.26667,120
36.27500,120
36.28333,120
36.29167,120
36.30000,119
36.30833,119
36.31667,119
36.32500,119
36.33333,119
36.34167,119
36.35000,119
36.35833,119
36.36667,119
36.37500,119
36.38333,119
36.39167,119
36.40000,119
36.40833,119
36.41667,119
36.42500,119
36.43333,119
36.44167,118
36.45000,118
36.45833,118
36.46667,119
36.47500,119
36.48333,120
36.49167,120
36.50000,120
36.50833,120
36.51667,120
36.52500,121
36.53333,121
36.54167,122
36.55000,122
36.55833,123
36.56667,123
36.57500,124
36.58333,124
36.59167,125
36.60000,125
36.60833,126
36.61667,126
36.62500,126
36.63333,127
36.64167,127
36.65000,127
36.65833,128
36.66667,129
36.67500,129
36.68333,129
36.69167,129
36.70000,130
36.70833,130
36.71667,131
36.72500,131
36.73333,131
36.74167,132
36.75000,132
36.75833,132
36.76667,132
36.77500,133
36.78333,133
36.79167,133
36.80000,133
36.80833,133
36.81667,133
36.82500,133
36.83333,132
36.84167,132
36.85000,132
36.85833,132
36.86667,132
36.87500,132
36.88333,132
36.89167,132
36.90000,132
36.90833,132
36.91667,131
36.92500,131
36.93333,131
36.94167,131
36.95000,131
36.95833,131
36.96667,130
36.97500,130
36.98333,129
36.99167,129
37.00000,129
37.00833,128
37.01667,128
37.02500,128
37.03333,127
37.04167,127
37.05000,127
37.05833,127
37.06667,127
37.07500,127
37.08333,126
37.09167,126
37.10000,125
37.10833,125
37.11667,125
37.12500,125
37.13333,125
37.14167,125
37.15000,125
37.15833,125
37.16667,124
37.17500,124
37.18333,124
37.19167,124
37.20000,124
37.20833,124
37.21667,123
37.22500,123
37.23333,123
37.24167,124
37.25000,124
37.25833,124
37.26667,124
37.27500,124
37.28333,124
37.29167,124
37.30000,124
37.30833,125
37.31667,125
37.32500,125
37.33333,125
37.34167,125
37.35000,125
37.35833,125
37.36667,125
37.37500,125
37.38333,125
37.39167,125
37.40000,125
37.40833,125
37.41667,125
37.42500,125
37.43333,125
37.44167,125
37.45000,125
37.45833,126
37.46667,125
37.47500,125
37.48333,126
37.49167,126
37.50000,126
37.50833,127
37.51667,127
37.52500,126
37.53333,126
37.54167,126
37.55000,126
37.55833,126
37.56667,126
37.57500,126
37.58333,126
37.59167,126
37.60000,126
37.60833,126
37.61667,126
37.62500,126
37.63333,126
37.64167,126
37.65000,126
37.65833,126
37.66667,126
37.67500,126
37.68333,126
37.69167,126
37.70000,125
37.70833,126
37.71667,126
37.72500,126
37.73333,125
37.74167,125
37.75000,125
37.75833,124
37.76667,124
37.77500,123
37.78333,123
37.79167,122
37.80000,122
37.80833,122
37.81667,122
37.82500,122
37.83333,122
37.84167,122
37.85000,122
37.85833,121
37.86667,121
37.87500,121
37.88333,121
37.89167,121
37.90000,122
37.90833,121
37.91667,121
37.92500,121
37.93333,121
37.94167,122
37.95000,122
37.95833,122
37.96667,122
37.97500,121
37.98333,121
37.99167,121
38.00000,121
38.00833,122
38.01667,122
38.02500,122
38.03333,123
38.04167,123
38.05000,123
38.05833,123
38.06667,123
38.07500,123
38.08333,123
38.09167,124
38.10000,124
38.10833,124
38.11667,124
38.12500,125
38.13333,125
38.14167,126
38.15000,126
38.15833,127
38.16667,127
38.17500,127
38.18333,127
38.19167,128
38.20000,128
38.20833,128
38.21667,128
38.22500,128
38.23333,128
38.24167,129
38.25000,129
38.25833,129
38.26667,130
38.27500,130
38.28333,130
38.29167,130
38.30000,131
38.30833,131
38.31667,131
38.32500,131
38.33333,131
38.34167,131
38.35000,131
38.35833,131
38.36667,131
38.37500,132
38.38333,132
38.39167,132
38.40000,132
38.40833,132
38.41667,132
38.42500,132
38.43333,132
38.44167,132
38.45000,132
38.45833,132
38.46667,132
38.47500,132
38.48333,132
38.49167,132
38.50000,132
38.50833,132
38.51667,132
38.52500,132
38.53333,132
38.54167,132
38.55000,132
38.55833,132
38.56667,131
38.57500,131
38.58333,131
38.59167,131
38.60000,131
38.60833,131
38.61667,130
38.62500,130
38.63333,130
38.64167,129
38.65000,129
38.65833,128
38.66667,128
38.67500,127
38.68333,127
38.69167,127
38.70000,126
38.70833,126
38.71667,126
38.72500,126
38.73333,126
38.74167,125
38.75000,125
38.75833,125
38.76667,124
38.77500,124
38.78333,123
38.79167,123
38.80000,123
38.80833,123
38.81667,123
38.82500,122
38.83333,122
38.84167,122
38.85000,122
38.85833,122
38.86667,121
38.87500,121
38.88333,121
38.89167,121
38.90000,121
38.90833,121
38.91667,121
38.92500,121
38.93333,121
38.94167,121
38.95000,122
38.95833,122
38.96667,122
38.97500,122
38.98333,122
38.99167,121
39.00000,122
39.00833,122
39.01667,122
39.02500,123
39.03333,123
39.04167,123
39.05000,124
39.05833,124
39.06667,124
39.07500,124
39.08333,124
39.09167,124
39.10000,125
39.10833,125
39.11667,125
39.12500,125
39.13333,126
39.14167,126
39.15000,127
39.15833,127
39.16667,127
39.17500,127
39.18333,128
39.19167,128
39.20000,129
39.20833,130
39.21667,131
39.22500,131
39.23333,132
39.24167,132
39.25000,132
39.25833,132
39.26667,133
39.27500,133
39.28333,133
39.29167,133
39.30000,134
39.30833,135
39.31667,135
39.32500,136
39.33333,136
39.34167,137
39.35000,137
39.35833,137
39.36667,137
39.37500,137
39.38333,137
39.39167,137
39.40000,138
39.40833,138
39.41667,138
39.42500,138
39.43333,139
39.44167,139
39.45000,139
39.45833,139
39.46667,139
39.47500,139
39.48333,139
39.49167,139
39.50000,139
39.50833,139
39.51667,139
39.52500,139
39.53333,138
39.54167,138
39.55000,138
39.55833,139
39.56667,139
39.57500,138
39.58333,138
39.59167,138
39.60000,137
39.60833,137
39.61667,136
39.62500,136
39.63333,136
39.64167,135
39.65000,135
39.65833,135
39.66667,134
39.67500,134
39.68333,134
39.69167,135
39.70000,135
39.70833,134
39.71667,134
39.72500,133
39.73333,133
39.74167,132
39.75000,132
39.75833,132
39.76667,131
39.77500,131
39.78333,131
39.79167,132
39.80000,132
39.80833,131
39.81667,131
39.82500,131
39.83333,130
39.84167,131
39.85000,131
39.85833,131
39.86667,131
39.87500,131
39.88333,131
39.89167,130
39.90000,130
39.90833,130
39.91667,130
39.92500,130
39.93333,130
39.94167,130
39.95000,130
39.95833,130
39.96667,130
39.97500,130
39.98333,129
39.99167,129
40.00000,129

