[Header]
Application Name,LabSolutions
Version,5.97 SP1
Data File Name,C:\Users\cremerlab\Desktop\griffin\2021-04-06_REL606_DM_glucose_turnover\2021-04-06_REL606_DM_glucose_turnover_462021_002_002.lcd
Output Date,4/6/2021
Output Time,6:36:39 PM

[File Information]
Type,Data File
Generated,4/6/2021 5:56:20 PM
Generated by,System Administrator
Modified,4/6/2021 6:36:39 PM
Modified by,System Administrator

[Sample Information]
Operator Name,System Administrator
Acquired,4/6/2021 5:56:39 PM
Sample Type,1:Standard
Level,2
Sample Name,2021-04-04_REL606_replicate_001_timepoint_002
Sample ID,002
ISTD Amount1,1
ISTD Amount2,1
ISTD Amount3,1
ISTD Amount4,1
ISTD Amount5,1
ISTD Amount6,1
ISTD Amount7,1
ISTD Amount8,1
ISTD Amount9,1
ISTD Amount10,1
ISTD Amount11,1
ISTD Amount12,1
ISTD Amount13,1
ISTD Amount14,1
ISTD Amount15,1
ISTD Amount16,1
ISTD Amount17,1
ISTD Amount18,1
ISTD Amount19,1
ISTD Amount20,1
ISTD Amount21,1
ISTD Amount22,1
ISTD Amount23,1
ISTD Amount24,1
ISTD Amount25,1
ISTD Amount26,1
ISTD Amount27,1
ISTD Amount28,1
ISTD Amount29,1
ISTD Amount30,1
ISTD Amount31,1
ISTD Amount32,1
Sample Amount,1
Dilution Factor,1
Vial#,2
Injection Volume,20

[Original Files]
Data File,C:\Users\cremerlab\Desktop\griffin\2021-04-06_REL606_DM_glucose_turnover\2021-04-06_REL606_DM_glucose_turnover_462021_002_002.lcd
Method File,C:\Users\cremerlab\Desktop\griffin\2.5mM_H2SO4_mobile_phase.lcm
Batch File,C:\Users\cremerlab\Desktop\griffin\2021-04-06_REL606_DM_glucose_turnover\2021-04-06_REL606_DM_glucose_turnover.lcb
Report Format File,c:\LabSolutions\System\DEFAULT.lsr

[File Description]


[Configuration]
Instrument Name,HPLC-PC-Instrument1
Instrument #,1
Line #,1
# of Detectors,2
Detector ID,Detector A,Detector B
Detector Name,Detector A,Detector B
# of Channels,1,1

[Peak Table(Detector A)]
# of Peaks,0

[Peak Table(Detector B)]
# of Peaks,6
Peak#,R.Time,I.Time,F.Time,Area,Height,A/H,Conc.,Mark,ID#,Name,k',Plate #,Plate Ht.,Tailing,Resolution,Sep.Factor,Area Ratio,Height Ratio,Conc. %,Norm Conc.
1,10.884,10.425,11.792,249027,14529,17.140,0.000,   ,,,0.000,9149,16.395,1.049,0.000,0.000,0,0,0.000,0.000
2,13.925,12.550,14.192,1686363,45038,37.443,0.000,   ,,,0.279,3151,47.607,0.000,4.202,0.000,0,0,0.000,0.000
3,14.322,14.192,14.967,163759,8960,18.277,0.000, V ,,,0.316,5926,25.311,0.000,0.458,1.131,0,0,0.000,0.000
4,15.670,14.967,17.275,1008567,40386,24.973,0.000, V ,,,0.440,9230,16.251,1.150,1.930,1.392,0,0,0.000,0.000
5,19.073,18.733,19.575,2366,106,22.379,0.000,   ,,,0.752,15153,9.899,1.118,5.349,1.711,0,0,0.000,0.000
6,25.030,24.558,25.650,4857,165,29.367,0.000,   ,,,1.300,15730,9.536,1.098,8.402,1.727,0,0,0.000,0.000

[LC Chromatogram(Detector B-Ch1)]
Interval(msec),500
# of Points,4801
Start Time(min),0.000
End Time(min),40.000
Intensity Units,mV
Intensity Multiplier,0.001
R.Time (min),Intensity
0.00000,-3
0.00833,-3
0.01667,0
0.02500,-0
0.03333,-1
0.04167,-1
0.05000,-1
0.05833,-2
0.06667,-2
0.07500,-2
0.08333,-1
0.09167,-1
0.10000,-1
0.10833,-1
0.11667,-2
0.12500,-2
0.13333,-2
0.14167,-2
0.15000,-3
0.15833,-3
0.16667,-3
0.17500,-3
0.18333,-3
0.19167,-3
0.20000,-3
0.20833,-3
0.21667,-3
0.22500,-2
0.23333,-2
0.24167,-2
0.25000,-2
0.25833,-3
0.26667,-3
0.27500,-3
0.28333,-3
0.29167,-3
0.30000,-3
0.30833,-3
0.31667,-3
0.32500,-3
0.33333,-3
0.34167,-3
0.35000,-2
0.35833,-2
0.36667,-2
0.37500,-2
0.38333,-2
0.39167,-2
0.40000,-1
0.40833,-1
0.41667,-1
0.42500,-0
0.43333,-0
0.44167,0
0.45000,0
0.45833,1
0.46667,1
0.47500,1
0.48333,1
0.49167,1
0.50000,1
0.50833,1
0.51667,2
0.52500,2
0.53333,3
0.54167,3
0.55000,4
0.55833,4
0.56667,4
0.57500,4
0.58333,4
0.59167,4
0.60000,4
0.60833,4
0.61667,4
0.62500,4
0.63333,4
0.64167,4
0.65000,3
0.65833,3
0.66667,3
0.67500,3
0.68333,3
0.69167,3
0.70000,3
0.70833,3
0.71667,3
0.72500,3
0.73333,3
0.74167,2
0.75000,2
0.75833,2
0.76667,2
0.77500,3
0.78333,3
0.79167,3
0.80000,2
0.80833,2
0.81667,2
0.82500,2
0.83333,2
0.84167,2
0.85000,3
0.85833,3
0.86667,3
0.87500,2
0.88333,2
0.89167,2
0.90000,1
0.90833,1
0.91667,1
0.92500,1
0.93333,0
0.94167,0
0.95000,0
0.95833,0
0.96667,0
0.97500,-0
0.98333,-0
0.99167,-0
1.00000,-1
1.00833,-1
1.01667,-2
1.02500,-3
1.03333,-3
1.04167,-4
1.05000,-5
1.05833,-5
1.06667,-5
1.07500,-6
1.08333,-6
1.09167,-6
1.10000,-6
1.10833,-6
1.11667,-6
1.12500,-6
1.13333,-6
1.14167,-7
1.15000,-7
1.15833,-8
1.16667,-8
1.17500,-8
1.18333,-8
1.19167,-8
1.20000,-8
1.20833,-8
1.21667,-8
1.22500,-9
1.23333,-9
1.24167,-9
1.25000,-9
1.25833,-9
1.26667,-9
1.27500,-9
1.28333,-9
1.29167,-8
1.30000,-8
1.30833,-8
1.31667,-8
1.32500,-8
1.33333,-8
1.34167,-8
1.35000,-8
1.35833,-7
1.36667,-7
1.37500,-7
1.38333,-7
1.39167,-7
1.40000,-7
1.40833,-6
1.41667,-6
1.42500,-6
1.43333,-5
1.44167,-5
1.45000,-5
1.45833,-4
1.46667,-4
1.47500,-5
1.48333,-4
1.49167,-4
1.50000,-4
1.50833,-4
1.51667,-3
1.52500,-3
1.53333,-3
1.54167,-4
1.55000,-3
1.55833,-3
1.56667,-3
1.57500,-2
1.58333,-1
1.59167,-1
1.60000,-1
1.60833,-0
1.61667,0
1.62500,0
1.63333,1
1.64167,1
1.65000,1
1.65833,1
1.66667,2
1.67500,2
1.68333,2
1.69167,2
1.70000,2
1.70833,2
1.71667,2
1.72500,2
1.73333,2
1.74167,2
1.75000,2
1.75833,1
1.76667,1
1.77500,1
1.78333,1
1.79167,1
1.80000,1
1.80833,1
1.81667,1
1.82500,1
1.83333,1
1.84167,2
1.85000,2
1.85833,2
1.86667,2
1.87500,1
1.88333,1
1.89167,1
1.90000,1
1.90833,1
1.91667,1
1.92500,1
1.93333,1
1.94167,1
1.95000,1
1.95833,1
1.96667,1
1.97500,1
1.98333,2
1.99167,2
2.00000,2
2.00833,2
2.01667,1
2.02500,1
2.03333,1
2.04167,1
2.05000,1
2.05833,2
2.06667,2
2.07500,2
2.08333,2
2.09167,2
2.10000,2
2.10833,3
2.11667,3
2.12500,4
2.13333,4
2.14167,3
2.15000,3
2.15833,3
2.16667,3
2.17500,4
2.18333,4
2.19167,4
2.20000,5
2.20833,5
2.21667,5
2.22500,5
2.23333,5
2.24167,5
2.25000,5
2.25833,4
2.26667,4
2.27500,4
2.28333,4
2.29167,4
2.30000,4
2.30833,4
2.31667,4
2.32500,4
2.33333,4
2.34167,4
2.35000,4
2.35833,4
2.36667,4
2.37500,4
2.38333,3
2.39167,3
2.40000,3
2.40833,3
2.41667,3
2.42500,3
2.43333,3
2.44167,3
2.45000,3
2.45833,3
2.46667,3
2.47500,3
2.48333,3
2.49167,3
2.50000,3
2.50833,3
2.51667,3
2.52500,3
2.53333,3
2.54167,3
2.55000,3
2.55833,3
2.56667,3
2.57500,3
2.58333,3
2.59167,3
2.60000,3
2.60833,3
2.61667,3
2.62500,4
2.63333,4
2.64167,4
2.65000,4
2.65833,4
2.66667,4
2.67500,3
2.68333,3
2.69167,3
2.70000,3
2.70833,3
2.71667,3
2.72500,3
2.73333,3
2.74167,3
2.75000,3
2.75833,3
2.76667,3
2.77500,3
2.78333,3
2.79167,2
2.80000,2
2.80833,2
2.81667,2
2.82500,2
2.83333,2
2.84167,2
2.85000,2
2.85833,1
2.86667,1
2.87500,0
2.88333,0
2.89167,-0
2.90000,-0
2.90833,-1
2.91667,-1
2.92500,-2
2.93333,-2
2.94167,-2
2.95000,-2
2.95833,-3
2.96667,-4
2.97500,-4
2.98333,-5
2.99167,-5
3.00000,-6
3.00833,-6
3.01667,-6
3.02500,-6
3.03333,-6
3.04167,-6
3.05000,-6
3.05833,-6
3.06667,-6
3.07500,-6
3.08333,-7
3.09167,-7
3.10000,-7
3.10833,-7
3.11667,-8
3.12500,-8
3.13333,-8
3.14167,-8
3.15000,-8
3.15833,-7
3.16667,-7
3.17500,-7
3.18333,-7
3.19167,-7
3.20000,-6
3.20833,-6
3.21667,-6
3.22500,-6
3.23333,-6
3.24167,-6
3.25000,-6
3.25833,-6
3.26667,-5
3.27500,-5
3.28333,-5
3.29167,-5
3.30000,-5
3.30833,-5
3.31667,-5
3.32500,-4
3.33333,-4
3.34167,-4
3.35000,-4
3.35833,-4
3.36667,-4
3.37500,-3
3.38333,-3
3.39167,-3
3.40000,-3
3.40833,-3
3.41667,-3
3.42500,-3
3.43333,-3
3.44167,-3
3.45000,-3
3.45833,-3
3.46667,-4
3.47500,-4
3.48333,-4
3.49167,-5
3.50000,-5
3.50833,-5
3.51667,-5
3.52500,-5
3.53333,-4
3.54167,-4
3.55000,-4
3.55833,-4
3.56667,-4
3.57500,-5
3.58333,-5
3.59167,-6
3.60000,-6
3.60833,-6
3.61667,-6
3.62500,-6
3.63333,-6
3.64167,-6
3.65000,-6
3.65833,-6
3.66667,-6
3.67500,-6
3.68333,-7
3.69167,-7
3.70000,-7
3.70833,-7
3.71667,-7
3.72500,-6
3.73333,-6
3.74167,-6
3.75000,-6
3.75833,-5
3.76667,-5
3.77500,-4
3.78333,-5
3.79167,-5
3.80000,-4
3.80833,-4
3.81667,-4
3.82500,-4
3.83333,-4
3.84167,-3
3.85000,-3
3.85833,-3
3.86667,-3
3.87500,-3
3.88333,-3
3.89167,-3
3.90000,-3
3.90833,-2
3.91667,-2
3.92500,-2
3.93333,-2
3.94167,-2
3.95000,-2
3.95833,-1
3.96667,-1
3.97500,-1
3.98333,-1
3.99167,-0
4.00000,-0
4.00833,-0
4.01667,0
4.02500,0
4.03333,0
4.04167,1
4.05000,1
4.05833,1
4.06667,1
4.07500,2
4.08333,2
4.09167,2
4.10000,2
4.10833,2
4.11667,2
4.12500,2
4.13333,2
4.14167,2
4.15000,3
4.15833,3
4.16667,2
4.17500,2
4.18333,2
4.19167,2
4.20000,2
4.20833,2
4.21667,2
4.22500,2
4.23333,2
4.24167,2
4.25000,2
4.25833,2
4.26667,3
4.27500,3
4.28333,3
4.29167,2
4.30000,2
4.30833,2
4.31667,2
4.32500,2
4.33333,2
4.34167,2
4.35000,2
4.35833,2
4.36667,2
4.37500,2
4.38333,1
4.39167,1
4.40000,1
4.40833,0
4.41667,-0
4.42500,-0
4.43333,-0
4.44167,-0
4.45000,-1
4.45833,-2
4.46667,-2
4.47500,-2
4.48333,-3
4.49167,-3
4.50000,-3
4.50833,-3
4.51667,-3
4.52500,-3
4.53333,-3
4.54167,-4
4.55000,-4
4.55833,-5
4.56667,-5
4.57500,-5
4.58333,-5
4.59167,-5
4.60000,-6
4.60833,-7
4.61667,-7
4.62500,-8
4.63333,-8
4.64167,-8
4.65000,-8
4.65833,-8
4.66667,-8
4.67500,-8
4.68333,-8
4.69167,-9
4.70000,-9
4.70833,-10
4.71667,-10
4.72500,-11
4.73333,-11
4.74167,-12
4.75000,-12
4.75833,-12
4.76667,-12
4.77500,-11
4.78333,-12
4.79167,-11
4.80000,-12
4.80833,-12
4.81667,-12
4.82500,-12
4.83333,-13
4.84167,-13
4.85000,-13
4.85833,-13
4.86667,-13
4.87500,-14
4.88333,-14
4.89167,-13
4.90000,-13
4.90833,-13
4.91667,-13
4.92500,-13
4.93333,-12
4.94167,-12
4.95000,-12
4.95833,-13
4.96667,-13
4.97500,-13
4.98333,-13
4.99167,-13
5.00000,-13
5.00833,-13
5.01667,-13
5.02500,-12
5.03333,-12
5.04167,-12
5.05000,-13
5.05833,-13
5.06667,-12
5.07500,-12
5.08333,-12
5.09167,-11
5.10000,-11
5.10833,-10
5.11667,-10
5.12500,-10
5.13333,-10
5.14167,-10
5.15000,-10
5.15833,-10
5.16667,-10
5.17500,-10
5.18333,-10
5.19167,-10
5.20000,-10
5.20833,-10
5.21667,-9
5.22500,-9
5.23333,-9
5.24167,-9
5.25000,-8
5.25833,-8
5.26667,-8
5.27500,-7
5.28333,-7
5.29167,-7
5.30000,-6
5.30833,-6
5.31667,-6
5.32500,-6
5.33333,-5
5.34167,-5
5.35000,-5
5.35833,-4
5.36667,-4
5.37500,-4
5.38333,-5
5.39167,-4
5.40000,-4
5.40833,-4
5.41667,-3
5.42500,-3
5.43333,-3
5.44167,-3
5.45000,-2
5.45833,-2
5.46667,-2
5.47500,-2
5.48333,-2
5.49167,-2
5.50000,-2
5.50833,-2
5.51667,-2
5.52500,-2
5.53333,-2
5.54167,-2
5.55000,-1
5.55833,-1
5.56667,-0
5.57500,-0
5.58333,0
5.59167,0
5.60000,0
5.60833,-0
5.61667,-1
5.62500,-1
5.63333,-1
5.64167,-1
5.65000,-0
5.65833,-1
5.66667,-1
5.67500,-1
5.68333,-0
5.69167,-0
5.70000,-1
5.70833,-1
5.71667,-1
5.72500,-1
5.73333,-2
5.74167,-2
5.75000,-2
5.75833,-1
5.76667,-1
5.77500,-1
5.78333,-1
5.79167,-1
5.80000,-1
5.80833,-1
5.81667,-1
5.82500,-1
5.83333,-1
5.84167,-2
5.85000,-2
5.85833,-2
5.86667,-3
5.87500,-3
5.88333,-3
5.89167,-3
5.90000,-3
5.90833,-3
5.91667,-3
5.92500,-3
5.93333,-3
5.94167,-3
5.95000,-4
5.95833,-4
5.96667,-4
5.97500,-4
5.98333,-4
5.99167,-5
6.00000,-5
6.00833,-5
6.01667,-5
6.02500,-5
6.03333,-5
6.04167,-4
6.05000,-4
6.05833,-4
6.06667,-5
6.07500,-5
6.08333,-5
6.09167,-6
6.10000,-6
6.10833,-6
6.11667,-6
6.12500,-6
6.13333,-6
6.14167,-7
6.15000,-7
6.15833,-7
6.16667,-7
6.17500,-8
6.18333,-8
6.19167,-8
6.20000,-8
6.20833,-8
6.21667,-9
6.22500,-9
6.23333,-10
6.24167,-10
6.25000,-10
6.25833,-10
6.26667,-10
6.27500,-10
6.28333,-11
6.29167,-11
6.30000,-11
6.30833,-11
6.31667,-11
6.32500,-11
6.33333,-12
6.34167,-11
6.35000,-11
6.35833,-11
6.36667,-11
6.37500,-12
6.38333,-12
6.39167,-12
6.40000,-11
6.40833,-12
6.41667,-12
6.42500,-12
6.43333,-12
6.44167,-12
6.45000,-12
6.45833,-13
6.46667,-13
6.47500,-13
6.48333,-13
6.49167,-13
6.50000,-12
6.50833,-12
6.51667,-12
6.52500,-12
6.53333,-12
6.54167,-11
6.55000,-11
6.55833,-11
6.56667,-11
6.57500,-11
6.58333,-11
6.59167,-11
6.60000,-11
6.60833,-11
6.61667,-11
6.62500,-11
6.63333,-11
6.64167,-11
6.65000,-11
6.65833,-11
6.66667,-11
6.67500,-11
6.68333,-11
6.69167,-11
6.70000,-11
6.70833,-11
6.71667,-11
6.72500,-11
6.73333,-11
6.74167,-12
6.75000,-12
6.75833,-11
6.76667,-11
6.77500,-11
6.78333,-11
6.79167,-11
6.80000,-11
6.80833,-11
6.81667,-11
6.82500,-11
6.83333,-11
6.84167,-11
6.85000,-11
6.85833,-10
6.86667,-10
6.87500,-10
6.88333,-10
6.89167,-10
6.90000,-10
6.90833,-10
6.91667,-10
6.92500,-10
6.93333,-9
6.94167,-9
6.95000,-9
6.95833,-8
6.96667,-8
6.97500,-8
6.98333,-8
6.99167,-7
7.00000,-7
7.00833,-7
7.01667,-7
7.02500,-6
7.03333,-6
7.04167,-6
7.05000,-6
7.05833,-6
7.06667,-6
7.07500,-5
7.08333,-4
7.09167,-4
7.10000,-3
7.10833,-3
7.11667,-3
7.12500,-3
7.13333,-3
7.14167,-2
7.15000,-2
7.15833,-1
7.16667,-1
7.17500,-0
7.18333,0
7.19167,1
7.20000,2
7.20833,2
7.21667,2
7.22500,2
7.23333,2
7.24167,3
7.25000,3
7.25833,3
7.26667,3
7.27500,3
7.28333,3
7.29167,3
7.30000,3
7.30833,3
7.31667,3
7.32500,3
7.33333,4
7.34167,4
7.35000,4
7.35833,4
7.36667,4
7.37500,4
7.38333,4
7.39167,4
7.40000,4
7.40833,3
7.41667,3
7.42500,3
7.43333,2
7.44167,2
7.45000,2
7.45833,2
7.46667,2
7.47500,2
7.48333,2
7.49167,1
7.50000,1
7.50833,1
7.51667,0
7.52500,-0
7.53333,-0
7.54167,-1
7.55000,-1
7.55833,-2
7.56667,-2
7.57500,-3
7.58333,-3
7.59167,-4
7.60000,-4
7.60833,-5
7.61667,-5
7.62500,-6
7.63333,-6
7.64167,-7
7.65000,-7
7.65833,-8
7.66667,-8
7.67500,-8
7.68333,-8
7.69167,-8
7.70000,-9
7.70833,-9
7.71667,-10
7.72500,-11
7.73333,-11
7.74167,-11
7.75000,-11
7.75833,-12
7.76667,-12
7.77500,-12
7.78333,-13
7.79167,-13
7.80000,-13
7.80833,-13
7.81667,-13
7.82500,-13
7.83333,-13
7.84167,-13
7.85000,-13
7.85833,-12
7.86667,-12
7.87500,-12
7.88333,-12
7.89167,-12
7.90000,-12
7.90833,-12
7.91667,-13
7.92500,-13
7.93333,-12
7.94167,-13
7.95000,-13
7.95833,-13
7.96667,-13
7.97500,-13
7.98333,-12
7.99167,-12
8.00000,-12
8.00833,-12
8.01667,-12
8.02500,-12
8.03333,-12
8.04167,-11
8.05000,-12
8.05833,-11
8.06667,-11
8.07500,-12
8.08333,-12
8.09167,-12
8.10000,-12
8.10833,-12
8.11667,-13
8.12500,-13
8.13333,-12
8.14167,-12
8.15000,-12
8.15833,-12
8.16667,-11
8.17500,-11
8.18333,-10
8.19167,-10
8.20000,-10
8.20833,-10
8.21667,-10
8.22500,-10
8.23333,-10
8.24167,-9
8.25000,-9
8.25833,-9
8.26667,-9
8.27500,-9
8.28333,-9
8.29167,-8
8.30000,-8
8.30833,-8
8.31667,-8
8.32500,-8
8.33333,-8
8.34167,-8
8.35000,-7
8.35833,-7
8.36667,-7
8.37500,-7
8.38333,-7
8.39167,-7
8.40000,-6
8.40833,-7
8.41667,-7
8.42500,-7
8.43333,-7
8.44167,-7
8.45000,-7
8.45833,-6
8.46667,-6
8.47500,-6
8.48333,-7
8.49167,-7
8.50000,-7
8.50833,-7
8.51667,-7
8.52500,-7
8.53333,-7
8.54167,-8
8.55000,-8
8.55833,-8
8.56667,-8
8.57500,-8
8.58333,-9
8.59167,-9
8.60000,-9
8.60833,-10
8.61667,-10
8.62500,-10
8.63333,-11
8.64167,-11
8.65000,-10
8.65833,-10
8.66667,-10
8.67500,-10
8.68333,-10
8.69167,-10
8.70000,-10
8.70833,-11
8.71667,-11
8.72500,-11
8.73333,-11
8.74167,-11
8.75000,-11
8.75833,-11
8.76667,-12
8.77500,-11
8.78333,-11
8.79167,-11
8.80000,-11
8.80833,-11
8.81667,-11
8.82500,-11
8.83333,-11
8.84167,-11
8.85000,-11
8.85833,-11
8.86667,-11
8.87500,-11
8.88333,-11
8.89167,-11
8.90000,-11
8.90833,-11
8.91667,-11
8.92500,-11
8.93333,-12
8.94167,-12
8.95000,-11
8.95833,-11
8.96667,-11
8.97500,-12
8.98333,-11
8.99167,-11
9.00000,-12
9.00833,-12
9.01667,-12
9.02500,-12
9.03333,-12
9.04167,-12
9.05000,-11
9.05833,-12
9.06667,-12
9.07500,-12
9.08333,-12
9.09167,-12
9.10000,-12
9.10833,-12
9.11667,-12
9.12500,-12
9.13333,-12
9.14167,-12
9.15000,-12
9.15833,-13
9.16667,-13
9.17500,-13
9.18333,-14
9.19167,-14
9.20000,-14
9.20833,-15
9.21667,-15
9.22500,-15
9.23333,-16
9.24167,-16
9.25000,-16
9.25833,-16
9.26667,-17
9.27500,-17
9.28333,-17
9.29167,-17
9.30000,-18
9.30833,-18
9.31667,-18
9.32500,-19
9.33333,-19
9.34167,-19
9.35000,-19
9.35833,-19
9.36667,-20
9.37500,-20
9.38333,-20
9.39167,-21
9.40000,-21
9.40833,-21
9.41667,-22
9.42500,-22
9.43333,-22
9.44167,-22
9.45000,-23
9.45833,-23
9.46667,-23
9.47500,-23
9.48333,-22
9.49167,-22
9.50000,-22
9.50833,-21
9.51667,-21
9.52500,-22
9.53333,-22
9.54167,-22
9.55000,-22
9.55833,-22
9.56667,-22
9.57500,-21
9.58333,-21
9.59167,-21
9.60000,-21
9.60833,-20
9.61667,-20
9.62500,-19
9.63333,-19
9.64167,-18
9.65000,-18
9.65833,-18
9.66667,-17
9.67500,-17
9.68333,-17
9.69167,-16
9.70000,-16
9.70833,-16
9.71667,-15
9.72500,-15
9.73333,-14
9.74167,-14
9.75000,-13
9.75833,-13
9.76667,-12
9.77500,-12
9.78333,-12
9.79167,-11
9.80000,-10
9.80833,-10
9.81667,-10
9.82500,-9
9.83333,-9
9.84167,-8
9.85000,-8
9.85833,-7
9.86667,-7
9.87500,-7
9.88333,-6
9.89167,-6
9.90000,-6
9.90833,-6
9.91667,-5
9.92500,-5
9.93333,-4
9.94167,-4
9.95000,-4
9.95833,-3
9.96667,-3
9.97500,-3
9.98333,-3
9.99167,-3
10.00000,-3
10.00833,-2
10.01667,-2
10.02500,-1
10.03333,-1
10.04167,-1
10.05000,-1
10.05833,-1
10.06667,-1
10.07500,-1
10.08333,-1
10.09167,-1
10.10000,-1
10.10833,-1
10.11667,-1
10.12500,-1
10.13333,-1
10.14167,-1
10.15000,-1
10.15833,-1
10.16667,-2
10.17500,-2
10.18333,-2
10.19167,-2
10.20000,-2
10.20833,-2
10.21667,-2
10.22500,-2
10.23333,-2
10.24167,-3
10.25000,-3
10.25833,-3
10.26667,-3
10.27500,-3
10.28333,-3
10.29167,-3
10.30000,-3
10.30833,-3
10.31667,-4
10.32500,-4
10.33333,-4
10.34167,-4
10.35000,-4
10.35833,-4
10.36667,-4
10.37500,-5
10.38333,-5
10.39167,-5
10.40000,-5
10.40833,-5
10.41667,-5
10.42500,-5
10.43333,-4
10.44167,-4
10.45000,-2
10.45833,-1
10.46667,1
10.47500,4
10.48333,8
10.49167,14
10.50000,21
10.50833,30
10.51667,43
10.52500,58
10.53333,78
10.54167,103
10.55000,135
10.55833,174
10.56667,223
10.57500,282
10.58333,355
10.59167,442
10.60000,545
10.60833,668
10.61667,811
10.62500,978
10.63333,1169
10.64167,1388
10.65000,1636
10.65833,1915
10.66667,2226
10.67500,2571
10.68333,2950
10.69167,3363
10.70000,3811
10.70833,4292
10.71667,4806
10.72500,5349
10.73333,5920
10.74167,6515
10.75000,7130
10.75833,7761
10.76667,8403
10.77500,9049
10.78333,9693
10.79167,10327
10.80000,10945
10.80833,11538
10.81667,12099
10.82500,12619
10.83333,13090
10.84167,13505
10.85000,13857
10.85833,14140
10.86667,14348
10.87500,14477
10.88333,14524
10.89167,14489
10.90000,14370
10.90833,14172
10.91667,13896
10.92500,13547
10.93333,13131
10.94167,12656
10.95000,12130
10.95833,11561
10.96667,10959
10.97500,10333
10.98333,9693
10.99167,9046
11.00000,8402
11.00833,7767
11.01667,7147
11.02500,6548
11.03333,5975
11.04167,5430
11.05000,4917
11.05833,4437
11.06667,3990
11.07500,3578
11.08333,3199
11.09167,2852
11.10000,2537
11.10833,2252
11.11667,1994
11.12500,1763
11.13333,1556
11.14167,1371
11.15000,1207
11.15833,1062
11.16667,933
11.17500,819
11.18333,719
11.19167,632
11.20000,555
11.20833,488
11.21667,429
11.22500,378
11.23333,334
11.24167,296
11.25000,263
11.25833,234
11.26667,210
11.27500,189
11.28333,170
11.29167,154
11.30000,141
11.30833,129
11.31667,119
11.32500,110
11.33333,102
11.34167,96
11.35000,90
11.35833,84
11.36667,80
11.37500,75
11.38333,72
11.39167,68
11.40000,65
11.40833,62
11.41667,59
11.42500,56
11.43333,53
11.44167,51
11.45000,48
11.45833,46
11.46667,44
11.47500,41
11.48333,39
11.49167,36
11.50000,34
11.50833,32
11.51667,30
11.52500,28
11.53333,26
11.54167,24
11.55000,22
11.55833,20
11.56667,19
11.57500,17
11.58333,16
11.59167,14
11.60000,13
11.60833,12
11.61667,10
11.62500,9
11.63333,7
11.64167,6
11.65000,5
11.65833,4
11.66667,3
11.67500,2
11.68333,1
11.69167,0
11.70000,-0
11.70833,-1
11.71667,-1
11.72500,-2
11.73333,-2
11.74167,-2
11.75000,-3
11.75833,-3
11.76667,-4
11.77500,-5
11.78333,-5
11.79167,-5
11.80000,-5
11.80833,-6
11.81667,-6
11.82500,-6
11.83333,-6
11.84167,-6
11.85000,-6
11.85833,-6
11.86667,-7
11.87500,-8
11.88333,-8
11.89167,-9
11.90000,-9
11.90833,-9
11.91667,-9
11.92500,-9
11.93333,-9
11.94167,-9
11.95000,-9
11.95833,-9
11.96667,-9
11.97500,-9
11.98333,-9
11.99167,-9
12.00000,-10
12.00833,-10
12.01667,-10
12.02500,-10
12.03333,-11
12.04167,-11
12.05000,-11
12.05833,-11
12.06667,-11
12.07500,-11
12.08333,-12
12.09167,-12
12.10000,-12
12.10833,-12
12.11667,-13
12.12500,-13
12.13333,-13
12.14167,-14
12.15000,-14
12.15833,-14
12.16667,-14
12.17500,-15
12.18333,-15
12.19167,-15
12.20000,-15
12.20833,-15
12.21667,-16
12.22500,-16
12.23333,-16
12.24167,-16
12.25000,-16
12.25833,-16
12.26667,-16
12.27500,-17
12.28333,-17
12.29167,-17
12.30000,-17
12.30833,-17
12.31667,-18
12.32500,-18
12.33333,-18
12.34167,-18
12.35000,-18
12.35833,-18
12.36667,-18
12.37500,-18
12.38333,-18
12.39167,-17
12.40000,-17
12.40833,-17
12.41667,-17
12.42500,-17
12.43333,-17
12.44167,-17
12.45000,-16
12.45833,-16
12.46667,-16
12.47500,-15
12.48333,-15
12.49167,-14
12.50000,-15
12.50833,-15
12.51667,-15
12.52500,-14
12.53333,-14
12.54167,-14
12.55000,-13
12.55833,-12
12.56667,-12
12.57500,-10
12.58333,-9
12.59167,-7
12.60000,-4
12.60833,-1
12.61667,2
12.62500,7
12.63333,12
12.64167,18
12.65000,26
12.65833,36
12.66667,48
12.67500,62
12.68333,79
12.69167,98
12.70000,121
12.70833,147
12.71667,177
12.72500,213
12.73333,252
12.74167,297
12.75000,348
12.75833,404
12.76667,467
12.77500,535
12.78333,610
12.79167,691
12.80000,779
12.80833,874
12.81667,976
12.82500,1084
12.83333,1199
12.84167,1321
12.85000,1450
12.85833,1586
12.86667,1728
12.87500,1876
12.88333,2031
12.89167,2192
12.90000,2358
12.90833,2530
12.91667,2708
12.92500,2891
12.93333,3079
12.94167,3272
12.95000,3470
12.95833,3672
12.96667,3880
12.97500,4091
12.98333,4306
12.99167,4526
13.00000,4749
13.00833,4976
13.01667,5207
13.02500,5441
13.03333,5679
13.04167,5920
13.05000,6164
13.05833,6411
13.06667,6662
13.07500,6915
13.08333,7172
13.09167,7431
13.10000,7692
13.10833,7957
13.11667,8224
13.12500,8494
13.13333,8767
13.14167,9042
13.15000,9319
13.15833,9600
13.16667,9883
13.17500,10168
13.18333,10456
13.19167,10747
13.20000,11039
13.20833,11334
13.21667,11631
13.22500,11930
13.23333,12232
13.24167,12537
13.25000,12843
13.25833,13152
13.26667,13463
13.27500,13777
13.28333,14093
13.29167,14411
13.30000,14732
13.30833,15055
13.31667,15381
13.32500,15709
13.33333,16039
13.34167,16372
13.35000,16707
13.35833,17045
13.36667,17385
13.37500,17727
13.38333,18072
13.39167,18419
13.40000,18769
13.40833,19121
13.41667,19476
13.42500,19834
13.43333,20194
13.44167,20556
13.45000,20921
13.45833,21288
13.46667,21658
13.47500,22031
13.48333,22406
13.49167,22784
13.50000,23165
13.50833,23548
13.51667,23934
13.52500,24322
13.53333,24713
13.54167,25107
13.55000,25504
13.55833,25904
13.56667,26306
13.57500,26712
13.58333,27120
13.59167,27531
13.60000,27945
13.60833,28362
13.61667,28782
13.62500,29204
13.63333,29630
13.64167,30059
13.65000,30491
13.65833,30926
13.66667,31364
13.67500,31805
13.68333,32249
13.69167,32696
13.70000,33147
13.70833,33600
13.71667,34057
13.72500,34518
13.73333,34981
13.74167,35447
13.75000,35917
13.75833,36390
13.76667,36866
13.77500,37345
13.78333,37828
13.79167,38315
13.80000,38804
13.80833,39297
13.81667,39792
13.82500,40290
13.83333,40792
13.84167,41295
13.85000,41797
13.85833,42297
13.86667,42789
13.87500,43268
13.88333,43723
13.89167,44142
13.90000,44507
13.90833,44799
13.91667,44993
13.92500,45063
13.93333,44982
13.94167,44724
13.95000,44265
13.95833,43586
13.96667,42677
13.97500,41532
13.98333,40158
13.99167,38569
14.00000,36788
14.00833,34845
14.01667,32777
14.02500,30623
14.03333,28426
14.04167,26227
14.05000,24065
14.05833,21973
14.06667,19983
14.07500,18117
14.08333,16392
14.09167,14822
14.10000,13412
14.10833,12164
14.11667,11077
14.12500,10144
14.13333,9359
14.14167,8712
14.15000,8193
14.15833,7791
14.16667,7495
14.17500,7293
14.18333,7174
14.19167,7127
14.20000,7142
14.20833,7208
14.21667,7316
14.22500,7456
14.23333,7619
14.24167,7798
14.25000,7983
14.25833,8167
14.26667,8345
14.27500,8510
14.28333,8658
14.29167,8783
14.30000,8882
14.30833,8952
14.31667,8990
14.32500,8996
14.33333,8968
14.34167,8907
14.35000,8813
14.35833,8687
14.36667,8531
14.37500,8347
14.38333,8137
14.39167,7905
14.40000,7652
14.40833,7382
14.41667,7098
14.42500,6804
14.43333,6501
14.44167,6193
14.45000,5884
14.45833,5574
14.46667,5267
14.47500,4964
14.48333,4668
14.49167,4379
14.50000,4100
14.50833,3832
14.51667,3574
14.52500,3329
14.53333,3095
14.54167,2875
14.55000,2667
14.55833,2472
14.56667,2289
14.57500,2118
14.58333,1959
14.59167,1812
14.60000,1676
14.60833,1550
14.61667,1433
14.62500,1326
14.63333,1228
14.64167,1137
14.65000,1055
14.65833,980
14.66667,911
14.67500,848
14.68333,791
14.69167,738
14.70000,691
14.70833,648
14.71667,609
14.72500,573
14.73333,541
14.74167,511
14.75000,484
14.75833,460
14.76667,438
14.77500,418
14.78333,399
14.79167,382
14.80000,367
14.80833,354
14.81667,341
14.82500,330
14.83333,319
14.84167,310
14.85000,302
14.85833,295
14.86667,288
14.87500,282
14.88333,277
14.89167,272
14.90000,268
14.90833,264
14.91667,261
14.92500,259
14.93333,257
14.94167,255
14.95000,254
14.95833,254
14.96667,254
14.97500,254
14.98333,255
14.99167,256
15.00000,258
15.00833,260
15.01667,263
15.02500,265
15.03333,268
15.04167,272
15.05000,276
15.05833,280
15.06667,284
15.07500,289
15.08333,294
15.09167,299
15.10000,305
15.10833,311
15.11667,318
15.12500,326
15.13333,335
15.14167,346
15.15000,358
15.15833,372
15.16667,388
15.17500,407
15.18333,429
15.19167,456
15.20000,488
15.20833,527
15.21667,572
15.22500,626
15.23333,691
15.24167,767
15.25000,858
15.25833,964
15.26667,1088
15.27500,1233
15.28333,1401
15.29167,1595
15.30000,1818
15.30833,2074
15.31667,2364
15.32500,2693
15.33333,3064
15.34167,3480
15.35000,3943
15.35833,4458
15.36667,5026
15.37500,5650
15.38333,6333
15.39167,7076
15.40000,7880
15.40833,8745
15.41667,9672
15.42500,10659
15.43333,11706
15.44167,12810
15.45000,13968
15.45833,15176
15.46667,16430
15.47500,17724
15.48333,19052
15.49167,20407
15.50000,21782
15.50833,23169
15.51667,24558
15.52500,25943
15.53333,27312
15.54167,28657
15.55000,29969
15.55833,31238
15.56667,32456
15.57500,33613
15.58333,34701
15.59167,35712
15.60000,36640
15.60833,37477
15.61667,38219
15.62500,38860
15.63333,39398
15.64167,39828
15.65000,40148
15.65833,40359
15.66667,40459
15.67500,40450
15.68333,40333
15.69167,40112
15.70000,39789
15.70833,39368
15.71667,38855
15.72500,38255
15.73333,37574
15.74167,36817
15.75000,35991
15.75833,35103
15.76667,34160
15.77500,33168
15.78333,32136
15.79167,31069
15.80000,29975
15.80833,28860
15.81667,27730
15.82500,26592
15.83333,25452
15.84167,24314
15.85000,23185
15.85833,22068
15.86667,20968
15.87500,19888
15.88333,18833
15.89167,17804
15.90000,16805
15.90833,15838
15.91667,14904
15.92500,14005
15.93333,13142
15.94167,12316
15.95000,11527
15.95833,10776
15.96667,10062
15.97500,9385
15.98333,8744
15.99167,8139
16.00000,7569
16.00833,7033
16.01667,6529
16.02500,6058
16.03333,5617
16.04167,5206
16.05000,4822
16.05833,4466
16.06667,4134
16.07500,3827
16.08333,3542
16.09167,3277
16.10000,3033
16.10833,2808
16.11667,2600
16.12500,2409
16.13333,2232
16.14167,2070
16.15000,1920
16.15833,1783
16.16667,1657
16.17500,1542
16.18333,1436
16.19167,1339
16.20000,1250
16.20833,1168
16.21667,1093
16.22500,1025
16.23333,962
16.24167,904
16.25000,852
16.25833,803
16.26667,759
16.27500,718
16.28333,681
16.29167,647
16.30000,615
16.30833,586
16.31667,560
16.32500,535
16.33333,512
16.34167,491
16.35000,472
16.35833,454
16.36667,437
16.37500,422
16.38333,408
16.39167,394
16.40000,381
16.40833,369
16.41667,358
16.42500,348
16.43333,339
16.44167,330
16.45000,322
16.45833,315
16.46667,307
16.47500,301
16.48333,294
16.49167,288
16.50000,283
16.50833,278
16.51667,273
16.52500,268
16.53333,263
16.54167,259
16.55000,255
16.55833,251
16.56667,247
16.57500,243
16.58333,240
16.59167,237
16.60000,234
16.60833,232
16.61667,229
16.62500,226
16.63333,224
16.64167,221
16.65000,219
16.65833,217
16.66667,215
16.67500,213
16.68333,210
16.69167,208
16.70000,206
16.70833,205
16.71667,203
16.72500,201
16.73333,200
16.74167,198
16.75000,197
16.75833,195
16.76667,194
16.77500,192
16.78333,190
16.79167,188
16.80000,187
16.80833,185
16.81667,184
16.82500,182
16.83333,181
16.84167,179
16.85000,177
16.85833,176
16.86667,174
16.87500,172
16.88333,171
16.89167,169
16.90000,167
16.90833,166
16.91667,165
16.92500,163
16.93333,162
16.94167,160
16.95000,159
16.95833,157
16.96667,155
16.97500,153
16.98333,152
16.99167,150
17.00000,149
17.00833,148
17.01667,146
17.02500,145
17.03333,144
17.04167,142
17.05000,141
17.05833,140
17.06667,139
17.07500,138
17.08333,136
17.09167,135
17.10000,134
17.10833,133
17.11667,132
17.12500,131
17.13333,130
17.14167,129
17.15000,127
17.15833,126
17.16667,125
17.17500,124
17.18333,123
17.19167,123
17.20000,122
17.20833,121
17.21667,120
17.22500,119
17.23333,119
17.24167,118
17.25000,117
17.25833,117
17.26667,117
17.27500,116
17.28333,116
17.29167,115
17.30000,115
17.30833,114
17.31667,114
17.32500,114
17.33333,113
17.34167,112
17.35000,112
17.35833,111
17.36667,110
17.37500,109
17.38333,109
17.39167,108
17.40000,108
17.40833,108
17.41667,107
17.42500,106
17.43333,106
17.44167,105
17.45000,105
17.45833,104
17.46667,104
17.47500,103
17.48333,103
17.49167,103
17.50000,102
17.50833,102
17.51667,101
17.52500,100
17.53333,100
17.54167,100
17.55000,100
17.55833,100
17.56667,100
17.57500,100
17.58333,100
17.59167,100
17.60000,99
17.60833,99
17.61667,98
17.62500,98
17.63333,98
17.64167,98
17.65000,97
17.65833,97
17.66667,97
17.67500,97
17.68333,97
17.69167,97
17.70000,97
17.70833,97
17.71667,96
17.72500,96
17.73333,95
17.74167,94
17.75000,94
17.75833,94
17.76667,93
17.77500,93
17.78333,93
17.79167,93
17.80000,92
17.80833,92
17.81667,92
17.82500,92
17.83333,91
17.84167,90
17.85000,90
17.85833,90
17.86667,89
17.87500,88
17.88333,88
17.89167,87
17.90000,86
17.90833,86
17.91667,85
17.92500,84
17.93333,83
17.94167,83
17.95000,82
17.95833,81
17.96667,81
17.97500,81
17.98333,80
17.99167,80
18.00000,79
18.00833,79
18.01667,78
18.02500,77
18.03333,77
18.04167,76
18.05000,76
18.05833,75
18.06667,74
18.07500,74
18.08333,73
18.09167,72
18.10000,71
18.10833,71
18.11667,70
18.12500,70
18.13333,70
18.14167,69
18.15000,69
18.15833,68
18.16667,68
18.17500,67
18.18333,67
18.19167,67
18.20000,66
18.20833,66
18.21667,66
18.22500,66
18.23333,65
18.24167,65
18.25000,64
18.25833,64
18.26667,64
18.27500,64
18.28333,63
18.29167,63
18.30000,62
18.30833,62
18.31667,61
18.32500,61
18.33333,61
18.34167,60
18.35000,61
18.35833,60
18.36667,60
18.37500,60
18.38333,60
18.39167,59
18.40000,59
18.40833,59
18.41667,59
18.42500,59
18.43333,59
18.44167,58
18.45000,57
18.45833,57
18.46667,57
18.47500,57
18.48333,57
18.49167,56
18.50000,56
18.50833,56
18.51667,56
18.52500,56
18.53333,55
18.54167,55
18.55000,55
18.55833,54
18.56667,54
18.57500,54
18.58333,54
18.59167,54
18.60000,53
18.60833,53
18.61667,52
18.62500,52
18.63333,52
18.64167,52
18.65000,52
18.65833,52
18.66667,52
18.67500,52
18.68333,52
18.69167,53
18.70000,53
18.70833,53
18.71667,54
18.72500,55
18.73333,55
18.74167,56
18.75000,57
18.75833,58
18.76667,59
18.77500,61
18.78333,63
18.79167,65
18.80000,67
18.80833,68
18.81667,71
18.82500,73
18.83333,76
18.84167,79
18.85000,81
18.85833,84
18.86667,87
18.87500,91
18.88333,94
18.89167,97
18.90000,100
18.90833,103
18.91667,106
18.92500,110
18.93333,113
18.94167,117
18.95000,120
18.95833,123
18.96667,125
18.97500,128
18.98333,131
18.99167,133
19.00000,135
19.00833,137
19.01667,139
19.02500,140
19.03333,141
19.04167,143
19.05000,144
19.05833,144
19.06667,145
19.07500,145
19.08333,144
19.09167,144
19.10000,143
19.10833,141
19.11667,139
19.12500,138
19.13333,135
19.14167,133
19.15000,130
19.15833,127
19.16667,124
19.17500,121
19.18333,118
19.19167,115
19.20000,111
19.20833,108
19.21667,104
19.22500,101
19.23333,97
19.24167,93
19.25000,90
19.25833,86
19.26667,82
19.27500,78
19.28333,75
19.29167,72
19.30000,68
19.30833,65
19.31667,61
19.32500,58
19.33333,56
19.34167,53
19.35000,50
19.35833,47
19.36667,45
19.37500,42
19.38333,40
19.39167,38
19.40000,36
19.40833,34
19.41667,33
19.42500,31
19.43333,30
19.44167,28
19.45000,27
19.45833,25
19.46667,24
19.47500,23
19.48333,22
19.49167,21
19.50000,20
19.50833,19
19.51667,19
19.52500,18
19.53333,17
19.54167,17
19.55000,16
19.55833,16
19.56667,15
19.57500,15
19.58333,15
19.59167,15
19.60000,14
19.60833,14
19.61667,14
19.62500,13
19.63333,13
19.64167,13
19.65000,13
19.65833,13
19.66667,13
19.67500,13
19.68333,13
19.69167,13
19.70000,13
19.70833,14
19.71667,14
19.72500,14
19.73333,14
19.74167,14
19.75000,13
19.75833,13
19.76667,14
19.77500,14
19.78333,15
19.79167,15
19.80000,15
19.80833,16
19.81667,16
19.82500,16
19.83333,16
19.84167,16
19.85000,17
19.85833,17
19.86667,17
19.87500,17
19.88333,17
19.89167,17
19.90000,17
19.90833,18
19.91667,18
19.92500,18
19.93333,18
19.94167,19
19.95000,18
19.95833,18
19.96667,19
19.97500,19
19.98333,19
19.99167,19
20.00000,19
20.00833,19
20.01667,19
20.02500,19
20.03333,19
20.04167,19
20.05000,19
20.05833,19
20.06667,19
20.07500,19
20.08333,20
20.09167,20
20.10000,20
20.10833,19
20.11667,19
20.12500,19
20.13333,19
20.14167,19
20.15000,19
20.15833,19
20.16667,20
20.17500,20
20.18333,20
20.19167,20
20.20000,20
20.20833,20
20.21667,20
20.22500,20
20.23333,20
20.24167,20
20.25000,20
20.25833,20
20.26667,21
20.27500,21
20.28333,21
20.29167,20
20.30000,20
20.30833,20
20.31667,20
20.32500,20
20.33333,20
20.34167,21
20.35000,21
20.35833,21
20.36667,21
20.37500,21
20.38333,21
20.39167,21
20.40000,21
20.40833,21
20.41667,21
20.42500,21
20.43333,21
20.44167,21
20.45000,20
20.45833,20
20.46667,20
20.47500,20
20.48333,19
20.49167,19
20.50000,19
20.50833,18
20.51667,18
20.52500,18
20.53333,18
20.54167,18
20.55000,18
20.55833,18
20.56667,17
20.57500,17
20.58333,17
20.59167,16
20.60000,16
20.60833,16
20.61667,15
20.62500,15
20.63333,14
20.64167,14
20.65000,13
20.65833,13
20.66667,13
20.67500,13
20.68333,12
20.69167,12
20.70000,12
20.70833,11
20.71667,10
20.72500,10
20.73333,9
20.74167,9
20.75000,8
20.75833,8
20.76667,7
20.77500,6
20.78333,6
20.79167,5
20.80000,5
20.80833,4
20.81667,4
20.82500,4
20.83333,3
20.84167,3
20.85000,3
20.85833,3
20.86667,3
20.87500,2
20.88333,2
20.89167,2
20.90000,1
20.90833,1
20.91667,1
20.92500,0
20.93333,-0
20.94167,-0
20.95000,-0
20.95833,-1
20.96667,-1
20.97500,-1
20.98333,-2
20.99167,-2
21.00000,-2
21.00833,-2
21.01667,-2
21.02500,-2
21.03333,-2
21.04167,-2
21.05000,-2
21.05833,-2
21.06667,-1
21.07500,-1
21.08333,-1
21.09167,-1
21.10000,-1
21.10833,-1
21.11667,-1
21.12500,-1
21.13333,-1
21.14167,-0
21.15000,-0
21.15833,0
21.16667,0
21.17500,1
21.18333,1
21.19167,1
21.20000,1
21.20833,2
21.21667,2
21.22500,2
21.23333,3
21.24167,3
21.25000,3
21.25833,3
21.26667,3
21.27500,3
21.28333,3
21.29167,4
21.30000,4
21.30833,4
21.31667,4
21.32500,5
21.33333,5
21.34167,6
21.35000,6
21.35833,6
21.36667,6
21.37500,6
21.38333,6
21.39167,6
21.40000,6
21.40833,7
21.41667,7
21.42500,7
21.43333,7
21.44167,7
21.45000,8
21.45833,8
21.46667,8
21.47500,8
21.48333,8
21.49167,8
21.50000,8
21.50833,7
21.51667,7
21.52500,8
21.53333,8
21.54167,9
21.55000,9
21.55833,9
21.56667,9
21.57500,9
21.58333,9
21.59167,9
21.60000,10
21.60833,10
21.61667,10
21.62500,11
21.63333,11
21.64167,11
21.65000,11
21.65833,12
21.66667,12
21.67500,12
21.68333,12
21.69167,12
21.70000,12
21.70833,12
21.71667,12
21.72500,12
21.73333,13
21.74167,14
21.75000,14
21.75833,14
21.76667,15
21.77500,15
21.78333,15
21.79167,15
21.80000,16
21.80833,16
21.81667,16
21.82500,17
21.83333,17
21.84167,18
21.85000,18
21.85833,19
21.86667,19
21.87500,19
21.88333,20
21.89167,20
21.90000,20
21.90833,21
21.91667,21
21.92500,21
21.93333,21
21.94167,22
21.95000,22
21.95833,21
21.96667,21
21.97500,22
21.98333,22
21.99167,22
22.00000,22
22.00833,22
22.01667,22
22.02500,23
22.03333,23
22.04167,23
22.05000,22
22.05833,22
22.06667,22
22.07500,22
22.08333,22
22.09167,22
22.10000,21
22.10833,21
22.11667,20
22.12500,20
22.13333,20
22.14167,20
22.15000,20
22.15833,20
22.16667,19
22.17500,19
22.18333,19
22.19167,19
22.20000,18
22.20833,18
22.21667,18
22.22500,17
22.23333,17
22.24167,16
22.25000,16
22.25833,16
22.26667,15
22.27500,15
22.28333,14
22.29167,14
22.30000,13
22.30833,12
22.31667,12
22.32500,12
22.33333,12
22.34167,12
22.35000,11
22.35833,11
22.36667,11
22.37500,11
22.38333,10
22.39167,10
22.40000,10
22.40833,10
22.41667,10
22.42500,10
22.43333,9
22.44167,9
22.45000,9
22.45833,9
22.46667,9
22.47500,8
22.48333,8
22.49167,8
22.50000,7
22.50833,7
22.51667,7
22.52500,8
22.53333,7
22.54167,7
22.55000,8
22.55833,8
22.56667,9
22.57500,9
22.58333,9
22.59167,9
22.60000,9
22.60833,9
22.61667,9
22.62500,10
22.63333,10
22.64167,10
22.65000,10
22.65833,10
22.66667,11
22.67500,11
22.68333,11
22.69167,12
22.70000,12
22.70833,12
22.71667,13
22.72500,13
22.73333,13
22.74167,14
22.75000,14
22.75833,14
22.76667,14
22.77500,15
22.78333,15
22.79167,15
22.80000,16
22.80833,16
22.81667,16
22.82500,17
22.83333,17
22.84167,18
22.85000,18
22.85833,18
22.86667,18
22.87500,19
22.88333,19
22.89167,19
22.90000,19
22.90833,19
22.91667,20
22.92500,20
22.93333,20
22.94167,20
22.95000,19
22.95833,19
22.96667,19
22.97500,18
22.98333,18
22.99167,18
23.00000,17
23.00833,16
23.01667,16
23.02500,16
23.03333,16
23.04167,16
23.05000,15
23.05833,14
23.06667,14
23.07500,13
23.08333,13
23.09167,13
23.10000,13
23.10833,12
23.11667,11
23.12500,11
23.13333,11
23.14167,10
23.15000,10
23.15833,10
23.16667,10
23.17500,9
23.18333,8
23.19167,8
23.20000,7
23.20833,7
23.21667,7
23.22500,7
23.23333,7
23.24167,7
23.25000,7
23.25833,6
23.26667,6
23.27500,6
23.28333,6
23.29167,6
23.30000,6
23.30833,6
23.31667,6
23.32500,6
23.33333,6
23.34167,6
23.35000,6
23.35833,6
23.36667,5
23.37500,5
23.38333,5
23.39167,5
23.40000,5
23.40833,4
23.41667,4
23.42500,4
23.43333,4
23.44167,3
23.45000,3
23.45833,3
23.46667,3
23.47500,3
23.48333,3
23.49167,3
23.50000,2
23.50833,2
23.51667,2
23.52500,2
23.53333,2
23.54167,2
23.55000,1
23.55833,2
23.56667,1
23.57500,1
23.58333,1
23.59167,1
23.60000,1
23.60833,0
23.61667,0
23.62500,0
23.63333,0
23.64167,-0
23.65000,-0
23.65833,-1
23.66667,-1
23.67500,-1
23.68333,-1
23.69167,-2
23.70000,-2
23.70833,-2
23.71667,-3
23.72500,-3
23.73333,-3
23.74167,-4
23.75000,-4
23.75833,-5
23.76667,-5
23.77500,-5
23.78333,-5
23.79167,-5
23.80000,-5
23.80833,-6
23.81667,-6
23.82500,-6
23.83333,-6
23.84167,-7
23.85000,-8
23.85833,-8
23.86667,-9
23.87500,-9
23.88333,-9
23.89167,-9
23.90000,-9
23.90833,-9
23.91667,-9
23.92500,-9
23.93333,-10
23.94167,-10
23.95000,-10
23.95833,-10
23.96667,-10
23.97500,-9
23.98333,-9
23.99167,-9
24.00000,-9
24.00833,-9
24.01667,-9
24.02500,-9
24.03333,-8
24.04167,-8
24.05000,-8
24.05833,-8
24.06667,-8
24.07500,-8
24.08333,-8
24.09167,-8
24.10000,-8
24.10833,-8
24.11667,-8
24.12500,-7
24.13333,-7
24.14167,-7
24.15000,-7
24.15833,-7
24.16667,-7
24.17500,-6
24.18333,-7
24.19167,-7
24.20000,-7
24.20833,-7
24.21667,-6
24.22500,-6
24.23333,-5
24.24167,-6
24.25000,-6
24.25833,-6
24.26667,-6
24.27500,-6
24.28333,-6
24.29167,-6
24.30000,-6
24.30833,-6
24.31667,-6
24.32500,-6
24.33333,-7
24.34167,-7
24.35000,-7
24.35833,-7
24.36667,-8
24.37500,-7
24.38333,-7
24.39167,-7
24.40000,-7
24.40833,-7
24.41667,-7
24.42500,-7
24.43333,-7
24.44167,-7
24.45000,-6
24.45833,-6
24.46667,-6
24.47500,-6
24.48333,-6
24.49167,-5
24.50000,-5
24.50833,-4
24.51667,-3
24.52500,-3
24.53333,-2
24.54167,-1
24.55000,-0
24.55833,1
24.56667,2
24.57500,3
24.58333,4
24.59167,5
24.60000,7
24.60833,9
24.61667,11
24.62500,13
24.63333,14
24.64167,16
24.65000,18
24.65833,21
24.66667,23
24.67500,26
24.68333,28
24.69167,31
24.70000,35
24.70833,38
24.71667,42
24.72500,46
24.73333,50
24.74167,53
24.75000,57
24.75833,61
24.76667,65
24.77500,69
24.78333,73
24.79167,78
24.80000,83
24.80833,87
24.81667,92
24.82500,96
24.83333,101
24.84167,105
24.85000,110
24.85833,114
24.86667,118
24.87500,123
24.88333,127
24.89167,131
24.90000,135
24.90833,138
24.91667,142
24.92500,146
24.93333,150
24.94167,153
24.95000,156
24.95833,158
24.96667,160
24.97500,162
24.98333,163
24.99167,164
25.00000,165
25.00833,166
25.01667,166
25.02500,167
25.03333,167
25.04167,166
25.05000,166
25.05833,165
25.06667,164
25.07500,162
25.08333,161
25.09167,158
25.10000,156
25.10833,153
25.11667,151
25.12500,148
25.13333,146
25.14167,142
25.15000,139
25.15833,135
25.16667,132
25.17500,128
25.18333,124
25.19167,120
25.20000,116
25.20833,113
25.21667,109
25.22500,105
25.23333,101
25.24167,97
25.25000,93
25.25833,89
25.26667,85
25.27500,82
25.28333,78
25.29167,75
25.30000,71
25.30833,68
25.31667,64
25.32500,61
25.33333,57
25.34167,54
25.35000,51
25.35833,48
25.36667,46
25.37500,43
25.38333,40
25.39167,38
25.40000,36
25.40833,33
25.41667,31
25.42500,29
25.43333,27
25.44167,25
25.45000,23
25.45833,22
25.46667,21
25.47500,19
25.48333,18
25.49167,17
25.50000,16
25.50833,14
25.51667,13
25.52500,11
25.53333,10
25.54167,9
25.55000,8
25.55833,7
25.56667,7
25.57500,7
25.58333,6
25.59167,6
25.60000,5
25.60833,4
25.61667,4
25.62500,3
25.63333,3
25.64167,2
25.65000,2
25.65833,2
25.66667,1
25.67500,1
25.68333,-0
25.69167,-1
25.70000,-1
25.70833,-1
25.71667,-2
25.72500,-2
25.73333,-2
25.74167,-2
25.75000,-3
25.75833,-3
25.76667,-4
25.77500,-4
25.78333,-5
25.79167,-5
25.80000,-5
25.80833,-5
25.81667,-5
25.82500,-5
25.83333,-6
25.84167,-6
25.85000,-6
25.85833,-6
25.86667,-7
25.87500,-7
25.88333,-7
25.89167,-7
25.90000,-7
25.90833,-8
25.91667,-8
25.92500,-8
25.93333,-9
25.94167,-9
25.95000,-10
25.95833,-10
25.96667,-10
25.97500,-10
25.98333,-10
25.99167,-10
26.00000,-10
26.00833,-11
26.01667,-11
26.02500,-11
26.03333,-11
26.04167,-11
26.05000,-12
26.05833,-12
26.06667,-12
26.07500,-12
26.08333,-12
26.09167,-12
26.10000,-12
26.10833,-12
26.11667,-12
26.12500,-12
26.13333,-12
26.14167,-12
26.15000,-11
26.15833,-11
26.16667,-10
26.17500,-10
26.18333,-10
26.19167,-9
26.20000,-9
26.20833,-9
26.21667,-10
26.22500,-10
26.23333,-10
26.24167,-10
26.25000,-10
26.25833,-10
26.26667,-9
26.27500,-9
26.28333,-9
26.29167,-8
26.30000,-8
26.30833,-7
26.31667,-7
26.32500,-6
26.33333,-5
26.34167,-5
26.35000,-4
26.35833,-4
26.36667,-4
26.37500,-4
26.38333,-4
26.39167,-3
26.40000,-3
26.40833,-2
26.41667,-1
26.42500,-1
26.43333,-1
26.44167,-0
26.45000,-0
26.45833,0
26.46667,1
26.47500,1
26.48333,2
26.49167,2
26.50000,2
26.50833,2
26.51667,3
26.52500,3
26.53333,4
26.54167,4
26.55000,5
26.55833,5
26.56667,6
26.57500,7
26.58333,7
26.59167,7
26.60000,8
26.60833,9
26.61667,9
26.62500,9
26.63333,10
26.64167,10
26.65000,9
26.65833,9
26.66667,9
26.67500,9
26.68333,9
26.69167,9
26.70000,9
26.70833,9
26.71667,9
26.72500,8
26.73333,8
26.74167,8
26.75000,8
26.75833,8
26.76667,9
26.77500,9
26.78333,8
26.79167,8
26.80000,8
26.80833,7
26.81667,7
26.82500,6
26.83333,6
26.84167,6
26.85000,5
26.85833,5
26.86667,4
26.87500,4
26.88333,4
26.89167,4
26.90000,4
26.90833,4
26.91667,3
26.92500,3
26.93333,3
26.94167,3
26.95000,2
26.95833,2
26.96667,2
26.97500,2
26.98333,1
26.99167,1
27.00000,0
27.00833,-0
27.01667,-1
27.02500,-1
27.03333,-2
27.04167,-2
27.05000,-2
27.05833,-2
27.06667,-2
27.07500,-2
27.08333,-2
27.09167,-2
27.10000,-2
27.10833,-3
27.11667,-3
27.12500,-4
27.13333,-4
27.14167,-4
27.15000,-4
27.15833,-4
27.16667,-4
27.17500,-4
27.18333,-4
27.19167,-4
27.20000,-4
27.20833,-4
27.21667,-4
27.22500,-4
27.23333,-4
27.24167,-4
27.25000,-4
27.25833,-4
27.26667,-4
27.27500,-4
27.28333,-4
27.29167,-4
27.30000,-4
27.30833,-3
27.31667,-3
27.32500,-3
27.33333,-3
27.34167,-3
27.35000,-3
27.35833,-3
27.36667,-3
27.37500,-3
27.38333,-3
27.39167,-3
27.40000,-3
27.40833,-3
27.41667,-3
27.42500,-3
27.43333,-3
27.44167,-3
27.45000,-3
27.45833,-3
27.46667,-3
27.47500,-3
27.48333,-3
27.49167,-3
27.50000,-4
27.50833,-4
27.51667,-5
27.52500,-5
27.53333,-5
27.54167,-5
27.55000,-5
27.55833,-5
27.56667,-5
27.57500,-5
27.58333,-6
27.59167,-6
27.60000,-6
27.60833,-6
27.61667,-6
27.62500,-6
27.63333,-6
27.64167,-6
27.65000,-6
27.65833,-7
27.66667,-7
27.67500,-7
27.68333,-8
27.69167,-8
27.70000,-8
27.70833,-9
27.71667,-9
27.72500,-9
27.73333,-10
27.74167,-10
27.75000,-10
27.75833,-11
27.76667,-11
27.77500,-12
27.78333,-13
27.79167,-14
27.80000,-15
27.80833,-16
27.81667,-17
27.82500,-18
27.83333,-19
27.84167,-20
27.85000,-21
27.85833,-23
27.86667,-24
27.87500,-25
27.88333,-26
27.89167,-28
27.90000,-30
27.90833,-32
27.91667,-33
27.92500,-35
27.93333,-37
27.94167,-39
27.95000,-41
27.95833,-43
27.96667,-46
27.97500,-49
27.98333,-51
27.99167,-54
28.00000,-57
28.00833,-60
28.01667,-63
28.02500,-67
28.03333,-70
28.04167,-73
28.05000,-76
28.05833,-80
28.06667,-83
28.07500,-86
28.08333,-90
28.09167,-93
28.10000,-96
28.10833,-100
28.11667,-103
28.12500,-107
28.13333,-110
28.14167,-113
28.15000,-117
28.15833,-120
28.16667,-124
28.17500,-127
28.18333,-130
28.19167,-134
28.20000,-137
28.20833,-140
28.21667,-143
28.22500,-146
28.23333,-149
28.24167,-151
28.25000,-154
28.25833,-155
28.26667,-157
28.27500,-159
28.28333,-161
28.29167,-162
28.30000,-164
28.30833,-165
28.31667,-166
28.32500,-167
28.33333,-168
28.34167,-169
28.35000,-169
28.35833,-170
28.36667,-170
28.37500,-170
28.38333,-169
28.39167,-168
28.40000,-168
28.40833,-167
28.41667,-165
28.42500,-164
28.43333,-162
28.44167,-161
28.45000,-159
28.45833,-157
28.46667,-154
28.47500,-152
28.48333,-149
28.49167,-147
28.50000,-144
28.50833,-141
28.51667,-138
28.52500,-135
28.53333,-133
28.54167,-130
28.55000,-127
28.55833,-123
28.56667,-120
28.57500,-117
28.58333,-114
28.59167,-111
28.60000,-107
28.60833,-104
28.61667,-101
28.62500,-98
28.63333,-95
28.64167,-92
28.65000,-89
28.65833,-86
28.66667,-83
28.67500,-80
28.68333,-77
28.69167,-74
28.70000,-71
28.70833,-69
28.71667,-67
28.72500,-64
28.73333,-63
28.74167,-61
28.75000,-58
28.75833,-55
28.76667,-53
28.77500,-51
28.78333,-49
28.79167,-47
28.80000,-45
28.80833,-44
28.81667,-42
28.82500,-41
28.83333,-40
28.84167,-39
28.85000,-37
28.85833,-36
28.86667,-35
28.87500,-34
28.88333,-33
28.89167,-33
28.90000,-32
28.90833,-31
28.91667,-30
28.92500,-30
28.93333,-30
28.94167,-29
28.95000,-29
28.95833,-28
28.96667,-28
28.97500,-28
28.98333,-28
28.99167,-27
29.00000,-27
29.00833,-27
29.01667,-27
29.02500,-27
29.03333,-26
29.04167,-26
29.05000,-26
29.05833,-26
29.06667,-26
29.07500,-26
29.08333,-26
29.09167,-26
29.10000,-25
29.10833,-24
29.11667,-24
29.12500,-24
29.13333,-24
29.14167,-24
29.15000,-24
29.15833,-24
29.16667,-23
29.17500,-23
29.18333,-23
29.19167,-23
29.20000,-22
29.20833,-22
29.21667,-22
29.22500,-21
29.23333,-21
29.24167,-20
29.25000,-20
29.25833,-20
29.26667,-20
29.27500,-20
29.28333,-20
29.29167,-19
29.30000,-19
29.30833,-18
29.31667,-18
29.32500,-17
29.33333,-17
29.34167,-17
29.35000,-17
29.35833,-17
29.36667,-17
29.37500,-16
29.38333,-16
29.39167,-15
29.40000,-15
29.40833,-15
29.41667,-14
29.42500,-15
29.43333,-15
29.44167,-15
29.45000,-15
29.45833,-15
29.46667,-15
29.47500,-15
29.48333,-15
29.49167,-14
29.50000,-14
29.50833,-14
29.51667,-14
29.52500,-14
29.53333,-14
29.54167,-15
29.55000,-15
29.55833,-15
29.56667,-16
29.57500,-17
29.58333,-17
29.59167,-18
29.60000,-18
29.60833,-19
29.61667,-19
29.62500,-20
29.63333,-21
29.64167,-22
29.65000,-23
29.65833,-24
29.66667,-25
29.67500,-26
29.68333,-28
29.69167,-29
29.70000,-30
29.70833,-31
29.71667,-31
29.72500,-32
29.73333,-33
29.74167,-34
29.75000,-35
29.75833,-37
29.76667,-38
29.77500,-39
29.78333,-41
29.79167,-43
29.80000,-44
29.80833,-45
29.81667,-46
29.82500,-47
29.83333,-48
29.84167,-49
29.85000,-51
29.85833,-52
29.86667,-53
29.87500,-54
29.88333,-55
29.89167,-56
29.90000,-57
29.90833,-58
29.91667,-59
29.92500,-61
29.93333,-62
29.94167,-62
29.95000,-63
29.95833,-64
29.96667,-65
29.97500,-66
29.98333,-66
29.99167,-67
30.00000,-68
30.00833,-69
30.01667,-70
30.02500,-70
30.03333,-71
30.04167,-72
30.05000,-72
30.05833,-72
30.06667,-73
30.07500,-73
30.08333,-74
30.09167,-74
30.10000,-74
30.10833,-74
30.11667,-74
30.12500,-75
30.13333,-75
30.14167,-75
30.15000,-75
30.15833,-74
30.16667,-73
30.17500,-73
30.18333,-73
30.19167,-72
30.20000,-72
30.20833,-72
30.21667,-72
30.22500,-71
30.23333,-70
30.24167,-70
30.25000,-70
30.25833,-69
30.26667,-68
30.27500,-68
30.28333,-67
30.29167,-67
30.30000,-67
30.30833,-66
30.31667,-66
30.32500,-65
30.33333,-64
30.34167,-64
30.35000,-63
30.35833,-63
30.36667,-62
30.37500,-62
30.38333,-61
30.39167,-61
30.40000,-60
30.40833,-59
30.41667,-59
30.42500,-58
30.43333,-57
30.44167,-56
30.45000,-55
30.45833,-54
30.46667,-53
30.47500,-53
30.48333,-52
30.49167,-51
30.50000,-51
30.50833,-50
30.51667,-50
30.52500,-49
30.53333,-48
30.54167,-47
30.55000,-46
30.55833,-45
30.56667,-45
30.57500,-44
30.58333,-44
30.59167,-43
30.60000,-42
30.60833,-41
30.61667,-40
30.62500,-39
30.63333,-39
30.64167,-38
30.65000,-37
30.65833,-36
30.66667,-35
30.67500,-34
30.68333,-34
30.69167,-33
30.70000,-33
30.70833,-33
30.71667,-32
30.72500,-32
30.73333,-32
30.74167,-31
30.75000,-31
30.75833,-31
30.76667,-30
30.77500,-30
30.78333,-30
30.79167,-30
30.80000,-30
30.80833,-30
30.81667,-29
30.82500,-29
30.83333,-29
30.84167,-29
30.85000,-30
30.85833,-30
30.86667,-30
30.87500,-30
30.88333,-31
30.89167,-31
30.90000,-31
30.90833,-31
30.91667,-32
30.92500,-32
30.93333,-32
30.94167,-32
30.95000,-33
30.95833,-33
30.96667,-33
30.97500,-33
30.98333,-33
30.99167,-33
31.00000,-32
31.00833,-32
31.01667,-32
31.02500,-33
31.03333,-33
31.04167,-33
31.05000,-33
31.05833,-33
31.06667,-33
31.07500,-33
31.08333,-33
31.09167,-33
31.10000,-33
31.10833,-33
31.11667,-33
31.12500,-32
31.13333,-32
31.14167,-32
31.15000,-31
31.15833,-30
31.16667,-30
31.17500,-29
31.18333,-28
31.19167,-28
31.20000,-27
31.20833,-28
31.21667,-28
31.22500,-27
31.23333,-27
31.24167,-26
31.25000,-25
31.25833,-24
31.26667,-24
31.27500,-23
31.28333,-23
31.29167,-22
31.30000,-21
31.30833,-20
31.31667,-20
31.32500,-19
31.33333,-18
31.34167,-18
31.35000,-17
31.35833,-17
31.36667,-16
31.37500,-16
31.38333,-15
31.39167,-15
31.40000,-15
31.40833,-14
31.41667,-14
31.42500,-13
31.43333,-12
31.44167,-11
31.45000,-10
31.45833,-10
31.46667,-9
31.47500,-9
31.48333,-8
31.49167,-8
31.50000,-8
31.50833,-8
31.51667,-7
31.52500,-7
31.53333,-6
31.54167,-5
31.55000,-5
31.55833,-5
31.56667,-4
31.57500,-4
31.58333,-4
31.59167,-3
31.60000,-3
31.60833,-3
31.61667,-3
31.62500,-3
31.63333,-3
31.64167,-2
31.65000,-2
31.65833,-1
31.66667,-1
31.67500,-1
31.68333,-1
31.69167,-1
31.70000,-1
31.70833,-1
31.71667,-1
31.72500,-1
31.73333,-1
31.74167,-1
31.75000,-1
31.75833,-1
31.76667,-1
31.77500,-1
31.78333,-1
31.79167,-1
31.80000,-1
31.80833,-2
31.81667,-2
31.82500,-2
31.83333,-2
31.84167,-2
31.85000,-2
31.85833,-3
31.86667,-3
31.87500,-4
31.88333,-4
31.89167,-4
31.90000,-4
31.90833,-5
31.91667,-5
31.92500,-5
31.93333,-5
31.94167,-6
31.95000,-6
31.95833,-6
31.96667,-6
31.97500,-7
31.98333,-7
31.99167,-7
32.00000,-7
32.00833,-8
32.01667,-8
32.02500,-8
32.03333,-8
32.04167,-9
32.05000,-9
32.05833,-9
32.06667,-9
32.07500,-9
32.08333,-10
32.09167,-10
32.10000,-10
32.10833,-11
32.11667,-11
32.12500,-11
32.13333,-11
32.14167,-11
32.15000,-12
32.15833,-12
32.16667,-12
32.17500,-13
32.18333,-14
32.19167,-14
32.20000,-15
32.20833,-15
32.21667,-16
32.22500,-16
32.23333,-17
32.24167,-17
32.25000,-17
32.25833,-18
32.26667,-19
32.27500,-19
32.28333,-20
32.29167,-20
32.30000,-20
32.30833,-20
32.31667,-21
32.32500,-21
32.33333,-22
32.34167,-22
32.35000,-23
32.35833,-23
32.36667,-24
32.37500,-24
32.38333,-24
32.39167,-24
32.40000,-24
32.40833,-24
32.41667,-24
32.42500,-24
32.43333,-25
32.44167,-25
32.45000,-25
32.45833,-25
32.46667,-25
32.47500,-25
32.48333,-25
32.49167,-25
32.50000,-25
32.50833,-25
32.51667,-25
32.52500,-25
32.53333,-24
32.54167,-24
32.55000,-24
32.55833,-23
32.56667,-23
32.57500,-23
32.58333,-22
32.59167,-22
32.60000,-22
32.60833,-22
32.61667,-22
32.62500,-21
32.63333,-21
32.64167,-20
32.65000,-19
32.65833,-18
32.66667,-18
32.67500,-17
32.68333,-17
32.69167,-17
32.70000,-16
32.70833,-16
32.71667,-16
32.72500,-15
32.73333,-15
32.74167,-14
32.75000,-14
32.75833,-14
32.76667,-13
32.77500,-13
32.78333,-12
32.79167,-12
32.80000,-12
32.80833,-12
32.81667,-12
32.82500,-12
32.83333,-11
32.84167,-11
32.85000,-10
32.85833,-10
32.86667,-11
32.87500,-11
32.88333,-11
32.89167,-11
32.90000,-11
32.90833,-11
32.91667,-11
32.92500,-11
32.93333,-12
32.94167,-12
32.95000,-12
32.95833,-13
32.96667,-13
32.97500,-13
32.98333,-13
32.99167,-13
33.00000,-13
33.00833,-13
33.01667,-13
33.02500,-12
33.03333,-13
33.04167,-13
33.05000,-13
33.05833,-14
33.06667,-14
33.07500,-14
33.08333,-14
33.09167,-14
33.10000,-15
33.10833,-15
33.11667,-15
33.12500,-15
33.13333,-15
33.14167,-15
33.15000,-15
33.15833,-15
33.16667,-15
33.17500,-15
33.18333,-15
33.19167,-14
33.20000,-14
33.20833,-14
33.21667,-14
33.22500,-14
33.23333,-14
33.24167,-14
33.25000,-14
33.25833,-14
33.26667,-14
33.27500,-13
33.28333,-13
33.29167,-12
33.30000,-12
33.30833,-12
33.31667,-11
33.32500,-11
33.33333,-11
33.34167,-11
33.35000,-11
33.35833,-11
33.36667,-10
33.37500,-10
33.38333,-10
33.39167,-10
33.40000,-9
33.40833,-9
33.41667,-9
33.42500,-9
33.43333,-9
33.44167,-8
33.45000,-8
33.45833,-7
33.46667,-7
33.47500,-7
33.48333,-7
33.49167,-7
33.50000,-7
33.50833,-7
33.51667,-7
33.52500,-7
33.53333,-7
33.54167,-7
33.55000,-7
33.55833,-7
33.56667,-7
33.57500,-7
33.58333,-8
33.59167,-8
33.60000,-8
33.60833,-8
33.61667,-9
33.62500,-9
33.63333,-9
33.64167,-9
33.65000,-9
33.65833,-10
33.66667,-10
33.67500,-11
33.68333,-11
33.69167,-11
33.70000,-11
33.70833,-11
33.71667,-12
33.72500,-12
33.73333,-13
33.74167,-13
33.75000,-13
33.75833,-13
33.76667,-14
33.77500,-14
33.78333,-15
33.79167,-15
33.80000,-16
33.80833,-16
33.81667,-16
33.82500,-17
33.83333,-17
33.84167,-17
33.85000,-17
33.85833,-18
33.86667,-18
33.87500,-19
33.88333,-19
33.89167,-19
33.90000,-20
33.90833,-20
33.91667,-20
33.92500,-20
33.93333,-20
33.94167,-20
33.95000,-20
33.95833,-21
33.96667,-21
33.97500,-21
33.98333,-21
33.99167,-21
34.00000,-21
34.00833,-22
34.01667,-22
34.02500,-23
34.03333,-23
34.04167,-23
34.05000,-23
34.05833,-23
34.06667,-24
34.07500,-24
34.08333,-24
34.09167,-24
34.10000,-24
34.10833,-24
34.11667,-24
34.12500,-25
34.13333,-25
34.14167,-25
34.15000,-25
34.15833,-25
34.16667,-25
34.17500,-25
34.18333,-24
34.19167,-24
34.20000,-24
34.20833,-24
34.21667,-24
34.22500,-24
34.23333,-24
34.24167,-24
34.25000,-24
34.25833,-24
34.26667,-24
34.27500,-24
34.28333,-24
34.29167,-25
34.30000,-25
34.30833,-25
34.31667,-25
34.32500,-25
34.33333,-25
34.34167,-25
34.35000,-24
34.35833,-24
34.36667,-24
34.37500,-23
34.38333,-23
34.39167,-23
34.40000,-23
34.40833,-23
34.41667,-23
34.42500,-23
34.43333,-23
34.44167,-23
34.45000,-22
34.45833,-22
34.46667,-22
34.47500,-22
34.48333,-22
34.49167,-21
34.50000,-21
34.50833,-21
34.51667,-21
34.52500,-21
34.53333,-20
34.54167,-20
34.55000,-19
34.55833,-19
34.56667,-19
34.57500,-19
34.58333,-19
34.59167,-19
34.60000,-18
34.60833,-18
34.61667,-17
34.62500,-17
34.63333,-17
34.64167,-16
34.65000,-16
34.65833,-15
34.66667,-15
34.67500,-14
34.68333,-13
34.69167,-13
34.70000,-13
34.70833,-13
34.71667,-13
34.72500,-12
34.73333,-12
34.74167,-11
34.75000,-11
34.75833,-10
34.76667,-10
34.77500,-10
34.78333,-9
34.79167,-8
34.80000,-8
34.80833,-8
34.81667,-8
34.82500,-7
34.83333,-7
34.84167,-7
34.85000,-7
34.85833,-6
34.86667,-6
34.87500,-6
34.88333,-6
34.89167,-5
34.90000,-5
34.90833,-5
34.91667,-5
34.92500,-4
34.93333,-4
34.94167,-4
34.95000,-4
34.95833,-3
34.96667,-4
34.97500,-4
34.98333,-4
34.99167,-4
35.00000,-4
35.00833,-5
35.01667,-4
35.02500,-4
35.03333,-5
35.04167,-5
35.05000,-5
35.05833,-5
35.06667,-5
35.07500,-5
35.08333,-5
35.09167,-5
35.10000,-5
35.10833,-5
35.11667,-6
35.12500,-6
35.13333,-7
35.14167,-8
35.15000,-8
35.15833,-9
35.16667,-10
35.17500,-10
35.18333,-10
35.19167,-10
35.20000,-11
35.20833,-11
35.21667,-12
35.22500,-13
35.23333,-13
35.24167,-14
35.25000,-14
35.25833,-14
35.26667,-15
35.27500,-15
35.28333,-16
35.29167,-16
35.30000,-16
35.30833,-17
35.31667,-17
35.32500,-18
35.33333,-18
35.34167,-19
35.35000,-19
35.35833,-19
35.36667,-20
35.37500,-20
35.38333,-20
35.39167,-20
35.40000,-21
35.40833,-21
35.41667,-21
35.42500,-21
35.43333,-22
35.44167,-22
35.45000,-23
35.45833,-24
35.46667,-24
35.47500,-25
35.48333,-25
35.49167,-25
35.50000,-26
35.50833,-26
35.51667,-27
35.52500,-27
35.53333,-27
35.54167,-27
35.55000,-27
35.55833,-27
35.56667,-28
35.57500,-28
35.58333,-28
35.59167,-28
35.60000,-29
35.60833,-29
35.61667,-30
35.62500,-30
35.63333,-30
35.64167,-30
35.65000,-30
35.65833,-30
35.66667,-30
35.67500,-30
35.68333,-30
35.69167,-30
35.70000,-30
35.70833,-30
35.71667,-31
35.72500,-31
35.73333,-31
35.74167,-31
35.75000,-31
35.75833,-31
35.76667,-31
35.77500,-31
35.78333,-31
35.79167,-31
35.80000,-30
35.80833,-30
35.81667,-30
35.82500,-30
35.83333,-30
35.84167,-30
35.85000,-30
35.85833,-30
35.86667,-30
35.87500,-30
35.88333,-30
35.89167,-30
35.90000,-29
35.90833,-29
35.91667,-29
35.92500,-29
35.93333,-29
35.94167,-29
35.95000,-29
35.95833,-28
35.96667,-28
35.97500,-28
35.98333,-28
35.99167,-28
36.00000,-28
36.00833,-28
36.01667,-28
36.02500,-28
36.03333,-28
36.04167,-28
36.05000,-28
36.05833,-28
36.06667,-28
36.07500,-28
36.08333,-28
36.09167,-28
36.10000,-27
36.10833,-27
36.11667,-27
36.12500,-27
36.13333,-27
36.14167,-27
36.15000,-27
36.15833,-28
36.16667,-28
36.17500,-28
36.18333,-28
36.19167,-28
36.20000,-28
36.20833,-28
36.21667,-27
36.22500,-27
36.23333,-26
36.24167,-26
36.25000,-26
36.25833,-26
36.26667,-25
36.27500,-25
36.28333,-26
36.29167,-25
36.30000,-25
36.30833,-25
36.31667,-25
36.32500,-25
36.33333,-25
36.34167,-24
36.35000,-24
36.35833,-24
36.36667,-23
36.37500,-23
36.38333,-22
36.39167,-22
36.40000,-22
36.40833,-21
36.41667,-21
36.42500,-21
36.43333,-21
36.44167,-20
36.45000,-20
36.45833,-20
36.46667,-19
36.47500,-19
36.48333,-19
36.49167,-18
36.50000,-18
36.50833,-17
36.51667,-16
36.52500,-16
36.53333,-15
36.54167,-15
36.55000,-15
36.55833,-15
36.56667,-14
36.57500,-14
36.58333,-13
36.59167,-13
36.60000,-12
36.60833,-12
36.61667,-11
36.62500,-11
36.63333,-11
36.64167,-11
36.65000,-11
36.65833,-11
36.66667,-11
36.67500,-11
36.68333,-10
36.69167,-10
36.70000,-10
36.70833,-10
36.71667,-10
36.72500,-9
36.73333,-9
36.74167,-9
36.75000,-9
36.75833,-10
36.76667,-10
36.77500,-10
36.78333,-10
36.79167,-10
36.80000,-10
36.80833,-9
36.81667,-10
36.82500,-10
36.83333,-10
36.84167,-10
36.85000,-11
36.85833,-11
36.86667,-11
36.87500,-12
36.88333,-12
36.89167,-13
36.90000,-13
36.90833,-14
36.91667,-14
36.92500,-15
36.93333,-15
36.94167,-15
36.95000,-16
36.95833,-16
36.96667,-17
36.97500,-17
36.98333,-18
36.99167,-18
37.00000,-18
37.00833,-19
37.01667,-19
37.02500,-20
37.03333,-20
37.04167,-20
37.05000,-20
37.05833,-21
37.06667,-21
37.07500,-21
37.08333,-21
37.09167,-21
37.10000,-21
37.10833,-22
37.11667,-23
37.12500,-23
37.13333,-23
37.14167,-23
37.15000,-24
37.15833,-24
37.16667,-24
37.17500,-24
37.18333,-24
37.19167,-24
37.20000,-24
37.20833,-25
37.21667,-25
37.22500,-25
37.23333,-25
37.24167,-25
37.25000,-25
37.25833,-25
37.26667,-25
37.27500,-25
37.28333,-25
37.29167,-24
37.30000,-23
37.30833,-22
37.31667,-22
37.32500,-22
37.33333,-21
37.34167,-21
37.35000,-21
37.35833,-21
37.36667,-20
37.37500,-20
37.38333,-20
37.39167,-20
37.40000,-20
37.40833,-19
37.41667,-19
37.42500,-19
37.43333,-18
37.44167,-18
37.45000,-17
37.45833,-17
37.46667,-17
37.47500,-16
37.48333,-16
37.49167,-16
37.50000,-15
37.50833,-15
37.51667,-14
37.52500,-14
37.53333,-14
37.54167,-14
37.55000,-14
37.55833,-14
37.56667,-13
37.57500,-13
37.58333,-12
37.59167,-11
37.60000,-11
37.60833,-11
37.61667,-11
37.62500,-11
37.63333,-11
37.64167,-10
37.65000,-10
37.65833,-10
37.66667,-10
37.67500,-10
37.68333,-9
37.69167,-9
37.70000,-9
37.70833,-9
37.71667,-9
37.72500,-8
37.73333,-8
37.74167,-8
37.75000,-8
37.75833,-8
37.76667,-8
37.77500,-8
37.78333,-8
37.79167,-8
37.80000,-8
37.80833,-9
37.81667,-9
37.82500,-9
37.83333,-9
37.84167,-9
37.85000,-9
37.85833,-9
37.86667,-9
37.87500,-10
37.88333,-10
37.89167,-10
37.90000,-10
37.90833,-10
37.91667,-11
37.92500,-11
37.93333,-11
37.94167,-12
37.95000,-12
37.95833,-13
37.96667,-13
37.97500,-14
37.98333,-14
37.99167,-14
38.00000,-14
38.00833,-15
38.01667,-14
38.02500,-15
38.03333,-15
38.04167,-15
38.05000,-16
38.05833,-16
38.06667,-16
38.07500,-17
38.08333,-17
38.09167,-17
38.10000,-18
38.10833,-18
38.11667,-19
38.12500,-19
38.13333,-19
38.14167,-19
38.15000,-19
38.15833,-19
38.16667,-19
38.17500,-19
38.18333,-19
38.19167,-20
38.20000,-20
38.20833,-20
38.21667,-20
38.22500,-20
38.23333,-20
38.24167,-20
38.25000,-19
38.25833,-19
38.26667,-20
38.27500,-20
38.28333,-20
38.29167,-20
38.30000,-20
38.30833,-20
38.31667,-20
38.32500,-20
38.33333,-20
38.34167,-20
38.35000,-20
38.35833,-20
38.36667,-19
38.37500,-19
38.38333,-19
38.39167,-19
38.40000,-19
38.40833,-19
38.41667,-19
38.42500,-19
38.43333,-19
38.44167,-19
38.45000,-19
38.45833,-19
38.46667,-18
38.47500,-18
38.48333,-18
38.49167,-17
38.50000,-17
38.50833,-17
38.51667,-17
38.52500,-17
38.53333,-17
38.54167,-17
38.55000,-17
38.55833,-17
38.56667,-17
38.57500,-17
38.58333,-17
38.59167,-17
38.60000,-17
38.60833,-17
38.61667,-17
38.62500,-17
38.63333,-17
38.64167,-17
38.65000,-17
38.65833,-17
38.66667,-17
38.67500,-17
38.68333,-17
38.69167,-18
38.70000,-18
38.70833,-18
38.71667,-18
38.72500,-18
38.73333,-18
38.74167,-18
38.75000,-19
38.75833,-19
38.76667,-19
38.77500,-18
38.78333,-19
38.79167,-19
38.80000,-19
38.80833,-19
38.81667,-19
38.82500,-20
38.83333,-20
38.84167,-21
38.85000,-21
38.85833,-21
38.86667,-21
38.87500,-21
38.88333,-21
38.89167,-21
38.90000,-22
38.90833,-22
38.91667,-22
38.92500,-23
38.93333,-23
38.94167,-23
38.95000,-23
38.95833,-22
38.96667,-22
38.97500,-22
38.98333,-22
38.99167,-22
39.00000,-21
39.00833,-21
39.01667,-21
39.02500,-20
39.03333,-20
39.04167,-20
39.05000,-20
39.05833,-20
39.06667,-20
39.07500,-20
39.08333,-20
39.09167,-20
39.10000,-20
39.10833,-19
39.11667,-19
39.12500,-18
39.13333,-18
39.14167,-18
39.15000,-18
39.15833,-18
39.16667,-17
39.17500,-17
39.18333,-16
39.19167,-16
39.20000,-15
39.20833,-15
39.21667,-15
39.22500,-15
39.23333,-14
39.24167,-14
39.25000,-14
39.25833,-14
39.26667,-14
39.27500,-13
39.28333,-14
39.29167,-14
39.30000,-13
39.30833,-13
39.31667,-13
39.32500,-12
39.33333,-12
39.34167,-12
39.35000,-12
39.35833,-12
39.36667,-12
39.37500,-12
39.38333,-12
39.39167,-12
39.40000,-12
39.40833,-12
39.41667,-12
39.42500,-12
39.43333,-12
39.44167,-13
39.45000,-13
39.45833,-14
39.46667,-14
39.47500,-14
39.48333,-14
39.49167,-15
39.50000,-15
39.50833,-15
39.51667,-16
39.52500,-16
39.53333,-17
39.54167,-17
39.55000,-17
39.55833,-17
39.56667,-18
39.57500,-18
39.58333,-19
39.59167,-19
39.60000,-20
39.60833,-20
39.61667,-20
39.62500,-20
39.63333,-21
39.64167,-21
39.65000,-22
39.65833,-22
39.66667,-22
39.67500,-23
39.68333,-23
39.69167,-23
39.70000,-24
39.70833,-24
39.71667,-24
39.72500,-24
39.73333,-25
39.74167,-25
39.75000,-25
39.75833,-26
39.76667,-26
39.77500,-26
39.78333,-26
39.79167,-26
39.80000,-27
39.80833,-27
39.81667,-27
39.82500,-28
39.83333,-28
39.84167,-28
39.85000,-28
39.85833,-28
39.86667,-28
39.87500,-27
39.88333,-27
39.89167,-27
39.90000,-27
39.90833,-27
39.91667,-26
39.92500,-26
39.93333,-26
39.94167,-26
39.95000,-26
39.95833,-25
39.96667,-25
39.97500,-25
39.98333,-25
39.99167,-25
40.00000,-24

