[Header]
Application Name,LabSolutions
Version,5.97 SP1
Data File Name,C:\Users\cremerlab\Desktop\griffin\2021-04-06_REL606_DM_glucose_turnover\2021-04-06_REL606_DM_glucose_turnover_462021_007_007.lcd
Output Date,4/6/2021
Output Time,9:58:20 PM

[File Information]
Type,Data File
Generated,4/6/2021 9:18:01 PM
Generated by,System Administrator
Modified,4/6/2021 9:58:20 PM
Modified by,System Administrator

[Sample Information]
Operator Name,System Administrator
Acquired,4/6/2021 9:18:20 PM
Sample Type,1:Standard
Level,7
Sample Name,2021-04-04_REL606_replicate_001_timepoint_007
Sample ID,007
ISTD Amount1,1
ISTD Amount2,1
ISTD Amount3,1
ISTD Amount4,1
ISTD Amount5,1
ISTD Amount6,1
ISTD Amount7,1
ISTD Amount8,1
ISTD Amount9,1
ISTD Amount10,1
ISTD Amount11,1
ISTD Amount12,1
ISTD Amount13,1
ISTD Amount14,1
ISTD Amount15,1
ISTD Amount16,1
ISTD Amount17,1
ISTD Amount18,1
ISTD Amount19,1
ISTD Amount20,1
ISTD Amount21,1
ISTD Amount22,1
ISTD Amount23,1
ISTD Amount24,1
ISTD Amount25,1
ISTD Amount26,1
ISTD Amount27,1
ISTD Amount28,1
ISTD Amount29,1
ISTD Amount30,1
ISTD Amount31,1
ISTD Amount32,1
Sample Amount,1
Dilution Factor,1
Vial#,7
Injection Volume,20

[Original Files]
Data File,C:\Users\cremerlab\Desktop\griffin\2021-04-06_REL606_DM_glucose_turnover\2021-04-06_REL606_DM_glucose_turnover_462021_007_007.lcd
Method File,C:\Users\cremerlab\Desktop\griffin\2.5mM_H2SO4_mobile_phase.lcm
Batch File,C:\Users\cremerlab\Desktop\griffin\2021-04-06_REL606_DM_glucose_turnover\2021-04-06_REL606_DM_glucose_turnover.lcb
Report Format File,c:\LabSolutions\System\DEFAULT.lsr

[File Description]


[Configuration]
Instrument Name,HPLC-PC-Instrument1
Instrument #,1
Line #,1
# of Detectors,2
Detector ID,Detector A,Detector B
Detector Name,Detector A,Detector B
# of Channels,1,1

[Peak Table(Detector A)]
# of Peaks,0

[Peak Table(Detector B)]
# of Peaks,6
Peak#,R.Time,I.Time,F.Time,Area,Height,A/H,Conc.,Mark,ID#,Name,k',Plate #,Plate Ht.,Tailing,Resolution,Sep.Factor,Area Ratio,Height Ratio,Conc. %,Norm Conc.
1,10.883,10.408,11.942,243522,14154,17.205,8.096,   ,,,0.000,9143,16.406,1.049,0.000,0.000,0,0,0.000,0.000
2,13.920,12.550,14.192,1666465,44547,37.409,55.401,   ,,,0.279,3157,47.519,0.000,4.199,0.000,0,0,0.000,0.000
3,14.325,14.192,14.967,162531,8822,18.424,5.403, V ,,,0.316,6146,24.405,0.000,0.470,1.133,0,0,0.000,0.000
4,15.671,14.967,17.475,922829,36825,25.060,30.679, V ,,,0.440,9220,16.268,1.150,1.947,1.391,0,0,0.000,0.000
5,19.076,18.733,19.592,2393,104,22.949,0.080,   ,,,0.753,14702,10.203,1.157,5.311,1.711,0,0,0.000,0.000
6,25.028,24.508,25.675,10241,354,28.923,0.340,   ,,,1.300,16732,8.965,1.054,8.483,1.726,0,0,0.000,0.000

[LC Chromatogram(Detector B-Ch1)]
Interval(msec),500
# of Points,4801
Start Time(min),0.000
End Time(min),40.000
Intensity Units,mV
Intensity Multiplier,0.001
R.Time (min),Intensity
0.00000,8
0.00833,8
0.01667,1
0.02500,0
0.03333,0
0.04167,1
0.05000,1
0.05833,1
0.06667,1
0.07500,1
0.08333,1
0.09167,1
0.10000,1
0.10833,2
0.11667,2
0.12500,2
0.13333,2
0.14167,2
0.15000,2
0.15833,2
0.16667,3
0.17500,3
0.18333,3
0.19167,2
0.20000,2
0.20833,2
0.21667,2
0.22500,2
0.23333,2
0.24167,2
0.25000,1
0.25833,1
0.26667,1
0.27500,0
0.28333,0
0.29167,-0
0.30000,-0
0.30833,-0
0.31667,-0
0.32500,-1
0.33333,-1
0.34167,-1
0.35000,-1
0.35833,-2
0.36667,-2
0.37500,-2
0.38333,-3
0.39167,-3
0.40000,-3
0.40833,-3
0.41667,-4
0.42500,-4
0.43333,-4
0.44167,-5
0.45000,-5
0.45833,-5
0.46667,-6
0.47500,-6
0.48333,-6
0.49167,-6
0.50000,-6
0.50833,-6
0.51667,-6
0.52500,-7
0.53333,-7
0.54167,-7
0.55000,-6
0.55833,-6
0.56667,-6
0.57500,-6
0.58333,-7
0.59167,-6
0.60000,-6
0.60833,-6
0.61667,-6
0.62500,-6
0.63333,-6
0.64167,-7
0.65000,-7
0.65833,-7
0.66667,-7
0.67500,-7
0.68333,-7
0.69167,-7
0.70000,-6
0.70833,-6
0.71667,-6
0.72500,-7
0.73333,-7
0.74167,-6
0.75000,-6
0.75833,-6
0.76667,-7
0.77500,-7
0.78333,-7
0.79167,-7
0.80000,-6
0.80833,-6
0.81667,-6
0.82500,-6
0.83333,-6
0.84167,-6
0.85000,-6
0.85833,-6
0.86667,-6
0.87500,-5
0.88333,-5
0.89167,-5
0.90000,-4
0.90833,-4
0.91667,-4
0.92500,-4
0.93333,-4
0.94167,-3
0.95000,-3
0.95833,-3
0.96667,-3
0.97500,-3
0.98333,-3
0.99167,-3
1.00000,-3
1.00833,-3
1.01667,-3
1.02500,-3
1.03333,-2
1.04167,-2
1.05000,-2
1.05833,-2
1.06667,-3
1.07500,-3
1.08333,-3
1.09167,-3
1.10000,-3
1.10833,-3
1.11667,-3
1.12500,-3
1.13333,-3
1.14167,-3
1.15000,-2
1.15833,-2
1.16667,-2
1.17500,-2
1.18333,-2
1.19167,-2
1.20000,-1
1.20833,-1
1.21667,-2
1.22500,-2
1.23333,-2
1.24167,-2
1.25000,-2
1.25833,-2
1.26667,-2
1.27500,-2
1.28333,-2
1.29167,-2
1.30000,-2
1.30833,-2
1.31667,-2
1.32500,-2
1.33333,-2
1.34167,-3
1.35000,-3
1.35833,-3
1.36667,-3
1.37500,-3
1.38333,-3
1.39167,-3
1.40000,-3
1.40833,-3
1.41667,-3
1.42500,-3
1.43333,-3
1.44167,-3
1.45000,-3
1.45833,-3
1.46667,-3
1.47500,-3
1.48333,-4
1.49167,-4
1.50000,-4
1.50833,-4
1.51667,-4
1.52500,-4
1.53333,-4
1.54167,-4
1.55000,-4
1.55833,-4
1.56667,-4
1.57500,-4
1.58333,-5
1.59167,-5
1.60000,-6
1.60833,-6
1.61667,-6
1.62500,-6
1.63333,-6
1.64167,-6
1.65000,-6
1.65833,-6
1.66667,-6
1.67500,-6
1.68333,-6
1.69167,-5
1.70000,-5
1.70833,-5
1.71667,-5
1.72500,-5
1.73333,-5
1.74167,-6
1.75000,-6
1.75833,-6
1.76667,-6
1.77500,-6
1.78333,-6
1.79167,-6
1.80000,-6
1.80833,-6
1.81667,-6
1.82500,-6
1.83333,-6
1.84167,-6
1.85000,-6
1.85833,-6
1.86667,-6
1.87500,-6
1.88333,-6
1.89167,-6
1.90000,-5
1.90833,-5
1.91667,-5
1.92500,-5
1.93333,-4
1.94167,-4
1.95000,-4
1.95833,-4
1.96667,-4
1.97500,-3
1.98333,-3
1.99167,-3
2.00000,-3
2.00833,-3
2.01667,-3
2.02500,-4
2.03333,-4
2.04167,-4
2.05000,-4
2.05833,-4
2.06667,-3
2.07500,-3
2.08333,-3
2.09167,-3
2.10000,-3
2.10833,-3
2.11667,-3
2.12500,-3
2.13333,-3
2.14167,-3
2.15000,-4
2.15833,-4
2.16667,-4
2.17500,-3
2.18333,-3
2.19167,-3
2.20000,-3
2.20833,-3
2.21667,-3
2.22500,-3
2.23333,-3
2.24167,-3
2.25000,-3
2.25833,-3
2.26667,-3
2.27500,-3
2.28333,-3
2.29167,-2
2.30000,-2
2.30833,-1
2.31667,-1
2.32500,-1
2.33333,-1
2.34167,-1
2.35000,-1
2.35833,-1
2.36667,-1
2.37500,-1
2.38333,-1
2.39167,-1
2.40000,-1
2.40833,-1
2.41667,-1
2.42500,-1
2.43333,-0
2.44167,-0
2.45000,-0
2.45833,-0
2.46667,-1
2.47500,-1
2.48333,-1
2.49167,-1
2.50000,-1
2.50833,-1
2.51667,-1
2.52500,-2
2.53333,-2
2.54167,-2
2.55000,-3
2.55833,-3
2.56667,-3
2.57500,-3
2.58333,-4
2.59167,-4
2.60000,-4
2.60833,-5
2.61667,-5
2.62500,-6
2.63333,-6
2.64167,-6
2.65000,-7
2.65833,-7
2.66667,-7
2.67500,-8
2.68333,-8
2.69167,-8
2.70000,-8
2.70833,-9
2.71667,-9
2.72500,-9
2.73333,-10
2.74167,-10
2.75000,-10
2.75833,-10
2.76667,-10
2.77500,-11
2.78333,-11
2.79167,-11
2.80000,-11
2.80833,-11
2.81667,-11
2.82500,-11
2.83333,-12
2.84167,-12
2.85000,-12
2.85833,-11
2.86667,-11
2.87500,-11
2.88333,-12
2.89167,-12
2.90000,-12
2.90833,-12
2.91667,-12
2.92500,-12
2.93333,-11
2.94167,-11
2.95000,-11
2.95833,-11
2.96667,-11
2.97500,-11
2.98333,-10
2.99167,-10
3.00000,-10
3.00833,-10
3.01667,-10
3.02500,-10
3.03333,-9
3.04167,-10
3.05000,-9
3.05833,-9
3.06667,-9
3.07500,-9
3.08333,-9
3.09167,-8
3.10000,-8
3.10833,-8
3.11667,-7
3.12500,-7
3.13333,-7
3.14167,-8
3.15000,-7
3.15833,-7
3.16667,-7
3.17500,-7
3.18333,-7
3.19167,-7
3.20000,-7
3.20833,-7
3.21667,-7
3.22500,-7
3.23333,-8
3.24167,-8
3.25000,-8
3.25833,-8
3.26667,-8
3.27500,-8
3.28333,-8
3.29167,-8
3.30000,-9
3.30833,-8
3.31667,-9
3.32500,-9
3.33333,-9
3.34167,-8
3.35000,-8
3.35833,-8
3.36667,-9
3.37500,-9
3.38333,-8
3.39167,-8
3.40000,-8
3.40833,-8
3.41667,-8
3.42500,-9
3.43333,-9
3.44167,-10
3.45000,-10
3.45833,-11
3.46667,-11
3.47500,-11
3.48333,-11
3.49167,-11
3.50000,-12
3.50833,-12
3.51667,-12
3.52500,-12
3.53333,-11
3.54167,-11
3.55000,-11
3.55833,-11
3.56667,-11
3.57500,-11
3.58333,-11
3.59167,-11
3.60000,-11
3.60833,-11
3.61667,-11
3.62500,-11
3.63333,-11
3.64167,-11
3.65000,-10
3.65833,-10
3.66667,-10
3.67500,-9
3.68333,-9
3.69167,-9
3.70000,-8
3.70833,-8
3.71667,-8
3.72500,-8
3.73333,-8
3.74167,-7
3.75000,-7
3.75833,-7
3.76667,-6
3.77500,-5
3.78333,-5
3.79167,-4
3.80000,-4
3.80833,-4
3.81667,-4
3.82500,-4
3.83333,-3
3.84167,-3
3.85000,-2
3.85833,-2
3.86667,-1
3.87500,-1
3.88333,-1
3.89167,-0
3.90000,0
3.90833,1
3.91667,1
3.92500,1
3.93333,1
3.94167,1
3.95000,1
3.95833,1
3.96667,2
3.97500,2
3.98333,2
3.99167,2
4.00000,3
4.00833,3
4.01667,4
4.02500,4
4.03333,4
4.04167,5
4.05000,5
4.05833,5
4.06667,5
4.07500,6
4.08333,6
4.09167,6
4.10000,6
4.10833,6
4.11667,6
4.12500,5
4.13333,5
4.14167,5
4.15000,5
4.15833,5
4.16667,5
4.17500,5
4.18333,5
4.19167,5
4.20000,5
4.20833,4
4.21667,4
4.22500,4
4.23333,4
4.24167,4
4.25000,4
4.25833,4
4.26667,4
4.27500,4
4.28333,4
4.29167,4
4.30000,3
4.30833,3
4.31667,2
4.32500,2
4.33333,2
4.34167,1
4.35000,1
4.35833,1
4.36667,1
4.37500,0
4.38333,0
4.39167,0
4.40000,-0
4.40833,-0
4.41667,-0
4.42500,-1
4.43333,-2
4.44167,-2
4.45000,-2
4.45833,-3
4.46667,-3
4.47500,-3
4.48333,-3
4.49167,-3
4.50000,-4
4.50833,-4
4.51667,-4
4.52500,-4
4.53333,-5
4.54167,-5
4.55000,-5
4.55833,-5
4.56667,-5
4.57500,-5
4.58333,-5
4.59167,-5
4.60000,-5
4.60833,-5
4.61667,-5
4.62500,-5
4.63333,-5
4.64167,-5
4.65000,-5
4.65833,-5
4.66667,-5
4.67500,-5
4.68333,-5
4.69167,-6
4.70000,-6
4.70833,-6
4.71667,-6
4.72500,-6
4.73333,-6
4.74167,-6
4.75000,-6
4.75833,-7
4.76667,-7
4.77500,-7
4.78333,-6
4.79167,-6
4.80000,-6
4.80833,-6
4.81667,-6
4.82500,-6
4.83333,-6
4.84167,-7
4.85000,-7
4.85833,-7
4.86667,-7
4.87500,-7
4.88333,-6
4.89167,-6
4.90000,-6
4.90833,-6
4.91667,-7
4.92500,-7
4.93333,-7
4.94167,-7
4.95000,-6
4.95833,-6
4.96667,-6
4.97500,-6
4.98333,-6
4.99167,-6
5.00000,-5
5.00833,-5
5.01667,-5
5.02500,-5
5.03333,-5
5.04167,-5
5.05000,-5
5.05833,-5
5.06667,-5
5.07500,-5
5.08333,-5
5.09167,-5
5.10000,-5
5.10833,-5
5.11667,-5
5.12500,-5
5.13333,-4
5.14167,-4
5.15000,-4
5.15833,-4
5.16667,-4
5.17500,-4
5.18333,-4
5.19167,-5
5.20000,-5
5.20833,-5
5.21667,-5
5.22500,-4
5.23333,-4
5.24167,-4
5.25000,-4
5.25833,-3
5.26667,-3
5.27500,-4
5.28333,-4
5.29167,-4
5.30000,-4
5.30833,-4
5.31667,-4
5.32500,-4
5.33333,-4
5.34167,-4
5.35000,-4
5.35833,-5
5.36667,-5
5.37500,-5
5.38333,-5
5.39167,-5
5.40000,-6
5.40833,-6
5.41667,-6
5.42500,-6
5.43333,-6
5.44167,-6
5.45000,-6
5.45833,-6
5.46667,-6
5.47500,-6
5.48333,-6
5.49167,-7
5.50000,-7
5.50833,-7
5.51667,-7
5.52500,-7
5.53333,-7
5.54167,-7
5.55000,-7
5.55833,-8
5.56667,-8
5.57500,-8
5.58333,-8
5.59167,-9
5.60000,-9
5.60833,-10
5.61667,-10
5.62500,-11
5.63333,-11
5.64167,-11
5.65000,-11
5.65833,-12
5.66667,-12
5.67500,-12
5.68333,-12
5.69167,-12
5.70000,-12
5.70833,-12
5.71667,-12
5.72500,-12
5.73333,-12
5.74167,-12
5.75000,-12
5.75833,-12
5.76667,-12
5.77500,-11
5.78333,-11
5.79167,-11
5.80000,-11
5.80833,-11
5.81667,-11
5.82500,-11
5.83333,-11
5.84167,-11
5.85000,-11
5.85833,-10
5.86667,-10
5.87500,-10
5.88333,-10
5.89167,-9
5.90000,-9
5.90833,-8
5.91667,-8
5.92500,-7
5.93333,-7
5.94167,-7
5.95000,-7
5.95833,-7
5.96667,-6
5.97500,-6
5.98333,-6
5.99167,-5
6.00000,-5
6.00833,-5
6.01667,-4
6.02500,-4
6.03333,-4
6.04167,-3
6.05000,-3
6.05833,-3
6.06667,-3
6.07500,-2
6.08333,-2
6.09167,-2
6.10000,-2
6.10833,-1
6.11667,-1
6.12500,-1
6.13333,-1
6.14167,-1
6.15000,-1
6.15833,-1
6.16667,-0
6.17500,0
6.18333,0
6.19167,0
6.20000,0
6.20833,0
6.21667,0
6.22500,-0
6.23333,-0
6.24167,-0
6.25000,-0
6.25833,0
6.26667,0
6.27500,0
6.28333,1
6.29167,1
6.30000,1
6.30833,0
6.31667,-0
6.32500,-0
6.33333,-0
6.34167,-0
6.35000,-1
6.35833,-1
6.36667,-1
6.37500,-1
6.38333,-1
6.39167,-2
6.40000,-2
6.40833,-2
6.41667,-3
6.42500,-2
6.43333,-2
6.44167,-2
6.45000,-3
6.45833,-3
6.46667,-3
6.47500,-3
6.48333,-3
6.49167,-3
6.50000,-4
6.50833,-4
6.51667,-4
6.52500,-4
6.53333,-4
6.54167,-4
6.55000,-5
6.55833,-5
6.56667,-5
6.57500,-6
6.58333,-6
6.59167,-6
6.60000,-6
6.60833,-6
6.61667,-6
6.62500,-6
6.63333,-6
6.64167,-6
6.65000,-6
6.65833,-7
6.66667,-7
6.67500,-8
6.68333,-8
6.69167,-8
6.70000,-8
6.70833,-8
6.71667,-8
6.72500,-8
6.73333,-8
6.74167,-8
6.75000,-8
6.75833,-9
6.76667,-9
6.77500,-9
6.78333,-9
6.79167,-9
6.80000,-9
6.80833,-9
6.81667,-9
6.82500,-9
6.83333,-9
6.84167,-9
6.85000,-8
6.85833,-8
6.86667,-9
6.87500,-9
6.88333,-9
6.89167,-9
6.90000,-9
6.90833,-8
6.91667,-8
6.92500,-8
6.93333,-8
6.94167,-8
6.95000,-7
6.95833,-7
6.96667,-6
6.97500,-6
6.98333,-6
6.99167,-5
7.00000,-6
7.00833,-6
7.01667,-6
7.02500,-6
7.03333,-6
7.04167,-6
7.05000,-6
7.05833,-6
7.06667,-6
7.07500,-5
7.08333,-5
7.09167,-5
7.10000,-5
7.10833,-6
7.11667,-6
7.12500,-6
7.13333,-5
7.14167,-5
7.15000,-5
7.15833,-5
7.16667,-5
7.17500,-4
7.18333,-4
7.19167,-4
7.20000,-4
7.20833,-4
7.21667,-4
7.22500,-4
7.23333,-4
7.24167,-4
7.25000,-4
7.25833,-4
7.26667,-4
7.27500,-3
7.28333,-3
7.29167,-3
7.30000,-3
7.30833,-3
7.31667,-3
7.32500,-3
7.33333,-3
7.34167,-3
7.35000,-3
7.35833,-3
7.36667,-3
7.37500,-3
7.38333,-3
7.39167,-3
7.40000,-3
7.40833,-3
7.41667,-3
7.42500,-3
7.43333,-3
7.44167,-3
7.45000,-3
7.45833,-3
7.46667,-3
7.47500,-3
7.48333,-3
7.49167,-4
7.50000,-4
7.50833,-4
7.51667,-3
7.52500,-3
7.53333,-4
7.54167,-4
7.55000,-4
7.55833,-5
7.56667,-5
7.57500,-5
7.58333,-5
7.59167,-5
7.60000,-5
7.60833,-6
7.61667,-6
7.62500,-6
7.63333,-6
7.64167,-6
7.65000,-6
7.65833,-6
7.66667,-6
7.67500,-6
7.68333,-7
7.69167,-7
7.70000,-7
7.70833,-7
7.71667,-7
7.72500,-7
7.73333,-7
7.74167,-7
7.75000,-7
7.75833,-7
7.76667,-7
7.77500,-7
7.78333,-7
7.79167,-7
7.80000,-7
7.80833,-7
7.81667,-7
7.82500,-7
7.83333,-7
7.84167,-6
7.85000,-6
7.85833,-6
7.86667,-6
7.87500,-6
7.88333,-7
7.89167,-7
7.90000,-7
7.90833,-7
7.91667,-6
7.92500,-6
7.93333,-6
7.94167,-6
7.95000,-6
7.95833,-6
7.96667,-6
7.97500,-6
7.98333,-5
7.99167,-5
8.00000,-5
8.00833,-5
8.01667,-5
8.02500,-5
8.03333,-5
8.04167,-5
8.05000,-5
8.05833,-5
8.06667,-5
8.07500,-4
8.08333,-4
8.09167,-4
8.10000,-4
8.10833,-4
8.11667,-4
8.12500,-4
8.13333,-4
8.14167,-4
8.15000,-3
8.15833,-3
8.16667,-3
8.17500,-3
8.18333,-3
8.19167,-3
8.20000,-3
8.20833,-3
8.21667,-3
8.22500,-3
8.23333,-3
8.24167,-3
8.25000,-3
8.25833,-3
8.26667,-2
8.27500,-2
8.28333,-2
8.29167,-2
8.30000,-2
8.30833,-3
8.31667,-3
8.32500,-3
8.33333,-3
8.34167,-4
8.35000,-4
8.35833,-4
8.36667,-4
8.37500,-4
8.38333,-4
8.39167,-4
8.40000,-4
8.40833,-4
8.41667,-4
8.42500,-4
8.43333,-4
8.44167,-5
8.45000,-5
8.45833,-5
8.46667,-5
8.47500,-6
8.48333,-6
8.49167,-6
8.50000,-6
8.50833,-6
8.51667,-6
8.52500,-7
8.53333,-7
8.54167,-7
8.55000,-7
8.55833,-7
8.56667,-7
8.57500,-7
8.58333,-7
8.59167,-7
8.60000,-8
8.60833,-8
8.61667,-8
8.62500,-8
8.63333,-8
8.64167,-8
8.65000,-8
8.65833,-7
8.66667,-7
8.67500,-8
8.68333,-8
8.69167,-8
8.70000,-8
8.70833,-9
8.71667,-9
8.72500,-9
8.73333,-9
8.74167,-9
8.75000,-9
8.75833,-9
8.76667,-9
8.77500,-9
8.78333,-9
8.79167,-9
8.80000,-9
8.80833,-9
8.81667,-9
8.82500,-9
8.83333,-9
8.84167,-9
8.85000,-9
8.85833,-9
8.86667,-9
8.87500,-9
8.88333,-9
8.89167,-9
8.90000,-9
8.90833,-9
8.91667,-9
8.92500,-9
8.93333,-10
8.94167,-10
8.95000,-10
8.95833,-10
8.96667,-10
8.97500,-10
8.98333,-10
8.99167,-10
9.00000,-10
9.00833,-9
9.01667,-10
9.02500,-10
9.03333,-9
9.04167,-9
9.05000,-10
9.05833,-10
9.06667,-10
9.07500,-9
9.08333,-9
9.09167,-9
9.10000,-9
9.10833,-9
9.11667,-9
9.12500,-8
9.13333,-8
9.14167,-8
9.15000,-8
9.15833,-8
9.16667,-8
9.17500,-8
9.18333,-8
9.19167,-8
9.20000,-8
9.20833,-8
9.21667,-8
9.22500,-8
9.23333,-8
9.24167,-8
9.25000,-8
9.25833,-9
9.26667,-8
9.27500,-8
9.28333,-8
9.29167,-7
9.30000,-7
9.30833,-7
9.31667,-6
9.32500,-6
9.33333,-6
9.34167,-6
9.35000,-6
9.35833,-6
9.36667,-6
9.37500,-6
9.38333,-7
9.39167,-6
9.40000,-6
9.40833,-6
9.41667,-6
9.42500,-6
9.43333,-6
9.44167,-6
9.45000,-6
9.45833,-6
9.46667,-6
9.47500,-5
9.48333,-5
9.49167,-5
9.50000,-5
9.50833,-5
9.51667,-5
9.52500,-5
9.53333,-5
9.54167,-5
9.55000,-5
9.55833,-4
9.56667,-4
9.57500,-5
9.58333,-5
9.59167,-5
9.60000,-5
9.60833,-5
9.61667,-5
9.62500,-5
9.63333,-5
9.64167,-5
9.65000,-5
9.65833,-5
9.66667,-5
9.67500,-5
9.68333,-5
9.69167,-5
9.70000,-5
9.70833,-5
9.71667,-5
9.72500,-5
9.73333,-5
9.74167,-5
9.75000,-5
9.75833,-4
9.76667,-4
9.77500,-4
9.78333,-4
9.79167,-4
9.80000,-4
9.80833,-4
9.81667,-5
9.82500,-5
9.83333,-5
9.84167,-5
9.85000,-5
9.85833,-4
9.86667,-4
9.87500,-4
9.88333,-4
9.89167,-4
9.90000,-4
9.90833,-4
9.91667,-4
9.92500,-4
9.93333,-4
9.94167,-4
9.95000,-4
9.95833,-4
9.96667,-3
9.97500,-3
9.98333,-2
9.99167,-2
10.00000,-2
10.00833,-1
10.01667,-1
10.02500,0
10.03333,1
10.04167,2
10.05000,2
10.05833,2
10.06667,3
10.07500,3
10.08333,3
10.09167,4
10.10000,4
10.10833,5
10.11667,5
10.12500,6
10.13333,6
10.14167,7
10.15000,7
10.15833,7
10.16667,8
10.17500,8
10.18333,9
10.19167,9
10.20000,9
10.20833,9
10.21667,9
10.22500,10
10.23333,10
10.24167,10
10.25000,10
10.25833,10
10.26667,9
10.27500,9
10.28333,9
10.29167,9
10.30000,9
10.30833,9
10.31667,9
10.32500,9
10.33333,8
10.34167,8
10.35000,8
10.35833,8
10.36667,8
10.37500,9
10.38333,9
10.39167,9
10.40000,9
10.40833,9
10.41667,9
10.42500,10
10.43333,11
10.44167,13
10.45000,14
10.45833,16
10.46667,19
10.47500,23
10.48333,28
10.49167,34
10.50000,42
10.50833,52
10.51667,64
10.52500,80
10.53333,100
10.54167,126
10.55000,159
10.55833,199
10.56667,248
10.57500,307
10.58333,380
10.59167,466
10.60000,568
10.60833,689
10.61667,830
10.62500,994
10.63333,1182
10.64167,1396
10.65000,1639
10.65833,1912
10.66667,2218
10.67500,2556
10.68333,2927
10.69167,3332
10.70000,3771
10.70833,4243
10.71667,4745
10.72500,5277
10.73333,5836
10.74167,6418
10.75000,7019
10.75833,7636
10.76667,8263
10.77500,8892
10.78333,9519
10.79167,10137
10.80000,10736
10.80833,11311
10.81667,11853
10.82500,12355
10.83333,12808
10.84167,13205
10.85000,13541
10.85833,13808
10.86667,14002
10.87500,14119
10.88333,14156
10.89167,14112
10.90000,13988
10.90833,13786
10.91667,13508
10.92500,13161
10.93333,12750
10.94167,12282
10.95000,11766
10.95833,11209
10.96667,10621
10.97500,10011
10.98333,9387
10.99167,8758
11.00000,8131
11.00833,7514
11.01667,6912
11.02500,6332
11.03333,5776
11.04167,5249
11.05000,4753
11.05833,4288
11.06667,3857
11.07500,3457
11.08333,3091
11.09167,2756
11.10000,2451
11.10833,2175
11.11667,1926
11.12500,1703
11.13333,1504
11.14167,1326
11.15000,1167
11.15833,1027
11.16667,903
11.17500,794
11.18333,698
11.19167,614
11.20000,540
11.20833,476
11.21667,420
11.22500,371
11.23333,329
11.24167,293
11.25000,262
11.25833,236
11.26667,213
11.27500,193
11.28333,177
11.29167,163
11.30000,150
11.30833,140
11.31667,130
11.32500,123
11.33333,116
11.34167,110
11.35000,105
11.35833,101
11.36667,97
11.37500,94
11.38333,90
11.39167,87
11.40000,84
11.40833,82
11.41667,79
11.42500,77
11.43333,74
11.44167,72
11.45000,69
11.45833,67
11.46667,65
11.47500,62
11.48333,60
11.49167,58
11.50000,55
11.50833,53
11.51667,51
11.52500,49
11.53333,47
11.54167,45
11.55000,43
11.55833,41
11.56667,38
11.57500,36
11.58333,35
11.59167,33
11.60000,31
11.60833,29
11.61667,27
11.62500,24
11.63333,23
11.64167,21
11.65000,19
11.65833,17
11.66667,16
11.67500,14
11.68333,13
11.69167,11
11.70000,9
11.70833,8
11.71667,6
11.72500,5
11.73333,4
11.74167,3
11.75000,1
11.75833,0
11.76667,-1
11.77500,-2
11.78333,-2
11.79167,-3
11.80000,-4
11.80833,-5
11.81667,-6
11.82500,-7
11.83333,-7
11.84167,-8
11.85000,-9
11.85833,-9
11.86667,-10
11.87500,-10
11.88333,-11
11.89167,-11
11.90000,-12
11.90833,-13
11.91667,-14
11.92500,-14
11.93333,-14
11.94167,-14
11.95000,-14
11.95833,-14
11.96667,-14
11.97500,-15
11.98333,-15
11.99167,-14
12.00000,-14
12.00833,-14
12.01667,-14
12.02500,-14
12.03333,-14
12.04167,-14
12.05000,-14
12.05833,-14
12.06667,-13
12.07500,-13
12.08333,-13
12.09167,-12
12.10000,-12
12.10833,-12
12.11667,-11
12.12500,-11
12.13333,-11
12.14167,-11
12.15000,-11
12.15833,-11
12.16667,-11
12.17500,-11
12.18333,-11
12.19167,-10
12.20000,-10
12.20833,-10
12.21667,-9
12.22500,-10
12.23333,-10
12.24167,-10
12.25000,-9
12.25833,-9
12.26667,-8
12.27500,-8
12.28333,-8
12.29167,-8
12.30000,-7
12.30833,-7
12.31667,-7
12.32500,-6
12.33333,-6
12.34167,-6
12.35000,-6
12.35833,-6
12.36667,-6
12.37500,-6
12.38333,-6
12.39167,-6
12.40000,-6
12.40833,-5
12.41667,-5
12.42500,-5
12.43333,-4
12.44167,-4
12.45000,-4
12.45833,-5
12.46667,-5
12.47500,-5
12.48333,-5
12.49167,-5
12.50000,-5
12.50833,-4
12.51667,-4
12.52500,-4
12.53333,-3
12.54167,-3
12.55000,-3
12.55833,-2
12.56667,-1
12.57500,-0
12.58333,1
12.59167,3
12.60000,5
12.60833,7
12.61667,11
12.62500,15
12.63333,20
12.64167,26
12.65000,34
12.65833,44
12.66667,56
12.67500,70
12.68333,86
12.69167,106
12.70000,129
12.70833,156
12.71667,187
12.72500,222
12.73333,262
12.74167,307
12.75000,358
12.75833,414
12.76667,476
12.77500,545
12.78333,619
12.79167,701
12.80000,788
12.80833,883
12.81667,984
12.82500,1092
12.83333,1207
12.84167,1329
12.85000,1457
12.85833,1592
12.86667,1734
12.87500,1881
12.88333,2035
12.89167,2195
12.90000,2361
12.90833,2532
12.91667,2709
12.92500,2892
12.93333,3079
12.94167,3271
12.95000,3467
12.95833,3669
12.96667,3875
12.97500,4085
12.98333,4300
12.99167,4518
13.00000,4741
13.00833,4968
13.01667,5198
13.02500,5432
13.03333,5669
13.04167,5909
13.05000,6152
13.05833,6399
13.06667,6649
13.07500,6901
13.08333,7156
13.09167,7415
13.10000,7676
13.10833,7940
13.11667,8206
13.12500,8475
13.13333,8747
13.14167,9021
13.15000,9298
13.15833,9578
13.16667,9859
13.17500,10143
13.18333,10429
13.19167,10718
13.20000,11010
13.20833,11304
13.21667,11600
13.22500,11899
13.23333,12200
13.24167,12504
13.25000,12809
13.25833,13117
13.26667,13428
13.27500,13741
13.28333,14056
13.29167,14373
13.30000,14693
13.30833,15015
13.31667,15339
13.32500,15666
13.33333,15995
13.34167,16326
13.35000,16660
13.35833,16997
13.36667,17336
13.37500,17677
13.38333,18021
13.39167,18367
13.40000,18716
13.40833,19067
13.41667,19421
13.42500,19777
13.43333,20135
13.44167,20496
13.45000,20860
13.45833,21226
13.46667,21596
13.47500,21968
13.48333,22342
13.49167,22719
13.50000,23098
13.50833,23481
13.51667,23865
13.52500,24253
13.53333,24643
13.54167,25036
13.55000,25431
13.55833,25830
13.56667,26231
13.57500,26636
13.58333,27043
13.59167,27453
13.60000,27865
13.60833,28281
13.61667,28700
13.62500,29122
13.63333,29546
13.64167,29974
13.65000,30405
13.65833,30838
13.66667,31274
13.67500,31713
13.68333,32156
13.69167,32601
13.70000,33050
13.70833,33502
13.71667,33958
13.72500,34416
13.73333,34878
13.74167,35342
13.75000,35810
13.75833,36281
13.76667,36756
13.77500,37234
13.78333,37715
13.79167,38199
13.80000,38687
13.80833,39178
13.81667,39671
13.82500,40168
13.83333,40666
13.84167,41164
13.85000,41661
13.85833,42152
13.86667,42632
13.87500,43092
13.88333,43521
13.89167,43904
13.90000,44221
13.90833,44452
13.91667,44572
13.92500,44554
13.93333,44372
13.94167,44003
13.95000,43424
13.95833,42623
13.96667,41592
13.97500,40333
13.98333,38855
13.99167,37178
14.00000,35327
14.00833,33337
14.01667,31244
14.02500,29089
14.03333,26913
14.04167,24755
14.05000,22652
14.05833,20634
14.06667,18727
14.07500,16951
14.08333,15321
14.09167,13846
14.10000,12529
14.10833,11371
14.11667,10366
14.12500,9510
14.13333,8793
14.14167,8207
14.15000,7742
14.15833,7386
14.16667,7130
14.17500,6962
14.18333,6871
14.19167,6847
14.20000,6881
14.20833,6963
14.21667,7084
14.22500,7234
14.23333,7406
14.24167,7592
14.25000,7783
14.25833,7973
14.26667,8157
14.27500,8328
14.28333,8481
14.29167,8612
14.30000,8717
14.30833,8794
14.31667,8841
14.32500,8855
14.33333,8837
14.34167,8786
14.35000,8703
14.35833,8587
14.36667,8442
14.37500,8269
14.38333,8071
14.39167,7849
14.40000,7606
14.40833,7347
14.41667,7072
14.42500,6786
14.43333,6492
14.44167,6192
14.45000,5889
14.45833,5586
14.46667,5285
14.47500,4987
14.48333,4695
14.49167,4410
14.50000,4135
14.50833,3868
14.51667,3613
14.52500,3368
14.53333,3136
14.54167,2917
14.55000,2709
14.55833,2514
14.56667,2331
14.57500,2160
14.58333,2000
14.59167,1852
14.60000,1714
14.60833,1586
14.61667,1469
14.62500,1361
14.63333,1261
14.64167,1170
14.65000,1086
14.65833,1009
14.66667,938
14.67500,874
14.68333,815
14.69167,761
14.70000,713
14.70833,668
14.71667,628
14.72500,591
14.73333,557
14.74167,527
14.75000,499
14.75833,473
14.76667,450
14.77500,429
14.78333,409
14.79167,392
14.80000,376
14.80833,362
14.81667,349
14.82500,337
14.83333,326
14.84167,316
14.85000,306
14.85833,298
14.86667,291
14.87500,284
14.88333,278
14.89167,273
14.90000,269
14.90833,265
14.91667,261
14.92500,259
14.93333,257
14.94167,254
14.95000,252
14.95833,251
14.96667,251
14.97500,251
14.98333,252
14.99167,253
15.00000,254
15.00833,256
15.01667,258
15.02500,261
15.03333,264
15.04167,267
15.05000,271
15.05833,274
15.06667,279
15.07500,284
15.08333,289
15.09167,295
15.10000,300
15.10833,307
15.11667,313
15.12500,320
15.13333,328
15.14167,337
15.15000,348
15.15833,361
15.16667,376
15.17500,393
15.18333,413
15.19167,438
15.20000,466
15.20833,500
15.21667,541
15.22500,589
15.23333,647
15.24167,715
15.25000,796
15.25833,890
15.26667,1001
15.27500,1131
15.28333,1280
15.29167,1453
15.30000,1652
15.30833,1880
15.31667,2139
15.32500,2433
15.33333,2766
15.34167,3138
15.35000,3554
15.35833,4016
15.36667,4527
15.37500,5088
15.38333,5702
15.39167,6371
15.40000,7095
15.40833,7875
15.41667,8711
15.42500,9602
15.43333,10548
15.44167,11546
15.45000,12594
15.45833,13688
15.46667,14824
15.47500,15998
15.48333,17203
15.49167,18434
15.50000,19684
15.50833,20946
15.51667,22213
15.52500,23475
15.53333,24725
15.54167,25955
15.55000,27155
15.55833,28318
15.56667,29435
15.57500,30498
15.58333,31499
15.59167,32432
15.60000,33288
15.60833,34064
15.61667,34753
15.62500,35352
15.63333,35855
15.64167,36261
15.65000,36568
15.65833,36774
15.66667,36881
15.67500,36887
15.68333,36795
15.69167,36607
15.70000,36326
15.70833,35955
15.71667,35500
15.72500,34964
15.73333,34353
15.74167,33672
15.75000,32927
15.75833,32124
15.76667,31271
15.77500,30373
15.78333,29436
15.79167,28467
15.80000,27473
15.80833,26460
15.81667,25432
15.82500,24396
15.83333,23357
15.84167,22320
15.85000,21290
15.85833,20271
15.86667,19267
15.87500,18281
15.88333,17316
15.89167,16376
15.90000,15463
15.90833,14578
15.91667,13723
15.92500,12901
15.93333,12110
15.94167,11353
15.95000,10630
15.95833,9942
15.96667,9287
15.97500,8666
15.98333,8078
15.99167,7523
16.00000,6999
16.00833,6507
16.01667,6045
16.02500,5611
16.03333,5206
16.04167,4827
16.05000,4474
16.05833,4145
16.06667,3840
16.07500,3556
16.08333,3293
16.09167,3049
16.10000,2823
16.10833,2615
16.11667,2423
16.12500,2245
16.13333,2082
16.14167,1932
16.15000,1794
16.15833,1666
16.16667,1550
16.17500,1443
16.18333,1344
16.19167,1254
16.20000,1172
16.20833,1096
16.21667,1026
16.22500,963
16.23333,905
16.24167,851
16.25000,802
16.25833,757
16.26667,716
16.27500,678
16.28333,644
16.29167,612
16.30000,583
16.30833,556
16.31667,530
16.32500,507
16.33333,486
16.34167,466
16.35000,448
16.35833,431
16.36667,416
16.37500,402
16.38333,389
16.39167,378
16.40000,367
16.40833,356
16.41667,346
16.42500,336
16.43333,328
16.44167,320
16.45000,313
16.45833,306
16.46667,299
16.47500,293
16.48333,287
16.49167,281
16.50000,276
16.50833,272
16.51667,267
16.52500,263
16.53333,259
16.54167,255
16.55000,251
16.55833,248
16.56667,245
16.57500,242
16.58333,239
16.59167,236
16.60000,233
16.60833,231
16.61667,228
16.62500,226
16.63333,224
16.64167,222
16.65000,220
16.65833,218
16.66667,216
16.67500,214
16.68333,212
16.69167,210
16.70000,208
16.70833,207
16.71667,205
16.72500,203
16.73333,202
16.74167,200
16.75000,198
16.75833,196
16.76667,194
16.77500,193
16.78333,191
16.79167,189
16.80000,188
16.80833,186
16.81667,185
16.82500,184
16.83333,183
16.84167,181
16.85000,179
16.85833,178
16.86667,176
16.87500,175
16.88333,173
16.89167,172
16.90000,170
16.90833,169
16.91667,167
16.92500,165
16.93333,164
16.94167,162
16.95000,161
16.95833,159
16.96667,158
16.97500,156
16.98333,154
16.99167,153
17.00000,152
17.00833,150
17.01667,149
17.02500,148
17.03333,147
17.04167,145
17.05000,144
17.05833,143
17.06667,142
17.07500,141
17.08333,139
17.09167,138
17.10000,137
17.10833,136
17.11667,135
17.12500,134
17.13333,133
17.14167,132
17.15000,131
17.15833,130
17.16667,129
17.17500,128
17.18333,127
17.19167,126
17.20000,126
17.20833,125
17.21667,124
17.22500,122
17.23333,121
17.24167,120
17.25000,120
17.25833,119
17.26667,118
17.27500,117
17.28333,116
17.29167,115
17.30000,114
17.30833,113
17.31667,113
17.32500,112
17.33333,111
17.34167,110
17.35000,109
17.35833,108
17.36667,108
17.37500,107
17.38333,106
17.39167,106
17.40000,105
17.40833,104
17.41667,103
17.42500,102
17.43333,101
17.44167,100
17.45000,100
17.45833,99
17.46667,99
17.47500,99
17.48333,98
17.49167,98
17.50000,98
17.50833,98
17.51667,97
17.52500,96
17.53333,96
17.54167,95
17.55000,94
17.55833,94
17.56667,93
17.57500,93
17.58333,93
17.59167,92
17.60000,92
17.60833,92
17.61667,91
17.62500,91
17.63333,91
17.64167,91
17.65000,91
17.65833,91
17.66667,91
17.67500,91
17.68333,90
17.69167,90
17.70000,90
17.70833,89
17.71667,89
17.72500,90
17.73333,90
17.74167,89
17.75000,89
17.75833,88
17.76667,88
17.77500,88
17.78333,88
17.79167,87
17.80000,87
17.80833,87
17.81667,86
17.82500,86
17.83333,86
17.84167,85
17.85000,85
17.85833,84
17.86667,84
17.87500,84
17.88333,83
17.89167,83
17.90000,82
17.90833,82
17.91667,81
17.92500,80
17.93333,80
17.94167,79
17.95000,78
17.95833,78
17.96667,76
17.97500,76
17.98333,75
17.99167,75
18.00000,74
18.00833,74
18.01667,74
18.02500,73
18.03333,73
18.04167,73
18.05000,72
18.05833,71
18.06667,71
18.07500,70
18.08333,70
18.09167,69
18.10000,68
18.10833,67
18.11667,67
18.12500,66
18.13333,66
18.14167,65
18.15000,65
18.15833,64
18.16667,64
18.17500,63
18.18333,63
18.19167,63
18.20000,62
18.20833,62
18.21667,61
18.22500,61
18.23333,61
18.24167,60
18.25000,60
18.25833,59
18.26667,59
18.27500,59
18.28333,59
18.29167,59
18.30000,58
18.30833,58
18.31667,57
18.32500,56
18.33333,56
18.34167,55
18.35000,55
18.35833,55
18.36667,55
18.37500,54
18.38333,54
18.39167,54
18.40000,54
18.40833,54
18.41667,54
18.42500,53
18.43333,53
18.44167,52
18.45000,51
18.45833,51
18.46667,51
18.47500,51
18.48333,51
18.49167,51
18.50000,51
18.50833,51
18.51667,51
18.52500,51
18.53333,51
18.54167,51
18.55000,50
18.55833,50
18.56667,50
18.57500,50
18.58333,49
18.59167,49
18.60000,48
18.60833,48
18.61667,49
18.62500,49
18.63333,49
18.64167,49
18.65000,49
18.65833,50
18.66667,50
18.67500,50
18.68333,51
18.69167,52
18.70000,52
18.70833,53
18.71667,53
18.72500,54
18.73333,55
18.74167,56
18.75000,57
18.75833,58
18.76667,59
18.77500,61
18.78333,63
18.79167,65
18.80000,66
18.80833,69
18.81667,71
18.82500,73
18.83333,76
18.84167,79
18.85000,81
18.85833,84
18.86667,88
18.87500,91
18.88333,94
18.89167,98
18.90000,102
18.90833,105
18.91667,108
18.92500,111
18.93333,115
18.94167,118
18.95000,122
18.95833,125
18.96667,128
18.97500,131
18.98333,134
18.99167,136
19.00000,139
19.00833,141
19.01667,143
19.02500,145
19.03333,147
19.04167,148
19.05000,149
19.05833,150
19.06667,151
19.07500,151
19.08333,151
19.09167,150
19.10000,149
19.10833,148
19.11667,146
19.12500,145
19.13333,143
19.14167,141
19.15000,139
19.15833,137
19.16667,135
19.17500,132
19.18333,129
19.19167,126
19.20000,123
19.20833,120
19.21667,117
19.22500,114
19.23333,111
19.24167,107
19.25000,104
19.25833,100
19.26667,97
19.27500,94
19.28333,91
19.29167,87
19.30000,84
19.30833,81
19.31667,79
19.32500,76
19.33333,74
19.34167,71
19.35000,69
19.35833,66
19.36667,64
19.37500,62
19.38333,59
19.39167,57
19.40000,55
19.40833,54
19.41667,52
19.42500,51
19.43333,49
19.44167,48
19.45000,46
19.45833,45
19.46667,44
19.47500,43
19.48333,42
19.49167,41
19.50000,41
19.50833,40
19.51667,39
19.52500,38
19.53333,37
19.54167,37
19.55000,36
19.55833,36
19.56667,35
19.57500,35
19.58333,34
19.59167,34
19.60000,34
19.60833,33
19.61667,33
19.62500,32
19.63333,32
19.64167,32
19.65000,31
19.65833,31
19.66667,31
19.67500,30
19.68333,31
19.69167,30
19.70000,30
19.70833,30
19.71667,30
19.72500,29
19.73333,29
19.74167,29
19.75000,28
19.75833,29
19.76667,28
19.77500,28
19.78333,28
19.79167,28
19.80000,28
19.80833,27
19.81667,26
19.82500,26
19.83333,26
19.84167,26
19.85000,26
19.85833,25
19.86667,25
19.87500,25
19.88333,25
19.89167,25
19.90000,24
19.90833,24
19.91667,24
19.92500,23
19.93333,23
19.94167,22
19.95000,21
19.95833,21
19.96667,21
19.97500,20
19.98333,20
19.99167,20
20.00000,19
20.00833,19
20.01667,19
20.02500,18
20.03333,18
20.04167,17
20.05000,17
20.05833,16
20.06667,16
20.07500,16
20.08333,15
20.09167,15
20.10000,15
20.10833,15
20.11667,15
20.12500,14
20.13333,14
20.14167,14
20.15000,14
20.15833,14
20.16667,13
20.17500,13
20.18333,13
20.19167,13
20.20000,12
20.20833,12
20.21667,12
20.22500,12
20.23333,12
20.24167,12
20.25000,12
20.25833,12
20.26667,12
20.27500,12
20.28333,12
20.29167,11
20.30000,11
20.30833,11
20.31667,10
20.32500,10
20.33333,10
20.34167,10
20.35000,11
20.35833,11
20.36667,11
20.37500,11
20.38333,11
20.39167,11
20.40000,11
20.40833,11
20.41667,11
20.42500,11
20.43333,11
20.44167,11
20.45000,11
20.45833,12
20.46667,12
20.47500,12
20.48333,12
20.49167,12
20.50000,12
20.50833,12
20.51667,12
20.52500,12
20.53333,12
20.54167,12
20.55000,12
20.55833,12
20.56667,13
20.57500,13
20.58333,14
20.59167,14
20.60000,14
20.60833,14
20.61667,14
20.62500,14
20.63333,15
20.64167,15
20.65000,15
20.65833,15
20.66667,15
20.67500,15
20.68333,15
20.69167,16
20.70000,16
20.70833,16
20.71667,16
20.72500,16
20.73333,16
20.74167,16
20.75000,16
20.75833,15
20.76667,15
20.77500,15
20.78333,15
20.79167,15
20.80000,15
20.80833,15
20.81667,15
20.82500,14
20.83333,13
20.84167,13
20.85000,13
20.85833,13
20.86667,12
20.87500,12
20.88333,12
20.89167,12
20.90000,12
20.90833,12
20.91667,12
20.92500,12
20.93333,11
20.94167,12
20.95000,12
20.95833,12
20.96667,12
20.97500,12
20.98333,12
20.99167,12
21.00000,12
21.00833,11
21.01667,11
21.02500,11
21.03333,11
21.04167,11
21.05000,11
21.05833,11
21.06667,12
21.07500,12
21.08333,12
21.09167,12
21.10000,12
21.10833,12
21.11667,12
21.12500,13
21.13333,13
21.14167,13
21.15000,13
21.15833,13
21.16667,14
21.17500,14
21.18333,14
21.19167,14
21.20000,14
21.20833,14
21.21667,14
21.22500,14
21.23333,14
21.24167,15
21.25000,15
21.25833,15
21.26667,15
21.27500,15
21.28333,15
21.29167,15
21.30000,15
21.30833,15
21.31667,15
21.32500,15
21.33333,15
21.34167,15
21.35000,14
21.35833,14
21.36667,14
21.37500,14
21.38333,14
21.39167,15
21.40000,15
21.40833,14
21.41667,14
21.42500,14
21.43333,15
21.44167,15
21.45000,14
21.45833,14
21.46667,14
21.47500,14
21.48333,14
21.49167,13
21.50000,13
21.50833,14
21.51667,14
21.52500,13
21.53333,13
21.54167,13
21.55000,13
21.55833,14
21.56667,14
21.57500,14
21.58333,14
21.59167,14
21.60000,13
21.60833,13
21.61667,13
21.62500,12
21.63333,12
21.64167,12
21.65000,12
21.65833,12
21.66667,12
21.67500,12
21.68333,12
21.69167,12
21.70000,12
21.70833,12
21.71667,12
21.72500,11
21.73333,11
21.74167,11
21.75000,11
21.75833,12
21.76667,12
21.77500,12
21.78333,12
21.79167,11
21.80000,11
21.80833,11
21.81667,11
21.82500,10
21.83333,10
21.84167,10
21.85000,10
21.85833,10
21.86667,10
21.87500,10
21.88333,10
21.89167,9
21.90000,9
21.90833,8
21.91667,8
21.92500,8
21.93333,7
21.94167,7
21.95000,7
21.95833,6
21.96667,6
21.97500,6
21.98333,5
21.99167,5
22.00000,5
22.00833,4
22.01667,4
22.02500,4
22.03333,4
22.04167,3
22.05000,3
22.05833,3
22.06667,3
22.07500,3
22.08333,2
22.09167,2
22.10000,2
22.10833,2
22.11667,2
22.12500,2
22.13333,1
22.14167,1
22.15000,1
22.15833,1
22.16667,1
22.17500,1
22.18333,1
22.19167,1
22.20000,1
22.20833,0
22.21667,0
22.22500,-0
22.23333,-0
22.24167,0
22.25000,0
22.25833,0
22.26667,0
22.27500,0
22.28333,0
22.29167,0
22.30000,0
22.30833,0
22.31667,1
22.32500,0
22.33333,0
22.34167,0
22.35000,0
22.35833,1
22.36667,1
22.37500,2
22.38333,2
22.39167,2
22.40000,2
22.40833,2
22.41667,2
22.42500,2
22.43333,2
22.44167,2
22.45000,2
22.45833,2
22.46667,2
22.47500,3
22.48333,3
22.49167,4
22.50000,4
22.50833,4
22.51667,4
22.52500,5
22.53333,5
22.54167,5
22.55000,6
22.55833,6
22.56667,6
22.57500,6
22.58333,6
22.59167,7
22.60000,8
22.60833,9
22.61667,9
22.62500,9
22.63333,10
22.64167,10
22.65000,11
22.65833,12
22.66667,12
22.67500,13
22.68333,14
22.69167,14
22.70000,15
22.70833,16
22.71667,17
22.72500,18
22.73333,18
22.74167,19
22.75000,20
22.75833,20
22.76667,21
22.77500,22
22.78333,23
22.79167,23
22.80000,23
22.80833,24
22.81667,24
22.82500,25
22.83333,25
22.84167,26
22.85000,27
22.85833,27
22.86667,27
22.87500,27
22.88333,28
22.89167,28
22.90000,29
22.90833,29
22.91667,28
22.92500,28
22.93333,28
22.94167,28
22.95000,28
22.95833,28
22.96667,27
22.97500,27
22.98333,26
22.99167,26
23.00000,25
23.00833,25
23.01667,24
23.02500,23
23.03333,23
23.04167,22
23.05000,22
23.05833,21
23.06667,20
23.07500,19
23.08333,19
23.09167,18
23.10000,17
23.10833,16
23.11667,16
23.12500,15
23.13333,15
23.14167,14
23.15000,14
23.15833,13
23.16667,13
23.17500,12
23.18333,12
23.19167,11
23.20000,11
23.20833,10
23.21667,10
23.22500,9
23.23333,8
23.24167,8
23.25000,7
23.25833,7
23.26667,7
23.27500,7
23.28333,6
23.29167,6
23.30000,5
23.30833,5
23.31667,5
23.32500,5
23.33333,5
23.34167,5
23.35000,5
23.35833,4
23.36667,4
23.37500,4
23.38333,4
23.39167,4
23.40000,4
23.40833,4
23.41667,4
23.42500,4
23.43333,4
23.44167,4
23.45000,4
23.45833,4
23.46667,4
23.47500,4
23.48333,5
23.49167,5
23.50000,5
23.50833,5
23.51667,5
23.52500,5
23.53333,6
23.54167,5
23.55000,5
23.55833,5
23.56667,6
23.57500,6
23.58333,7
23.59167,7
23.60000,7
23.60833,7
23.61667,8
23.62500,8
23.63333,8
23.64167,8
23.65000,8
23.65833,8
23.66667,8
23.67500,8
23.68333,8
23.69167,8
23.70000,8
23.70833,9
23.71667,9
23.72500,9
23.73333,9
23.74167,9
23.75000,9
23.75833,9
23.76667,9
23.77500,8
23.78333,8
23.79167,8
23.80000,8
23.80833,8
23.81667,8
23.82500,8
23.83333,7
23.84167,7
23.85000,8
23.85833,8
23.86667,8
23.87500,8
23.88333,8
23.89167,7
23.90000,7
23.90833,7
23.91667,6
23.92500,6
23.93333,6
23.94167,5
23.95000,5
23.95833,5
23.96667,5
23.97500,5
23.98333,5
23.99167,5
24.00000,5
24.00833,5
24.01667,5
24.02500,5
24.03333,4
24.04167,4
24.05000,4
24.05833,4
24.06667,4
24.07500,3
24.08333,3
24.09167,3
24.10000,3
24.10833,3
24.11667,3
24.12500,3
24.13333,2
24.14167,2
24.15000,2
24.15833,2
24.16667,2
24.17500,2
24.18333,2
24.19167,3
24.20000,3
24.20833,3
24.21667,2
24.22500,2
24.23333,2
24.24167,2
24.25000,1
24.25833,1
24.26667,1
24.27500,1
24.28333,1
24.29167,2
24.30000,1
24.30833,1
24.31667,1
24.32500,1
24.33333,2
24.34167,2
24.35000,2
24.35833,2
24.36667,2
24.37500,3
24.38333,3
24.39167,3
24.40000,3
24.40833,3
24.41667,4
24.42500,4
24.43333,4
24.44167,5
24.45000,5
24.45833,6
24.46667,7
24.47500,7
24.48333,8
24.49167,9
24.50000,10
24.50833,11
24.51667,12
24.52500,13
24.53333,15
24.54167,16
24.55000,18
24.55833,20
24.56667,22
24.57500,25
24.58333,27
24.59167,30
24.60000,33
24.60833,35
24.61667,39
24.62500,42
24.63333,46
24.64167,50
24.65000,54
24.65833,59
24.66667,64
24.67500,69
24.68333,75
24.69167,80
24.70000,87
24.70833,93
24.71667,100
24.72500,106
24.73333,114
24.74167,122
24.75000,130
24.75833,139
24.76667,147
24.77500,156
24.78333,165
24.79167,174
24.80000,183
24.80833,192
24.81667,201
24.82500,210
24.83333,220
24.84167,230
24.85000,239
24.85833,249
24.86667,258
24.87500,268
24.88333,277
24.89167,285
24.90000,294
24.90833,302
24.91667,310
24.92500,318
24.93333,325
24.94167,331
24.95000,337
24.95833,343
24.96667,348
24.97500,352
24.98333,355
24.99167,358
25.00000,360
25.00833,362
25.01667,363
25.02500,363
25.03333,363
25.04167,363
25.05000,361
25.05833,359
25.06667,357
25.07500,353
25.08333,349
25.09167,345
25.10000,340
25.10833,335
25.11667,329
25.12500,322
25.13333,315
25.14167,308
25.15000,301
25.15833,293
25.16667,285
25.17500,277
25.18333,269
25.19167,260
25.20000,251
25.20833,242
25.21667,233
25.22500,224
25.23333,215
25.24167,206
25.25000,197
25.25833,188
25.26667,179
25.27500,171
25.28333,163
25.29167,155
25.30000,147
25.30833,139
25.31667,131
25.32500,124
25.33333,117
25.34167,111
25.35000,104
25.35833,98
25.36667,92
25.37500,86
25.38333,81
25.39167,75
25.40000,70
25.40833,65
25.41667,61
25.42500,57
25.43333,53
25.44167,49
25.45000,46
25.45833,43
25.46667,40
25.47500,36
25.48333,34
25.49167,31
25.50000,29
25.50833,27
25.51667,25
25.52500,23
25.53333,21
25.54167,20
25.55000,18
25.55833,17
25.56667,16
25.57500,15
25.58333,14
25.59167,13
25.60000,12
25.60833,12
25.61667,11
25.62500,10
25.63333,9
25.64167,9
25.65000,8
25.65833,8
25.66667,7
25.67500,7
25.68333,7
25.69167,7
25.70000,7
25.70833,7
25.71667,6
25.72500,6
25.73333,7
25.74167,7
25.75000,7
25.75833,6
25.76667,6
25.77500,6
25.78333,6
25.79167,6
25.80000,6
25.80833,6
25.81667,6
25.82500,6
25.83333,6
25.84167,6
25.85000,6
25.85833,6
25.86667,6
25.87500,6
25.88333,6
25.89167,6
25.90000,7
25.90833,7
25.91667,6
25.92500,6
25.93333,6
25.94167,6
25.95000,5
25.95833,6
25.96667,6
25.97500,6
25.98333,6
25.99167,6
26.00000,6
26.00833,6
26.01667,5
26.02500,5
26.03333,6
26.04167,6
26.05000,5
26.05833,5
26.06667,5
26.07500,4
26.08333,4
26.09167,3
26.10000,3
26.10833,3
26.11667,3
26.12500,3
26.13333,3
26.14167,4
26.15000,4
26.15833,4
26.16667,3
26.17500,3
26.18333,3
26.19167,3
26.20000,3
26.20833,3
26.21667,3
26.22500,3
26.23333,2
26.24167,2
26.25000,2
26.25833,2
26.26667,2
26.27500,2
26.28333,2
26.29167,2
26.30000,2
26.30833,2
26.31667,1
26.32500,1
26.33333,1
26.34167,1
26.35000,1
26.35833,1
26.36667,1
26.37500,1
26.38333,1
26.39167,0
26.40000,0
26.40833,0
26.41667,0
26.42500,0
26.43333,0
26.44167,0
26.45000,0
26.45833,1
26.46667,1
26.47500,1
26.48333,1
26.49167,1
26.50000,1
26.50833,1
26.51667,1
26.52500,2
26.53333,1
26.54167,1
26.55000,1
26.55833,1
26.56667,1
26.57500,1
26.58333,1
26.59167,1
26.60000,1
26.60833,1
26.61667,1
26.62500,1
26.63333,1
26.64167,1
26.65000,1
26.65833,1
26.66667,1
26.67500,1
26.68333,1
26.69167,0
26.70000,0
26.70833,0
26.71667,0
26.72500,0
26.73333,0
26.74167,0
26.75000,0
26.75833,0
26.76667,1
26.77500,1
26.78333,1
26.79167,1
26.80000,0
26.80833,0
26.81667,0
26.82500,0
26.83333,0
26.84167,0
26.85000,0
26.85833,0
26.86667,0
26.87500,0
26.88333,0
26.89167,0
26.90000,0
26.90833,-0
26.91667,-0
26.92500,-1
26.93333,-1
26.94167,-2
26.95000,-2
26.95833,-2
26.96667,-2
26.97500,-2
26.98333,-2
26.99167,-2
27.00000,-1
27.00833,-1
27.01667,-1
27.02500,-2
27.03333,-2
27.04167,-2
27.05000,-2
27.05833,-2
27.06667,-3
27.07500,-3
27.08333,-3
27.09167,-3
27.10000,-3
27.10833,-3
27.11667,-4
27.12500,-4
27.13333,-4
27.14167,-4
27.15000,-4
27.15833,-4
27.16667,-4
27.17500,-4
27.18333,-5
27.19167,-5
27.20000,-5
27.20833,-5
27.21667,-5
27.22500,-5
27.23333,-5
27.24167,-4
27.25000,-4
27.25833,-4
27.26667,-4
27.27500,-4
27.28333,-4
27.29167,-4
27.30000,-4
27.30833,-4
27.31667,-4
27.32500,-3
27.33333,-3
27.34167,-3
27.35000,-3
27.35833,-3
27.36667,-3
27.37500,-3
27.38333,-3
27.39167,-4
27.40000,-4
27.40833,-3
27.41667,-3
27.42500,-3
27.43333,-2
27.44167,-2
27.45000,-3
27.45833,-3
27.46667,-3
27.47500,-3
27.48333,-3
27.49167,-3
27.50000,-3
27.50833,-3
27.51667,-3
27.52500,-3
27.53333,-2
27.54167,-2
27.55000,-2
27.55833,-2
27.56667,-2
27.57500,-2
27.58333,-2
27.59167,-3
27.60000,-3
27.60833,-3
27.61667,-3
27.62500,-3
27.63333,-3
27.64167,-3
27.65000,-3
27.65833,-3
27.66667,-3
27.67500,-3
27.68333,-4
27.69167,-4
27.70000,-4
27.70833,-4
27.71667,-4
27.72500,-4
27.73333,-5
27.74167,-5
27.75000,-5
27.75833,-6
27.76667,-6
27.77500,-7
27.78333,-7
27.79167,-8
27.80000,-9
27.80833,-10
27.81667,-11
27.82500,-12
27.83333,-14
27.84167,-15
27.85000,-16
27.85833,-17
27.86667,-18
27.87500,-20
27.88333,-21
27.89167,-23
27.90000,-24
27.90833,-26
27.91667,-28
27.92500,-30
27.93333,-33
27.94167,-35
27.95000,-37
27.95833,-40
27.96667,-42
27.97500,-44
27.98333,-47
27.99167,-49
28.00000,-52
28.00833,-54
28.01667,-57
28.02500,-61
28.03333,-64
28.04167,-68
28.05000,-72
28.05833,-76
28.06667,-79
28.07500,-82
28.08333,-85
28.09167,-89
28.10000,-92
28.10833,-96
28.11667,-99
28.12500,-103
28.13333,-106
28.14167,-110
28.15000,-113
28.15833,-117
28.16667,-121
28.17500,-124
28.18333,-128
28.19167,-131
28.20000,-134
28.20833,-137
28.21667,-140
28.22500,-143
28.23333,-145
28.24167,-148
28.25000,-150
28.25833,-152
28.26667,-154
28.27500,-156
28.28333,-158
28.29167,-160
28.30000,-162
28.30833,-163
28.31667,-164
28.32500,-165
28.33333,-166
28.34167,-167
28.35000,-167
28.35833,-167
28.36667,-168
28.37500,-168
28.38333,-168
28.39167,-167
28.40000,-166
28.40833,-165
28.41667,-164
28.42500,-163
28.43333,-162
28.44167,-161
28.45000,-159
28.45833,-158
28.46667,-156
28.47500,-153
28.48333,-151
28.49167,-149
28.50000,-147
28.50833,-144
28.51667,-141
28.52500,-138
28.53333,-135
28.54167,-132
28.55000,-129
28.55833,-126
28.56667,-124
28.57500,-121
28.58333,-118
28.59167,-115
28.60000,-112
28.60833,-109
28.61667,-106
28.62500,-103
28.63333,-100
28.64167,-97
28.65000,-94
28.65833,-91
28.66667,-88
28.67500,-85
28.68333,-82
28.69167,-80
28.70000,-77
28.70833,-74
28.71667,-71
28.72500,-68
28.73333,-66
28.74167,-63
28.75000,-61
28.75833,-59
28.76667,-57
28.77500,-54
28.78333,-52
28.79167,-49
28.80000,-47
28.80833,-45
28.81667,-43
28.82500,-41
28.83333,-39
28.84167,-37
28.85000,-36
28.85833,-34
28.86667,-33
28.87500,-32
28.88333,-30
28.89167,-29
28.90000,-28
28.90833,-27
28.91667,-25
28.92500,-24
28.93333,-23
28.94167,-22
28.95000,-21
28.95833,-20
28.96667,-20
28.97500,-19
28.98333,-18
28.99167,-17
29.00000,-16
29.00833,-15
29.01667,-15
29.02500,-14
29.03333,-14
29.04167,-14
29.05000,-13
29.05833,-13
29.06667,-12
29.07500,-12
29.08333,-11
29.09167,-10
29.10000,-10
29.10833,-9
29.11667,-10
29.12500,-10
29.13333,-10
29.14167,-10
29.15000,-10
29.15833,-10
29.16667,-10
29.17500,-10
29.18333,-10
29.19167,-11
29.20000,-11
29.20833,-11
29.21667,-11
29.22500,-11
29.23333,-11
29.24167,-11
29.25000,-11
29.25833,-11
29.26667,-11
29.27500,-11
29.28333,-11
29.29167,-11
29.30000,-11
29.30833,-11
29.31667,-12
29.32500,-12
29.33333,-12
29.34167,-12
29.35000,-13
29.35833,-13
29.36667,-13
29.37500,-13
29.38333,-13
29.39167,-13
29.40000,-13
29.40833,-13
29.41667,-13
29.42500,-13
29.43333,-14
29.44167,-14
29.45000,-14
29.45833,-14
29.46667,-14
29.47500,-14
29.48333,-14
29.49167,-14
29.50000,-14
29.50833,-15
29.51667,-15
29.52500,-16
29.53333,-16
29.54167,-17
29.55000,-17
29.55833,-17
29.56667,-18
29.57500,-18
29.58333,-18
29.59167,-19
29.60000,-19
29.60833,-20
29.61667,-20
29.62500,-21
29.63333,-21
29.64167,-21
29.65000,-22
29.65833,-23
29.66667,-24
29.67500,-25
29.68333,-25
29.69167,-26
29.70000,-27
29.70833,-28
29.71667,-29
29.72500,-30
29.73333,-31
29.74167,-32
29.75000,-33
29.75833,-34
29.76667,-35
29.77500,-36
29.78333,-37
29.79167,-38
29.80000,-39
29.80833,-41
29.81667,-42
29.82500,-43
29.83333,-44
29.84167,-46
29.85000,-47
29.85833,-49
29.86667,-50
29.87500,-52
29.88333,-53
29.89167,-54
29.90000,-56
29.90833,-57
29.91667,-58
29.92500,-59
29.93333,-61
29.94167,-62
29.95000,-63
29.95833,-63
29.96667,-64
29.97500,-66
29.98333,-67
29.99167,-68
30.00000,-69
30.00833,-70
30.01667,-71
30.02500,-71
30.03333,-72
30.04167,-73
30.05000,-74
30.05833,-75
30.06667,-76
30.07500,-76
30.08333,-77
30.09167,-77
30.10000,-77
30.10833,-77
30.11667,-77
30.12500,-77
30.13333,-77
30.14167,-77
30.15000,-77
30.15833,-77
30.16667,-77
30.17500,-76
30.18333,-76
30.19167,-75
30.20000,-75
30.20833,-74
30.21667,-73
30.22500,-73
30.23333,-73
30.24167,-72
30.25000,-71
30.25833,-70
30.26667,-69
30.27500,-68
30.28333,-68
30.29167,-67
30.30000,-66
30.30833,-65
30.31667,-64
30.32500,-63
30.33333,-62
30.34167,-61
30.35000,-59
30.35833,-58
30.36667,-57
30.37500,-56
30.38333,-55
30.39167,-54
30.40000,-53
30.40833,-52
30.41667,-51
30.42500,-50
30.43333,-49
30.44167,-48
30.45000,-47
30.45833,-46
30.46667,-45
30.47500,-44
30.48333,-43
30.49167,-42
30.50000,-41
30.50833,-40
30.51667,-39
30.52500,-39
30.53333,-38
30.54167,-37
30.55000,-37
30.55833,-37
30.56667,-36
30.57500,-36
30.58333,-35
30.59167,-35
30.60000,-34
30.60833,-33
30.61667,-33
30.62500,-32
30.63333,-32
30.64167,-32
30.65000,-31
30.65833,-31
30.66667,-31
30.67500,-31
30.68333,-31
30.69167,-31
30.70000,-31
30.70833,-31
30.71667,-32
30.72500,-32
30.73333,-32
30.74167,-32
30.75000,-32
30.75833,-32
30.76667,-32
30.77500,-32
30.78333,-32
30.79167,-32
30.80000,-32
30.80833,-32
30.81667,-32
30.82500,-32
30.83333,-32
30.84167,-32
30.85000,-32
30.85833,-33
30.86667,-33
30.87500,-33
30.88333,-34
30.89167,-34
30.90000,-34
30.90833,-34
30.91667,-35
30.92500,-35
30.93333,-35
30.94167,-35
30.95000,-36
30.95833,-36
30.96667,-36
30.97500,-36
30.98333,-36
30.99167,-35
31.00000,-35
31.00833,-35
31.01667,-35
31.02500,-35
31.03333,-35
31.04167,-34
31.05000,-34
31.05833,-34
31.06667,-33
31.07500,-33
31.08333,-33
31.09167,-33
31.10000,-33
31.10833,-33
31.11667,-33
31.12500,-33
31.13333,-32
31.14167,-32
31.15000,-31
31.15833,-31
31.16667,-30
31.17500,-30
31.18333,-30
31.19167,-30
31.20000,-29
31.20833,-29
31.21667,-28
31.22500,-27
31.23333,-26
31.24167,-25
31.25000,-25
31.25833,-24
31.26667,-23
31.27500,-23
31.28333,-23
31.29167,-22
31.30000,-22
31.30833,-21
31.31667,-20
31.32500,-20
31.33333,-19
31.34167,-18
31.35000,-17
31.35833,-16
31.36667,-15
31.37500,-14
31.38333,-14
31.39167,-14
31.40000,-14
31.40833,-13
31.41667,-12
31.42500,-12
31.43333,-11
31.44167,-11
31.45000,-11
31.45833,-10
31.46667,-10
31.47500,-9
31.48333,-9
31.49167,-9
31.50000,-8
31.50833,-8
31.51667,-8
31.52500,-7
31.53333,-7
31.54167,-7
31.55000,-7
31.55833,-6
31.56667,-6
31.57500,-5
31.58333,-5
31.59167,-5
31.60000,-5
31.60833,-5
31.61667,-5
31.62500,-4
31.63333,-4
31.64167,-3
31.65000,-3
31.65833,-3
31.66667,-2
31.67500,-2
31.68333,-2
31.69167,-1
31.70000,-1
31.70833,-1
31.71667,-1
31.72500,-1
31.73333,-1
31.74167,-1
31.75000,-1
31.75833,-1
31.76667,-1
31.77500,-2
31.78333,-2
31.79167,-2
31.80000,-2
31.80833,-2
31.81667,-2
31.82500,-2
31.83333,-1
31.84167,-1
31.85000,-1
31.85833,-1
31.86667,-1
31.87500,-1
31.88333,-1
31.89167,-1
31.90000,-2
31.90833,-2
31.91667,-3
31.92500,-3
31.93333,-4
31.94167,-4
31.95000,-4
31.95833,-3
31.96667,-3
31.97500,-3
31.98333,-3
31.99167,-3
32.00000,-4
32.00833,-4
32.01667,-5
32.02500,-5
32.03333,-4
32.04167,-4
32.05000,-5
32.05833,-5
32.06667,-4
32.07500,-5
32.08333,-5
32.09167,-5
32.10000,-5
32.10833,-5
32.11667,-5
32.12500,-5
32.13333,-6
32.14167,-6
32.15000,-6
32.15833,-6
32.16667,-6
32.17500,-6
32.18333,-6
32.19167,-6
32.20000,-6
32.20833,-6
32.21667,-6
32.22500,-6
32.23333,-7
32.24167,-7
32.25000,-7
32.25833,-7
32.26667,-7
32.27500,-7
32.28333,-7
32.29167,-7
32.30000,-7
32.30833,-7
32.31667,-7
32.32500,-7
32.33333,-7
32.34167,-7
32.35000,-7
32.35833,-7
32.36667,-7
32.37500,-7
32.38333,-7
32.39167,-7
32.40000,-7
32.40833,-7
32.41667,-8
32.42500,-8
32.43333,-8
32.44167,-8
32.45000,-8
32.45833,-8
32.46667,-8
32.47500,-8
32.48333,-8
32.49167,-8
32.50000,-8
32.50833,-8
32.51667,-8
32.52500,-8
32.53333,-8
32.54167,-8
32.55000,-8
32.55833,-8
32.56667,-7
32.57500,-7
32.58333,-7
32.59167,-7
32.60000,-7
32.60833,-7
32.61667,-7
32.62500,-7
32.63333,-7
32.64167,-7
32.65000,-7
32.65833,-7
32.66667,-8
32.67500,-8
32.68333,-8
32.69167,-7
32.70000,-7
32.70833,-7
32.71667,-7
32.72500,-7
32.73333,-7
32.74167,-7
32.75000,-7
32.75833,-7
32.76667,-7
32.77500,-6
32.78333,-5
32.79167,-5
32.80000,-5
32.80833,-5
32.81667,-5
32.82500,-5
32.83333,-5
32.84167,-5
32.85000,-5
32.85833,-5
32.86667,-5
32.87500,-4
32.88333,-4
32.89167,-4
32.90000,-4
32.90833,-4
32.91667,-4
32.92500,-4
32.93333,-3
32.94167,-3
32.95000,-3
32.95833,-3
32.96667,-3
32.97500,-3
32.98333,-3
32.99167,-3
33.00000,-3
33.00833,-3
33.01667,-3
33.02500,-3
33.03333,-3
33.04167,-3
33.05000,-3
33.05833,-3
33.06667,-3
33.07500,-3
33.08333,-3
33.09167,-3
33.10000,-4
33.10833,-4
33.11667,-4
33.12500,-4
33.13333,-4
33.14167,-4
33.15000,-4
33.15833,-3
33.16667,-3
33.17500,-4
33.18333,-4
33.19167,-4
33.20000,-5
33.20833,-5
33.21667,-5
33.22500,-5
33.23333,-5
33.24167,-5
33.25000,-6
33.25833,-7
33.26667,-7
33.27500,-8
33.28333,-8
33.29167,-8
33.30000,-8
33.30833,-8
33.31667,-8
33.32500,-9
33.33333,-9
33.34167,-9
33.35000,-9
33.35833,-9
33.36667,-10
33.37500,-10
33.38333,-11
33.39167,-11
33.40000,-11
33.40833,-11
33.41667,-11
33.42500,-11
33.43333,-11
33.44167,-11
33.45000,-11
33.45833,-11
33.46667,-11
33.47500,-11
33.48333,-11
33.49167,-11
33.50000,-11
33.50833,-11
33.51667,-11
33.52500,-11
33.53333,-11
33.54167,-11
33.55000,-11
33.55833,-11
33.56667,-11
33.57500,-11
33.58333,-11
33.59167,-11
33.60000,-11
33.60833,-11
33.61667,-11
33.62500,-11
33.63333,-11
33.64167,-11
33.65000,-11
33.65833,-11
33.66667,-11
33.67500,-11
33.68333,-11
33.69167,-11
33.70000,-11
33.70833,-11
33.71667,-11
33.72500,-11
33.73333,-11
33.74167,-11
33.75000,-11
33.75833,-11
33.76667,-11
33.77500,-11
33.78333,-11
33.79167,-11
33.80000,-11
33.80833,-10
33.81667,-10
33.82500,-10
33.83333,-10
33.84167,-10
33.85000,-10
33.85833,-10
33.86667,-10
33.87500,-10
33.88333,-9
33.89167,-9
33.90000,-8
33.90833,-8
33.91667,-8
33.92500,-7
33.93333,-7
33.94167,-7
33.95000,-7
33.95833,-7
33.96667,-7
33.97500,-7
33.98333,-7
33.99167,-7
34.00000,-7
34.00833,-7
34.01667,-7
34.02500,-8
34.03333,-8
34.04167,-8
34.05000,-8
34.05833,-8
34.06667,-8
34.07500,-8
34.08333,-8
34.09167,-8
34.10000,-8
34.10833,-8
34.11667,-8
34.12500,-8
34.13333,-9
34.14167,-8
34.15000,-8
34.15833,-8
34.16667,-8
34.17500,-8
34.18333,-9
34.19167,-9
34.20000,-10
34.20833,-10
34.21667,-10
34.22500,-10
34.23333,-10
34.24167,-10
34.25000,-10
34.25833,-10
34.26667,-10
34.27500,-10
34.28333,-10
34.29167,-10
34.30000,-10
34.30833,-10
34.31667,-10
34.32500,-10
34.33333,-10
34.34167,-10
34.35000,-10
34.35833,-10
34.36667,-10
34.37500,-10
34.38333,-10
34.39167,-10
34.40000,-10
34.40833,-10
34.41667,-10
34.42500,-10
34.43333,-10
34.44167,-10
34.45000,-10
34.45833,-10
34.46667,-10
34.47500,-10
34.48333,-10
34.49167,-9
34.50000,-9
34.50833,-9
34.51667,-9
34.52500,-9
34.53333,-9
34.54167,-9
34.55000,-9
34.55833,-9
34.56667,-8
34.57500,-8
34.58333,-8
34.59167,-8
34.60000,-8
34.60833,-8
34.61667,-9
34.62500,-9
34.63333,-9
34.64167,-9
34.65000,-9
34.65833,-9
34.66667,-9
34.67500,-9
34.68333,-8
34.69167,-8
34.70000,-8
34.70833,-8
34.71667,-8
34.72500,-9
34.73333,-9
34.74167,-9
34.75000,-9
34.75833,-9
34.76667,-9
34.77500,-9
34.78333,-9
34.79167,-9
34.80000,-9
34.80833,-10
34.81667,-10
34.82500,-10
34.83333,-10
34.84167,-10
34.85000,-10
34.85833,-10
34.86667,-10
34.87500,-10
34.88333,-10
34.89167,-11
34.90000,-11
34.90833,-11
34.91667,-11
34.92500,-11
34.93333,-11
34.94167,-11
34.95000,-10
34.95833,-11
34.96667,-11
34.97500,-11
34.98333,-11
34.99167,-11
35.00000,-11
35.00833,-11
35.01667,-11
35.02500,-10
35.03333,-10
35.04167,-10
35.05000,-10
35.05833,-10
35.06667,-10
35.07500,-10
35.08333,-10
35.09167,-10
35.10000,-10
35.10833,-11
35.11667,-11
35.12500,-11
35.13333,-11
35.14167,-11
35.15000,-11
35.15833,-11
35.16667,-11
35.17500,-12
35.18333,-12
35.19167,-12
35.20000,-12
35.20833,-12
35.21667,-12
35.22500,-12
35.23333,-13
35.24167,-13
35.25000,-13
35.25833,-13
35.26667,-14
35.27500,-14
35.28333,-14
35.29167,-14
35.30000,-14
35.30833,-14
35.31667,-14
35.32500,-14
35.33333,-14
35.34167,-15
35.35000,-14
35.35833,-14
35.36667,-14
35.37500,-14
35.38333,-14
35.39167,-14
35.40000,-15
35.40833,-15
35.41667,-16
35.42500,-16
35.43333,-17
35.44167,-17
35.45000,-17
35.45833,-17
35.46667,-17
35.47500,-17
35.48333,-17
35.49167,-17
35.50000,-16
35.50833,-17
35.51667,-17
35.52500,-17
35.53333,-17
35.54167,-17
35.55000,-17
35.55833,-17
35.56667,-16
35.57500,-16
35.58333,-16
35.59167,-16
35.60000,-16
35.60833,-16
35.61667,-16
35.62500,-16
35.63333,-16
35.64167,-16
35.65000,-16
35.65833,-16
35.66667,-16
35.67500,-15
35.68333,-15
35.69167,-15
35.70000,-14
35.70833,-14
35.71667,-13
35.72500,-13
35.73333,-12
35.74167,-12
35.75000,-12
35.75833,-12
35.76667,-12
35.77500,-11
35.78333,-11
35.79167,-11
35.80000,-10
35.80833,-10
35.81667,-10
35.82500,-10
35.83333,-9
35.84167,-9
35.85000,-9
35.85833,-9
35.86667,-8
35.87500,-8
35.88333,-7
35.89167,-7
35.90000,-7
35.90833,-7
35.91667,-6
35.92500,-6
35.93333,-6
35.94167,-6
35.95000,-6
35.95833,-5
35.96667,-5
35.97500,-5
35.98333,-5
35.99167,-5
36.00000,-5
36.00833,-5
36.01667,-5
36.02500,-5
36.03333,-5
36.04167,-5
36.05000,-5
36.05833,-5
36.06667,-5
36.07500,-5
36.08333,-6
36.09167,-6
36.10000,-7
36.10833,-7
36.11667,-6
36.12500,-6
36.13333,-6
36.14167,-6
36.15000,-6
36.15833,-7
36.16667,-7
36.17500,-7
36.18333,-8
36.19167,-8
36.20000,-8
36.20833,-8
36.21667,-9
36.22500,-8
36.23333,-8
36.24167,-8
36.25000,-8
36.25833,-8
36.26667,-8
36.27500,-8
36.28333,-8
36.29167,-8
36.30000,-8
36.30833,-9
36.31667,-9
36.32500,-9
36.33333,-10
36.34167,-10
36.35000,-10
36.35833,-10
36.36667,-10
36.37500,-9
36.38333,-9
36.39167,-9
36.40000,-10
36.40833,-10
36.41667,-10
36.42500,-10
36.43333,-11
36.44167,-11
36.45000,-11
36.45833,-11
36.46667,-10
36.47500,-10
36.48333,-11
36.49167,-11
36.50000,-11
36.50833,-11
36.51667,-11
36.52500,-11
36.53333,-11
36.54167,-11
36.55000,-11
36.55833,-10
36.56667,-10
36.57500,-10
36.58333,-10
36.59167,-10
36.60000,-10
36.60833,-10
36.61667,-10
36.62500,-10
36.63333,-10
36.64167,-10
36.65000,-10
36.65833,-10
36.66667,-10
36.67500,-9
36.68333,-9
36.69167,-9
36.70000,-9
36.70833,-9
36.71667,-8
36.72500,-8
36.73333,-7
36.74167,-7
36.75000,-6
36.75833,-6
36.76667,-6
36.77500,-6
36.78333,-6
36.79167,-6
36.80000,-6
36.80833,-6
36.81667,-6
36.82500,-6
36.83333,-6
36.84167,-6
36.85000,-6
36.85833,-6
36.86667,-7
36.87500,-7
36.88333,-7
36.89167,-7
36.90000,-7
36.90833,-7
36.91667,-7
36.92500,-6
36.93333,-7
36.94167,-7
36.95000,-7
36.95833,-7
36.96667,-7
36.97500,-7
36.98333,-7
36.99167,-7
37.00000,-7
37.00833,-8
37.01667,-7
37.02500,-7
37.03333,-7
37.04167,-8
37.05000,-8
37.05833,-8
37.06667,-8
37.07500,-9
37.08333,-9
37.09167,-9
37.10000,-9
37.10833,-8
37.11667,-8
37.12500,-9
37.13333,-9
37.14167,-9
37.15000,-10
37.15833,-10
37.16667,-10
37.17500,-10
37.18333,-10
37.19167,-11
37.20000,-11
37.20833,-11
37.21667,-11
37.22500,-11
37.23333,-12
37.24167,-12
37.25000,-12
37.25833,-12
37.26667,-12
37.27500,-12
37.28333,-12
37.29167,-12
37.30000,-13
37.30833,-13
37.31667,-13
37.32500,-13
37.33333,-13
37.34167,-13
37.35000,-13
37.35833,-13
37.36667,-13
37.37500,-13
37.38333,-13
37.39167,-13
37.40000,-13
37.40833,-13
37.41667,-13
37.42500,-13
37.43333,-13
37.44167,-13
37.45000,-13
37.45833,-13
37.46667,-13
37.47500,-13
37.48333,-13
37.49167,-13
37.50000,-13
37.50833,-12
37.51667,-12
37.52500,-12
37.53333,-12
37.54167,-12
37.55000,-12
37.55833,-12
37.56667,-11
37.57500,-11
37.58333,-11
37.59167,-11
37.60000,-12
37.60833,-12
37.61667,-12
37.62500,-12
37.63333,-12
37.64167,-11
37.65000,-11
37.65833,-11
37.66667,-11
37.67500,-11
37.68333,-11
37.69167,-11
37.70000,-11
37.70833,-11
37.71667,-10
37.72500,-10
37.73333,-9
37.74167,-9
37.75000,-9
37.75833,-9
37.76667,-9
37.77500,-9
37.78333,-9
37.79167,-9
37.80000,-9
37.80833,-9
37.81667,-9
37.82500,-9
37.83333,-9
37.84167,-9
37.85000,-10
37.85833,-10
37.86667,-10
37.87500,-10
37.88333,-10
37.89167,-10
37.90000,-10
37.90833,-10
37.91667,-10
37.92500,-9
37.93333,-9
37.94167,-9
37.95000,-9
37.95833,-9
37.96667,-9
37.97500,-9
37.98333,-10
37.99167,-10
38.00000,-10
38.00833,-10
38.01667,-10
38.02500,-10
38.03333,-10
38.04167,-10
38.05000,-10
38.05833,-10
38.06667,-9
38.07500,-9
38.08333,-10
38.09167,-10
38.10000,-10
38.10833,-10
38.11667,-10
38.12500,-10
38.13333,-10
38.14167,-10
38.15000,-10
38.15833,-10
38.16667,-11
38.17500,-11
38.18333,-11
38.19167,-11
38.20000,-11
38.20833,-11
38.21667,-11
38.22500,-11
38.23333,-11
38.24167,-11
38.25000,-11
38.25833,-11
38.26667,-11
38.27500,-11
38.28333,-11
38.29167,-11
38.30000,-11
38.30833,-11
38.31667,-12
38.32500,-12
38.33333,-12
38.34167,-12
38.35000,-12
38.35833,-12
38.36667,-12
38.37500,-12
38.38333,-12
38.39167,-12
38.40000,-12
38.40833,-13
38.41667,-13
38.42500,-13
38.43333,-13
38.44167,-13
38.45000,-13
38.45833,-13
38.46667,-14
38.47500,-14
38.48333,-14
38.49167,-14
38.50000,-14
38.50833,-14
38.51667,-14
38.52500,-14
38.53333,-14
38.54167,-14
38.55000,-14
38.55833,-14
38.56667,-14
38.57500,-14
38.58333,-15
38.59167,-15
38.60000,-15
38.60833,-15
38.61667,-15
38.62500,-15
38.63333,-14
38.64167,-14
38.65000,-14
38.65833,-15
38.66667,-15
38.67500,-15
38.68333,-15
38.69167,-15
38.70000,-15
38.70833,-15
38.71667,-15
38.72500,-14
38.73333,-14
38.74167,-15
38.75000,-15
38.75833,-14
38.76667,-14
38.77500,-14
38.78333,-14
38.79167,-14
38.80000,-14
38.80833,-14
38.81667,-14
38.82500,-14
38.83333,-14
38.84167,-14
38.85000,-13
38.85833,-13
38.86667,-13
38.87500,-13
38.88333,-12
38.89167,-12
38.90000,-12
38.90833,-12
38.91667,-12
38.92500,-12
38.93333,-12
38.94167,-12
38.95000,-12
38.95833,-12
38.96667,-12
38.97500,-12
38.98333,-12
38.99167,-12
39.00000,-12
39.00833,-13
39.01667,-13
39.02500,-13
39.03333,-13
39.04167,-12
39.05000,-12
39.05833,-12
39.06667,-12
39.07500,-11
39.08333,-11
39.09167,-11
39.10000,-11
39.10833,-11
39.11667,-11
39.12500,-11
39.13333,-11
39.14167,-11
39.15000,-11
39.15833,-11
39.16667,-10
39.17500,-10
39.18333,-10
39.19167,-10
39.20000,-11
39.20833,-11
39.21667,-11
39.22500,-11
39.23333,-12
39.24167,-12
39.25000,-12
39.25833,-12
39.26667,-12
39.27500,-13
39.28333,-13
39.29167,-13
39.30000,-13
39.30833,-13
39.31667,-13
39.32500,-13
39.33333,-13
39.34167,-13
39.35000,-13
39.35833,-13
39.36667,-14
39.37500,-14
39.38333,-13
39.39167,-14
39.40000,-14
39.40833,-14
39.41667,-14
39.42500,-14
39.43333,-14
39.44167,-14
39.45000,-14
39.45833,-14
39.46667,-14
39.47500,-14
39.48333,-14
39.49167,-14
39.50000,-14
39.50833,-14
39.51667,-13
39.52500,-13
39.53333,-13
39.54167,-13
39.55000,-13
39.55833,-13
39.56667,-13
39.57500,-12
39.58333,-12
39.59167,-13
39.60000,-13
39.60833,-13
39.61667,-13
39.62500,-13
39.63333,-13
39.64167,-13
39.65000,-12
39.65833,-12
39.66667,-12
39.67500,-12
39.68333,-12
39.69167,-12
39.70000,-11
39.70833,-11
39.71667,-11
39.72500,-11
39.73333,-11
39.74167,-11
39.75000,-11
39.75833,-11
39.76667,-11
39.77500,-11
39.78333,-11
39.79167,-11
39.80000,-11
39.80833,-10
39.81667,-10
39.82500,-10
39.83333,-10
39.84167,-10
39.85000,-10
39.85833,-10
39.86667,-10
39.87500,-10
39.88333,-10
39.89167,-9
39.90000,-9
39.90833,-9
39.91667,-9
39.92500,-9
39.93333,-10
39.94167,-10
39.95000,-10
39.95833,-10
39.96667,-11
39.97500,-10
39.98333,-10
39.99167,-10
40.00000,-10

