[Header]
Application Name,LabSolutions
Version,5.97 SP1
Data File Name,C:\Users\cremerlab\Desktop\griffin\2021-04-06_REL606_DM_glucose_turnover\2021-04-06_REL606_DM_glucose_turnover_462021_005_005.lcd
Output Date,4/6/2021
Output Time,8:37:40 PM

[File Information]
Type,Data File
Generated,4/6/2021 7:57:21 PM
Generated by,System Administrator
Modified,4/6/2021 8:37:40 PM
Modified by,System Administrator

[Sample Information]
Operator Name,System Administrator
Acquired,4/6/2021 7:57:40 PM
Sample Type,1:Standard
Level,5
Sample Name,2021-04-04_REL606_replicate_001_timepoint_005
Sample ID,005
ISTD Amount1,1
ISTD Amount2,1
ISTD Amount3,1
ISTD Amount4,1
ISTD Amount5,1
ISTD Amount6,1
ISTD Amount7,1
ISTD Amount8,1
ISTD Amount9,1
ISTD Amount10,1
ISTD Amount11,1
ISTD Amount12,1
ISTD Amount13,1
ISTD Amount14,1
ISTD Amount15,1
ISTD Amount16,1
ISTD Amount17,1
ISTD Amount18,1
ISTD Amount19,1
ISTD Amount20,1
ISTD Amount21,1
ISTD Amount22,1
ISTD Amount23,1
ISTD Amount24,1
ISTD Amount25,1
ISTD Amount26,1
ISTD Amount27,1
ISTD Amount28,1
ISTD Amount29,1
ISTD Amount30,1
ISTD Amount31,1
ISTD Amount32,1
Sample Amount,1
Dilution Factor,1
Vial#,5
Injection Volume,20

[Original Files]
Data File,C:\Users\cremerlab\Desktop\griffin\2021-04-06_REL606_DM_glucose_turnover\2021-04-06_REL606_DM_glucose_turnover_462021_005_005.lcd
Method File,C:\Users\cremerlab\Desktop\griffin\2.5mM_H2SO4_mobile_phase.lcm
Batch File,C:\Users\cremerlab\Desktop\griffin\2021-04-06_REL606_DM_glucose_turnover\2021-04-06_REL606_DM_glucose_turnover.lcb
Report Format File,c:\LabSolutions\System\DEFAULT.lsr

[File Description]


[Configuration]
Instrument Name,HPLC-PC-Instrument1
Instrument #,1
Line #,1
# of Detectors,2
Detector ID,Detector A,Detector B
Detector Name,Detector A,Detector B
# of Channels,1,1

[Peak Table(Detector A)]
# of Peaks,0

[Peak Table(Detector B)]
# of Peaks,6
Peak#,R.Time,I.Time,F.Time,Area,Height,A/H,Conc.,Mark,ID#,Name,k',Plate #,Plate Ht.,Tailing,Resolution,Sep.Factor,Area Ratio,Height Ratio,Conc. %,Norm Conc.
1,10.888,10.417,11.958,266512,15429,17.274,0.000,   ,,,0.000,9080,16.519,1.044,0.000,0.000,0,0,0.000,0.000
2,13.956,12.533,14.225,1794042,47002,38.169,0.000,   ,,,0.282,3087,48.583,0.000,4.198,0.000,0,0,0.000,0.000
3,14.330,14.225,14.975,168981,9826,17.198,0.000, V ,,,0.316,4104,36.550,0.000,0.394,1.122,0,0,0.000,0.000
4,15.674,14.975,17.550,1036050,41417,25.015,0.000, V ,,,0.440,9249,16.218,1.151,1.737,1.390,0,0,0.000,0.000
5,19.082,18.733,19.667,2829,116,24.352,0.000,   ,,,0.753,13293,11.284,1.235,5.188,1.712,0,0,0.000,0.000
6,25.031,24.525,25.717,8907,308,28.911,0.000,   ,,,1.299,16539,9.070,1.077,8.259,1.726,0,0,0.000,0.000

[LC Chromatogram(Detector B-Ch1)]
Interval(msec),500
# of Points,4801
Start Time(min),0.000
End Time(min),40.000
Intensity Units,mV
Intensity Multiplier,0.001
R.Time (min),Intensity
0.00000,5
0.00833,5
0.01667,2
0.02500,0
0.03333,-0
0.04167,-0
0.05000,-1
0.05833,-1
0.06667,-1
0.07500,-1
0.08333,-1
0.09167,-1
0.10000,-1
0.10833,-1
0.11667,-1
0.12500,-2
0.13333,-2
0.14167,-2
0.15000,-2
0.15833,-1
0.16667,-1
0.17500,-1
0.18333,-1
0.19167,-1
0.20000,-1
0.20833,-2
0.21667,-2
0.22500,-2
0.23333,-2
0.24167,-2
0.25000,-2
0.25833,-2
0.26667,-2
0.27500,-2
0.28333,-2
0.29167,-2
0.30000,-2
0.30833,-2
0.31667,-3
0.32500,-3
0.33333,-4
0.34167,-4
0.35000,-5
0.35833,-4
0.36667,-4
0.37500,-4
0.38333,-4
0.39167,-4
0.40000,-4
0.40833,-4
0.41667,-5
0.42500,-5
0.43333,-5
0.44167,-5
0.45000,-5
0.45833,-6
0.46667,-6
0.47500,-6
0.48333,-6
0.49167,-6
0.50000,-5
0.50833,-6
0.51667,-6
0.52500,-6
0.53333,-6
0.54167,-6
0.55000,-6
0.55833,-6
0.56667,-6
0.57500,-6
0.58333,-6
0.59167,-6
0.60000,-6
0.60833,-6
0.61667,-6
0.62500,-6
0.63333,-6
0.64167,-6
0.65000,-6
0.65833,-6
0.66667,-7
0.67500,-7
0.68333,-7
0.69167,-7
0.70000,-8
0.70833,-8
0.71667,-8
0.72500,-8
0.73333,-8
0.74167,-8
0.75000,-8
0.75833,-8
0.76667,-9
0.77500,-9
0.78333,-9
0.79167,-9
0.80000,-9
0.80833,-9
0.81667,-10
0.82500,-10
0.83333,-10
0.84167,-10
0.85000,-10
0.85833,-10
0.86667,-10
0.87500,-11
0.88333,-11
0.89167,-11
0.90000,-11
0.90833,-11
0.91667,-11
0.92500,-11
0.93333,-11
0.94167,-11
0.95000,-10
0.95833,-11
0.96667,-11
0.97500,-11
0.98333,-11
0.99167,-11
1.00000,-11
1.00833,-11
1.01667,-12
1.02500,-12
1.03333,-12
1.04167,-12
1.05000,-12
1.05833,-12
1.06667,-12
1.07500,-11
1.08333,-11
1.09167,-11
1.10000,-11
1.10833,-11
1.11667,-11
1.12500,-11
1.13333,-10
1.14167,-10
1.15000,-10
1.15833,-9
1.16667,-9
1.17500,-8
1.18333,-7
1.19167,-7
1.20000,-6
1.20833,-6
1.21667,-6
1.22500,-6
1.23333,-5
1.24167,-5
1.25000,-5
1.25833,-5
1.26667,-5
1.27500,-5
1.28333,-5
1.29167,-4
1.30000,-4
1.30833,-4
1.31667,-3
1.32500,-3
1.33333,-3
1.34167,-3
1.35000,-3
1.35833,-2
1.36667,-2
1.37500,-2
1.38333,-2
1.39167,-2
1.40000,-2
1.40833,-1
1.41667,-1
1.42500,-1
1.43333,-0
1.44167,-0
1.45000,0
1.45833,1
1.46667,1
1.47500,1
1.48333,2
1.49167,2
1.50000,2
1.50833,2
1.51667,2
1.52500,2
1.53333,2
1.54167,2
1.55000,3
1.55833,3
1.56667,3
1.57500,3
1.58333,4
1.59167,4
1.60000,4
1.60833,4
1.61667,4
1.62500,5
1.63333,5
1.64167,5
1.65000,5
1.65833,4
1.66667,4
1.67500,4
1.68333,4
1.69167,4
1.70000,4
1.70833,4
1.71667,4
1.72500,4
1.73333,4
1.74167,5
1.75000,5
1.75833,5
1.76667,5
1.77500,4
1.78333,4
1.79167,4
1.80000,4
1.80833,4
1.81667,4
1.82500,4
1.83333,3
1.84167,3
1.85000,3
1.85833,3
1.86667,3
1.87500,3
1.88333,2
1.89167,2
1.90000,2
1.90833,2
1.91667,2
1.92500,2
1.93333,2
1.94167,1
1.95000,1
1.95833,0
1.96667,-0
1.97500,-1
1.98333,-1
1.99167,-1
2.00000,-1
2.00833,-1
2.01667,-2
2.02500,-2
2.03333,-2
2.04167,-2
2.05000,-3
2.05833,-3
2.06667,-4
2.07500,-4
2.08333,-4
2.09167,-4
2.10000,-4
2.10833,-5
2.11667,-5
2.12500,-5
2.13333,-5
2.14167,-6
2.15000,-6
2.15833,-6
2.16667,-6
2.17500,-7
2.18333,-7
2.19167,-7
2.20000,-7
2.20833,-7
2.21667,-7
2.22500,-7
2.23333,-7
2.24167,-8
2.25000,-8
2.25833,-8
2.26667,-9
2.27500,-10
2.28333,-10
2.29167,-10
2.30000,-11
2.30833,-11
2.31667,-11
2.32500,-11
2.33333,-11
2.34167,-10
2.35000,-11
2.35833,-11
2.36667,-11
2.37500,-12
2.38333,-13
2.39167,-13
2.40000,-13
2.40833,-13
2.41667,-13
2.42500,-13
2.43333,-13
2.44167,-14
2.45000,-14
2.45833,-14
2.46667,-14
2.47500,-14
2.48333,-15
2.49167,-15
2.50000,-15
2.50833,-15
2.51667,-15
2.52500,-14
2.53333,-14
2.54167,-14
2.55000,-15
2.55833,-15
2.56667,-15
2.57500,-15
2.58333,-15
2.59167,-15
2.60000,-15
2.60833,-15
2.61667,-14
2.62500,-14
2.63333,-13
2.64167,-13
2.65000,-13
2.65833,-13
2.66667,-13
2.67500,-13
2.68333,-13
2.69167,-12
2.70000,-12
2.70833,-12
2.71667,-11
2.72500,-11
2.73333,-11
2.74167,-11
2.75000,-10
2.75833,-10
2.76667,-10
2.77500,-10
2.78333,-10
2.79167,-10
2.80000,-9
2.80833,-8
2.81667,-8
2.82500,-8
2.83333,-8
2.84167,-8
2.85000,-7
2.85833,-7
2.86667,-6
2.87500,-6
2.88333,-6
2.89167,-6
2.90000,-6
2.90833,-6
2.91667,-6
2.92500,-6
2.93333,-5
2.94167,-5
2.95000,-5
2.95833,-5
2.96667,-4
2.97500,-4
2.98333,-4
2.99167,-4
3.00000,-3
3.00833,-3
3.01667,-4
3.02500,-4
3.03333,-4
3.04167,-3
3.05000,-3
3.05833,-3
3.06667,-4
3.07500,-4
3.08333,-3
3.09167,-3
3.10000,-2
3.10833,-2
3.11667,-2
3.12500,-2
3.13333,-2
3.14167,-2
3.15000,-2
3.15833,-2
3.16667,-1
3.17500,-1
3.18333,-1
3.19167,-1
3.20000,-1
3.20833,-1
3.21667,-0
3.22500,-1
3.23333,-1
3.24167,-1
3.25000,-1
3.25833,-1
3.26667,-0
3.27500,0
3.28333,0
3.29167,-0
3.30000,-0
3.30833,-0
3.31667,-1
3.32500,-0
3.33333,0
3.34167,0
3.35000,1
3.35833,1
3.36667,1
3.37500,1
3.38333,1
3.39167,1
3.40000,1
3.40833,1
3.41667,2
3.42500,2
3.43333,1
3.44167,1
3.45000,1
3.45833,1
3.46667,1
3.47500,1
3.48333,1
3.49167,1
3.50000,2
3.50833,2
3.51667,2
3.52500,2
3.53333,2
3.54167,2
3.55000,2
3.55833,2
3.56667,2
3.57500,2
3.58333,1
3.59167,1
3.60000,1
3.60833,1
3.61667,1
3.62500,1
3.63333,1
3.64167,1
3.65000,1
3.65833,0
3.66667,0
3.67500,0
3.68333,-0
3.69167,-0
3.70000,-0
3.70833,-1
3.71667,-1
3.72500,-1
3.73333,-1
3.74167,-1
3.75000,-1
3.75833,-2
3.76667,-2
3.77500,-2
3.78333,-3
3.79167,-3
3.80000,-3
3.80833,-3
3.81667,-3
3.82500,-4
3.83333,-4
3.84167,-5
3.85000,-5
3.85833,-5
3.86667,-5
3.87500,-5
3.88333,-5
3.89167,-5
3.90000,-6
3.90833,-6
3.91667,-6
3.92500,-6
3.93333,-6
3.94167,-6
3.95000,-7
3.95833,-7
3.96667,-7
3.97500,-7
3.98333,-7
3.99167,-7
4.00000,-7
4.00833,-7
4.01667,-7
4.02500,-7
4.03333,-7
4.04167,-7
4.05000,-7
4.05833,-7
4.06667,-7
4.07500,-7
4.08333,-7
4.09167,-7
4.10000,-7
4.10833,-7
4.11667,-7
4.12500,-7
4.13333,-7
4.14167,-7
4.15000,-7
4.15833,-7
4.16667,-7
4.17500,-7
4.18333,-6
4.19167,-6
4.20000,-6
4.20833,-6
4.21667,-6
4.22500,-6
4.23333,-5
4.24167,-5
4.25000,-5
4.25833,-5
4.26667,-5
4.27500,-6
4.28333,-6
4.29167,-5
4.30000,-5
4.30833,-5
4.31667,-5
4.32500,-5
4.33333,-5
4.34167,-5
4.35000,-6
4.35833,-6
4.36667,-6
4.37500,-6
4.38333,-6
4.39167,-6
4.40000,-6
4.40833,-6
4.41667,-6
4.42500,-7
4.43333,-7
4.44167,-7
4.45000,-8
4.45833,-8
4.46667,-8
4.47500,-8
4.48333,-8
4.49167,-9
4.50000,-9
4.50833,-9
4.51667,-9
4.52500,-9
4.53333,-9
4.54167,-9
4.55000,-9
4.55833,-9
4.56667,-9
4.57500,-9
4.58333,-10
4.59167,-10
4.60000,-10
4.60833,-10
4.61667,-10
4.62500,-11
4.63333,-11
4.64167,-11
4.65000,-11
4.65833,-10
4.66667,-10
4.67500,-10
4.68333,-10
4.69167,-10
4.70000,-10
4.70833,-10
4.71667,-11
4.72500,-11
4.73333,-11
4.74167,-10
4.75000,-10
4.75833,-10
4.76667,-10
4.77500,-10
4.78333,-10
4.79167,-10
4.80000,-10
4.80833,-10
4.81667,-10
4.82500,-10
4.83333,-9
4.84167,-9
4.85000,-8
4.85833,-8
4.86667,-8
4.87500,-8
4.88333,-8
4.89167,-8
4.90000,-8
4.90833,-8
4.91667,-8
4.92500,-8
4.93333,-8
4.94167,-8
4.95000,-8
4.95833,-8
4.96667,-7
4.97500,-7
4.98333,-7
4.99167,-6
5.00000,-6
5.00833,-7
5.01667,-7
5.02500,-7
5.03333,-7
5.04167,-7
5.05000,-7
5.05833,-7
5.06667,-7
5.07500,-7
5.08333,-7
5.09167,-7
5.10000,-7
5.10833,-8
5.11667,-8
5.12500,-8
5.13333,-7
5.14167,-7
5.15000,-7
5.15833,-7
5.16667,-6
5.17500,-6
5.18333,-6
5.19167,-6
5.20000,-6
5.20833,-7
5.21667,-7
5.22500,-7
5.23333,-7
5.24167,-6
5.25000,-6
5.25833,-6
5.26667,-6
5.27500,-6
5.28333,-6
5.29167,-6
5.30000,-6
5.30833,-6
5.31667,-5
5.32500,-5
5.33333,-5
5.34167,-6
5.35000,-6
5.35833,-6
5.36667,-6
5.37500,-7
5.38333,-7
5.39167,-7
5.40000,-7
5.40833,-7
5.41667,-8
5.42500,-8
5.43333,-7
5.44167,-7
5.45000,-7
5.45833,-7
5.46667,-8
5.47500,-8
5.48333,-8
5.49167,-8
5.50000,-8
5.50833,-8
5.51667,-8
5.52500,-8
5.53333,-8
5.54167,-8
5.55000,-8
5.55833,-8
5.56667,-7
5.57500,-7
5.58333,-8
5.59167,-8
5.60000,-8
5.60833,-8
5.61667,-8
5.62500,-8
5.63333,-9
5.64167,-9
5.65000,-9
5.65833,-9
5.66667,-9
5.67500,-9
5.68333,-9
5.69167,-9
5.70000,-9
5.70833,-9
5.71667,-9
5.72500,-9
5.73333,-9
5.74167,-9
5.75000,-9
5.75833,-9
5.76667,-9
5.77500,-9
5.78333,-9
5.79167,-9
5.80000,-10
5.80833,-10
5.81667,-10
5.82500,-9
5.83333,-9
5.84167,-8
5.85000,-9
5.85833,-9
5.86667,-9
5.87500,-9
5.88333,-9
5.89167,-9
5.90000,-9
5.90833,-9
5.91667,-9
5.92500,-9
5.93333,-9
5.94167,-8
5.95000,-8
5.95833,-8
5.96667,-8
5.97500,-8
5.98333,-7
5.99167,-7
6.00000,-7
6.00833,-7
6.01667,-7
6.02500,-7
6.03333,-7
6.04167,-6
6.05000,-6
6.05833,-7
6.06667,-7
6.07500,-7
6.08333,-7
6.09167,-7
6.10000,-8
6.10833,-8
6.11667,-8
6.12500,-8
6.13333,-8
6.14167,-8
6.15000,-8
6.15833,-8
6.16667,-8
6.17500,-8
6.18333,-8
6.19167,-8
6.20000,-8
6.20833,-8
6.21667,-8
6.22500,-8
6.23333,-8
6.24167,-8
6.25000,-8
6.25833,-8
6.26667,-8
6.27500,-8
6.28333,-8
6.29167,-8
6.30000,-8
6.30833,-8
6.31667,-8
6.32500,-8
6.33333,-8
6.34167,-8
6.35000,-8
6.35833,-8
6.36667,-9
6.37500,-9
6.38333,-9
6.39167,-8
6.40000,-8
6.40833,-9
6.41667,-9
6.42500,-9
6.43333,-9
6.44167,-9
6.45000,-8
6.45833,-9
6.46667,-9
6.47500,-9
6.48333,-9
6.49167,-9
6.50000,-9
6.50833,-9
6.51667,-9
6.52500,-9
6.53333,-9
6.54167,-9
6.55000,-9
6.55833,-9
6.56667,-9
6.57500,-9
6.58333,-9
6.59167,-10
6.60000,-10
6.60833,-10
6.61667,-10
6.62500,-10
6.63333,-10
6.64167,-10
6.65000,-9
6.65833,-9
6.66667,-10
6.67500,-10
6.68333,-9
6.69167,-9
6.70000,-9
6.70833,-9
6.71667,-10
6.72500,-10
6.73333,-10
6.74167,-10
6.75000,-10
6.75833,-10
6.76667,-10
6.77500,-10
6.78333,-10
6.79167,-10
6.80000,-10
6.80833,-10
6.81667,-10
6.82500,-10
6.83333,-10
6.84167,-10
6.85000,-10
6.85833,-11
6.86667,-11
6.87500,-11
6.88333,-11
6.89167,-10
6.90000,-10
6.90833,-10
6.91667,-10
6.92500,-10
6.93333,-10
6.94167,-10
6.95000,-10
6.95833,-10
6.96667,-10
6.97500,-10
6.98333,-10
6.99167,-10
7.00000,-10
7.00833,-10
7.01667,-9
7.02500,-9
7.03333,-9
7.04167,-9
7.05000,-9
7.05833,-8
7.06667,-9
7.07500,-9
7.08333,-9
7.09167,-9
7.10000,-9
7.10833,-9
7.11667,-9
7.12500,-10
7.13333,-10
7.14167,-10
7.15000,-10
7.15833,-10
7.16667,-10
7.17500,-10
7.18333,-10
7.19167,-9
7.20000,-9
7.20833,-9
7.21667,-9
7.22500,-9
7.23333,-9
7.24167,-9
7.25000,-8
7.25833,-8
7.26667,-8
7.27500,-8
7.28333,-7
7.29167,-7
7.30000,-7
7.30833,-8
7.31667,-8
7.32500,-8
7.33333,-8
7.34167,-8
7.35000,-7
7.35833,-7
7.36667,-7
7.37500,-7
7.38333,-7
7.39167,-7
7.40000,-7
7.40833,-7
7.41667,-6
7.42500,-6
7.43333,-5
7.44167,-5
7.45000,-5
7.45833,-5
7.46667,-5
7.47500,-5
7.48333,-4
7.49167,-4
7.50000,-4
7.50833,-3
7.51667,-3
7.52500,-3
7.53333,-3
7.54167,-3
7.55000,-2
7.55833,-2
7.56667,-1
7.57500,-1
7.58333,-0
7.59167,0
7.60000,0
7.60833,-0
7.61667,-0
7.62500,0
7.63333,0
7.64167,1
7.65000,1
7.65833,1
7.66667,2
7.67500,2
7.68333,2
7.69167,2
7.70000,2
7.70833,2
7.71667,2
7.72500,2
7.73333,2
7.74167,3
7.75000,2
7.75833,2
7.76667,2
7.77500,2
7.78333,2
7.79167,3
7.80000,3
7.80833,3
7.81667,3
7.82500,3
7.83333,3
7.84167,3
7.85000,2
7.85833,2
7.86667,2
7.87500,2
7.88333,3
7.89167,3
7.90000,2
7.90833,2
7.91667,2
7.92500,2
7.93333,2
7.94167,1
7.95000,1
7.95833,0
7.96667,-0
7.97500,-0
7.98333,-1
7.99167,-2
8.00000,-2
8.00833,-3
8.01667,-3
8.02500,-4
8.03333,-4
8.04167,-5
8.05000,-5
8.05833,-5
8.06667,-5
8.07500,-5
8.08333,-6
8.09167,-6
8.10000,-6
8.10833,-6
8.11667,-7
8.12500,-7
8.13333,-8
8.14167,-8
8.15000,-8
8.15833,-9
8.16667,-9
8.17500,-9
8.18333,-10
8.19167,-10
8.20000,-10
8.20833,-10
8.21667,-10
8.22500,-11
8.23333,-11
8.24167,-11
8.25000,-11
8.25833,-11
8.26667,-11
8.27500,-11
8.28333,-11
8.29167,-11
8.30000,-12
8.30833,-12
8.31667,-12
8.32500,-12
8.33333,-13
8.34167,-13
8.35000,-13
8.35833,-13
8.36667,-13
8.37500,-13
8.38333,-12
8.39167,-12
8.40000,-12
8.40833,-12
8.41667,-12
8.42500,-12
8.43333,-12
8.44167,-11
8.45000,-11
8.45833,-11
8.46667,-11
8.47500,-11
8.48333,-11
8.49167,-11
8.50000,-11
8.50833,-11
8.51667,-11
8.52500,-10
8.53333,-10
8.54167,-9
8.55000,-9
8.55833,-8
8.56667,-8
8.57500,-8
8.58333,-8
8.59167,-8
8.60000,-8
8.60833,-8
8.61667,-7
8.62500,-8
8.63333,-8
8.64167,-8
8.65000,-8
8.65833,-8
8.66667,-7
8.67500,-7
8.68333,-7
8.69167,-7
8.70000,-7
8.70833,-6
8.71667,-6
8.72500,-6
8.73333,-6
8.74167,-6
8.75000,-5
8.75833,-5
8.76667,-5
8.77500,-5
8.78333,-5
8.79167,-5
8.80000,-4
8.80833,-4
8.81667,-4
8.82500,-4
8.83333,-4
8.84167,-5
8.85000,-5
8.85833,-5
8.86667,-5
8.87500,-5
8.88333,-4
8.89167,-4
8.90000,-4
8.90833,-4
8.91667,-4
8.92500,-4
8.93333,-4
8.94167,-4
8.95000,-4
8.95833,-4
8.96667,-4
8.97500,-4
8.98333,-4
8.99167,-4
9.00000,-4
9.00833,-4
9.01667,-5
9.02500,-5
9.03333,-5
9.04167,-5
9.05000,-5
9.05833,-5
9.06667,-5
9.07500,-5
9.08333,-5
9.09167,-5
9.10000,-4
9.10833,-4
9.11667,-4
9.12500,-4
9.13333,-4
9.14167,-5
9.15000,-5
9.15833,-5
9.16667,-5
9.17500,-4
9.18333,-4
9.19167,-4
9.20000,-4
9.20833,-4
9.21667,-5
9.22500,-5
9.23333,-5
9.24167,-5
9.25000,-5
9.25833,-5
9.26667,-5
9.27500,-6
9.28333,-5
9.29167,-5
9.30000,-5
9.30833,-5
9.31667,-5
9.32500,-5
9.33333,-5
9.34167,-5
9.35000,-5
9.35833,-5
9.36667,-6
9.37500,-6
9.38333,-6
9.39167,-6
9.40000,-6
9.40833,-5
9.41667,-5
9.42500,-5
9.43333,-5
9.44167,-5
9.45000,-5
9.45833,-5
9.46667,-5
9.47500,-5
9.48333,-5
9.49167,-5
9.50000,-5
9.50833,-6
9.51667,-6
9.52500,-6
9.53333,-5
9.54167,-5
9.55000,-5
9.55833,-6
9.56667,-6
9.57500,-6
9.58333,-6
9.59167,-6
9.60000,-6
9.60833,-5
9.61667,-5
9.62500,-5
9.63333,-5
9.64167,-5
9.65000,-6
9.65833,-6
9.66667,-6
9.67500,-5
9.68333,-5
9.69167,-5
9.70000,-6
9.70833,-6
9.71667,-6
9.72500,-6
9.73333,-6
9.74167,-6
9.75000,-6
9.75833,-6
9.76667,-6
9.77500,-6
9.78333,-6
9.79167,-6
9.80000,-6
9.80833,-6
9.81667,-7
9.82500,-7
9.83333,-7
9.84167,-7
9.85000,-7
9.85833,-7
9.86667,-7
9.87500,-7
9.88333,-7
9.89167,-7
9.90000,-7
9.90833,-7
9.91667,-7
9.92500,-7
9.93333,-7
9.94167,-7
9.95000,-8
9.95833,-8
9.96667,-7
9.97500,-7
9.98333,-7
9.99167,-7
10.00000,-6
10.00833,-6
10.01667,-7
10.02500,-7
10.03333,-7
10.04167,-7
10.05000,-7
10.05833,-7
10.06667,-7
10.07500,-7
10.08333,-7
10.09167,-8
10.10000,-8
10.10833,-7
10.11667,-7
10.12500,-7
10.13333,-7
10.14167,-6
10.15000,-6
10.15833,-6
10.16667,-6
10.17500,-7
10.18333,-7
10.19167,-7
10.20000,-7
10.20833,-7
10.21667,-7
10.22500,-8
10.23333,-8
10.24167,-8
10.25000,-8
10.25833,-8
10.26667,-8
10.27500,-8
10.28333,-8
10.29167,-8
10.30000,-8
10.30833,-8
10.31667,-8
10.32500,-8
10.33333,-8
10.34167,-7
10.35000,-7
10.35833,-8
10.36667,-8
10.37500,-8
10.38333,-8
10.39167,-8
10.40000,-7
10.40833,-7
10.41667,-6
10.42500,-5
10.43333,-3
10.44167,-2
10.45000,-0
10.45833,2
10.46667,5
10.47500,10
10.48333,15
10.49167,21
10.50000,30
10.50833,40
10.51667,53
10.52500,70
10.53333,91
10.54167,118
10.55000,151
10.55833,191
10.56667,241
10.57500,303
10.58333,377
10.59167,465
10.60000,570
10.60833,694
10.61667,839
10.62500,1008
10.63333,1203
10.64167,1425
10.65000,1677
10.65833,1961
10.66667,2278
10.67500,2631
10.68333,3019
10.69167,3443
10.70000,3903
10.70833,4398
10.71667,4927
10.72500,5489
10.73333,6081
10.74167,6700
10.75000,7341
10.75833,8001
10.76667,8675
10.77500,9355
10.78333,10036
10.79167,10711
10.80000,11371
10.80833,12009
10.81667,12615
10.82500,13183
10.83333,13703
10.84167,14168
10.85000,14569
10.85833,14900
10.86667,15155
10.87500,15328
10.88333,15417
10.89167,15420
10.90000,15334
10.90833,15162
10.91667,14907
10.92500,14571
10.93333,14162
10.94167,13686
10.95000,13151
10.95833,12568
10.96667,11944
10.97500,11291
10.98333,10616
10.99167,9931
11.00000,9244
11.00833,8562
11.01667,7894
11.02500,7246
11.03333,6622
11.04167,6028
11.05000,5466
11.05833,4938
11.06667,4446
11.07500,3990
11.08333,3570
11.09167,3185
11.10000,2835
11.10833,2517
11.11667,2230
11.12500,1972
11.13333,1741
11.14167,1535
11.15000,1352
11.15833,1189
11.16667,1046
11.17500,919
11.18333,807
11.19167,710
11.20000,625
11.20833,551
11.21667,486
11.22500,430
11.23333,381
11.24167,339
11.25000,303
11.25833,272
11.26667,244
11.27500,221
11.28333,201
11.29167,184
11.30000,169
11.30833,156
11.31667,145
11.32500,136
11.33333,128
11.34167,121
11.35000,115
11.35833,110
11.36667,105
11.37500,101
11.38333,97
11.39167,93
11.40000,90
11.40833,87
11.41667,84
11.42500,81
11.43333,78
11.44167,76
11.45000,73
11.45833,71
11.46667,68
11.47500,65
11.48333,63
11.49167,60
11.50000,57
11.50833,55
11.51667,52
11.52500,50
11.53333,47
11.54167,45
11.55000,43
11.55833,40
11.56667,39
11.57500,37
11.58333,34
11.59167,33
11.60000,31
11.60833,29
11.61667,27
11.62500,25
11.63333,23
11.64167,21
11.65000,19
11.65833,17
11.66667,15
11.67500,14
11.68333,12
11.69167,11
11.70000,9
11.70833,8
11.71667,7
11.72500,6
11.73333,5
11.74167,3
11.75000,2
11.75833,1
11.76667,0
11.77500,-0
11.78333,-2
11.79167,-3
11.80000,-4
11.80833,-5
11.81667,-6
11.82500,-7
11.83333,-8
11.84167,-8
11.85000,-9
11.85833,-10
11.86667,-11
11.87500,-11
11.88333,-12
11.89167,-12
11.90000,-13
11.90833,-13
11.91667,-14
11.92500,-15
11.93333,-16
11.94167,-16
11.95000,-17
11.95833,-17
11.96667,-17
11.97500,-17
11.98333,-17
11.99167,-17
12.00000,-17
12.00833,-17
12.01667,-18
12.02500,-18
12.03333,-18
12.04167,-19
12.05000,-19
12.05833,-19
12.06667,-20
12.07500,-20
12.08333,-20
12.09167,-21
12.10000,-21
12.10833,-21
12.11667,-21
12.12500,-21
12.13333,-21
12.14167,-22
12.15000,-22
12.15833,-22
12.16667,-23
12.17500,-23
12.18333,-23
12.19167,-23
12.20000,-23
12.20833,-23
12.21667,-23
12.22500,-22
12.23333,-22
12.24167,-22
12.25000,-22
12.25833,-21
12.26667,-21
12.27500,-21
12.28333,-21
12.29167,-21
12.30000,-21
12.30833,-21
12.31667,-21
12.32500,-21
12.33333,-20
12.34167,-20
12.35000,-20
12.35833,-20
12.36667,-20
12.37500,-19
12.38333,-18
12.39167,-18
12.40000,-17
12.40833,-17
12.41667,-17
12.42500,-16
12.43333,-16
12.44167,-16
12.45000,-16
12.45833,-15
12.46667,-15
12.47500,-14
12.48333,-13
12.49167,-12
12.50000,-11
12.50833,-10
12.51667,-9
12.52500,-8
12.53333,-8
12.54167,-6
12.55000,-5
12.55833,-4
12.56667,-3
12.57500,-1
12.58333,1
12.59167,3
12.60000,5
12.60833,8
12.61667,12
12.62500,16
12.63333,22
12.64167,28
12.65000,36
12.65833,45
12.66667,56
12.67500,69
12.68333,85
12.69167,104
12.70000,125
12.70833,150
12.71667,179
12.72500,213
12.73333,251
12.74167,294
12.75000,342
12.75833,395
12.76667,455
12.77500,520
12.78333,592
12.79167,671
12.80000,755
12.80833,847
12.81667,945
12.82500,1050
12.83333,1162
12.84167,1281
12.85000,1407
12.85833,1539
12.86667,1677
12.87500,1822
12.88333,1973
12.89167,2131
12.90000,2294
12.90833,2464
12.91667,2638
12.92500,2818
12.93333,3004
12.94167,3194
12.95000,3390
12.95833,3590
12.96667,3794
12.97500,4004
12.98333,4217
12.99167,4435
13.00000,4656
13.00833,4881
13.01667,5110
13.02500,5343
13.03333,5579
13.04167,5819
13.05000,6062
13.05833,6308
13.06667,6557
13.07500,6810
13.08333,7065
13.09167,7323
13.10000,7584
13.10833,7847
13.11667,8114
13.12500,8383
13.13333,8654
13.14167,8929
13.15000,9206
13.15833,9485
13.16667,9766
13.17500,10051
13.18333,10337
13.19167,10627
13.20000,10919
13.20833,11213
13.21667,11509
13.22500,11808
13.23333,12110
13.24167,12414
13.25000,12720
13.25833,13029
13.26667,13339
13.27500,13653
13.28333,13968
13.29167,14286
13.30000,14606
13.30833,14929
13.31667,15254
13.32500,15582
13.33333,15912
13.34167,16245
13.35000,16580
13.35833,16917
13.36667,17257
13.37500,17600
13.38333,17944
13.39167,18292
13.40000,18642
13.40833,18994
13.41667,19349
13.42500,19706
13.43333,20066
13.44167,20428
13.45000,20793
13.45833,21161
13.46667,21531
13.47500,21904
13.48333,22280
13.49167,22658
13.50000,23039
13.50833,23423
13.51667,23810
13.52500,24199
13.53333,24591
13.54167,24985
13.55000,25383
13.55833,25783
13.56667,26186
13.57500,26592
13.58333,27001
13.59167,27413
13.60000,27828
13.60833,28245
13.61667,28666
13.62500,29090
13.63333,29516
13.64167,29946
13.65000,30378
13.65833,30814
13.66667,31252
13.67500,31694
13.68333,32139
13.69167,32588
13.70000,33039
13.70833,33494
13.71667,33952
13.72500,34413
13.73333,34877
13.74167,35345
13.75000,35816
13.75833,36290
13.76667,36768
13.77500,37249
13.78333,37733
13.79167,38221
13.80000,38712
13.80833,39207
13.81667,39705
13.82500,40206
13.83333,40711
13.84167,41220
13.85000,41732
13.85833,42246
13.86667,42763
13.87500,43281
13.88333,43798
13.89167,44312
13.90000,44817
13.90833,45305
13.91667,45765
13.92500,46184
13.93333,46542
13.94167,46820
13.95000,46990
13.95833,47027
13.96667,46903
13.97500,46591
13.98333,46068
13.99167,45317
14.00000,44328
14.00833,43099
14.01667,41636
14.02500,39957
14.03333,38087
14.04167,36058
14.05000,33909
14.05833,31682
14.06667,29420
14.07500,27165
14.08333,24958
14.09167,22833
14.10000,20821
14.10833,18945
14.11667,17223
14.12500,15665
14.13333,14278
14.14167,13063
14.15000,12016
14.15833,11131
14.16667,10399
14.17500,9809
14.18333,9348
14.19167,9004
14.20000,8765
14.20833,8616
14.21667,8546
14.22500,8541
14.23333,8590
14.24167,8680
14.25000,8801
14.25833,8943
14.26667,9096
14.27500,9251
14.28333,9401
14.29167,9538
14.30000,9657
14.30833,9752
14.31667,9820
14.32500,9856
14.33333,9859
14.34167,9828
14.35000,9761
14.35833,9659
14.36667,9523
14.37500,9355
14.38333,9155
14.39167,8927
14.40000,8674
14.40833,8398
14.41667,8104
14.42500,7793
14.43333,7470
14.44167,7138
14.45000,6800
14.45833,6459
14.46667,6118
14.47500,5780
14.48333,5447
14.49167,5121
14.50000,4804
14.50833,4498
14.51667,4202
14.52500,3919
14.53333,3649
14.54167,3393
14.55000,3150
14.55833,2923
14.56667,2709
14.57500,2509
14.58333,2322
14.59167,2148
14.60000,1986
14.60833,1837
14.61667,1699
14.62500,1572
14.63333,1455
14.64167,1348
14.65000,1251
14.65833,1161
14.66667,1079
14.67500,1004
14.68333,935
14.69167,873
14.70000,816
14.70833,764
14.71667,716
14.72500,673
14.73333,634
14.74167,599
14.75000,566
14.75833,537
14.76667,510
14.77500,486
14.78333,463
14.79167,443
14.80000,425
14.80833,408
14.81667,393
14.82500,379
14.83333,367
14.84167,355
14.85000,345
14.85833,336
14.86667,327
14.87500,319
14.88333,312
14.89167,306
14.90000,300
14.90833,295
14.91667,291
14.92500,288
14.93333,285
14.94167,282
14.95000,281
14.95833,279
14.96667,278
14.97500,278
14.98333,278
14.99167,279
15.00000,280
15.00833,282
15.01667,284
15.02500,286
15.03333,289
15.04167,292
15.05000,295
15.05833,299
15.06667,304
15.07500,308
15.08333,313
15.09167,318
15.10000,324
15.10833,331
15.11667,338
15.12500,347
15.13333,356
15.14167,366
15.15000,377
15.15833,391
15.16667,406
15.17500,424
15.18333,445
15.19167,471
15.20000,501
15.20833,538
15.21667,581
15.22500,633
15.23333,694
15.24167,767
15.25000,853
15.25833,954
15.26667,1073
15.27500,1212
15.28333,1373
15.29167,1560
15.30000,1775
15.30833,2021
15.31667,2302
15.32500,2621
15.33333,2982
15.34167,3387
15.35000,3841
15.35833,4345
15.36667,4902
15.37500,5517
15.38333,6190
15.39167,6923
15.40000,7719
15.40833,8578
15.41667,9500
15.42500,10485
15.43333,11531
15.44167,12637
15.45000,13800
15.45833,15016
15.46667,16281
15.47500,17590
15.48333,18937
15.49167,20315
15.50000,21717
15.50833,23135
15.51667,24560
15.52500,25983
15.53333,27395
15.54167,28787
15.55000,30148
15.55833,31470
15.56667,32743
15.57500,33958
15.58333,35106
15.59167,36178
15.60000,37168
15.60833,38068
15.61667,38872
15.62500,39574
15.63333,40170
15.64167,40658
15.65000,41033
15.65833,41296
15.66667,41445
15.67500,41480
15.68333,41405
15.69167,41220
15.70000,40929
15.70833,40536
15.71667,40046
15.72500,39463
15.73333,38795
15.74167,38047
15.75000,37225
15.75833,36337
15.76667,35389
15.77500,34389
15.78333,33344
15.79167,32261
15.80000,31147
15.80833,30009
15.81667,28855
15.82500,27689
15.83333,26519
15.84167,25350
15.85000,24188
15.85833,23037
15.86667,21903
15.87500,20788
15.88333,19696
15.89167,18632
15.90000,17597
15.90833,16593
15.91667,15624
15.92500,14690
15.93333,13793
15.94167,12934
15.95000,12112
15.95833,11329
15.96667,10584
15.97500,9877
15.98333,9208
15.99167,8576
16.00000,7979
16.00833,7418
16.01667,6892
16.02500,6398
16.03333,5936
16.04167,5504
16.05000,5102
16.05833,4727
16.06667,4378
16.07500,4055
16.08333,3754
16.09167,3476
16.10000,3219
16.10833,2981
16.11667,2762
16.12500,2559
16.13333,2373
16.14167,2201
16.15000,2043
16.15833,1898
16.16667,1764
16.17500,1642
16.18333,1529
16.19167,1426
16.20000,1332
16.20833,1245
16.21667,1166
16.22500,1093
16.23333,1026
16.24167,965
16.25000,909
16.25833,858
16.26667,810
16.27500,767
16.28333,727
16.29167,690
16.30000,656
16.30833,625
16.31667,597
16.32500,570
16.33333,546
16.34167,524
16.35000,503
16.35833,484
16.36667,466
16.37500,450
16.38333,434
16.39167,420
16.40000,408
16.40833,395
16.41667,384
16.42500,373
16.43333,364
16.44167,355
16.45000,346
16.45833,338
16.46667,331
16.47500,324
16.48333,317
16.49167,310
16.50000,304
16.50833,298
16.51667,293
16.52500,288
16.53333,284
16.54167,279
16.55000,275
16.55833,271
16.56667,267
16.57500,264
16.58333,260
16.59167,257
16.60000,255
16.60833,252
16.61667,249
16.62500,246
16.63333,243
16.64167,241
16.65000,238
16.65833,236
16.66667,233
16.67500,231
16.68333,229
16.69167,227
16.70000,225
16.70833,223
16.71667,222
16.72500,220
16.73333,219
16.74167,217
16.75000,215
16.75833,213
16.76667,211
16.77500,209
16.78333,207
16.79167,205
16.80000,204
16.80833,202
16.81667,201
16.82500,200
16.83333,198
16.84167,196
16.85000,194
16.85833,193
16.86667,191
16.87500,190
16.88333,188
16.89167,187
16.90000,185
16.90833,184
16.91667,182
16.92500,181
16.93333,180
16.94167,178
16.95000,177
16.95833,175
16.96667,174
16.97500,172
16.98333,171
16.99167,170
17.00000,168
17.00833,167
17.01667,166
17.02500,164
17.03333,163
17.04167,162
17.05000,160
17.05833,159
17.06667,158
17.07500,156
17.08333,155
17.09167,154
17.10000,153
17.10833,152
17.11667,151
17.12500,150
17.13333,149
17.14167,148
17.15000,147
17.15833,145
17.16667,144
17.17500,143
17.18333,142
17.19167,141
17.20000,140
17.20833,139
17.21667,138
17.22500,137
17.23333,136
17.24167,135
17.25000,134
17.25833,133
17.26667,132
17.27500,131
17.28333,130
17.29167,128
17.30000,128
17.30833,127
17.31667,126
17.32500,125
17.33333,124
17.34167,123
17.35000,122
17.35833,122
17.36667,121
17.37500,120
17.38333,119
17.39167,118
17.40000,117
17.40833,116
17.41667,116
17.42500,115
17.43333,115
17.44167,114
17.45000,114
17.45833,113
17.46667,113
17.47500,112
17.48333,111
17.49167,111
17.50000,110
17.50833,109
17.51667,108
17.52500,107
17.53333,107
17.54167,107
17.55000,107
17.55833,106
17.56667,105
17.57500,105
17.58333,104
17.59167,103
17.60000,102
17.60833,102
17.61667,102
17.62500,102
17.63333,101
17.64167,101
17.65000,100
17.65833,99
17.66667,98
17.67500,98
17.68333,98
17.69167,97
17.70000,97
17.70833,96
17.71667,96
17.72500,96
17.73333,96
17.74167,95
17.75000,95
17.75833,94
17.76667,94
17.77500,93
17.78333,93
17.79167,92
17.80000,92
17.80833,91
17.81667,90
17.82500,90
17.83333,89
17.84167,88
17.85000,88
17.85833,87
17.86667,87
17.87500,86
17.88333,86
17.89167,85
17.90000,84
17.90833,84
17.91667,84
17.92500,83
17.93333,83
17.94167,82
17.95000,82
17.95833,81
17.96667,80
17.97500,79
17.98333,79
17.99167,78
18.00000,78
18.00833,77
18.01667,76
18.02500,76
18.03333,75
18.04167,75
18.05000,74
18.05833,74
18.06667,73
18.07500,73
18.08333,72
18.09167,72
18.10000,71
18.10833,71
18.11667,70
18.12500,70
18.13333,69
18.14167,69
18.15000,68
18.15833,68
18.16667,67
18.17500,66
18.18333,66
18.19167,65
18.20000,65
18.20833,64
18.21667,64
18.22500,64
18.23333,63
18.24167,63
18.25000,62
18.25833,62
18.26667,61
18.27500,61
18.28333,61
18.29167,60
18.30000,60
18.30833,59
18.31667,58
18.32500,58
18.33333,57
18.34167,56
18.35000,56
18.35833,55
18.36667,55
18.37500,55
18.38333,54
18.39167,54
18.40000,53
18.40833,53
18.41667,53
18.42500,53
18.43333,53
18.44167,52
18.45000,52
18.45833,51
18.46667,50
18.47500,50
18.48333,50
18.49167,49
18.50000,49
18.50833,48
18.51667,48
18.52500,48
18.53333,47
18.54167,47
18.55000,47
18.55833,46
18.56667,46
18.57500,46
18.58333,46
18.59167,46
18.60000,46
18.60833,46
18.61667,46
18.62500,46
18.63333,46
18.64167,46
18.65000,46
18.65833,46
18.66667,46
18.67500,46
18.68333,47
18.69167,47
18.70000,48
18.70833,48
18.71667,49
18.72500,50
18.73333,51
18.74167,52
18.75000,54
18.75833,55
18.76667,56
18.77500,58
18.78333,60
18.79167,62
18.80000,64
18.80833,66
18.81667,69
18.82500,72
18.83333,74
18.84167,77
18.85000,80
18.85833,83
18.86667,86
18.87500,90
18.88333,93
18.89167,97
18.90000,101
18.90833,105
18.91667,109
18.92500,113
18.93333,116
18.94167,120
18.95000,123
18.95833,127
18.96667,131
18.97500,135
18.98333,138
18.99167,141
19.00000,144
19.00833,146
19.01667,149
19.02500,151
19.03333,153
19.04167,155
19.05000,156
19.05833,157
19.06667,158
19.07500,158
19.08333,158
19.09167,158
19.10000,158
19.10833,157
19.11667,156
19.12500,154
19.13333,153
19.14167,151
19.15000,149
19.15833,147
19.16667,144
19.17500,142
19.18333,139
19.19167,136
19.20000,133
19.20833,130
19.21667,127
19.22500,123
19.23333,120
19.24167,116
19.25000,113
19.25833,110
19.26667,106
19.27500,103
19.28333,100
19.29167,97
19.30000,93
19.30833,90
19.31667,87
19.32500,84
19.33333,81
19.34167,78
19.35000,76
19.35833,73
19.36667,70
19.37500,68
19.38333,65
19.39167,63
19.40000,61
19.40833,59
19.41667,56
19.42500,54
19.43333,53
19.44167,52
19.45000,50
19.45833,49
19.46667,47
19.47500,46
19.48333,45
19.49167,43
19.50000,42
19.50833,41
19.51667,39
19.52500,38
19.53333,37
19.54167,37
19.55000,36
19.55833,35
19.56667,34
19.57500,33
19.58333,33
19.59167,32
19.60000,31
19.60833,31
19.61667,30
19.62500,30
19.63333,29
19.64167,28
19.65000,28
19.65833,28
19.66667,27
19.67500,27
19.68333,26
19.69167,26
19.70000,25
19.70833,25
19.71667,24
19.72500,24
19.73333,24
19.74167,23
19.75000,23
19.75833,23
19.76667,23
19.77500,23
19.78333,23
19.79167,23
19.80000,23
19.80833,22
19.81667,22
19.82500,22
19.83333,22
19.84167,21
19.85000,21
19.85833,21
19.86667,20
19.87500,20
19.88333,20
19.89167,20
19.90000,20
19.90833,19
19.91667,19
19.92500,19
19.93333,19
19.94167,19
19.95000,19
19.95833,19
19.96667,19
19.97500,19
19.98333,18
19.99167,18
20.00000,18
20.00833,18
20.01667,18
20.02500,17
20.03333,17
20.04167,17
20.05000,17
20.05833,17
20.06667,17
20.07500,17
20.08333,17
20.09167,17
20.10000,16
20.10833,16
20.11667,16
20.12500,16
20.13333,16
20.14167,17
20.15000,16
20.15833,16
20.16667,16
20.17500,16
20.18333,16
20.19167,16
20.20000,16
20.20833,16
20.21667,16
20.22500,16
20.23333,16
20.24167,16
20.25000,16
20.25833,17
20.26667,17
20.27500,17
20.28333,16
20.29167,16
20.30000,16
20.30833,16
20.31667,17
20.32500,17
20.33333,17
20.34167,17
20.35000,17
20.35833,18
20.36667,18
20.37500,17
20.38333,18
20.39167,18
20.40000,18
20.40833,18
20.41667,18
20.42500,17
20.43333,17
20.44167,17
20.45000,17
20.45833,17
20.46667,17
20.47500,18
20.48333,18
20.49167,18
20.50000,18
20.50833,18
20.51667,18
20.52500,18
20.53333,18
20.54167,18
20.55000,18
20.55833,18
20.56667,18
20.57500,18
20.58333,18
20.59167,18
20.60000,17
20.60833,17
20.61667,17
20.62500,17
20.63333,17
20.64167,17
20.65000,17
20.65833,17
20.66667,17
20.67500,17
20.68333,17
20.69167,17
20.70000,16
20.70833,16
20.71667,16
20.72500,16
20.73333,16
20.74167,16
20.75000,16
20.75833,15
20.76667,15
20.77500,15
20.78333,14
20.79167,14
20.80000,14
20.80833,13
20.81667,13
20.82500,13
20.83333,12
20.84167,12
20.85000,12
20.85833,12
20.86667,12
20.87500,12
20.88333,11
20.89167,11
20.90000,11
20.90833,11
20.91667,10
20.92500,10
20.93333,10
20.94167,10
20.95000,10
20.95833,10
20.96667,10
20.97500,10
20.98333,10
20.99167,10
21.00000,10
21.00833,9
21.01667,9
21.02500,9
21.03333,9
21.04167,9
21.05000,9
21.05833,10
21.06667,10
21.07500,10
21.08333,10
21.09167,9
21.10000,9
21.10833,9
21.11667,9
21.12500,10
21.13333,10
21.14167,10
21.15000,10
21.15833,10
21.16667,10
21.17500,10
21.18333,10
21.19167,11
21.20000,11
21.20833,11
21.21667,11
21.22500,12
21.23333,12
21.24167,12
21.25000,12
21.25833,11
21.26667,11
21.27500,11
21.28333,11
21.29167,12
21.30000,12
21.30833,11
21.31667,11
21.32500,11
21.33333,11
21.34167,11
21.35000,10
21.35833,10
21.36667,10
21.37500,10
21.38333,10
21.39167,10
21.40000,9
21.40833,9
21.41667,9
21.42500,8
21.43333,8
21.44167,8
21.45000,8
21.45833,8
21.46667,8
21.47500,8
21.48333,8
21.49167,8
21.50000,7
21.50833,7
21.51667,6
21.52500,6
21.53333,5
21.54167,5
21.55000,5
21.55833,4
21.56667,4
21.57500,4
21.58333,4
21.59167,4
21.60000,4
21.60833,3
21.61667,3
21.62500,2
21.63333,1
21.64167,1
21.65000,0
21.65833,0
21.66667,0
21.67500,0
21.68333,-0
21.69167,-0
21.70000,-1
21.70833,-1
21.71667,-1
21.72500,-1
21.73333,-1
21.74167,-1
21.75000,-1
21.75833,-0
21.76667,-0
21.77500,-0
21.78333,-0
21.79167,-0
21.80000,-1
21.80833,-1
21.81667,-1
21.82500,-1
21.83333,-1
21.84167,-0
21.85000,-0
21.85833,0
21.86667,0
21.87500,0
21.88333,0
21.89167,0
21.90000,1
21.90833,1
21.91667,1
21.92500,1
21.93333,1
21.94167,1
21.95000,1
21.95833,1
21.96667,2
21.97500,2
21.98333,1
21.99167,1
22.00000,1
22.00833,0
22.01667,1
22.02500,1
22.03333,1
22.04167,1
22.05000,1
22.05833,1
22.06667,1
22.07500,1
22.08333,1
22.09167,2
22.10000,2
22.10833,2
22.11667,2
22.12500,2
22.13333,2
22.14167,2
22.15000,1
22.15833,1
22.16667,1
22.17500,1
22.18333,1
22.19167,1
22.20000,2
22.20833,2
22.21667,2
22.22500,2
22.23333,2
22.24167,2
22.25000,2
22.25833,2
22.26667,2
22.27500,2
22.28333,2
22.29167,2
22.30000,2
22.30833,2
22.31667,2
22.32500,2
22.33333,2
22.34167,3
22.35000,3
22.35833,3
22.36667,3
22.37500,3
22.38333,3
22.39167,3
22.40000,3
22.40833,3
22.41667,4
22.42500,4
22.43333,4
22.44167,4
22.45000,4
22.45833,4
22.46667,4
22.47500,5
22.48333,5
22.49167,5
22.50000,5
22.50833,6
22.51667,6
22.52500,6
22.53333,7
22.54167,7
22.55000,8
22.55833,8
22.56667,8
22.57500,8
22.58333,8
22.59167,8
22.60000,9
22.60833,10
22.61667,11
22.62500,11
22.63333,12
22.64167,13
22.65000,14
22.65833,14
22.66667,15
22.67500,15
22.68333,16
22.69167,16
22.70000,17
22.70833,18
22.71667,18
22.72500,18
22.73333,19
22.74167,19
22.75000,20
22.75833,21
22.76667,22
22.77500,22
22.78333,23
22.79167,24
22.80000,24
22.80833,24
22.81667,24
22.82500,25
22.83333,26
22.84167,27
22.85000,27
22.85833,27
22.86667,28
22.87500,28
22.88333,28
22.89167,28
22.90000,28
22.90833,28
22.91667,27
22.92500,27
22.93333,27
22.94167,27
22.95000,27
22.95833,26
22.96667,26
22.97500,26
22.98333,26
22.99167,26
23.00000,26
23.00833,25
23.01667,25
23.02500,25
23.03333,24
23.04167,23
23.05000,23
23.05833,22
23.06667,22
23.07500,21
23.08333,21
23.09167,20
23.10000,19
23.10833,18
23.11667,17
23.12500,16
23.13333,15
23.14167,15
23.15000,14
23.15833,13
23.16667,13
23.17500,12
23.18333,12
23.19167,11
23.20000,10
23.20833,10
23.21667,9
23.22500,9
23.23333,8
23.24167,8
23.25000,7
23.25833,7
23.26667,6
23.27500,6
23.28333,6
23.29167,6
23.30000,5
23.30833,5
23.31667,4
23.32500,4
23.33333,4
23.34167,3
23.35000,3
23.35833,3
23.36667,2
23.37500,2
23.38333,1
23.39167,1
23.40000,0
23.40833,-0
23.41667,-1
23.42500,-1
23.43333,-1
23.44167,-1
23.45000,-1
23.45833,-2
23.46667,-2
23.47500,-2
23.48333,-2
23.49167,-2
23.50000,-2
23.50833,-2
23.51667,-2
23.52500,-2
23.53333,-2
23.54167,-2
23.55000,-2
23.55833,-3
23.56667,-3
23.57500,-3
23.58333,-3
23.59167,-3
23.60000,-3
23.60833,-3
23.61667,-4
23.62500,-4
23.63333,-4
23.64167,-4
23.65000,-4
23.65833,-4
23.66667,-4
23.67500,-5
23.68333,-5
23.69167,-5
23.70000,-5
23.70833,-5
23.71667,-4
23.72500,-4
23.73333,-4
23.74167,-4
23.75000,-4
23.75833,-4
23.76667,-4
23.77500,-4
23.78333,-4
23.79167,-5
23.80000,-5
23.80833,-5
23.81667,-5
23.82500,-5
23.83333,-5
23.84167,-5
23.85000,-4
23.85833,-4
23.86667,-4
23.87500,-5
23.88333,-5
23.89167,-5
23.90000,-5
23.90833,-5
23.91667,-5
23.92500,-5
23.93333,-5
23.94167,-6
23.95000,-5
23.95833,-5
23.96667,-5
23.97500,-5
23.98333,-5
23.99167,-5
24.00000,-5
24.00833,-5
24.01667,-5
24.02500,-5
24.03333,-5
24.04167,-5
24.05000,-6
24.05833,-6
24.06667,-6
24.07500,-6
24.08333,-6
24.09167,-6
24.10000,-6
24.10833,-5
24.11667,-5
24.12500,-5
24.13333,-5
24.14167,-5
24.15000,-5
24.15833,-5
24.16667,-5
24.17500,-5
24.18333,-5
24.19167,-5
24.20000,-4
24.20833,-4
24.21667,-4
24.22500,-4
24.23333,-4
24.24167,-4
24.25000,-4
24.25833,-4
24.26667,-3
24.27500,-3
24.28333,-3
24.29167,-2
24.30000,-2
24.30833,-2
24.31667,-2
24.32500,-1
24.33333,-1
24.34167,-1
24.35000,-1
24.35833,0
24.36667,1
24.37500,2
24.38333,2
24.39167,3
24.40000,3
24.40833,3
24.41667,4
24.42500,4
24.43333,4
24.44167,5
24.45000,5
24.45833,6
24.46667,6
24.47500,7
24.48333,8
24.49167,9
24.50000,10
24.50833,11
24.51667,13
24.52500,14
24.53333,15
24.54167,16
24.55000,17
24.55833,18
24.56667,20
24.57500,22
24.58333,24
24.59167,27
24.60000,29
24.60833,33
24.61667,36
24.62500,39
24.63333,42
24.64167,45
24.65000,48
24.65833,52
24.66667,56
24.67500,61
24.68333,65
24.69167,70
24.70000,75
24.70833,80
24.71667,86
24.72500,92
24.73333,98
24.74167,104
24.75000,111
24.75833,118
24.76667,125
24.77500,133
24.78333,141
24.79167,148
24.80000,156
24.80833,164
24.81667,172
24.82500,181
24.83333,189
24.84167,197
24.85000,205
24.85833,213
24.86667,221
24.87500,230
24.88333,238
24.89167,246
24.90000,254
24.90833,261
24.91667,268
24.92500,274
24.93333,280
24.94167,286
24.95000,291
24.95833,296
24.96667,301
24.97500,305
24.98333,308
24.99167,311
25.00000,313
25.00833,315
25.01667,316
25.02500,317
25.03333,317
25.04167,317
25.05000,315
25.05833,314
25.06667,311
25.07500,309
25.08333,306
25.09167,302
25.10000,298
25.10833,293
25.11667,288
25.12500,283
25.13333,277
25.14167,271
25.15000,265
25.15833,258
25.16667,251
25.17500,244
25.18333,237
25.19167,230
25.20000,222
25.20833,215
25.21667,207
25.22500,199
25.23333,191
25.24167,183
25.25000,175
25.25833,168
25.26667,160
25.27500,153
25.28333,146
25.29167,138
25.30000,131
25.30833,124
25.31667,118
25.32500,111
25.33333,104
25.34167,98
25.35000,92
25.35833,87
25.36667,81
25.37500,76
25.38333,72
25.39167,67
25.40000,63
25.40833,59
25.41667,55
25.42500,51
25.43333,48
25.44167,44
25.45000,41
25.45833,38
25.46667,35
25.47500,32
25.48333,30
25.49167,28
25.50000,26
25.50833,24
25.51667,22
25.52500,21
25.53333,19
25.54167,18
25.55000,17
25.55833,15
25.56667,14
25.57500,13
25.58333,12
25.59167,11
25.60000,10
25.60833,9
25.61667,8
25.62500,8
25.63333,7
25.64167,7
25.65000,6
25.65833,6
25.66667,6
25.67500,5
25.68333,4
25.69167,3
25.70000,3
25.70833,3
25.71667,2
25.72500,2
25.73333,2
25.74167,2
25.75000,1
25.75833,1
25.76667,1
25.77500,1
25.78333,2
25.79167,2
25.80000,2
25.80833,1
25.81667,1
25.82500,1
25.83333,1
25.84167,1
25.85000,1
25.85833,1
25.86667,1
25.87500,1
25.88333,1
25.89167,1
25.90000,1
25.90833,1
25.91667,1
25.92500,1
25.93333,1
25.94167,1
25.95000,1
25.95833,1
25.96667,1
25.97500,1
25.98333,1
25.99167,0
26.00000,1
26.00833,1
26.01667,2
26.02500,2
26.03333,2
26.04167,2
26.05000,3
26.05833,3
26.06667,3
26.07500,4
26.08333,4
26.09167,4
26.10000,4
26.10833,4
26.11667,5
26.12500,5
26.13333,5
26.14167,5
26.15000,5
26.15833,5
26.16667,5
26.17500,5
26.18333,6
26.19167,6
26.20000,6
26.20833,6
26.21667,7
26.22500,7
26.23333,7
26.24167,7
26.25000,7
26.25833,7
26.26667,7
26.27500,7
26.28333,7
26.29167,7
26.30000,7
26.30833,8
26.31667,8
26.32500,7
26.33333,7
26.34167,7
26.35000,6
26.35833,6
26.36667,6
26.37500,6
26.38333,6
26.39167,6
26.40000,6
26.40833,6
26.41667,6
26.42500,5
26.43333,5
26.44167,5
26.45000,5
26.45833,5
26.46667,5
26.47500,5
26.48333,5
26.49167,4
26.50000,4
26.50833,3
26.51667,3
26.52500,3
26.53333,2
26.54167,2
26.55000,2
26.55833,1
26.56667,1
26.57500,1
26.58333,1
26.59167,1
26.60000,1
26.60833,1
26.61667,1
26.62500,1
26.63333,1
26.64167,1
26.65000,1
26.65833,1
26.66667,0
26.67500,0
26.68333,0
26.69167,0
26.70000,0
26.70833,0
26.71667,1
26.72500,1
26.73333,1
26.74167,1
26.75000,1
26.75833,1
26.76667,1
26.77500,2
26.78333,2
26.79167,2
26.80000,2
26.80833,3
26.81667,3
26.82500,2
26.83333,2
26.84167,3
26.85000,3
26.85833,3
26.86667,3
26.87500,4
26.88333,4
26.89167,4
26.90000,4
26.90833,5
26.91667,5
26.92500,5
26.93333,5
26.94167,5
26.95000,5
26.95833,5
26.96667,5
26.97500,6
26.98333,6
26.99167,6
27.00000,6
27.00833,6
27.01667,6
27.02500,7
27.03333,7
27.04167,7
27.05000,7
27.05833,7
27.06667,7
27.07500,8
27.08333,8
27.09167,8
27.10000,8
27.10833,8
27.11667,8
27.12500,8
27.13333,8
27.14167,8
27.15000,8
27.15833,8
27.16667,8
27.17500,8
27.18333,8
27.19167,8
27.20000,8
27.20833,8
27.21667,8
27.22500,8
27.23333,8
27.24167,8
27.25000,7
27.25833,8
27.26667,7
27.27500,7
27.28333,7
27.29167,7
27.30000,7
27.30833,7
27.31667,7
27.32500,7
27.33333,6
27.34167,6
27.35000,6
27.35833,6
27.36667,5
27.37500,5
27.38333,4
27.39167,4
27.40000,4
27.40833,4
27.41667,4
27.42500,3
27.43333,3
27.44167,2
27.45000,2
27.45833,2
27.46667,3
27.47500,3
27.48333,2
27.49167,2
27.50000,2
27.50833,2
27.51667,2
27.52500,2
27.53333,1
27.54167,1
27.55000,1
27.55833,1
27.56667,1
27.57500,1
27.58333,0
27.59167,0
27.60000,-0
27.60833,-0
27.61667,-1
27.62500,-1
27.63333,-1
27.64167,-2
27.65000,-2
27.65833,-2
27.66667,-2
27.67500,-2
27.68333,-2
27.69167,-2
27.70000,-2
27.70833,-3
27.71667,-3
27.72500,-3
27.73333,-4
27.74167,-4
27.75000,-5
27.75833,-6
27.76667,-7
27.77500,-7
27.78333,-8
27.79167,-8
27.80000,-9
27.80833,-10
27.81667,-11
27.82500,-12
27.83333,-12
27.84167,-13
27.85000,-14
27.85833,-15
27.86667,-17
27.87500,-18
27.88333,-19
27.89167,-20
27.90000,-22
27.90833,-23
27.91667,-25
27.92500,-27
27.93333,-29
27.94167,-31
27.95000,-33
27.95833,-36
27.96667,-38
27.97500,-40
27.98333,-43
27.99167,-46
28.00000,-48
28.00833,-51
28.01667,-53
28.02500,-56
28.03333,-58
28.04167,-61
28.05000,-63
28.05833,-66
28.06667,-69
28.07500,-73
28.08333,-76
28.09167,-79
28.10000,-82
28.10833,-86
28.11667,-89
28.12500,-92
28.13333,-96
28.14167,-99
28.15000,-102
28.15833,-105
28.16667,-109
28.17500,-112
28.18333,-115
28.19167,-118
28.20000,-121
28.20833,-124
28.21667,-126
28.22500,-129
28.23333,-131
28.24167,-134
28.25000,-136
28.25833,-138
28.26667,-140
28.27500,-142
28.28333,-144
28.29167,-146
28.30000,-147
28.30833,-148
28.31667,-149
28.32500,-150
28.33333,-151
28.34167,-151
28.35000,-151
28.35833,-152
28.36667,-152
28.37500,-151
28.38333,-151
28.39167,-151
28.40000,-150
28.40833,-150
28.41667,-148
28.42500,-147
28.43333,-146
28.44167,-144
28.45000,-143
28.45833,-141
28.46667,-140
28.47500,-138
28.48333,-136
28.49167,-134
28.50000,-132
28.50833,-131
28.51667,-129
28.52500,-126
28.53333,-124
28.54167,-122
28.55000,-119
28.55833,-117
28.56667,-114
28.57500,-111
28.58333,-108
28.59167,-106
28.60000,-104
28.60833,-102
28.61667,-99
28.62500,-96
28.63333,-94
28.64167,-91
28.65000,-88
28.65833,-86
28.66667,-83
28.67500,-80
28.68333,-78
28.69167,-76
28.70000,-74
28.70833,-72
28.71667,-70
28.72500,-67
28.73333,-65
28.74167,-63
28.75000,-61
28.75833,-59
28.76667,-57
28.77500,-55
28.78333,-53
28.79167,-51
28.80000,-50
28.80833,-48
28.81667,-47
28.82500,-46
28.83333,-44
28.84167,-43
28.85000,-42
28.85833,-41
28.86667,-39
28.87500,-38
28.88333,-37
28.89167,-35
28.90000,-34
28.90833,-33
28.91667,-33
28.92500,-32
28.93333,-31
28.94167,-29
28.95000,-28
28.95833,-27
28.96667,-26
28.97500,-25
28.98333,-25
28.99167,-24
29.00000,-23
29.00833,-21
29.01667,-21
29.02500,-20
29.03333,-19
29.04167,-18
29.05000,-18
29.05833,-17
29.06667,-16
29.07500,-16
29.08333,-15
29.09167,-14
29.10000,-13
29.10833,-13
29.11667,-12
29.12500,-12
29.13333,-11
29.14167,-11
29.15000,-10
29.15833,-10
29.16667,-9
29.17500,-9
29.18333,-8
29.19167,-8
29.20000,-8
29.20833,-7
29.21667,-7
29.22500,-6
29.23333,-6
29.24167,-5
29.25000,-5
29.25833,-4
29.26667,-4
29.27500,-4
29.28333,-4
29.29167,-4
29.30000,-4
29.30833,-4
29.31667,-3
29.32500,-3
29.33333,-3
29.34167,-4
29.35000,-4
29.35833,-4
29.36667,-4
29.37500,-4
29.38333,-4
29.39167,-4
29.40000,-4
29.40833,-5
29.41667,-5
29.42500,-6
29.43333,-6
29.44167,-6
29.45000,-7
29.45833,-8
29.46667,-8
29.47500,-8
29.48333,-9
29.49167,-9
29.50000,-10
29.50833,-11
29.51667,-11
29.52500,-12
29.53333,-12
29.54167,-13
29.55000,-14
29.55833,-14
29.56667,-15
29.57500,-16
29.58333,-17
29.59167,-18
29.60000,-19
29.60833,-20
29.61667,-21
29.62500,-22
29.63333,-22
29.64167,-23
29.65000,-24
29.65833,-25
29.66667,-26
29.67500,-27
29.68333,-29
29.69167,-30
29.70000,-31
29.70833,-33
29.71667,-34
29.72500,-35
29.73333,-36
29.74167,-37
29.75000,-39
29.75833,-41
29.76667,-42
29.77500,-43
29.78333,-44
29.79167,-46
29.80000,-47
29.80833,-48
29.81667,-49
29.82500,-51
29.83333,-52
29.84167,-53
29.85000,-54
29.85833,-56
29.86667,-57
29.87500,-58
29.88333,-59
29.89167,-60
29.90000,-61
29.90833,-62
29.91667,-63
29.92500,-65
29.93333,-66
29.94167,-67
29.95000,-67
29.95833,-68
29.96667,-69
29.97500,-69
29.98333,-70
29.99167,-70
30.00000,-71
30.00833,-72
30.01667,-72
30.02500,-73
30.03333,-73
30.04167,-73
30.05000,-73
30.05833,-73
30.06667,-73
30.07500,-74
30.08333,-74
30.09167,-74
30.10000,-74
30.10833,-73
30.11667,-73
30.12500,-72
30.13333,-71
30.14167,-71
30.15000,-70
30.15833,-70
30.16667,-69
30.17500,-69
30.18333,-68
30.19167,-67
30.20000,-67
30.20833,-66
30.21667,-65
30.22500,-64
30.23333,-63
30.24167,-62
30.25000,-61
30.25833,-60
30.26667,-59
30.27500,-57
30.28333,-56
30.29167,-55
30.30000,-54
30.30833,-53
30.31667,-52
30.32500,-51
30.33333,-50
30.34167,-48
30.35000,-47
30.35833,-45
30.36667,-44
30.37500,-43
30.38333,-42
30.39167,-41
30.40000,-40
30.40833,-38
30.41667,-37
30.42500,-36
30.43333,-35
30.44167,-34
30.45000,-34
30.45833,-33
30.46667,-32
30.47500,-31
30.48333,-31
30.49167,-30
30.50000,-29
30.50833,-29
30.51667,-28
30.52500,-28
30.53333,-27
30.54167,-26
30.55000,-26
30.55833,-25
30.56667,-25
30.57500,-25
30.58333,-25
30.59167,-24
30.60000,-24
30.60833,-24
30.61667,-24
30.62500,-24
30.63333,-24
30.64167,-25
30.65000,-25
30.65833,-25
30.66667,-25
30.67500,-25
30.68333,-25
30.69167,-25
30.70000,-26
30.70833,-26
30.71667,-26
30.72500,-26
30.73333,-27
30.74167,-27
30.75000,-27
30.75833,-28
30.76667,-28
30.77500,-28
30.78333,-29
30.79167,-29
30.80000,-30
30.80833,-30
30.81667,-30
30.82500,-31
30.83333,-31
30.84167,-32
30.85000,-32
30.85833,-32
30.86667,-32
30.87500,-33
30.88333,-33
30.89167,-33
30.90000,-33
30.90833,-33
30.91667,-33
30.92500,-33
30.93333,-33
30.94167,-33
30.95000,-33
30.95833,-33
30.96667,-34
30.97500,-34
30.98333,-34
30.99167,-33
31.00000,-33
31.00833,-33
31.01667,-33
31.02500,-33
31.03333,-33
31.04167,-33
31.05000,-32
31.05833,-32
31.06667,-32
31.07500,-31
31.08333,-30
31.09167,-30
31.10000,-29
31.10833,-29
31.11667,-28
31.12500,-28
31.13333,-27
31.14167,-26
31.15000,-26
31.15833,-25
31.16667,-25
31.17500,-24
31.18333,-24
31.19167,-23
31.20000,-23
31.20833,-22
31.21667,-21
31.22500,-21
31.23333,-21
31.24167,-20
31.25000,-20
31.25833,-18
31.26667,-17
31.27500,-17
31.28333,-16
31.29167,-15
31.30000,-15
31.30833,-14
31.31667,-14
31.32500,-13
31.33333,-13
31.34167,-12
31.35000,-11
31.35833,-11
31.36667,-10
31.37500,-10
31.38333,-9
31.39167,-9
31.40000,-8
31.40833,-8
31.41667,-7
31.42500,-7
31.43333,-7
31.44167,-6
31.45000,-6
31.45833,-6
31.46667,-5
31.47500,-4
31.48333,-4
31.49167,-3
31.50000,-3
31.50833,-3
31.51667,-3
31.52500,-3
31.53333,-2
31.54167,-2
31.55000,-2
31.55833,-2
31.56667,-2
31.57500,-2
31.58333,-2
31.59167,-2
31.60000,-2
31.60833,-1
31.61667,-1
31.62500,-0
31.63333,-0
31.64167,-0
31.65000,-1
31.65833,-1
31.66667,-1
31.67500,-1
31.68333,-1
31.69167,-1
31.70000,-1
31.70833,-1
31.71667,-1
31.72500,-0
31.73333,-1
31.74167,-1
31.75000,-1
31.75833,-1
31.76667,-1
31.77500,-1
31.78333,-1
31.79167,-1
31.80000,-1
31.80833,-1
31.81667,-1
31.82500,-1
31.83333,-1
31.84167,-1
31.85000,-1
31.85833,-1
31.86667,-1
31.87500,-1
31.88333,-1
31.89167,-1
31.90000,-1
31.90833,-1
31.91667,-1
31.92500,-1
31.93333,-1
31.94167,-1
31.95000,-1
31.95833,-1
31.96667,-1
31.97500,-1
31.98333,-1
31.99167,-1
32.00000,-1
32.00833,-1
32.01667,-1
32.02500,-1
32.03333,-1
32.04167,-1
32.05000,-1
32.05833,-1
32.06667,-1
32.07500,-1
32.08333,-1
32.09167,-1
32.10000,-1
32.10833,-0
32.11667,-0
32.12500,0
32.13333,0
32.14167,0
32.15000,-0
32.15833,-1
32.16667,-1
32.17500,-1
32.18333,-1
32.19167,-1
32.20000,-1
32.20833,-1
32.21667,-1
32.22500,-1
32.23333,-1
32.24167,-1
32.25000,-1
32.25833,-1
32.26667,-1
32.27500,-0
32.28333,-0
32.29167,-0
32.30000,-0
32.30833,-0
32.31667,-0
32.32500,-1
32.33333,-1
32.34167,-2
32.35000,-2
32.35833,-2
32.36667,-2
32.37500,-2
32.38333,-3
32.39167,-3
32.40000,-3
32.40833,-3
32.41667,-3
32.42500,-3
32.43333,-3
32.44167,-3
32.45000,-3
32.45833,-4
32.46667,-4
32.47500,-4
32.48333,-4
32.49167,-4
32.50000,-4
32.50833,-5
32.51667,-5
32.52500,-5
32.53333,-6
32.54167,-6
32.55000,-6
32.55833,-6
32.56667,-6
32.57500,-6
32.58333,-6
32.59167,-6
32.60000,-6
32.60833,-7
32.61667,-7
32.62500,-7
32.63333,-7
32.64167,-8
32.65000,-8
32.65833,-8
32.66667,-8
32.67500,-8
32.68333,-9
32.69167,-9
32.70000,-9
32.70833,-9
32.71667,-9
32.72500,-9
32.73333,-9
32.74167,-9
32.75000,-9
32.75833,-9
32.76667,-9
32.77500,-9
32.78333,-9
32.79167,-9
32.80000,-9
32.80833,-9
32.81667,-9
32.82500,-9
32.83333,-9
32.84167,-9
32.85000,-9
32.85833,-8
32.86667,-8
32.87500,-8
32.88333,-8
32.89167,-8
32.90000,-8
32.90833,-7
32.91667,-7
32.92500,-7
32.93333,-7
32.94167,-7
32.95000,-7
32.95833,-7
32.96667,-6
32.97500,-6
32.98333,-5
32.99167,-5
33.00000,-5
33.00833,-5
33.01667,-5
33.02500,-4
33.03333,-4
33.04167,-3
33.05000,-3
33.05833,-3
33.06667,-3
33.07500,-3
33.08333,-2
33.09167,-2
33.10000,-2
33.10833,-2
33.11667,-2
33.12500,-1
33.13333,-1
33.14167,-1
33.15000,-0
33.15833,-0
33.16667,-0
33.17500,0
33.18333,0
33.19167,1
33.20000,1
33.20833,1
33.21667,1
33.22500,1
33.23333,2
33.24167,2
33.25000,2
33.25833,2
33.26667,2
33.27500,2
33.28333,2
33.29167,3
33.30000,3
33.30833,3
33.31667,3
33.32500,4
33.33333,4
33.34167,4
33.35000,4
33.35833,3
33.36667,3
33.37500,3
33.38333,3
33.39167,3
33.40000,3
33.40833,3
33.41667,3
33.42500,3
33.43333,3
33.44167,3
33.45000,3
33.45833,3
33.46667,3
33.47500,3
33.48333,2
33.49167,2
33.50000,2
33.50833,2
33.51667,2
33.52500,2
33.53333,1
33.54167,1
33.55000,0
33.55833,-0
33.56667,-0
33.57500,-0
33.58333,0
33.59167,-0
33.60000,-1
33.60833,-1
33.61667,-1
33.62500,-1
33.63333,-2
33.64167,-2
33.65000,-2
33.65833,-3
33.66667,-3
33.67500,-3
33.68333,-3
33.69167,-3
33.70000,-3
33.70833,-3
33.71667,-4
33.72500,-4
33.73333,-4
33.74167,-4
33.75000,-4
33.75833,-5
33.76667,-5
33.77500,-5
33.78333,-6
33.79167,-6
33.80000,-6
33.80833,-6
33.81667,-6
33.82500,-6
33.83333,-6
33.84167,-6
33.85000,-7
33.85833,-7
33.86667,-7
33.87500,-8
33.88333,-8
33.89167,-9
33.90000,-9
33.90833,-9
33.91667,-9
33.92500,-9
33.93333,-9
33.94167,-9
33.95000,-9
33.95833,-9
33.96667,-10
33.97500,-10
33.98333,-11
33.99167,-11
34.00000,-11
34.00833,-10
34.01667,-10
34.02500,-10
34.03333,-9
34.04167,-9
34.05000,-9
34.05833,-9
34.06667,-9
34.07500,-9
34.08333,-9
34.09167,-8
34.10000,-9
34.10833,-9
34.11667,-9
34.12500,-8
34.13333,-8
34.14167,-9
34.15000,-9
34.15833,-8
34.16667,-8
34.17500,-8
34.18333,-8
34.19167,-8
34.20000,-7
34.20833,-6
34.21667,-6
34.22500,-5
34.23333,-5
34.24167,-5
34.25000,-4
34.25833,-4
34.26667,-3
34.27500,-4
34.28333,-4
34.29167,-4
34.30000,-4
34.30833,-4
34.31667,-3
34.32500,-3
34.33333,-3
34.34167,-3
34.35000,-3
34.35833,-3
34.36667,-2
34.37500,-2
34.38333,-2
34.39167,-2
34.40000,-2
34.40833,-2
34.41667,-1
34.42500,-1
34.43333,-1
34.44167,-1
34.45000,-1
34.45833,-1
34.46667,-0
34.47500,-0
34.48333,0
34.49167,0
34.50000,1
34.50833,0
34.51667,0
34.52500,1
34.53333,1
34.54167,0
34.55000,0
34.55833,0
34.56667,-0
34.57500,-0
34.58333,0
34.59167,0
34.60000,-0
34.60833,-0
34.61667,-1
34.62500,-1
34.63333,-1
34.64167,-1
34.65000,-1
34.65833,-2
34.66667,-2
34.67500,-2
34.68333,-2
34.69167,-2
34.70000,-3
34.70833,-3
34.71667,-3
34.72500,-3
34.73333,-3
34.74167,-3
34.75000,-3
34.75833,-3
34.76667,-3
34.77500,-4
34.78333,-5
34.79167,-5
34.80000,-5
34.80833,-6
34.81667,-6
34.82500,-6
34.83333,-6
34.84167,-6
34.85000,-7
34.85833,-7
34.86667,-8
34.87500,-8
34.88333,-9
34.89167,-9
34.90000,-9
34.90833,-10
34.91667,-10
34.92500,-10
34.93333,-11
34.94167,-11
34.95000,-10
34.95833,-10
34.96667,-10
34.97500,-10
34.98333,-10
34.99167,-10
35.00000,-10
35.00833,-10
35.01667,-10
35.02500,-10
35.03333,-10
35.04167,-10
35.05000,-10
35.05833,-10
35.06667,-10
35.07500,-9
35.08333,-9
35.09167,-8
35.10000,-8
35.10833,-8
35.11667,-8
35.12500,-8
35.13333,-7
35.14167,-7
35.15000,-7
35.15833,-7
35.16667,-7
35.17500,-6
35.18333,-7
35.19167,-7
35.20000,-7
35.20833,-7
35.21667,-6
35.22500,-6
35.23333,-6
35.24167,-5
35.25000,-5
35.25833,-5
35.26667,-4
35.27500,-4
35.28333,-4
35.29167,-3
35.30000,-3
35.30833,-2
35.31667,-2
35.32500,-2
35.33333,-1
35.34167,-1
35.35000,-0
35.35833,-0
35.36667,0
35.37500,0
35.38333,0
35.39167,0
35.40000,-0
35.40833,-1
35.41667,-1
35.42500,-0
35.43333,-0
35.44167,-0
35.45000,-0
35.45833,-0
35.46667,-0
35.47500,-1
35.48333,-1
35.49167,-1
35.50000,-1
35.50833,-1
35.51667,-1
35.52500,-1
35.53333,-1
35.54167,-1
35.55000,-0
35.55833,-0
35.56667,-0
35.57500,-1
35.58333,-2
35.59167,-2
35.60000,-2
35.60833,-3
35.61667,-3
35.62500,-3
35.63333,-3
35.64167,-3
35.65000,-4
35.65833,-4
35.66667,-4
35.67500,-4
35.68333,-4
35.69167,-5
35.70000,-5
35.70833,-6
35.71667,-6
35.72500,-6
35.73333,-6
35.74167,-7
35.75000,-7
35.75833,-7
35.76667,-7
35.77500,-8
35.78333,-8
35.79167,-8
35.80000,-8
35.80833,-8
35.81667,-9
35.82500,-9
35.83333,-9
35.84167,-10
35.85000,-10
35.85833,-10
35.86667,-10
35.87500,-10
35.88333,-11
35.89167,-11
35.90000,-11
35.90833,-11
35.91667,-12
35.92500,-12
35.93333,-12
35.94167,-13
35.95000,-13
35.95833,-14
35.96667,-14
35.97500,-14
35.98333,-14
35.99167,-14
36.00000,-14
36.00833,-14
36.01667,-14
36.02500,-14
36.03333,-14
36.04167,-14
36.05000,-13
36.05833,-13
36.06667,-13
36.07500,-13
36.08333,-13
36.09167,-14
36.10000,-14
36.10833,-14
36.11667,-14
36.12500,-14
36.13333,-14
36.14167,-14
36.15000,-13
36.15833,-13
36.16667,-13
36.17500,-13
36.18333,-13
36.19167,-12
36.20000,-12
36.20833,-12
36.21667,-12
36.22500,-12
36.23333,-12
36.24167,-12
36.25000,-11
36.25833,-11
36.26667,-11
36.27500,-10
36.28333,-10
36.29167,-9
36.30000,-9
36.30833,-9
36.31667,-9
36.32500,-9
36.33333,-9
36.34167,-9
36.35000,-8
36.35833,-8
36.36667,-7
36.37500,-7
36.38333,-7
36.39167,-7
36.40000,-6
36.40833,-6
36.41667,-6
36.42500,-6
36.43333,-6
36.44167,-6
36.45000,-5
36.45833,-5
36.46667,-5
36.47500,-5
36.48333,-4
36.49167,-4
36.50000,-4
36.50833,-4
36.51667,-4
36.52500,-4
36.53333,-4
36.54167,-3
36.55000,-3
36.55833,-3
36.56667,-3
36.57500,-3
36.58333,-3
36.59167,-3
36.60000,-4
36.60833,-4
36.61667,-4
36.62500,-4
36.63333,-5
36.64167,-5
36.65000,-5
36.65833,-5
36.66667,-5
36.67500,-5
36.68333,-5
36.69167,-6
36.70000,-6
36.70833,-6
36.71667,-6
36.72500,-6
36.73333,-6
36.74167,-6
36.75000,-6
36.75833,-6
36.76667,-6
36.77500,-6
36.78333,-6
36.79167,-7
36.80000,-7
36.80833,-7
36.81667,-7
36.82500,-7
36.83333,-8
36.84167,-8
36.85000,-8
36.85833,-8
36.86667,-8
36.87500,-8
36.88333,-8
36.89167,-8
36.90000,-9
36.90833,-9
36.91667,-9
36.92500,-9
36.93333,-9
36.94167,-10
36.95000,-10
36.95833,-10
36.96667,-10
36.97500,-11
36.98333,-11
36.99167,-11
37.00000,-11
37.00833,-11
37.01667,-11
37.02500,-11
37.03333,-11
37.04167,-11
37.05000,-11
37.05833,-12
37.06667,-12
37.07500,-12
37.08333,-12
37.09167,-12
37.10000,-12
37.10833,-12
37.11667,-12
37.12500,-11
37.13333,-11
37.14167,-11
37.15000,-11
37.15833,-11
37.16667,-11
37.17500,-11
37.18333,-11
37.19167,-11
37.20000,-10
37.20833,-10
37.21667,-10
37.22500,-10
37.23333,-10
37.24167,-10
37.25000,-10
37.25833,-9
37.26667,-9
37.27500,-8
37.28333,-8
37.29167,-8
37.30000,-8
37.30833,-7
37.31667,-7
37.32500,-6
37.33333,-6
37.34167,-6
37.35000,-5
37.35833,-5
37.36667,-5
37.37500,-4
37.38333,-4
37.39167,-4
37.40000,-3
37.40833,-2
37.41667,-2
37.42500,-2
37.43333,-1
37.44167,-1
37.45000,-1
37.45833,-1
37.46667,-1
37.47500,-1
37.48333,-1
37.49167,-0
37.50000,-0
37.50833,0
37.51667,1
37.52500,1
37.53333,1
37.54167,2
37.55000,2
37.55833,2
37.56667,2
37.57500,2
37.58333,2
37.59167,2
37.60000,2
37.60833,2
37.61667,2
37.62500,2
37.63333,2
37.64167,2
37.65000,1
37.65833,1
37.66667,1
37.67500,0
37.68333,0
37.69167,-0
37.70000,-0
37.70833,-0
37.71667,-1
37.72500,-1
37.73333,-1
37.74167,-1
37.75000,-1
37.75833,-2
37.76667,-2
37.77500,-3
37.78333,-3
37.79167,-3
37.80000,-4
37.80833,-4
37.81667,-4
37.82500,-4
37.83333,-4
37.84167,-5
37.85000,-5
37.85833,-5
37.86667,-5
37.87500,-5
37.88333,-6
37.89167,-6
37.90000,-6
37.90833,-6
37.91667,-7
37.92500,-7
37.93333,-7
37.94167,-7
37.95000,-7
37.95833,-8
37.96667,-8
37.97500,-8
37.98333,-8
37.99167,-8
38.00000,-8
38.00833,-8
38.01667,-8
38.02500,-8
38.03333,-8
38.04167,-8
38.05000,-8
38.05833,-8
38.06667,-8
38.07500,-8
38.08333,-8
38.09167,-7
38.10000,-7
38.10833,-7
38.11667,-7
38.12500,-7
38.13333,-7
38.14167,-6
38.15000,-6
38.15833,-6
38.16667,-6
38.17500,-6
38.18333,-7
38.19167,-6
38.20000,-6
38.20833,-6
38.21667,-6
38.22500,-6
38.23333,-6
38.24167,-6
38.25000,-6
38.25833,-6
38.26667,-6
38.27500,-6
38.28333,-6
38.29167,-6
38.30000,-6
38.30833,-6
38.31667,-6
38.32500,-6
38.33333,-6
38.34167,-5
38.35000,-6
38.35833,-6
38.36667,-6
38.37500,-6
38.38333,-6
38.39167,-6
38.40000,-6
38.40833,-6
38.41667,-6
38.42500,-6
38.43333,-6
38.44167,-6
38.45000,-6
38.45833,-5
38.46667,-5
38.47500,-5
38.48333,-5
38.49167,-5
38.50000,-6
38.50833,-6
38.51667,-6
38.52500,-6
38.53333,-6
38.54167,-6
38.55000,-6
38.55833,-6
38.56667,-6
38.57500,-6
38.58333,-6
38.59167,-6
38.60000,-6
38.60833,-7
38.61667,-7
38.62500,-6
38.63333,-6
38.64167,-6
38.65000,-6
38.65833,-6
38.66667,-6
38.67500,-6
38.68333,-6
38.69167,-7
38.70000,-7
38.70833,-7
38.71667,-7
38.72500,-7
38.73333,-7
38.74167,-7
38.75000,-7
38.75833,-7
38.76667,-7
38.77500,-7
38.78333,-7
38.79167,-8
38.80000,-8
38.80833,-8
38.81667,-8
38.82500,-8
38.83333,-8
38.84167,-9
38.85000,-9
38.85833,-9
38.86667,-9
38.87500,-9
38.88333,-10
38.89167,-10
38.90000,-10
38.90833,-10
38.91667,-10
38.92500,-10
38.93333,-11
38.94167,-11
38.95000,-11
38.95833,-11
38.96667,-12
38.97500,-12
38.98333,-12
38.99167,-12
39.00000,-12
39.00833,-12
39.01667,-12
39.02500,-13
39.03333,-13
39.04167,-13
39.05000,-13
39.05833,-13
39.06667,-13
39.07500,-14
39.08333,-14
39.09167,-13
39.10000,-13
39.10833,-13
39.11667,-13
39.12500,-13
39.13333,-14
39.14167,-14
39.15000,-14
39.15833,-14
39.16667,-14
39.17500,-14
39.18333,-14
39.19167,-14
39.20000,-14
39.20833,-14
39.21667,-14
39.22500,-14
39.23333,-14
39.24167,-14
39.25000,-14
39.25833,-14
39.26667,-14
39.27500,-14
39.28333,-14
39.29167,-14
39.30000,-13
39.30833,-13
39.31667,-13
39.32500,-13
39.33333,-13
39.34167,-13
39.35000,-12
39.35833,-12
39.36667,-12
39.37500,-12
39.38333,-12
39.39167,-12
39.40000,-11
39.40833,-11
39.41667,-11
39.42500,-12
39.43333,-11
39.44167,-11
39.45000,-11
39.45833,-10
39.46667,-10
39.47500,-10
39.48333,-9
39.49167,-9
39.50000,-9
39.50833,-9
39.51667,-10
39.52500,-10
39.53333,-9
39.54167,-9
39.55000,-9
39.55833,-9
39.56667,-9
39.57500,-9
39.58333,-8
39.59167,-8
39.60000,-8
39.60833,-9
39.61667,-9
39.62500,-9
39.63333,-9
39.64167,-9
39.65000,-9
39.65833,-9
39.66667,-9
39.67500,-8
39.68333,-8
39.69167,-8
39.70000,-7
39.70833,-7
39.71667,-7
39.72500,-7
39.73333,-7
39.74167,-7
39.75000,-7
39.75833,-7
39.76667,-8
39.77500,-8
39.78333,-8
39.79167,-8
39.80000,-9
39.80833,-9
39.81667,-9
39.82500,-9
39.83333,-9
39.84167,-9
39.85000,-9
39.85833,-9
39.86667,-8
39.87500,-8
39.88333,-8
39.89167,-8
39.90000,-9
39.90833,-9
39.91667,-9
39.92500,-9
39.93333,-9
39.94167,-9
39.95000,-9
39.95833,-8
39.96667,-8
39.97500,-8
39.98333,-8
39.99167,-8
40.00000,-9

