[Header]
Application Name,LabSolutions
Version,5.97 SP1
Data File Name,C:\Users\cremerlab\Desktop\griffin\2021-04-06_REL606_DM_glucose_turnover\2021-04-06_REL606_DM_glucose_turnover_462021_003_003.lcd
Output Date,4/6/2021
Output Time,7:16:59 PM

[File Information]
Type,Data File
Generated,4/6/2021 6:36:40 PM
Generated by,System Administrator
Modified,4/6/2021 7:16:59 PM
Modified by,System Administrator

[Sample Information]
Operator Name,System Administrator
Acquired,4/6/2021 6:36:58 PM
Sample Type,1:Standard
Level,3
Sample Name,2021-04-04_REL606_replicate_001_timepoint_003
Sample ID,003
ISTD Amount1,1
ISTD Amount2,1
ISTD Amount3,1
ISTD Amount4,1
ISTD Amount5,1
ISTD Amount6,1
ISTD Amount7,1
ISTD Amount8,1
ISTD Amount9,1
ISTD Amount10,1
ISTD Amount11,1
ISTD Amount12,1
ISTD Amount13,1
ISTD Amount14,1
ISTD Amount15,1
ISTD Amount16,1
ISTD Amount17,1
ISTD Amount18,1
ISTD Amount19,1
ISTD Amount20,1
ISTD Amount21,1
ISTD Amount22,1
ISTD Amount23,1
ISTD Amount24,1
ISTD Amount25,1
ISTD Amount26,1
ISTD Amount27,1
ISTD Amount28,1
ISTD Amount29,1
ISTD Amount30,1
ISTD Amount31,1
ISTD Amount32,1
Sample Amount,1
Dilution Factor,1
Vial#,3
Injection Volume,20

[Original Files]
Data File,C:\Users\cremerlab\Desktop\griffin\2021-04-06_REL606_DM_glucose_turnover\2021-04-06_REL606_DM_glucose_turnover_462021_003_003.lcd
Method File,C:\Users\cremerlab\Desktop\griffin\2.5mM_H2SO4_mobile_phase.lcm
Batch File,C:\Users\cremerlab\Desktop\griffin\2021-04-06_REL606_DM_glucose_turnover\2021-04-06_REL606_DM_glucose_turnover.lcb
Report Format File,c:\LabSolutions\System\DEFAULT.lsr

[File Description]


[Configuration]
Instrument Name,HPLC-PC-Instrument1
Instrument #,1
Line #,1
# of Detectors,2
Detector ID,Detector A,Detector B
Detector Name,Detector A,Detector B
# of Channels,1,1

[Peak Table(Detector A)]
# of Peaks,0

[Peak Table(Detector B)]
# of Peaks,6
Peak#,R.Time,I.Time,F.Time,Area,Height,A/H,Conc.,Mark,ID#,Name,k',Plate #,Plate Ht.,Tailing,Resolution,Sep.Factor,Area Ratio,Height Ratio,Conc. %,Norm Conc.
1,10.883,10.425,11.900,251897,14682,17.157,0.000,   ,,,0.000,9149,16.395,1.048,0.000,0.000,0,0,0.000,0.000
2,13.928,12.542,14.200,1701084,45243,37.599,0.000,   ,,,0.280,3140,47.768,0.000,4.202,0.000,0,0,0.000,0.000
3,14.323,14.200,14.975,163165,9067,17.995,0.000, V ,,,0.316,5738,26.142,0.000,0.451,1.130,0,0,0.000,0.000
4,15.670,14.975,17.483,999678,39995,24.995,0.000, V ,,,0.440,9246,16.223,1.150,1.913,1.392,0,0,0.000,0.000
5,19.083,18.750,19.750,2881,113,25.575,0.000,   ,,,0.753,12744,11.770,1.366,5.140,1.713,0,0,0.000,0.000
6,25.033,24.583,25.617,5647,204,27.675,0.000,   ,,,1.300,17535,8.554,1.074,8.308,1.726,0,0,0.000,0.000

[LC Chromatogram(Detector B-Ch1)]
Interval(msec),500
# of Points,4801
Start Time(min),0.000
End Time(min),40.000
Intensity Units,mV
Intensity Multiplier,0.001
R.Time (min),Intensity
0.00000,2
0.00833,2
0.01667,0
0.02500,0
0.03333,0
0.04167,0
0.05000,0
0.05833,0
0.06667,0
0.07500,0
0.08333,0
0.09167,0
0.10000,-0
0.10833,-0
0.11667,-0
0.12500,-1
0.13333,-1
0.14167,-1
0.15000,-2
0.15833,-2
0.16667,-2
0.17500,-2
0.18333,-3
0.19167,-3
0.20000,-2
0.20833,-2
0.21667,-2
0.22500,-1
0.23333,-1
0.24167,-1
0.25000,-1
0.25833,-2
0.26667,-2
0.27500,-3
0.28333,-3
0.29167,-3
0.30000,-4
0.30833,-4
0.31667,-4
0.32500,-3
0.33333,-4
0.34167,-4
0.35000,-4
0.35833,-4
0.36667,-4
0.37500,-5
0.38333,-5
0.39167,-5
0.40000,-5
0.40833,-5
0.41667,-5
0.42500,-5
0.43333,-5
0.44167,-5
0.45000,-5
0.45833,-5
0.46667,-5
0.47500,-5
0.48333,-5
0.49167,-5
0.50000,-5
0.50833,-5
0.51667,-5
0.52500,-5
0.53333,-5
0.54167,-5
0.55000,-5
0.55833,-4
0.56667,-4
0.57500,-4
0.58333,-4
0.59167,-3
0.60000,-3
0.60833,-3
0.61667,-3
0.62500,-3
0.63333,-3
0.64167,-3
0.65000,-3
0.65833,-3
0.66667,-3
0.67500,-3
0.68333,-2
0.69167,-2
0.70000,-3
0.70833,-2
0.71667,-2
0.72500,-2
0.73333,-3
0.74167,-3
0.75000,-2
0.75833,-2
0.76667,-2
0.77500,-2
0.78333,-2
0.79167,-2
0.80000,-2
0.80833,-1
0.81667,-1
0.82500,-1
0.83333,-1
0.84167,-1
0.85000,-1
0.85833,-1
0.86667,-0
0.87500,-0
0.88333,-1
0.89167,-1
0.90000,-2
0.90833,-1
0.91667,-1
0.92500,-1
0.93333,-1
0.94167,-1
0.95000,-1
0.95833,-2
0.96667,-2
0.97500,-3
0.98333,-3
0.99167,-3
1.00000,-2
1.00833,-2
1.01667,-2
1.02500,-2
1.03333,-2
1.04167,-3
1.05000,-3
1.05833,-3
1.06667,-2
1.07500,-2
1.08333,-3
1.09167,-3
1.10000,-3
1.10833,-3
1.11667,-3
1.12500,-3
1.13333,-3
1.14167,-3
1.15000,-2
1.15833,-2
1.16667,-2
1.17500,-2
1.18333,-2
1.19167,-2
1.20000,-2
1.20833,-2
1.21667,-2
1.22500,-2
1.23333,-2
1.24167,-2
1.25000,-2
1.25833,-2
1.26667,-2
1.27500,-2
1.28333,-2
1.29167,-2
1.30000,-2
1.30833,-2
1.31667,-2
1.32500,-1
1.33333,-1
1.34167,-0
1.35000,0
1.35833,0
1.36667,0
1.37500,0
1.38333,0
1.39167,0
1.40000,1
1.40833,1
1.41667,1
1.42500,0
1.43333,0
1.44167,0
1.45000,0
1.45833,0
1.46667,0
1.47500,0
1.48333,0
1.49167,0
1.50000,-0
1.50833,-1
1.51667,-1
1.52500,-2
1.53333,-2
1.54167,-2
1.55000,-2
1.55833,-3
1.56667,-3
1.57500,-3
1.58333,-3
1.59167,-3
1.60000,-3
1.60833,-3
1.61667,-3
1.62500,-3
1.63333,-3
1.64167,-3
1.65000,-4
1.65833,-4
1.66667,-5
1.67500,-5
1.68333,-5
1.69167,-5
1.70000,-6
1.70833,-6
1.71667,-6
1.72500,-5
1.73333,-6
1.74167,-6
1.75000,-6
1.75833,-6
1.76667,-6
1.77500,-7
1.78333,-7
1.79167,-7
1.80000,-7
1.80833,-7
1.81667,-6
1.82500,-6
1.83333,-6
1.84167,-6
1.85000,-6
1.85833,-6
1.86667,-6
1.87500,-6
1.88333,-6
1.89167,-6
1.90000,-6
1.90833,-6
1.91667,-5
1.92500,-5
1.93333,-5
1.94167,-5
1.95000,-5
1.95833,-5
1.96667,-5
1.97500,-5
1.98333,-4
1.99167,-4
2.00000,-4
2.00833,-3
2.01667,-3
2.02500,-3
2.03333,-3
2.04167,-3
2.05000,-3
2.05833,-2
2.06667,-2
2.07500,-2
2.08333,-2
2.09167,-2
2.10000,-2
2.10833,-2
2.11667,-2
2.12500,-2
2.13333,-1
2.14167,-1
2.15000,-1
2.15833,-1
2.16667,-0
2.17500,-0
2.18333,-1
2.19167,-1
2.20000,-0
2.20833,-0
2.21667,0
2.22500,1
2.23333,1
2.24167,1
2.25000,2
2.25833,2
2.26667,2
2.27500,2
2.28333,2
2.29167,2
2.30000,2
2.30833,3
2.31667,3
2.32500,4
2.33333,4
2.34167,4
2.35000,4
2.35833,4
2.36667,4
2.37500,5
2.38333,5
2.39167,4
2.40000,4
2.40833,4
2.41667,4
2.42500,4
2.43333,4
2.44167,4
2.45000,4
2.45833,4
2.46667,5
2.47500,5
2.48333,4
2.49167,4
2.50000,4
2.50833,4
2.51667,4
2.52500,4
2.53333,3
2.54167,3
2.55000,3
2.55833,3
2.56667,3
2.57500,3
2.58333,2
2.59167,2
2.60000,2
2.60833,1
2.61667,0
2.62500,0
2.63333,0
2.64167,0
2.65000,-0
2.65833,-0
2.66667,-0
2.67500,-1
2.68333,-1
2.69167,-1
2.70000,-1
2.70833,-1
2.71667,-1
2.72500,-2
2.73333,-2
2.74167,-2
2.75000,-2
2.75833,-3
2.76667,-3
2.77500,-3
2.78333,-4
2.79167,-4
2.80000,-4
2.80833,-5
2.81667,-5
2.82500,-5
2.83333,-6
2.84167,-6
2.85000,-6
2.85833,-7
2.86667,-7
2.87500,-7
2.88333,-7
2.89167,-7
2.90000,-7
2.90833,-8
2.91667,-8
2.92500,-8
2.93333,-9
2.94167,-9
2.95000,-9
2.95833,-9
2.96667,-9
2.97500,-9
2.98333,-9
2.99167,-10
3.00000,-10
3.00833,-10
3.01667,-10
3.02500,-10
3.03333,-11
3.04167,-11
3.05000,-11
3.05833,-11
3.06667,-11
3.07500,-11
3.08333,-11
3.09167,-12
3.10000,-12
3.10833,-12
3.11667,-12
3.12500,-12
3.13333,-13
3.14167,-13
3.15000,-13
3.15833,-13
3.16667,-13
3.17500,-13
3.18333,-13
3.19167,-14
3.20000,-14
3.20833,-14
3.21667,-13
3.22500,-13
3.23333,-13
3.24167,-13
3.25000,-13
3.25833,-13
3.26667,-13
3.27500,-12
3.28333,-12
3.29167,-12
3.30000,-12
3.30833,-12
3.31667,-12
3.32500,-12
3.33333,-12
3.34167,-12
3.35000,-11
3.35833,-11
3.36667,-11
3.37500,-11
3.38333,-10
3.39167,-10
3.40000,-10
3.40833,-10
3.41667,-10
3.42500,-9
3.43333,-9
3.44167,-9
3.45000,-9
3.45833,-9
3.46667,-9
3.47500,-8
3.48333,-8
3.49167,-8
3.50000,-7
3.50833,-7
3.51667,-7
3.52500,-7
3.53333,-7
3.54167,-7
3.55000,-7
3.55833,-7
3.56667,-7
3.57500,-6
3.58333,-6
3.59167,-6
3.60000,-5
3.60833,-5
3.61667,-5
3.62500,-4
3.63333,-4
3.64167,-4
3.65000,-4
3.65833,-3
3.66667,-3
3.67500,-3
3.68333,-2
3.69167,-2
3.70000,-2
3.70833,-1
3.71667,-1
3.72500,-1
3.73333,-1
3.74167,-0
3.75000,0
3.75833,0
3.76667,0
3.77500,0
3.78333,0
3.79167,0
3.80000,0
3.80833,0
3.81667,1
3.82500,1
3.83333,1
3.84167,2
3.85000,2
3.85833,2
3.86667,2
3.87500,2
3.88333,2
3.89167,2
3.90000,2
3.90833,1
3.91667,1
3.92500,1
3.93333,2
3.94167,2
3.95000,2
3.95833,3
3.96667,3
3.97500,3
3.98333,3
3.99167,3
4.00000,3
4.00833,3
4.01667,3
4.02500,2
4.03333,2
4.04167,2
4.05000,2
4.05833,2
4.06667,2
4.07500,1
4.08333,1
4.09167,1
4.10000,0
4.10833,0
4.11667,0
4.12500,0
4.13333,0
4.14167,0
4.15000,-0
4.15833,-1
4.16667,-1
4.17500,-1
4.18333,-2
4.19167,-2
4.20000,-2
4.20833,-3
4.21667,-3
4.22500,-3
4.23333,-3
4.24167,-3
4.25000,-4
4.25833,-4
4.26667,-4
4.27500,-5
4.28333,-5
4.29167,-6
4.30000,-6
4.30833,-6
4.31667,-6
4.32500,-7
4.33333,-7
4.34167,-7
4.35000,-7
4.35833,-7
4.36667,-8
4.37500,-8
4.38333,-9
4.39167,-9
4.40000,-10
4.40833,-11
4.41667,-11
4.42500,-12
4.43333,-12
4.44167,-12
4.45000,-12
4.45833,-12
4.46667,-12
4.47500,-13
4.48333,-14
4.49167,-15
4.50000,-15
4.50833,-16
4.51667,-16
4.52500,-16
4.53333,-16
4.54167,-16
4.55000,-17
4.55833,-17
4.56667,-18
4.57500,-19
4.58333,-19
4.59167,-20
4.60000,-20
4.60833,-20
4.61667,-20
4.62500,-21
4.63333,-21
4.64167,-21
4.65000,-21
4.65833,-22
4.66667,-22
4.67500,-22
4.68333,-23
4.69167,-23
4.70000,-23
4.70833,-23
4.71667,-23
4.72500,-23
4.73333,-23
4.74167,-23
4.75000,-24
4.75833,-23
4.76667,-23
4.77500,-23
4.78333,-23
4.79167,-23
4.80000,-23
4.80833,-23
4.81667,-23
4.82500,-23
4.83333,-22
4.84167,-22
4.85000,-22
4.85833,-22
4.86667,-21
4.87500,-20
4.88333,-20
4.89167,-19
4.90000,-19
4.90833,-18
4.91667,-18
4.92500,-17
4.93333,-17
4.94167,-16
4.95000,-15
4.95833,-14
4.96667,-13
4.97500,-13
4.98333,-12
4.99167,-11
5.00000,-11
5.00833,-12
5.01667,-11
5.02500,-11
5.03333,-10
5.04167,-10
5.05000,-9
5.05833,-9
5.06667,-8
5.07500,-8
5.08333,-7
5.09167,-7
5.10000,-6
5.10833,-5
5.11667,-5
5.12500,-4
5.13333,-3
5.14167,-3
5.15000,-2
5.15833,-1
5.16667,-1
5.17500,-0
5.18333,0
5.19167,1
5.20000,1
5.20833,1
5.21667,2
5.22500,2
5.23333,2
5.24167,2
5.25000,2
5.25833,2
5.26667,3
5.27500,3
5.28333,3
5.29167,3
5.30000,3
5.30833,3
5.31667,3
5.32500,3
5.33333,3
5.34167,3
5.35000,3
5.35833,3
5.36667,4
5.37500,4
5.38333,4
5.39167,3
5.40000,3
5.40833,3
5.41667,3
5.42500,2
5.43333,2
5.44167,2
5.45000,2
5.45833,2
5.46667,2
5.47500,2
5.48333,2
5.49167,2
5.50000,2
5.50833,1
5.51667,1
5.52500,1
5.53333,1
5.54167,0
5.55000,0
5.55833,-0
5.56667,-0
5.57500,-1
5.58333,-1
5.59167,-1
5.60000,-2
5.60833,-2
5.61667,-2
5.62500,-3
5.63333,-3
5.64167,-3
5.65000,-3
5.65833,-4
5.66667,-5
5.67500,-5
5.68333,-6
5.69167,-6
5.70000,-7
5.70833,-7
5.71667,-8
5.72500,-8
5.73333,-9
5.74167,-9
5.75000,-9
5.75833,-9
5.76667,-10
5.77500,-10
5.78333,-11
5.79167,-12
5.80000,-12
5.80833,-12
5.81667,-13
5.82500,-14
5.83333,-14
5.84167,-15
5.85000,-15
5.85833,-15
5.86667,-16
5.87500,-16
5.88333,-17
5.89167,-17
5.90000,-17
5.90833,-18
5.91667,-18
5.92500,-18
5.93333,-18
5.94167,-18
5.95000,-19
5.95833,-19
5.96667,-20
5.97500,-20
5.98333,-20
5.99167,-20
6.00000,-20
6.00833,-20
6.01667,-19
6.02500,-19
6.03333,-19
6.04167,-19
6.05000,-20
6.05833,-20
6.06667,-20
6.07500,-19
6.08333,-20
6.09167,-20
6.10000,-20
6.10833,-19
6.11667,-19
6.12500,-19
6.13333,-19
6.14167,-19
6.15000,-19
6.15833,-18
6.16667,-18
6.17500,-18
6.18333,-17
6.19167,-17
6.20000,-16
6.20833,-16
6.21667,-16
6.22500,-16
6.23333,-16
6.24167,-15
6.25000,-15
6.25833,-15
6.26667,-15
6.27500,-14
6.28333,-14
6.29167,-14
6.30000,-14
6.30833,-14
6.31667,-13
6.32500,-13
6.33333,-14
6.34167,-14
6.35000,-14
6.35833,-14
6.36667,-14
6.37500,-14
6.38333,-14
6.39167,-14
6.40000,-14
6.40833,-14
6.41667,-14
6.42500,-14
6.43333,-13
6.44167,-13
6.45000,-13
6.45833,-13
6.46667,-13
6.47500,-13
6.48333,-13
6.49167,-13
6.50000,-13
6.50833,-13
6.51667,-12
6.52500,-12
6.53333,-12
6.54167,-12
6.55000,-12
6.55833,-12
6.56667,-11
6.57500,-10
6.58333,-10
6.59167,-10
6.60000,-9
6.60833,-9
6.61667,-9
6.62500,-9
6.63333,-9
6.64167,-9
6.65000,-8
6.65833,-8
6.66667,-8
6.67500,-8
6.68333,-8
6.69167,-8
6.70000,-8
6.70833,-8
6.71667,-8
6.72500,-8
6.73333,-7
6.74167,-7
6.75000,-7
6.75833,-7
6.76667,-7
6.77500,-7
6.78333,-7
6.79167,-7
6.80000,-7
6.80833,-7
6.81667,-7
6.82500,-7
6.83333,-7
6.84167,-8
6.85000,-8
6.85833,-8
6.86667,-8
6.87500,-7
6.88333,-7
6.89167,-7
6.90000,-7
6.90833,-7
6.91667,-6
6.92500,-6
6.93333,-7
6.94167,-6
6.95000,-5
6.95833,-5
6.96667,-5
6.97500,-5
6.98333,-5
6.99167,-5
7.00000,-5
7.00833,-5
7.01667,-5
7.02500,-5
7.03333,-4
7.04167,-4
7.05000,-4
7.05833,-4
7.06667,-5
7.07500,-5
7.08333,-5
7.09167,-5
7.10000,-5
7.10833,-5
7.11667,-5
7.12500,-5
7.13333,-5
7.14167,-5
7.15000,-5
7.15833,-5
7.16667,-5
7.17500,-5
7.18333,-5
7.19167,-5
7.20000,-5
7.20833,-6
7.21667,-6
7.22500,-6
7.23333,-6
7.24167,-6
7.25000,-7
7.25833,-7
7.26667,-7
7.27500,-6
7.28333,-6
7.29167,-7
7.30000,-7
7.30833,-8
7.31667,-8
7.32500,-9
7.33333,-9
7.34167,-10
7.35000,-10
7.35833,-10
7.36667,-10
7.37500,-10
7.38333,-11
7.39167,-11
7.40000,-11
7.40833,-12
7.41667,-12
7.42500,-12
7.43333,-13
7.44167,-13
7.45000,-13
7.45833,-14
7.46667,-14
7.47500,-14
7.48333,-15
7.49167,-15
7.50000,-15
7.50833,-16
7.51667,-16
7.52500,-17
7.53333,-17
7.54167,-18
7.55000,-18
7.55833,-18
7.56667,-18
7.57500,-19
7.58333,-19
7.59167,-20
7.60000,-20
7.60833,-20
7.61667,-21
7.62500,-21
7.63333,-21
7.64167,-21
7.65000,-21
7.65833,-21
7.66667,-21
7.67500,-21
7.68333,-22
7.69167,-22
7.70000,-22
7.70833,-23
7.71667,-23
7.72500,-22
7.73333,-22
7.74167,-22
7.75000,-22
7.75833,-22
7.76667,-22
7.77500,-22
7.78333,-22
7.79167,-21
7.80000,-21
7.80833,-21
7.81667,-21
7.82500,-21
7.83333,-21
7.84167,-21
7.85000,-21
7.85833,-21
7.86667,-21
7.87500,-21
7.88333,-20
7.89167,-20
7.90000,-20
7.90833,-19
7.91667,-19
7.92500,-19
7.93333,-19
7.94167,-19
7.95000,-18
7.95833,-18
7.96667,-18
7.97500,-18
7.98333,-18
7.99167,-17
8.00000,-17
8.00833,-17
8.01667,-17
8.02500,-17
8.03333,-16
8.04167,-16
8.05000,-16
8.05833,-16
8.06667,-16
8.07500,-16
8.08333,-15
8.09167,-15
8.10000,-15
8.10833,-14
8.11667,-14
8.12500,-15
8.13333,-15
8.14167,-15
8.15000,-15
8.15833,-15
8.16667,-15
8.17500,-15
8.18333,-15
8.19167,-15
8.20000,-15
8.20833,-15
8.21667,-15
8.22500,-15
8.23333,-15
8.24167,-15
8.25000,-15
8.25833,-14
8.26667,-14
8.27500,-14
8.28333,-14
8.29167,-14
8.30000,-14
8.30833,-14
8.31667,-14
8.32500,-14
8.33333,-14
8.34167,-14
8.35000,-13
8.35833,-13
8.36667,-13
8.37500,-13
8.38333,-13
8.39167,-13
8.40000,-13
8.40833,-13
8.41667,-13
8.42500,-13
8.43333,-13
8.44167,-13
8.45000,-13
8.45833,-13
8.46667,-13
8.47500,-13
8.48333,-13
8.49167,-13
8.50000,-13
8.50833,-13
8.51667,-13
8.52500,-13
8.53333,-13
8.54167,-13
8.55000,-13
8.55833,-13
8.56667,-13
8.57500,-12
8.58333,-12
8.59167,-12
8.60000,-13
8.60833,-13
8.61667,-12
8.62500,-12
8.63333,-12
8.64167,-12
8.65000,-12
8.65833,-11
8.66667,-11
8.67500,-11
8.68333,-11
8.69167,-11
8.70000,-11
8.70833,-11
8.71667,-11
8.72500,-11
8.73333,-11
8.74167,-11
8.75000,-11
8.75833,-11
8.76667,-11
8.77500,-11
8.78333,-11
8.79167,-11
8.80000,-11
8.80833,-11
8.81667,-10
8.82500,-10
8.83333,-10
8.84167,-10
8.85000,-9
8.85833,-9
8.86667,-9
8.87500,-9
8.88333,-10
8.89167,-10
8.90000,-9
8.90833,-9
8.91667,-9
8.92500,-9
8.93333,-9
8.94167,-9
8.95000,-9
8.95833,-9
8.96667,-10
8.97500,-10
8.98333,-10
8.99167,-10
9.00000,-11
9.00833,-11
9.01667,-11
9.02500,-11
9.03333,-12
9.04167,-12
9.05000,-12
9.05833,-11
9.06667,-11
9.07500,-11
9.08333,-12
9.09167,-12
9.10000,-13
9.10833,-13
9.11667,-13
9.12500,-13
9.13333,-13
9.14167,-13
9.15000,-13
9.15833,-13
9.16667,-13
9.17500,-13
9.18333,-13
9.19167,-13
9.20000,-13
9.20833,-13
9.21667,-14
9.22500,-14
9.23333,-14
9.24167,-14
9.25000,-14
9.25833,-14
9.26667,-15
9.27500,-15
9.28333,-14
9.29167,-15
9.30000,-15
9.30833,-15
9.31667,-15
9.32500,-15
9.33333,-15
9.34167,-16
9.35000,-16
9.35833,-16
9.36667,-17
9.37500,-17
9.38333,-17
9.39167,-17
9.40000,-17
9.40833,-18
9.41667,-17
9.42500,-17
9.43333,-17
9.44167,-18
9.45000,-18
9.45833,-18
9.46667,-18
9.47500,-18
9.48333,-18
9.49167,-18
9.50000,-18
9.50833,-18
9.51667,-18
9.52500,-18
9.53333,-18
9.54167,-19
9.55000,-19
9.55833,-18
9.56667,-18
9.57500,-17
9.58333,-17
9.59167,-17
9.60000,-17
9.60833,-17
9.61667,-18
9.62500,-18
9.63333,-18
9.64167,-17
9.65000,-17
9.65833,-17
9.66667,-16
9.67500,-16
9.68333,-16
9.69167,-16
9.70000,-15
9.70833,-15
9.71667,-15
9.72500,-15
9.73333,-15
9.74167,-15
9.75000,-15
9.75833,-15
9.76667,-15
9.77500,-15
9.78333,-14
9.79167,-14
9.80000,-14
9.80833,-14
9.81667,-14
9.82500,-14
9.83333,-14
9.84167,-14
9.85000,-14
9.85833,-13
9.86667,-13
9.87500,-13
9.88333,-12
9.89167,-12
9.90000,-13
9.90833,-13
9.91667,-13
9.92500,-13
9.93333,-13
9.94167,-13
9.95000,-12
9.95833,-12
9.96667,-13
9.97500,-12
9.98333,-12
9.99167,-12
10.00000,-12
10.00833,-12
10.01667,-12
10.02500,-12
10.03333,-12
10.04167,-11
10.05000,-11
10.05833,-11
10.06667,-10
10.07500,-10
10.08333,-9
10.09167,-9
10.10000,-9
10.10833,-9
10.11667,-9
10.12500,-9
10.13333,-8
10.14167,-8
10.15000,-8
10.15833,-8
10.16667,-8
10.17500,-8
10.18333,-7
10.19167,-7
10.20000,-7
10.20833,-7
10.21667,-7
10.22500,-7
10.23333,-7
10.24167,-7
10.25000,-7
10.25833,-7
10.26667,-7
10.27500,-7
10.28333,-7
10.29167,-7
10.30000,-6
10.30833,-6
10.31667,-6
10.32500,-6
10.33333,-6
10.34167,-6
10.35000,-6
10.35833,-6
10.36667,-6
10.37500,-6
10.38333,-6
10.39167,-6
10.40000,-5
10.40833,-5
10.41667,-5
10.42500,-4
10.43333,-3
10.44167,-2
10.45000,-1
10.45833,1
10.46667,3
10.47500,6
10.48333,10
10.49167,16
10.50000,23
10.50833,33
10.51667,46
10.52500,62
10.53333,83
10.54167,109
10.55000,142
10.55833,183
10.56667,234
10.57500,296
10.58333,371
10.59167,460
10.60000,567
10.60833,693
10.61667,840
10.62500,1011
10.63333,1208
10.64167,1432
10.65000,1686
10.65833,1971
10.66667,2289
10.67500,2641
10.68333,3027
10.69167,3448
10.70000,3903
10.70833,4393
10.71667,4914
10.72500,5466
10.73333,6046
10.74167,6649
10.75000,7272
10.75833,7911
10.76667,8559
10.77500,9212
10.78333,9862
10.79167,10501
10.80000,11123
10.80833,11718
10.81667,12280
10.82500,12800
10.83333,13270
10.84167,13683
10.85000,14032
10.85833,14310
10.86667,14512
10.87500,14634
10.88333,14673
10.89167,14629
10.90000,14502
10.90833,14293
10.91667,14006
10.92500,13647
10.93333,13220
10.94167,12735
10.95000,12198
10.95833,11620
10.96667,11009
10.97500,10374
10.98333,9725
10.99167,9071
11.00000,8419
11.00833,7777
11.01667,7152
11.02500,6549
11.03333,5971
11.04167,5423
11.05000,4907
11.05833,4424
11.06667,3976
11.07500,3562
11.08333,3182
11.09167,2834
11.10000,2519
11.10833,2233
11.11667,1976
11.12500,1745
11.13333,1538
11.14167,1354
11.15000,1191
11.15833,1046
11.16667,918
11.17500,805
11.18333,706
11.19167,619
11.20000,543
11.20833,476
11.21667,418
11.22500,368
11.23333,325
11.24167,287
11.25000,254
11.25833,226
11.26667,202
11.27500,181
11.28333,163
11.29167,148
11.30000,135
11.30833,124
11.31667,114
11.32500,106
11.33333,98
11.34167,92
11.35000,86
11.35833,81
11.36667,77
11.37500,74
11.38333,70
11.39167,66
11.40000,63
11.40833,60
11.41667,57
11.42500,54
11.43333,51
11.44167,49
11.45000,46
11.45833,44
11.46667,42
11.47500,40
11.48333,38
11.49167,36
11.50000,34
11.50833,31
11.51667,29
11.52500,27
11.53333,24
11.54167,23
11.55000,21
11.55833,19
11.56667,18
11.57500,16
11.58333,14
11.59167,12
11.60000,10
11.60833,8
11.61667,7
11.62500,5
11.63333,4
11.64167,2
11.65000,1
11.65833,-1
11.66667,-2
11.67500,-4
11.68333,-5
11.69167,-6
11.70000,-7
11.70833,-7
11.71667,-8
11.72500,-9
11.73333,-9
11.74167,-10
11.75000,-10
11.75833,-11
11.76667,-12
11.77500,-12
11.78333,-13
11.79167,-14
11.80000,-15
11.80833,-15
11.81667,-15
11.82500,-16
11.83333,-16
11.84167,-17
11.85000,-17
11.85833,-18
11.86667,-18
11.87500,-19
11.88333,-19
11.89167,-19
11.90000,-20
11.90833,-20
11.91667,-20
11.92500,-20
11.93333,-20
11.94167,-20
11.95000,-21
11.95833,-21
11.96667,-22
11.97500,-22
11.98333,-22
11.99167,-22
12.00000,-23
12.00833,-23
12.01667,-24
12.02500,-24
12.03333,-24
12.04167,-23
12.05000,-23
12.05833,-23
12.06667,-24
12.07500,-24
12.08333,-25
12.09167,-25
12.10000,-25
12.10833,-25
12.11667,-25
12.12500,-26
12.13333,-26
12.14167,-26
12.15000,-26
12.15833,-26
12.16667,-26
12.17500,-27
12.18333,-26
12.19167,-27
12.20000,-27
12.20833,-27
12.21667,-28
12.22500,-28
12.23333,-28
12.24167,-27
12.25000,-27
12.25833,-27
12.26667,-27
12.27500,-27
12.28333,-27
12.29167,-26
12.30000,-26
12.30833,-26
12.31667,-26
12.32500,-26
12.33333,-25
12.34167,-25
12.35000,-25
12.35833,-25
12.36667,-25
12.37500,-25
12.38333,-24
12.39167,-23
12.40000,-22
12.40833,-22
12.41667,-21
12.42500,-20
12.43333,-20
12.44167,-19
12.45000,-18
12.45833,-17
12.46667,-17
12.47500,-16
12.48333,-15
12.49167,-14
12.50000,-13
12.50833,-13
12.51667,-12
12.52500,-10
12.53333,-9
12.54167,-8
12.55000,-6
12.55833,-5
12.56667,-4
12.57500,-2
12.58333,-1
12.59167,2
12.60000,4
12.60833,7
12.61667,11
12.62500,16
12.63333,21
12.64167,28
12.65000,36
12.65833,46
12.66667,58
12.67500,73
12.68333,90
12.69167,109
12.70000,133
12.70833,160
12.71667,191
12.72500,226
12.73333,266
12.74167,311
12.75000,361
12.75833,417
12.76667,479
12.77500,547
12.78333,622
12.79167,703
12.80000,791
12.80833,886
12.81667,988
12.82500,1096
12.83333,1211
12.84167,1332
12.85000,1460
12.85833,1595
12.86667,1736
12.87500,1884
12.88333,2038
12.89167,2198
12.90000,2364
12.90833,2535
12.91667,2713
12.92500,2895
12.93333,3083
12.94167,3275
12.95000,3473
12.95833,3675
12.96667,3882
12.97500,4093
12.98333,4308
12.99167,4527
13.00000,4750
13.00833,4977
13.01667,5207
13.02500,5441
13.03333,5678
13.04167,5919
13.05000,6163
13.05833,6409
13.06667,6659
13.07500,6913
13.08333,7169
13.09167,7428
13.10000,7689
13.10833,7953
13.11667,8220
13.12500,8490
13.13333,8762
13.14167,9037
13.15000,9315
13.15833,9595
13.16667,9877
13.17500,10162
13.18333,10450
13.19167,10739
13.20000,11032
13.20833,11326
13.21667,11623
13.22500,11923
13.23333,12225
13.24167,12529
13.25000,12836
13.25833,13145
13.26667,13456
13.27500,13770
13.28333,14086
13.29167,14404
13.30000,14724
13.30833,15047
13.31667,15372
13.32500,15700
13.33333,16030
13.34167,16363
13.35000,16697
13.35833,17035
13.36667,17375
13.37500,17718
13.38333,18063
13.39167,18410
13.40000,18760
13.40833,19112
13.41667,19467
13.42500,19824
13.43333,20185
13.44167,20548
13.45000,20913
13.45833,21281
13.46667,21651
13.47500,22024
13.48333,22399
13.49167,22777
13.50000,23158
13.50833,23542
13.51667,23928
13.52500,24317
13.53333,24709
13.54167,25103
13.55000,25500
13.55833,25900
13.56667,26303
13.57500,26708
13.58333,27117
13.59167,27529
13.60000,27943
13.60833,28361
13.61667,28781
13.62500,29204
13.63333,29630
13.64167,30059
13.65000,30491
13.65833,30926
13.66667,31365
13.67500,31806
13.68333,32251
13.69167,32698
13.70000,33148
13.70833,33602
13.71667,34059
13.72500,34519
13.73333,34982
13.74167,35448
13.75000,35917
13.75833,36390
13.76667,36867
13.77500,37347
13.78333,37830
13.79167,38316
13.80000,38806
13.80833,39300
13.81667,39796
13.82500,40295
13.83333,40797
13.84167,41301
13.85000,41805
13.85833,42307
13.86667,42804
13.87500,43290
13.88333,43757
13.89167,44192
13.90000,44581
13.90833,44904
13.91667,45140
13.92500,45263
13.93333,45245
13.94167,45062
13.95000,44687
13.95833,44100
13.96667,43286
13.97500,42239
13.98333,40960
13.99167,39458
14.00000,37754
14.00833,35873
14.01667,33851
14.02500,31725
14.03333,29537
14.04167,27329
14.05000,25141
14.05833,23010
14.06667,20968
14.07500,19041
14.08333,17250
14.09167,15609
14.10000,14127
14.10833,12808
14.11667,11651
14.12500,10653
14.13333,9806
14.14167,9103
14.15000,8533
14.15833,8085
14.16667,7748
14.17500,7510
14.18333,7361
14.19167,7288
14.20000,7281
14.20833,7330
14.21667,7423
14.22500,7552
14.23333,7707
14.24167,7879
14.25000,8061
14.25833,8244
14.26667,8422
14.27500,8589
14.28333,8739
14.29167,8867
14.30000,8969
14.30833,9043
14.31667,9085
14.32500,9095
14.33333,9071
14.34167,9013
14.35000,8922
14.35833,8798
14.36667,8645
14.37500,8462
14.38333,8254
14.39167,8021
14.40000,7768
14.40833,7497
14.41667,7212
14.42500,6915
14.43333,6610
14.44167,6300
14.45000,5987
14.45833,5673
14.46667,5362
14.47500,5055
14.48333,4754
14.49167,4462
14.50000,4178
14.50833,3905
14.51667,3644
14.52500,3394
14.53333,3157
14.54167,2933
14.55000,2721
14.55833,2522
14.56667,2336
14.57500,2163
14.58333,2001
14.59167,1851
14.60000,1713
14.60833,1585
14.61667,1466
14.62500,1357
14.63333,1257
14.64167,1165
14.65000,1080
14.65833,1003
14.66667,933
14.67500,869
14.68333,810
14.69167,757
14.70000,708
14.70833,664
14.71667,624
14.72500,588
14.73333,555
14.74167,525
14.75000,498
14.75833,473
14.76667,450
14.77500,430
14.78333,412
14.79167,395
14.80000,380
14.80833,366
14.81667,353
14.82500,341
14.83333,331
14.84167,321
14.85000,313
14.85833,305
14.86667,298
14.87500,291
14.88333,285
14.89167,280
14.90000,276
14.90833,272
14.91667,268
14.92500,265
14.93333,263
14.94167,262
14.95000,260
14.95833,260
14.96667,259
14.97500,259
14.98333,259
14.99167,260
15.00000,261
15.00833,263
15.01667,265
15.02500,268
15.03333,271
15.04167,275
15.05000,278
15.05833,282
15.06667,286
15.07500,290
15.08333,295
15.09167,300
15.10000,305
15.10833,312
15.11667,319
15.12500,327
15.13333,336
15.14167,346
15.15000,357
15.15833,371
15.16667,386
15.17500,405
15.18333,427
15.19167,453
15.20000,484
15.20833,521
15.21667,566
15.22500,619
15.23333,683
15.24167,758
15.25000,846
15.25833,950
15.26667,1072
15.27500,1214
15.28333,1380
15.29167,1571
15.30000,1790
15.30833,2041
15.31667,2327
15.32500,2651
15.33333,3016
15.34167,3426
15.35000,3883
15.35833,4390
15.36667,4951
15.37500,5567
15.38333,6241
15.39167,6974
15.40000,7768
15.40833,8622
15.41667,9538
15.42500,10514
15.43333,11548
15.44167,12640
15.45000,13785
15.45833,14980
15.46667,16221
15.47500,17501
15.48333,18815
15.49167,20157
15.50000,21518
15.50833,22892
15.51667,24269
15.52500,25641
15.53333,26998
15.54167,28332
15.55000,29633
15.55833,30892
15.56667,32099
15.57500,33247
15.58333,34327
15.59167,35331
15.60000,36253
15.60833,37085
15.61667,37822
15.62500,38460
15.63333,38993
15.64167,39421
15.65000,39740
15.65833,39949
15.66667,40049
15.67500,40041
15.68333,39925
15.69167,39706
15.70000,39385
15.70833,38968
15.71667,38458
15.72500,37862
15.73333,37185
15.74167,36432
15.75000,35612
15.75833,34730
15.76667,33794
15.77500,32810
15.78333,31785
15.79167,30726
15.80000,29641
15.80833,28535
15.81667,27414
15.82500,26286
15.83333,25156
15.84167,24030
15.85000,22911
15.85833,21806
15.86667,20717
15.87500,19649
15.88333,18605
15.89167,17589
15.90000,16601
15.90833,15645
15.91667,14722
15.92500,13834
15.93333,12981
15.94167,12165
15.95000,11385
15.95833,10643
15.96667,9938
15.97500,9269
15.98333,8637
15.99167,8039
16.00000,7477
16.00833,6947
16.01667,6451
16.02500,5986
16.03333,5551
16.04167,5145
16.05000,4766
16.05833,4413
16.06667,4085
16.07500,3781
16.08333,3499
16.09167,3238
16.10000,2997
16.10833,2774
16.11667,2568
16.12500,2378
16.13333,2203
16.14167,2042
16.15000,1894
16.15833,1758
16.16667,1633
16.17500,1518
16.18333,1412
16.19167,1316
16.20000,1227
16.20833,1146
16.21667,1071
16.22500,1003
16.23333,941
16.24167,884
16.25000,831
16.25833,783
16.26667,739
16.27500,698
16.28333,660
16.29167,625
16.30000,594
16.30833,565
16.31667,538
16.32500,514
16.33333,492
16.34167,471
16.35000,451
16.35833,434
16.36667,417
16.37500,402
16.38333,387
16.39167,374
16.40000,362
16.40833,350
16.41667,340
16.42500,330
16.43333,321
16.44167,313
16.45000,304
16.45833,297
16.46667,290
16.47500,283
16.48333,277
16.49167,271
16.50000,266
16.50833,261
16.51667,256
16.52500,252
16.53333,248
16.54167,245
16.55000,241
16.55833,238
16.56667,234
16.57500,231
16.58333,228
16.59167,225
16.60000,222
16.60833,220
16.61667,218
16.62500,216
16.63333,214
16.64167,212
16.65000,210
16.65833,208
16.66667,206
16.67500,205
16.68333,203
16.69167,201
16.70000,199
16.70833,198
16.71667,196
16.72500,194
16.73333,193
16.74167,191
16.75000,190
16.75833,188
16.76667,187
16.77500,185
16.78333,184
16.79167,183
16.80000,181
16.80833,180
16.81667,178
16.82500,177
16.83333,176
16.84167,175
16.85000,173
16.85833,172
16.86667,171
16.87500,170
16.88333,169
16.89167,167
16.90000,165
16.90833,164
16.91667,162
16.92500,161
16.93333,160
16.94167,159
16.95000,157
16.95833,156
16.96667,155
16.97500,153
16.98333,152
16.99167,151
17.00000,150
17.00833,148
17.01667,147
17.02500,146
17.03333,145
17.04167,144
17.05000,142
17.05833,141
17.06667,140
17.07500,139
17.08333,137
17.09167,136
17.10000,135
17.10833,133
17.11667,132
17.12500,131
17.13333,130
17.14167,129
17.15000,128
17.15833,127
17.16667,126
17.17500,125
17.18333,124
17.19167,123
17.20000,121
17.20833,120
17.21667,119
17.22500,118
17.23333,117
17.24167,116
17.25000,115
17.25833,113
17.26667,112
17.27500,111
17.28333,109
17.29167,108
17.30000,107
17.30833,106
17.31667,105
17.32500,104
17.33333,103
17.34167,103
17.35000,102
17.35833,101
17.36667,100
17.37500,99
17.38333,98
17.39167,97
17.40000,96
17.40833,96
17.41667,96
17.42500,95
17.43333,94
17.44167,93
17.45000,93
17.45833,92
17.46667,92
17.47500,91
17.48333,91
17.49167,91
17.50000,90
17.50833,90
17.51667,89
17.52500,88
17.53333,88
17.54167,87
17.55000,86
17.55833,86
17.56667,86
17.57500,85
17.58333,85
17.59167,85
17.60000,84
17.60833,84
17.61667,84
17.62500,83
17.63333,83
17.64167,83
17.65000,83
17.65833,82
17.66667,82
17.67500,82
17.68333,82
17.69167,82
17.70000,81
17.70833,81
17.71667,80
17.72500,80
17.73333,80
17.74167,80
17.75000,80
17.75833,79
17.76667,79
17.77500,79
17.78333,78
17.79167,78
17.80000,77
17.80833,77
17.81667,76
17.82500,76
17.83333,75
17.84167,75
17.85000,75
17.85833,74
17.86667,74
17.87500,74
17.88333,73
17.89167,72
17.90000,72
17.90833,71
17.91667,71
17.92500,70
17.93333,70
17.94167,69
17.95000,69
17.95833,68
17.96667,67
17.97500,67
17.98333,66
17.99167,66
18.00000,65
18.00833,65
18.01667,65
18.02500,64
18.03333,64
18.04167,63
18.05000,63
18.05833,62
18.06667,61
18.07500,61
18.08333,60
18.09167,59
18.10000,59
18.10833,58
18.11667,58
18.12500,57
18.13333,57
18.14167,58
18.15000,57
18.15833,57
18.16667,57
18.17500,56
18.18333,56
18.19167,55
18.20000,54
18.20833,54
18.21667,54
18.22500,54
18.23333,54
18.24167,54
18.25000,54
18.25833,53
18.26667,53
18.27500,52
18.28333,52
18.29167,52
18.30000,51
18.30833,51
18.31667,51
18.32500,50
18.33333,50
18.34167,50
18.35000,50
18.35833,49
18.36667,49
18.37500,49
18.38333,49
18.39167,49
18.40000,49
18.40833,48
18.41667,48
18.42500,48
18.43333,48
18.44167,48
18.45000,48
18.45833,47
18.46667,47
18.47500,47
18.48333,46
18.49167,46
18.50000,46
18.50833,46
18.51667,46
18.52500,46
18.53333,46
18.54167,45
18.55000,45
18.55833,45
18.56667,45
18.57500,45
18.58333,44
18.59167,44
18.60000,44
18.60833,44
18.61667,43
18.62500,43
18.63333,43
18.64167,43
18.65000,43
18.65833,43
18.66667,43
18.67500,43
18.68333,43
18.69167,43
18.70000,43
18.70833,43
18.71667,44
18.72500,44
18.73333,45
18.74167,46
18.75000,47
18.75833,49
18.76667,50
18.77500,52
18.78333,53
18.79167,55
18.80000,56
18.80833,58
18.81667,61
18.82500,64
18.83333,66
18.84167,69
18.85000,72
18.85833,75
18.86667,79
18.87500,82
18.88333,85
18.89167,89
18.90000,92
18.90833,96
18.91667,100
18.92500,104
18.93333,107
18.94167,111
18.95000,114
18.95833,117
18.96667,120
18.97500,123
18.98333,126
18.99167,129
19.00000,131
19.00833,134
19.01667,137
19.02500,139
19.03333,140
19.04167,142
19.05000,143
19.05833,145
19.06667,145
19.07500,146
19.08333,146
19.09167,146
19.10000,145
19.10833,144
19.11667,143
19.12500,142
19.13333,141
19.14167,139
19.15000,138
19.15833,136
19.16667,134
19.17500,131
19.18333,129
19.19167,126
19.20000,123
19.20833,120
19.21667,116
19.22500,113
19.23333,110
19.24167,107
19.25000,103
19.25833,100
19.26667,97
19.27500,93
19.28333,90
19.29167,87
19.30000,84
19.30833,81
19.31667,78
19.32500,75
19.33333,72
19.34167,69
19.35000,67
19.35833,65
19.36667,63
19.37500,60
19.38333,58
19.39167,56
19.40000,54
19.40833,52
19.41667,49
19.42500,48
19.43333,46
19.44167,44
19.45000,42
19.45833,40
19.46667,39
19.47500,37
19.48333,35
19.49167,34
19.50000,33
19.50833,31
19.51667,30
19.52500,29
19.53333,28
19.54167,27
19.55000,26
19.55833,25
19.56667,24
19.57500,22
19.58333,21
19.59167,20
19.60000,19
19.60833,18
19.61667,17
19.62500,16
19.63333,16
19.64167,15
19.65000,14
19.65833,14
19.66667,13
19.67500,12
19.68333,11
19.69167,10
19.70000,9
19.70833,8
19.71667,8
19.72500,7
19.73333,7
19.74167,7
19.75000,6
19.75833,5
19.76667,5
19.77500,5
19.78333,4
19.79167,3
19.80000,3
19.80833,3
19.81667,2
19.82500,2
19.83333,1
19.84167,1
19.85000,1
19.85833,1
19.86667,1
19.87500,1
19.88333,1
19.89167,1
19.90000,1
19.90833,0
19.91667,0
19.92500,0
19.93333,0
19.94167,1
19.95000,1
19.95833,0
19.96667,0
19.97500,-0
19.98333,-0
19.99167,-0
20.00000,-0
20.00833,0
20.01667,0
20.02500,1
20.03333,1
20.04167,2
20.05000,2
20.05833,2
20.06667,2
20.07500,2
20.08333,2
20.09167,2
20.10000,2
20.10833,2
20.11667,2
20.12500,2
20.13333,3
20.14167,3
20.15000,4
20.15833,4
20.16667,4
20.17500,4
20.18333,4
20.19167,4
20.20000,4
20.20833,4
20.21667,4
20.22500,5
20.23333,5
20.24167,5
20.25000,6
20.25833,6
20.26667,6
20.27500,7
20.28333,7
20.29167,7
20.30000,7
20.30833,7
20.31667,7
20.32500,8
20.33333,8
20.34167,8
20.35000,8
20.35833,8
20.36667,8
20.37500,8
20.38333,8
20.39167,9
20.40000,9
20.40833,9
20.41667,9
20.42500,10
20.43333,10
20.44167,10
20.45000,10
20.45833,10
20.46667,10
20.47500,10
20.48333,11
20.49167,11
20.50000,11
20.50833,11
20.51667,11
20.52500,12
20.53333,12
20.54167,12
20.55000,12
20.55833,12
20.56667,12
20.57500,12
20.58333,12
20.59167,12
20.60000,13
20.60833,13
20.61667,14
20.62500,14
20.63333,14
20.64167,15
20.65000,15
20.65833,15
20.66667,15
20.67500,15
20.68333,15
20.69167,16
20.70000,16
20.70833,16
20.71667,16
20.72500,15
20.73333,15
20.74167,15
20.75000,15
20.75833,14
20.76667,14
20.77500,14
20.78333,14
20.79167,14
20.80000,14
20.80833,14
20.81667,14
20.82500,14
20.83333,14
20.84167,15
20.85000,15
20.85833,14
20.86667,14
20.87500,14
20.88333,14
20.89167,14
20.90000,13
20.90833,13
20.91667,13
20.92500,13
20.93333,13
20.94167,13
20.95000,12
20.95833,12
20.96667,12
20.97500,12
20.98333,12
20.99167,12
21.00000,12
21.00833,11
21.01667,11
21.02500,11
21.03333,10
21.04167,10
21.05000,10
21.05833,10
21.06667,10
21.07500,10
21.08333,9
21.09167,9
21.10000,9
21.10833,9
21.11667,9
21.12500,9
21.13333,9
21.14167,9
21.15000,9
21.15833,8
21.16667,8
21.17500,8
21.18333,7
21.19167,7
21.20000,7
21.20833,7
21.21667,7
21.22500,7
21.23333,6
21.24167,6
21.25000,6
21.25833,6
21.26667,5
21.27500,5
21.28333,4
21.29167,4
21.30000,3
21.30833,3
21.31667,3
21.32500,2
21.33333,2
21.34167,2
21.35000,2
21.35833,2
21.36667,2
21.37500,2
21.38333,2
21.39167,1
21.40000,1
21.40833,1
21.41667,1
21.42500,1
21.43333,0
21.44167,-0
21.45000,-1
21.45833,-1
21.46667,-1
21.47500,-2
21.48333,-2
21.49167,-2
21.50000,-3
21.50833,-3
21.51667,-4
21.52500,-4
21.53333,-5
21.54167,-5
21.55000,-6
21.55833,-6
21.56667,-6
21.57500,-7
21.58333,-7
21.59167,-8
21.60000,-8
21.60833,-8
21.61667,-8
21.62500,-9
21.63333,-9
21.64167,-9
21.65000,-9
21.65833,-9
21.66667,-9
21.67500,-10
21.68333,-10
21.69167,-10
21.70000,-10
21.70833,-10
21.71667,-11
21.72500,-11
21.73333,-11
21.74167,-11
21.75000,-11
21.75833,-11
21.76667,-11
21.77500,-11
21.78333,-12
21.79167,-12
21.80000,-12
21.80833,-12
21.81667,-12
21.82500,-12
21.83333,-11
21.84167,-11
21.85000,-11
21.85833,-11
21.86667,-11
21.87500,-11
21.88333,-12
21.89167,-12
21.90000,-12
21.90833,-11
21.91667,-11
21.92500,-10
21.93333,-10
21.94167,-10
21.95000,-10
21.95833,-9
21.96667,-9
21.97500,-9
21.98333,-9
21.99167,-9
22.00000,-8
22.00833,-8
22.01667,-7
22.02500,-7
22.03333,-7
22.04167,-6
22.05000,-6
22.05833,-5
22.06667,-5
22.07500,-5
22.08333,-4
22.09167,-4
22.10000,-3
22.10833,-3
22.11667,-3
22.12500,-2
22.13333,-2
22.14167,-1
22.15000,-0
22.15833,0
22.16667,1
22.17500,1
22.18333,1
22.19167,1
22.20000,2
22.20833,2
22.21667,2
22.22500,2
22.23333,2
22.24167,2
22.25000,3
22.25833,4
22.26667,4
22.27500,4
22.28333,4
22.29167,5
22.30000,4
22.30833,5
22.31667,5
22.32500,5
22.33333,5
22.34167,5
22.35000,5
22.35833,5
22.36667,5
22.37500,5
22.38333,4
22.39167,4
22.40000,4
22.40833,4
22.41667,3
22.42500,3
22.43333,3
22.44167,3
22.45000,2
22.45833,2
22.46667,1
22.47500,1
22.48333,0
22.49167,0
22.50000,0
22.50833,0
22.51667,0
22.52500,0
22.53333,-0
22.54167,-0
22.55000,-0
22.55833,-1
22.56667,-1
22.57500,-1
22.58333,-1
22.59167,-0
22.60000,-0
22.60833,0
22.61667,1
22.62500,1
22.63333,1
22.64167,1
22.65000,1
22.65833,2
22.66667,2
22.67500,2
22.68333,3
22.69167,3
22.70000,4
22.70833,4
22.71667,5
22.72500,6
22.73333,7
22.74167,8
22.75000,9
22.75833,9
22.76667,10
22.77500,11
22.78333,11
22.79167,12
22.80000,13
22.80833,14
22.81667,15
22.82500,16
22.83333,17
22.84167,17
22.85000,18
22.85833,18
22.86667,18
22.87500,18
22.88333,18
22.89167,18
22.90000,19
22.90833,19
22.91667,19
22.92500,19
22.93333,19
22.94167,19
22.95000,18
22.95833,18
22.96667,18
22.97500,18
22.98333,18
22.99167,17
23.00000,17
23.00833,16
23.01667,16
23.02500,15
23.03333,15
23.04167,14
23.05000,13
23.05833,13
23.06667,12
23.07500,11
23.08333,10
23.09167,10
23.10000,9
23.10833,8
23.11667,8
23.12500,7
23.13333,7
23.14167,6
23.15000,6
23.15833,5
23.16667,4
23.17500,3
23.18333,2
23.19167,2
23.20000,1
23.20833,0
23.21667,-0
23.22500,-1
23.23333,-1
23.24167,-2
23.25000,-2
23.25833,-2
23.26667,-3
23.27500,-3
23.28333,-4
23.29167,-5
23.30000,-5
23.30833,-5
23.31667,-5
23.32500,-6
23.33333,-6
23.34167,-6
23.35000,-6
23.35833,-6
23.36667,-6
23.37500,-7
23.38333,-7
23.39167,-7
23.40000,-7
23.40833,-7
23.41667,-7
23.42500,-6
23.43333,-6
23.44167,-6
23.45000,-6
23.45833,-5
23.46667,-5
23.47500,-5
23.48333,-5
23.49167,-5
23.50000,-5
23.50833,-5
23.51667,-4
23.52500,-4
23.53333,-4
23.54167,-4
23.55000,-4
23.55833,-4
23.56667,-4
23.57500,-4
23.58333,-3
23.59167,-3
23.60000,-3
23.60833,-3
23.61667,-3
23.62500,-2
23.63333,-2
23.64167,-1
23.65000,-0
23.65833,-0
23.66667,-0
23.67500,-0
23.68333,-0
23.69167,-0
23.70000,0
23.70833,0
23.71667,1
23.72500,1
23.73333,1
23.74167,1
23.75000,1
23.75833,2
23.76667,2
23.77500,3
23.78333,3
23.79167,4
23.80000,4
23.80833,3
23.81667,3
23.82500,3
23.83333,3
23.84167,3
23.85000,3
23.85833,3
23.86667,3
23.87500,3
23.88333,3
23.89167,2
23.90000,2
23.90833,2
23.91667,2
23.92500,2
23.93333,1
23.94167,1
23.95000,2
23.95833,2
23.96667,1
23.97500,1
23.98333,1
23.99167,1
24.00000,1
24.00833,1
24.01667,1
24.02500,1
24.03333,0
24.04167,0
24.05000,-0
24.05833,-0
24.06667,-0
24.07500,-1
24.08333,-1
24.09167,-1
24.10000,-0
24.10833,-0
24.11667,-1
24.12500,-1
24.13333,-1
24.14167,-2
24.15000,-2
24.15833,-2
24.16667,-2
24.17500,-2
24.18333,-2
24.19167,-2
24.20000,-2
24.20833,-2
24.21667,-2
24.22500,-2
24.23333,-2
24.24167,-2
24.25000,-3
24.25833,-3
24.26667,-3
24.27500,-4
24.28333,-4
24.29167,-4
24.30000,-4
24.30833,-5
24.31667,-5
24.32500,-5
24.33333,-5
24.34167,-6
24.35000,-6
24.35833,-6
24.36667,-6
24.37500,-6
24.38333,-6
24.39167,-6
24.40000,-6
24.40833,-6
24.41667,-6
24.42500,-6
24.43333,-6
24.44167,-7
24.45000,-7
24.45833,-7
24.46667,-6
24.47500,-6
24.48333,-6
24.49167,-6
24.50000,-5
24.50833,-5
24.51667,-4
24.52500,-3
24.53333,-3
24.54167,-3
24.55000,-2
24.55833,-2
24.56667,-1
24.57500,-0
24.58333,1
24.59167,2
24.60000,4
24.60833,5
24.61667,7
24.62500,9
24.63333,11
24.64167,14
24.65000,16
24.65833,19
24.66667,22
24.67500,25
24.68333,28
24.69167,32
24.70000,35
24.70833,38
24.71667,42
24.72500,46
24.73333,51
24.74167,56
24.75000,61
24.75833,66
24.76667,71
24.77500,76
24.78333,81
24.79167,87
24.80000,93
24.80833,99
24.81667,104
24.82500,110
24.83333,116
24.84167,122
24.85000,128
24.85833,134
24.86667,139
24.87500,145
24.88333,150
24.89167,156
24.90000,161
24.90833,166
24.91667,171
24.92500,176
24.93333,180
24.94167,184
24.95000,188
24.95833,191
24.96667,194
24.97500,197
24.98333,199
24.99167,201
25.00000,202
25.00833,203
25.01667,205
25.02500,206
25.03333,206
25.04167,206
25.05000,205
25.05833,204
25.06667,203
25.07500,201
25.08333,199
25.09167,196
25.10000,193
25.10833,190
25.11667,187
25.12500,183
25.13333,179
25.14167,174
25.15000,170
25.15833,165
25.16667,160
25.17500,155
25.18333,150
25.19167,145
25.20000,140
25.20833,135
25.21667,130
25.22500,125
25.23333,120
25.24167,115
25.25000,110
25.25833,105
25.26667,100
25.27500,95
25.28333,91
25.29167,86
25.30000,81
25.30833,76
25.31667,72
25.32500,68
25.33333,64
25.34167,60
25.35000,56
25.35833,52
25.36667,49
25.37500,46
25.38333,42
25.39167,39
25.40000,36
25.40833,34
25.41667,31
25.42500,29
25.43333,27
25.44167,25
25.45000,22
25.45833,20
25.46667,18
25.47500,16
25.48333,14
25.49167,13
25.50000,11
25.50833,11
25.51667,10
25.52500,9
25.53333,8
25.54167,7
25.55000,6
25.55833,6
25.56667,5
25.57500,5
25.58333,4
25.59167,4
25.60000,4
25.60833,3
25.61667,3
25.62500,2
25.63333,2
25.64167,2
25.65000,2
25.65833,1
25.66667,1
25.67500,1
25.68333,1
25.69167,1
25.70000,1
25.70833,1
25.71667,1
25.72500,1
25.73333,1
25.74167,1
25.75000,1
25.75833,1
25.76667,1
25.77500,1
25.78333,1
25.79167,1
25.80000,1
25.80833,0
25.81667,0
25.82500,1
25.83333,1
25.84167,0
25.85000,0
25.85833,0
25.86667,0
25.87500,0
25.88333,0
25.89167,0
25.90000,1
25.90833,1
25.91667,1
25.92500,1
25.93333,1
25.94167,0
25.95000,-1
25.95833,-1
25.96667,-2
25.97500,-2
25.98333,-2
25.99167,-2
26.00000,-2
26.00833,-2
26.01667,-2
26.02500,-2
26.03333,-3
26.04167,-3
26.05000,-4
26.05833,-4
26.06667,-4
26.07500,-4
26.08333,-5
26.09167,-5
26.10000,-5
26.10833,-5
26.11667,-5
26.12500,-6
26.13333,-6
26.14167,-7
26.15000,-7
26.15833,-7
26.16667,-7
26.17500,-7
26.18333,-8
26.19167,-8
26.20000,-9
26.20833,-9
26.21667,-10
26.22500,-9
26.23333,-9
26.24167,-9
26.25000,-9
26.25833,-9
26.26667,-10
26.27500,-10
26.28333,-11
26.29167,-11
26.30000,-11
26.30833,-12
26.31667,-12
26.32500,-12
26.33333,-12
26.34167,-11
26.35000,-11
26.35833,-11
26.36667,-11
26.37500,-12
26.38333,-11
26.39167,-11
26.40000,-11
26.40833,-11
26.41667,-11
26.42500,-11
26.43333,-11
26.44167,-12
26.45000,-12
26.45833,-12
26.46667,-11
26.47500,-11
26.48333,-11
26.49167,-11
26.50000,-11
26.50833,-11
26.51667,-11
26.52500,-10
26.53333,-10
26.54167,-10
26.55000,-10
26.55833,-10
26.56667,-10
26.57500,-10
26.58333,-9
26.59167,-9
26.60000,-9
26.60833,-10
26.61667,-10
26.62500,-10
26.63333,-10
26.64167,-11
26.65000,-11
26.65833,-11
26.66667,-11
26.67500,-10
26.68333,-10
26.69167,-10
26.70000,-11
26.70833,-11
26.71667,-11
26.72500,-11
26.73333,-12
26.74167,-12
26.75000,-12
26.75833,-12
26.76667,-12
26.77500,-12
26.78333,-13
26.79167,-13
26.80000,-13
26.80833,-14
26.81667,-14
26.82500,-15
26.83333,-15
26.84167,-15
26.85000,-15
26.85833,-15
26.86667,-15
26.87500,-16
26.88333,-16
26.89167,-16
26.90000,-16
26.90833,-16
26.91667,-16
26.92500,-16
26.93333,-16
26.94167,-16
26.95000,-16
26.95833,-16
26.96667,-16
26.97500,-16
26.98333,-16
26.99167,-16
27.00000,-16
27.00833,-16
27.01667,-15
27.02500,-15
27.03333,-15
27.04167,-15
27.05000,-15
27.05833,-15
27.06667,-14
27.07500,-14
27.08333,-14
27.09167,-13
27.10000,-13
27.10833,-13
27.11667,-12
27.12500,-12
27.13333,-11
27.14167,-11
27.15000,-11
27.15833,-10
27.16667,-10
27.17500,-10
27.18333,-10
27.19167,-10
27.20000,-10
27.20833,-10
27.21667,-10
27.22500,-9
27.23333,-9
27.24167,-8
27.25000,-8
27.25833,-8
27.26667,-8
27.27500,-7
27.28333,-7
27.29167,-7
27.30000,-7
27.30833,-6
27.31667,-6
27.32500,-6
27.33333,-6
27.34167,-6
27.35000,-5
27.35833,-5
27.36667,-5
27.37500,-5
27.38333,-5
27.39167,-5
27.40000,-5
27.40833,-5
27.41667,-4
27.42500,-4
27.43333,-4
27.44167,-4
27.45000,-4
27.45833,-4
27.46667,-4
27.47500,-3
27.48333,-3
27.49167,-3
27.50000,-3
27.50833,-3
27.51667,-2
27.52500,-2
27.53333,-2
27.54167,-2
27.55000,-2
27.55833,-2
27.56667,-2
27.57500,-2
27.58333,-2
27.59167,-2
27.60000,-2
27.60833,-2
27.61667,-2
27.62500,-2
27.63333,-3
27.64167,-3
27.65000,-4
27.65833,-4
27.66667,-4
27.67500,-4
27.68333,-5
27.69167,-5
27.70000,-6
27.70833,-6
27.71667,-7
27.72500,-7
27.73333,-8
27.74167,-9
27.75000,-10
27.75833,-11
27.76667,-12
27.77500,-12
27.78333,-13
27.79167,-14
27.80000,-15
27.80833,-16
27.81667,-18
27.82500,-19
27.83333,-20
27.84167,-22
27.85000,-24
27.85833,-25
27.86667,-27
27.87500,-29
27.88333,-31
27.89167,-34
27.90000,-36
27.90833,-38
27.91667,-40
27.92500,-42
27.93333,-45
27.94167,-47
27.95000,-50
27.95833,-53
27.96667,-55
27.97500,-58
27.98333,-61
27.99167,-64
28.00000,-67
28.00833,-70
28.01667,-73
28.02500,-77
28.03333,-81
28.04167,-85
28.05000,-89
28.05833,-93
28.06667,-96
28.07500,-100
28.08333,-104
28.09167,-107
28.10000,-111
28.10833,-115
28.11667,-119
28.12500,-122
28.13333,-126
28.14167,-130
28.15000,-133
28.15833,-137
28.16667,-140
28.17500,-143
28.18333,-147
28.19167,-150
28.20000,-153
28.20833,-156
28.21667,-159
28.22500,-162
28.23333,-165
28.24167,-168
28.25000,-170
28.25833,-172
28.26667,-174
28.27500,-176
28.28333,-178
28.29167,-180
28.30000,-182
28.30833,-183
28.31667,-184
28.32500,-185
28.33333,-186
28.34167,-187
28.35000,-187
28.35833,-187
28.36667,-187
28.37500,-187
28.38333,-186
28.39167,-185
28.40000,-184
28.40833,-182
28.41667,-180
28.42500,-179
28.43333,-177
28.44167,-175
28.45000,-173
28.45833,-171
28.46667,-169
28.47500,-167
28.48333,-165
28.49167,-162
28.50000,-159
28.50833,-156
28.51667,-153
28.52500,-150
28.53333,-147
28.54167,-143
28.55000,-140
28.55833,-137
28.56667,-133
28.57500,-130
28.58333,-126
28.59167,-123
28.60000,-120
28.60833,-117
28.61667,-113
28.62500,-110
28.63333,-107
28.64167,-104
28.65000,-100
28.65833,-97
28.66667,-94
28.67500,-90
28.68333,-87
28.69167,-84
28.70000,-81
28.70833,-79
28.71667,-76
28.72500,-73
28.73333,-71
28.74167,-68
28.75000,-66
28.75833,-64
28.76667,-61
28.77500,-60
28.78333,-58
28.79167,-57
28.80000,-55
28.80833,-53
28.81667,-51
28.82500,-49
28.83333,-47
28.84167,-45
28.85000,-44
28.85833,-43
28.86667,-42
28.87500,-40
28.88333,-39
28.89167,-38
28.90000,-37
28.90833,-36
28.91667,-34
28.92500,-33
28.93333,-32
28.94167,-32
28.95000,-31
28.95833,-30
28.96667,-29
28.97500,-28
28.98333,-28
28.99167,-28
29.00000,-27
29.00833,-26
29.01667,-26
29.02500,-25
29.03333,-25
29.04167,-25
29.05000,-25
29.05833,-24
29.06667,-24
29.07500,-24
29.08333,-23
29.09167,-23
29.10000,-22
29.10833,-22
29.11667,-21
29.12500,-21
29.13333,-21
29.14167,-21
29.15000,-21
29.15833,-20
29.16667,-20
29.17500,-20
29.18333,-20
29.19167,-20
29.20000,-20
29.20833,-19
29.21667,-19
29.22500,-20
29.23333,-19
29.24167,-19
29.25000,-19
29.25833,-19
29.26667,-19
29.27500,-19
29.28333,-19
29.29167,-19
29.30000,-19
29.30833,-19
29.31667,-19
29.32500,-19
29.33333,-19
29.34167,-19
29.35000,-20
29.35833,-20
29.36667,-21
29.37500,-21
29.38333,-21
29.39167,-21
29.40000,-21
29.40833,-22
29.41667,-22
29.42500,-22
29.43333,-23
29.44167,-23
29.45000,-23
29.45833,-24
29.46667,-24
29.47500,-25
29.48333,-25
29.49167,-26
29.50000,-26
29.50833,-27
29.51667,-27
29.52500,-27
29.53333,-28
29.54167,-28
29.55000,-29
29.55833,-30
29.56667,-30
29.57500,-31
29.58333,-31
29.59167,-31
29.60000,-31
29.60833,-31
29.61667,-31
29.62500,-32
29.63333,-33
29.64167,-34
29.65000,-34
29.65833,-35
29.66667,-35
29.67500,-35
29.68333,-36
29.69167,-37
29.70000,-38
29.70833,-39
29.71667,-40
29.72500,-41
29.73333,-42
29.74167,-42
29.75000,-43
29.75833,-45
29.76667,-46
29.77500,-47
29.78333,-48
29.79167,-49
29.80000,-50
29.80833,-51
29.81667,-53
29.82500,-54
29.83333,-55
29.84167,-56
29.85000,-57
29.85833,-58
29.86667,-60
29.87500,-61
29.88333,-62
29.89167,-63
29.90000,-64
29.90833,-65
29.91667,-67
29.92500,-68
29.93333,-69
29.94167,-70
29.95000,-71
29.95833,-73
29.96667,-74
29.97500,-75
29.98333,-76
29.99167,-77
30.00000,-79
30.00833,-80
30.01667,-81
30.02500,-82
30.03333,-82
30.04167,-83
30.05000,-84
30.05833,-85
30.06667,-85
30.07500,-86
30.08333,-86
30.09167,-87
30.10000,-87
30.10833,-87
30.11667,-87
30.12500,-88
30.13333,-88
30.14167,-88
30.15000,-88
30.15833,-88
30.16667,-87
30.17500,-87
30.18333,-86
30.19167,-86
30.20000,-86
30.20833,-86
30.21667,-85
30.22500,-84
30.23333,-83
30.24167,-82
30.25000,-81
30.25833,-80
30.26667,-79
30.27500,-78
30.28333,-77
30.29167,-76
30.30000,-75
30.30833,-74
30.31667,-73
30.32500,-72
30.33333,-71
30.34167,-70
30.35000,-69
30.35833,-67
30.36667,-66
30.37500,-65
30.38333,-63
30.39167,-61
30.40000,-60
30.40833,-59
30.41667,-58
30.42500,-57
30.43333,-56
30.44167,-55
30.45000,-54
30.45833,-53
30.46667,-53
30.47500,-52
30.48333,-51
30.49167,-51
30.50000,-50
30.50833,-49
30.51667,-48
30.52500,-47
30.53333,-46
30.54167,-45
30.55000,-45
30.55833,-44
30.56667,-43
30.57500,-42
30.58333,-42
30.59167,-42
30.60000,-42
30.60833,-41
30.61667,-41
30.62500,-40
30.63333,-40
30.64167,-40
30.65000,-39
30.65833,-39
30.66667,-39
30.67500,-39
30.68333,-39
30.69167,-39
30.70000,-39
30.70833,-39
30.71667,-39
30.72500,-39
30.73333,-39
30.74167,-39
30.75000,-39
30.75833,-39
30.76667,-39
30.77500,-40
30.78333,-39
30.79167,-39
30.80000,-40
30.80833,-40
30.81667,-40
30.82500,-40
30.83333,-40
30.84167,-40
30.85000,-40
30.85833,-41
30.86667,-41
30.87500,-41
30.88333,-41
30.89167,-41
30.90000,-42
30.90833,-42
30.91667,-42
30.92500,-42
30.93333,-42
30.94167,-42
30.95000,-43
30.95833,-43
30.96667,-43
30.97500,-43
30.98333,-43
30.99167,-43
31.00000,-44
31.00833,-44
31.01667,-44
31.02500,-43
31.03333,-43
31.04167,-43
31.05000,-43
31.05833,-42
31.06667,-42
31.07500,-42
31.08333,-42
31.09167,-41
31.10000,-41
31.10833,-41
31.11667,-41
31.12500,-40
31.13333,-40
31.14167,-40
31.15000,-40
31.15833,-39
31.16667,-39
31.17500,-38
31.18333,-37
31.19167,-37
31.20000,-37
31.20833,-36
31.21667,-36
31.22500,-35
31.23333,-35
31.24167,-34
31.25000,-33
31.25833,-33
31.26667,-33
31.27500,-32
31.28333,-32
31.29167,-31
31.30000,-30
31.30833,-30
31.31667,-29
31.32500,-28
31.33333,-28
31.34167,-27
31.35000,-27
31.35833,-26
31.36667,-26
31.37500,-26
31.38333,-25
31.39167,-25
31.40000,-26
31.40833,-26
31.41667,-26
31.42500,-25
31.43333,-25
31.44167,-25
31.45000,-24
31.45833,-24
31.46667,-24
31.47500,-24
31.48333,-23
31.49167,-23
31.50000,-23
31.50833,-23
31.51667,-23
31.52500,-23
31.53333,-23
31.54167,-22
31.55000,-22
31.55833,-21
31.56667,-21
31.57500,-20
31.58333,-21
31.59167,-21
31.60000,-21
31.60833,-21
31.61667,-21
31.62500,-22
31.63333,-22
31.64167,-23
31.65000,-23
31.65833,-23
31.66667,-23
31.67500,-23
31.68333,-23
31.69167,-23
31.70000,-23
31.70833,-23
31.71667,-23
31.72500,-23
31.73333,-22
31.74167,-22
31.75000,-22
31.75833,-22
31.76667,-22
31.77500,-22
31.78333,-21
31.79167,-21
31.80000,-21
31.80833,-21
31.81667,-21
31.82500,-21
31.83333,-21
31.84167,-20
31.85000,-19
31.85833,-19
31.86667,-19
31.87500,-19
31.88333,-19
31.89167,-19
31.90000,-19
31.90833,-19
31.91667,-19
31.92500,-19
31.93333,-18
31.94167,-18
31.95000,-18
31.95833,-18
31.96667,-18
31.97500,-17
31.98333,-17
31.99167,-17
32.00000,-17
32.00833,-16
32.01667,-16
32.02500,-16
32.03333,-15
32.04167,-15
32.05000,-15
32.05833,-15
32.06667,-15
32.07500,-15
32.08333,-15
32.09167,-15
32.10000,-14
32.10833,-14
32.11667,-14
32.12500,-14
32.13333,-13
32.14167,-13
32.15000,-13
32.15833,-13
32.16667,-13
32.17500,-14
32.18333,-14
32.19167,-13
32.20000,-13
32.20833,-13
32.21667,-13
32.22500,-13
32.23333,-12
32.24167,-12
32.25000,-12
32.25833,-12
32.26667,-12
32.27500,-12
32.28333,-12
32.29167,-12
32.30000,-11
32.30833,-11
32.31667,-10
32.32500,-10
32.33333,-10
32.34167,-10
32.35000,-10
32.35833,-10
32.36667,-11
32.37500,-11
32.38333,-10
32.39167,-10
32.40000,-10
32.40833,-9
32.41667,-9
32.42500,-9
32.43333,-8
32.44167,-8
32.45000,-7
32.45833,-7
32.46667,-6
32.47500,-6
32.48333,-6
32.49167,-6
32.50000,-6
32.50833,-6
32.51667,-5
32.52500,-5
32.53333,-5
32.54167,-5
32.55000,-5
32.55833,-5
32.56667,-6
32.57500,-6
32.58333,-6
32.59167,-6
32.60000,-6
32.60833,-5
32.61667,-5
32.62500,-5
32.63333,-5
32.64167,-5
32.65000,-5
32.65833,-5
32.66667,-5
32.67500,-5
32.68333,-5
32.69167,-5
32.70000,-5
32.70833,-5
32.71667,-5
32.72500,-5
32.73333,-5
32.74167,-6
32.75000,-6
32.75833,-6
32.76667,-6
32.77500,-7
32.78333,-7
32.79167,-7
32.80000,-7
32.80833,-7
32.81667,-7
32.82500,-8
32.83333,-8
32.84167,-8
32.85000,-8
32.85833,-9
32.86667,-9
32.87500,-9
32.88333,-9
32.89167,-9
32.90000,-10
32.90833,-10
32.91667,-11
32.92500,-11
32.93333,-11
32.94167,-12
32.95000,-12
32.95833,-13
32.96667,-14
32.97500,-14
32.98333,-15
32.99167,-15
33.00000,-15
33.00833,-15
33.01667,-15
33.02500,-16
33.03333,-17
33.04167,-17
33.05000,-17
33.05833,-18
33.06667,-18
33.07500,-19
33.08333,-19
33.09167,-19
33.10000,-19
33.10833,-20
33.11667,-20
33.12500,-20
33.13333,-21
33.14167,-21
33.15000,-22
33.15833,-22
33.16667,-22
33.17500,-22
33.18333,-22
33.19167,-22
33.20000,-22
33.20833,-22
33.21667,-22
33.22500,-23
33.23333,-23
33.24167,-23
33.25000,-24
33.25833,-24
33.26667,-24
33.27500,-24
33.28333,-24
33.29167,-24
33.30000,-24
33.30833,-24
33.31667,-24
33.32500,-24
33.33333,-24
33.34167,-24
33.35000,-24
33.35833,-25
33.36667,-25
33.37500,-25
33.38333,-25
33.39167,-25
33.40000,-26
33.40833,-26
33.41667,-26
33.42500,-25
33.43333,-25
33.44167,-25
33.45000,-25
33.45833,-25
33.46667,-25
33.47500,-25
33.48333,-25
33.49167,-25
33.50000,-24
33.50833,-24
33.51667,-24
33.52500,-24
33.53333,-24
33.54167,-24
33.55000,-24
33.55833,-24
33.56667,-23
33.57500,-23
33.58333,-23
33.59167,-23
33.60000,-23
33.60833,-23
33.61667,-23
33.62500,-23
33.63333,-22
33.64167,-22
33.65000,-22
33.65833,-21
33.66667,-21
33.67500,-21
33.68333,-21
33.69167,-21
33.70000,-21
33.70833,-21
33.71667,-21
33.72500,-21
33.73333,-21
33.74167,-21
33.75000,-21
33.75833,-21
33.76667,-20
33.77500,-20
33.78333,-20
33.79167,-20
33.80000,-20
33.80833,-20
33.81667,-19
33.82500,-19
33.83333,-19
33.84167,-19
33.85000,-19
33.85833,-19
33.86667,-19
33.87500,-19
33.88333,-19
33.89167,-18
33.90000,-18
33.90833,-18
33.91667,-18
33.92500,-18
33.93333,-18
33.94167,-18
33.95000,-18
33.95833,-18
33.96667,-18
33.97500,-17
33.98333,-17
33.99167,-16
34.00000,-16
34.00833,-16
34.01667,-16
34.02500,-16
34.03333,-16
34.04167,-15
34.05000,-15
34.05833,-14
34.06667,-14
34.07500,-14
34.08333,-14
34.09167,-14
34.10000,-14
34.10833,-14
34.11667,-13
34.12500,-13
34.13333,-13
34.14167,-13
34.15000,-13
34.15833,-13
34.16667,-13
34.17500,-13
34.18333,-13
34.19167,-12
34.20000,-12
34.20833,-12
34.21667,-12
34.22500,-12
34.23333,-12
34.24167,-12
34.25000,-12
34.25833,-12
34.26667,-12
34.27500,-12
34.28333,-12
34.29167,-12
34.30000,-12
34.30833,-12
34.31667,-13
34.32500,-13
34.33333,-13
34.34167,-13
34.35000,-13
34.35833,-13
34.36667,-14
34.37500,-14
34.38333,-14
34.39167,-14
34.40000,-14
34.40833,-14
34.41667,-14
34.42500,-14
34.43333,-14
34.44167,-14
34.45000,-14
34.45833,-14
34.46667,-14
34.47500,-15
34.48333,-15
34.49167,-15
34.50000,-16
34.50833,-16
34.51667,-16
34.52500,-16
34.53333,-16
34.54167,-16
34.55000,-16
34.55833,-16
34.56667,-16
34.57500,-16
34.58333,-16
34.59167,-17
34.60000,-16
34.60833,-17
34.61667,-17
34.62500,-17
34.63333,-17
34.64167,-17
34.65000,-16
34.65833,-16
34.66667,-17
34.67500,-17
34.68333,-17
34.69167,-17
34.70000,-17
34.70833,-17
34.71667,-17
34.72500,-17
34.73333,-17
34.74167,-18
34.75000,-17
34.75833,-17
34.76667,-17
34.77500,-17
34.78333,-17
34.79167,-17
34.80000,-18
34.80833,-18
34.81667,-18
34.82500,-18
34.83333,-18
34.84167,-19
34.85000,-19
34.85833,-19
34.86667,-19
34.87500,-19
34.88333,-19
34.89167,-19
34.90000,-19
34.90833,-19
34.91667,-19
34.92500,-19
34.93333,-19
34.94167,-20
34.95000,-20
34.95833,-20
34.96667,-20
34.97500,-20
34.98333,-20
34.99167,-20
35.00000,-20
35.00833,-20
35.01667,-20
35.02500,-19
35.03333,-19
35.04167,-19
35.05000,-19
35.05833,-18
35.06667,-18
35.07500,-18
35.08333,-18
35.09167,-18
35.10000,-17
35.10833,-17
35.11667,-17
35.12500,-16
35.13333,-16
35.14167,-15
35.15000,-15
35.15833,-14
35.16667,-14
35.17500,-14
35.18333,-13
35.19167,-13
35.20000,-12
35.20833,-12
35.21667,-13
35.22500,-13
35.23333,-13
35.24167,-12
35.25000,-12
35.25833,-11
35.26667,-11
35.27500,-10
35.28333,-10
35.29167,-10
35.30000,-10
35.30833,-10
35.31667,-10
35.32500,-10
35.33333,-10
35.34167,-10
35.35000,-10
35.35833,-10
35.36667,-10
35.37500,-10
35.38333,-9
35.39167,-9
35.40000,-8
35.40833,-8
35.41667,-8
35.42500,-8
35.43333,-8
35.44167,-8
35.45000,-8
35.45833,-8
35.46667,-8
35.47500,-8
35.48333,-8
35.49167,-8
35.50000,-8
35.50833,-8
35.51667,-8
35.52500,-8
35.53333,-8
35.54167,-8
35.55000,-8
35.55833,-8
35.56667,-8
35.57500,-8
35.58333,-9
35.59167,-9
35.60000,-9
35.60833,-10
35.61667,-10
35.62500,-10
35.63333,-9
35.64167,-9
35.65000,-9
35.65833,-9
35.66667,-9
35.67500,-9
35.68333,-9
35.69167,-9
35.70000,-9
35.70833,-10
35.71667,-10
35.72500,-10
35.73333,-11
35.74167,-11
35.75000,-11
35.75833,-11
35.76667,-11
35.77500,-12
35.78333,-12
35.79167,-13
35.80000,-13
35.80833,-13
35.81667,-13
35.82500,-14
35.83333,-14
35.84167,-15
35.85000,-15
35.85833,-16
35.86667,-16
35.87500,-17
35.88333,-17
35.89167,-18
35.90000,-18
35.90833,-19
35.91667,-19
35.92500,-20
35.93333,-20
35.94167,-20
35.95000,-21
35.95833,-21
35.96667,-22
35.97500,-22
35.98333,-23
35.99167,-23
36.00000,-23
36.00833,-23
36.01667,-24
36.02500,-24
36.03333,-24
36.04167,-25
36.05000,-25
36.05833,-26
36.06667,-26
36.07500,-27
36.08333,-27
36.09167,-28
36.10000,-28
36.10833,-28
36.11667,-28
36.12500,-28
36.13333,-28
36.14167,-28
36.15000,-28
36.15833,-29
36.16667,-29
36.17500,-29
36.18333,-29
36.19167,-29
36.20000,-29
36.20833,-29
36.21667,-29
36.22500,-29
36.23333,-29
36.24167,-29
36.25000,-28
36.25833,-28
36.26667,-28
36.27500,-28
36.28333,-28
36.29167,-28
36.30000,-28
36.30833,-28
36.31667,-28
36.32500,-27
36.33333,-27
36.34167,-27
36.35000,-26
36.35833,-26
36.36667,-26
36.37500,-25
36.38333,-25
36.39167,-25
36.40000,-25
36.40833,-25
36.41667,-24
36.42500,-24
36.43333,-23
36.44167,-23
36.45000,-23
36.45833,-22
36.46667,-22
36.47500,-21
36.48333,-21
36.49167,-20
36.50000,-20
36.50833,-20
36.51667,-19
36.52500,-19
36.53333,-19
36.54167,-19
36.55000,-19
36.55833,-19
36.56667,-19
36.57500,-18
36.58333,-18
36.59167,-17
36.60000,-17
36.60833,-17
36.61667,-16
36.62500,-16
36.63333,-16
36.64167,-16
36.65000,-15
36.65833,-15
36.66667,-15
36.67500,-15
36.68333,-15
36.69167,-15
36.70000,-15
36.70833,-15
36.71667,-15
36.72500,-15
36.73333,-15
36.74167,-15
36.75000,-15
36.75833,-15
36.76667,-15
36.77500,-16
36.78333,-16
36.79167,-16
36.80000,-16
36.80833,-16
36.81667,-16
36.82500,-16
36.83333,-17
36.84167,-17
36.85000,-17
36.85833,-17
36.86667,-17
36.87500,-17
36.88333,-17
36.89167,-17
36.90000,-17
36.90833,-17
36.91667,-18
36.92500,-18
36.93333,-18
36.94167,-18
36.95000,-19
36.95833,-19
36.96667,-19
36.97500,-20
36.98333,-20
36.99167,-21
37.00000,-21
37.00833,-21
37.01667,-21
37.02500,-21
37.03333,-21
37.04167,-20
37.05000,-21
37.05833,-21
37.06667,-21
37.07500,-21
37.08333,-21
37.09167,-22
37.10000,-22
37.10833,-22
37.11667,-21
37.12500,-21
37.13333,-21
37.14167,-20
37.15000,-20
37.15833,-21
37.16667,-21
37.17500,-20
37.18333,-20
37.19167,-20
37.20000,-20
37.20833,-20
37.21667,-20
37.22500,-20
37.23333,-20
37.24167,-21
37.25000,-21
37.25833,-21
37.26667,-21
37.27500,-21
37.28333,-21
37.29167,-21
37.30000,-21
37.30833,-21
37.31667,-21
37.32500,-21
37.33333,-21
37.34167,-20
37.35000,-20
37.35833,-20
37.36667,-20
37.37500,-20
37.38333,-21
37.39167,-21
37.40000,-21
37.40833,-21
37.41667,-21
37.42500,-21
37.43333,-21
37.44167,-21
37.45000,-21
37.45833,-21
37.46667,-21
37.47500,-21
37.48333,-21
37.49167,-21
37.50000,-21
37.50833,-21
37.51667,-21
37.52500,-21
37.53333,-21
37.54167,-21
37.55000,-21
37.55833,-21
37.56667,-20
37.57500,-20
37.58333,-20
37.59167,-20
37.60000,-21
37.60833,-21
37.61667,-21
37.62500,-21
37.63333,-21
37.64167,-21
37.65000,-21
37.65833,-22
37.66667,-22
37.67500,-22
37.68333,-22
37.69167,-22
37.70000,-22
37.70833,-22
37.71667,-22
37.72500,-22
37.73333,-22
37.74167,-21
37.75000,-21
37.75833,-21
37.76667,-21
37.77500,-21
37.78333,-21
37.79167,-21
37.80000,-21
37.80833,-21
37.81667,-21
37.82500,-21
37.83333,-21
37.84167,-21
37.85000,-21
37.85833,-21
37.86667,-22
37.87500,-22
37.88333,-22
37.89167,-22
37.90000,-22
37.90833,-22
37.91667,-22
37.92500,-22
37.93333,-21
37.94167,-21
37.95000,-21
37.95833,-21
37.96667,-21
37.97500,-22
37.98333,-21
37.99167,-21
38.00000,-21
38.00833,-21
38.01667,-21
38.02500,-21
38.03333,-21
38.04167,-21
38.05000,-21
38.05833,-21
38.06667,-21
38.07500,-21
38.08333,-21
38.09167,-21
38.10000,-21
38.10833,-21
38.11667,-21
38.12500,-21
38.13333,-21
38.14167,-21
38.15000,-21
38.15833,-22
38.16667,-22
38.17500,-22
38.18333,-21
38.19167,-21
38.20000,-21
38.20833,-21
38.21667,-21
38.22500,-21
38.23333,-21
38.24167,-21
38.25000,-21
38.25833,-21
38.26667,-21
38.27500,-21
38.28333,-21
38.29167,-22
38.30000,-22
38.30833,-22
38.31667,-22
38.32500,-22
38.33333,-22
38.34167,-22
38.35000,-22
38.35833,-22
38.36667,-22
38.37500,-22
38.38333,-22
38.39167,-21
38.40000,-21
38.40833,-21
38.41667,-21
38.42500,-20
38.43333,-20
38.44167,-20
38.45000,-20
38.45833,-20
38.46667,-20
38.47500,-20
38.48333,-20
38.49167,-20
38.50000,-19
38.50833,-19
38.51667,-19
38.52500,-19
38.53333,-19
38.54167,-18
38.55000,-18
38.55833,-17
38.56667,-17
38.57500,-17
38.58333,-17
38.59167,-17
38.60000,-17
38.60833,-17
38.61667,-17
38.62500,-17
38.63333,-17
38.64167,-16
38.65000,-16
38.65833,-15
38.66667,-15
38.67500,-15
38.68333,-14
38.69167,-14
38.70000,-13
38.70833,-13
38.71667,-13
38.72500,-13
38.73333,-13
38.74167,-13
38.75000,-13
38.75833,-13
38.76667,-13
38.77500,-13
38.78333,-13
38.79167,-13
38.80000,-12
38.80833,-12
38.81667,-12
38.82500,-11
38.83333,-11
38.84167,-12
38.85000,-12
38.85833,-12
38.86667,-12
38.87500,-12
38.88333,-12
38.89167,-12
38.90000,-12
38.90833,-13
38.91667,-13
38.92500,-14
38.93333,-15
38.94167,-15
38.95000,-15
38.95833,-15
38.96667,-15
38.97500,-15
38.98333,-15
38.99167,-16
39.00000,-15
39.00833,-15
39.01667,-15
39.02500,-16
39.03333,-16
39.04167,-16
39.05000,-17
39.05833,-17
39.06667,-17
39.07500,-17
39.08333,-17
39.09167,-18
39.10000,-18
39.10833,-18
39.11667,-18
39.12500,-18
39.13333,-19
39.14167,-19
39.15000,-19
39.15833,-20
39.16667,-21
39.17500,-21
39.18333,-21
39.19167,-22
39.20000,-22
39.20833,-23
39.21667,-23
39.22500,-23
39.23333,-23
39.24167,-23
39.25000,-23
39.25833,-24
39.26667,-24
39.27500,-25
39.28333,-25
39.29167,-25
39.30000,-25
39.30833,-25
39.31667,-25
39.32500,-25
39.33333,-25
39.34167,-25
39.35000,-25
39.35833,-26
39.36667,-26
39.37500,-26
39.38333,-26
39.39167,-26
39.40000,-26
39.40833,-25
39.41667,-25
39.42500,-26
39.43333,-26
39.44167,-26
39.45000,-26
39.45833,-26
39.46667,-26
39.47500,-26
39.48333,-27
39.49167,-27
39.50000,-28
39.50833,-28
39.51667,-28
39.52500,-28
39.53333,-28
39.54167,-28
39.55000,-28
39.55833,-29
39.56667,-29
39.57500,-29
39.58333,-29
39.59167,-29
39.60000,-29
39.60833,-29
39.61667,-29
39.62500,-29
39.63333,-29
39.64167,-29
39.65000,-28
39.65833,-28
39.66667,-29
39.67500,-29
39.68333,-29
39.69167,-29
39.70000,-29
39.70833,-29
39.71667,-29
39.72500,-29
39.73333,-29
39.74167,-29
39.75000,-28
39.75833,-28
39.76667,-28
39.77500,-28
39.78333,-28
39.79167,-28
39.80000,-28
39.80833,-28
39.81667,-28
39.82500,-28
39.83333,-27
39.84167,-27
39.85000,-27
39.85833,-27
39.86667,-27
39.87500,-26
39.88333,-26
39.89167,-26
39.90000,-26
39.90833,-26
39.91667,-26
39.92500,-26
39.93333,-25
39.94167,-25
39.95000,-25
39.95833,-25
39.96667,-25
39.97500,-25
39.98333,-24
39.99167,-24
40.00000,-23

