[Header]
Application Name,LabSolutions
Version,5.97 SP1
Data File Name,C:\Users\cremerlab\Desktop\griffin\2021-04-06_REL606_DM_glucose_turnover\2021-04-06_REL606_DM_glucose_turnover_462021_004_018.lcd
Output Date,4/7/2021
Output Time,6:43:23 AM

[File Information]
Type,Data File
Generated,4/7/2021 6:03:03 AM
Generated by,System Administrator
Modified,4/7/2021 6:43:23 AM
Modified by,System Administrator

[Sample Information]
Operator Name,System Administrator
Acquired,4/7/2021 6:03:22 AM
Sample Type,1:Standard
Level,4
Sample Name,2021-04-04_REL606_replicate_003_timepoint_004
Sample ID,004
ISTD Amount1,1
ISTD Amount2,1
ISTD Amount3,1
ISTD Amount4,1
ISTD Amount5,1
ISTD Amount6,1
ISTD Amount7,1
ISTD Amount8,1
ISTD Amount9,1
ISTD Amount10,1
ISTD Amount11,1
ISTD Amount12,1
ISTD Amount13,1
ISTD Amount14,1
ISTD Amount15,1
ISTD Amount16,1
ISTD Amount17,1
ISTD Amount18,1
ISTD Amount19,1
ISTD Amount20,1
ISTD Amount21,1
ISTD Amount22,1
ISTD Amount23,1
ISTD Amount24,1
ISTD Amount25,1
ISTD Amount26,1
ISTD Amount27,1
ISTD Amount28,1
ISTD Amount29,1
ISTD Amount30,1
ISTD Amount31,1
ISTD Amount32,1
Sample Amount,1
Dilution Factor,1
Vial#,22
Injection Volume,20

[Original Files]
Data File,C:\Users\cremerlab\Desktop\griffin\2021-04-06_REL606_DM_glucose_turnover\2021-04-06_REL606_DM_glucose_turnover_462021_004_018.lcd
Method File,C:\Users\cremerlab\Desktop\griffin\2.5mM_H2SO4_mobile_phase.lcm
Batch File,C:\Users\cremerlab\Desktop\griffin\2021-04-06_REL606_DM_glucose_turnover\2021-04-06_REL606_DM_glucose_turnover.lcb
Report Format File,c:\LabSolutions\System\DEFAULT.lsr

[File Description]


[Configuration]
Instrument Name,HPLC-PC-Instrument1
Instrument #,1
Line #,1
# of Detectors,2
Detector ID,Detector A,Detector B
Detector Name,Detector A,Detector B
# of Channels,1,1

[Peak Table(Detector A)]
# of Peaks,0

[Peak Table(Detector B)]
# of Peaks,6
Peak#,R.Time,I.Time,F.Time,Area,Height,A/H,Conc.,Mark,ID#,Name,k',Plate #,Plate Ht.,Tailing,Resolution,Sep.Factor,Area Ratio,Height Ratio,Conc. %,Norm Conc.
1,10.886,10.417,11.750,238599,14046,16.987,0.000,   ,,,0.000,9266,16.188,1.037,0.000,0.000,0,0,0.000,0.000
2,13.933,12.558,14.200,1698203,45220,37.554,0.000,   ,,,0.280,3142,47.738,0.000,4.213,0.000,0,0,0.000,0.000
3,14.335,14.200,14.983,169847,9187,18.487,0.000, V ,,,0.317,6306,23.785,0.000,0.468,1.132,0,0,0.000,0.000
4,15.678,14.983,17.633,1034545,41387,24.997,0.000, V ,,,0.440,9266,16.189,1.150,1.956,1.390,0,0,0.000,0.000
5,19.083,18.742,19.558,2336,105,22.326,0.000,   ,,,0.753,15996,9.378,1.110,5.427,1.711,0,0,0.000,0.000
6,25.042,24.567,25.658,7111,249,28.551,0.000,   ,,,1.300,16806,8.926,1.095,8.659,1.727,0,0,0.000,0.000

[LC Chromatogram(Detector B-Ch1)]
Interval(msec),500
# of Points,4801
Start Time(min),0.000
End Time(min),40.000
Intensity Units,mV
Intensity Multiplier,0.001
R.Time (min),Intensity
0.00000,1
0.00833,1
0.01667,0
0.02500,0
0.03333,1
0.04167,1
0.05000,1
0.05833,2
0.06667,2
0.07500,2
0.08333,3
0.09167,3
0.10000,3
0.10833,3
0.11667,4
0.12500,4
0.13333,4
0.14167,4
0.15000,4
0.15833,4
0.16667,3
0.17500,3
0.18333,3
0.19167,3
0.20000,3
0.20833,3
0.21667,3
0.22500,3
0.23333,3
0.24167,2
0.25000,2
0.25833,2
0.26667,1
0.27500,1
0.28333,0
0.29167,-0
0.30000,-0
0.30833,-0
0.31667,-1
0.32500,-1
0.33333,-1
0.34167,-2
0.35000,-2
0.35833,-2
0.36667,-3
0.37500,-3
0.38333,-3
0.39167,-4
0.40000,-4
0.40833,-4
0.41667,-4
0.42500,-5
0.43333,-5
0.44167,-5
0.45000,-5
0.45833,-5
0.46667,-6
0.47500,-6
0.48333,-6
0.49167,-6
0.50000,-6
0.50833,-6
0.51667,-6
0.52500,-6
0.53333,-5
0.54167,-5
0.55000,-5
0.55833,-5
0.56667,-5
0.57500,-5
0.58333,-5
0.59167,-5
0.60000,-5
0.60833,-5
0.61667,-4
0.62500,-4
0.63333,-3
0.64167,-3
0.65000,-3
0.65833,-2
0.66667,-2
0.67500,-2
0.68333,-1
0.69167,-1
0.70000,-1
0.70833,-1
0.71667,-1
0.72500,-0
0.73333,-0
0.74167,0
0.75000,1
0.75833,2
0.76667,2
0.77500,2
0.78333,2
0.79167,3
0.80000,3
0.80833,3
0.81667,4
0.82500,4
0.83333,4
0.84167,4
0.85000,4
0.85833,4
0.86667,5
0.87500,5
0.88333,6
0.89167,6
0.90000,6
0.90833,6
0.91667,7
0.92500,7
0.93333,6
0.94167,6
0.95000,6
0.95833,6
0.96667,6
0.97500,6
0.98333,6
0.99167,6
1.00000,6
1.00833,6
1.01667,6
1.02500,6
1.03333,6
1.04167,6
1.05000,6
1.05833,6
1.06667,6
1.07500,7
1.08333,7
1.09167,7
1.10000,7
1.10833,7
1.11667,7
1.12500,8
1.13333,8
1.14167,8
1.15000,9
1.15833,9
1.16667,9
1.17500,10
1.18333,10
1.19167,10
1.20000,10
1.20833,10
1.21667,10
1.22500,10
1.23333,10
1.24167,10
1.25000,10
1.25833,10
1.26667,10
1.27500,10
1.28333,10
1.29167,10
1.30000,10
1.30833,9
1.31667,9
1.32500,9
1.33333,9
1.34167,9
1.35000,9
1.35833,9
1.36667,9
1.37500,9
1.38333,8
1.39167,8
1.40000,8
1.40833,8
1.41667,8
1.42500,7
1.43333,7
1.44167,7
1.45000,6
1.45833,6
1.46667,5
1.47500,5
1.48333,5
1.49167,5
1.50000,4
1.50833,4
1.51667,4
1.52500,4
1.53333,4
1.54167,4
1.55000,4
1.55833,4
1.56667,4
1.57500,4
1.58333,3
1.59167,3
1.60000,3
1.60833,3
1.61667,3
1.62500,3
1.63333,3
1.64167,3
1.65000,3
1.65833,3
1.66667,3
1.67500,3
1.68333,3
1.69167,3
1.70000,4
1.70833,5
1.71667,5
1.72500,5
1.73333,5
1.74167,5
1.75000,6
1.75833,6
1.76667,6
1.77500,7
1.78333,7
1.79167,7
1.80000,7
1.80833,8
1.81667,8
1.82500,8
1.83333,8
1.84167,8
1.85000,8
1.85833,9
1.86667,9
1.87500,9
1.88333,9
1.89167,9
1.90000,9
1.90833,9
1.91667,10
1.92500,10
1.93333,10
1.94167,10
1.95000,10
1.95833,11
1.96667,11
1.97500,11
1.98333,11
1.99167,10
2.00000,10
2.00833,11
2.01667,11
2.02500,11
2.03333,11
2.04167,11
2.05000,11
2.05833,10
2.06667,10
2.07500,10
2.08333,10
2.09167,10
2.10000,10
2.10833,9
2.11667,9
2.12500,9
2.13333,9
2.14167,9
2.15000,9
2.15833,9
2.16667,9
2.17500,9
2.18333,9
2.19167,9
2.20000,9
2.20833,9
2.21667,9
2.22500,9
2.23333,8
2.24167,8
2.25000,7
2.25833,7
2.26667,7
2.27500,7
2.28333,6
2.29167,7
2.30000,6
2.30833,6
2.31667,6
2.32500,6
2.33333,5
2.34167,5
2.35000,5
2.35833,5
2.36667,5
2.37500,5
2.38333,5
2.39167,5
2.40000,5
2.40833,5
2.41667,5
2.42500,4
2.43333,4
2.44167,4
2.45000,4
2.45833,4
2.46667,4
2.47500,4
2.48333,4
2.49167,3
2.50000,3
2.50833,3
2.51667,3
2.52500,3
2.53333,3
2.54167,2
2.55000,1
2.55833,1
2.56667,0
2.57500,0
2.58333,0
2.59167,0
2.60000,-0
2.60833,-0
2.61667,-0
2.62500,-1
2.63333,-1
2.64167,-2
2.65000,-2
2.65833,-3
2.66667,-3
2.67500,-3
2.68333,-4
2.69167,-4
2.70000,-4
2.70833,-4
2.71667,-5
2.72500,-5
2.73333,-5
2.74167,-6
2.75000,-6
2.75833,-6
2.76667,-6
2.77500,-7
2.78333,-7
2.79167,-7
2.80000,-7
2.80833,-8
2.81667,-8
2.82500,-9
2.83333,-9
2.84167,-9
2.85000,-9
2.85833,-9
2.86667,-9
2.87500,-9
2.88333,-9
2.89167,-9
2.90000,-9
2.90833,-9
2.91667,-9
2.92500,-9
2.93333,-9
2.94167,-9
2.95000,-9
2.95833,-9
2.96667,-9
2.97500,-9
2.98333,-9
2.99167,-9
3.00000,-9
3.00833,-8
3.01667,-8
3.02500,-8
3.03333,-8
3.04167,-8
3.05000,-7
3.05833,-7
3.06667,-7
3.07500,-7
3.08333,-7
3.09167,-7
3.10000,-7
3.10833,-7
3.11667,-7
3.12500,-7
3.13333,-6
3.14167,-6
3.15000,-6
3.15833,-6
3.16667,-5
3.17500,-5
3.18333,-5
3.19167,-5
3.20000,-5
3.20833,-5
3.21667,-5
3.22500,-5
3.23333,-5
3.24167,-4
3.25000,-4
3.25833,-4
3.26667,-4
3.27500,-4
3.28333,-4
3.29167,-3
3.30000,-3
3.30833,-3
3.31667,-3
3.32500,-3
3.33333,-3
3.34167,-3
3.35000,-3
3.35833,-3
3.36667,-2
3.37500,-2
3.38333,-2
3.39167,-2
3.40000,-2
3.40833,-1
3.41667,-1
3.42500,-1
3.43333,-1
3.44167,-1
3.45000,-1
3.45833,-1
3.46667,-1
3.47500,-1
3.48333,-1
3.49167,-1
3.50000,-1
3.50833,-1
3.51667,-1
3.52500,-0
3.53333,-0
3.54167,0
3.55000,0
3.55833,0
3.56667,-0
3.57500,-0
3.58333,-0
3.59167,-0
3.60000,-0
3.60833,-0
3.61667,-0
3.62500,0
3.63333,0
3.64167,0
3.65000,0
3.65833,-0
3.66667,-0
3.67500,-0
3.68333,0
3.69167,0
3.70000,0
3.70833,0
3.71667,1
3.72500,1
3.73333,1
3.74167,1
3.75000,1
3.75833,1
3.76667,2
3.77500,3
3.78333,3
3.79167,4
3.80000,4
3.80833,4
3.81667,4
3.82500,5
3.83333,6
3.84167,6
3.85000,7
3.85833,7
3.86667,7
3.87500,8
3.88333,8
3.89167,8
3.90000,9
3.90833,10
3.91667,10
3.92500,11
3.93333,11
3.94167,11
3.95000,11
3.95833,12
3.96667,12
3.97500,12
3.98333,13
3.99167,13
4.00000,13
4.00833,13
4.01667,13
4.02500,13
4.03333,13
4.04167,14
4.05000,14
4.05833,14
4.06667,15
4.07500,15
4.08333,16
4.09167,16
4.10000,16
4.10833,16
4.11667,16
4.12500,15
4.13333,15
4.14167,14
4.15000,14
4.15833,14
4.16667,14
4.17500,14
4.18333,14
4.19167,14
4.20000,14
4.20833,14
4.21667,14
4.22500,14
4.23333,14
4.24167,14
4.25000,14
4.25833,14
4.26667,14
4.27500,14
4.28333,14
4.29167,14
4.30000,14
4.30833,14
4.31667,14
4.32500,14
4.33333,13
4.34167,13
4.35000,13
4.35833,14
4.36667,13
4.37500,13
4.38333,12
4.39167,13
4.40000,12
4.40833,12
4.41667,13
4.42500,12
4.43333,12
4.44167,12
4.45000,12
4.45833,11
4.46667,11
4.47500,11
4.48333,11
4.49167,11
4.50000,11
4.50833,11
4.51667,11
4.52500,11
4.53333,11
4.54167,11
4.55000,11
4.55833,11
4.56667,11
4.57500,11
4.58333,10
4.59167,10
4.60000,10
4.60833,10
4.61667,10
4.62500,10
4.63333,10
4.64167,10
4.65000,10
4.65833,10
4.66667,10
4.67500,10
4.68333,10
4.69167,10
4.70000,10
4.70833,10
4.71667,10
4.72500,10
4.73333,10
4.74167,10
4.75000,9
4.75833,9
4.76667,9
4.77500,9
4.78333,9
4.79167,9
4.80000,9
4.80833,9
4.81667,9
4.82500,9
4.83333,9
4.84167,9
4.85000,9
4.85833,9
4.86667,9
4.87500,9
4.88333,9
4.89167,9
4.90000,9
4.90833,9
4.91667,10
4.92500,10
4.93333,10
4.94167,9
4.95000,9
4.95833,9
4.96667,9
4.97500,9
4.98333,9
4.99167,9
5.00000,9
5.00833,9
5.01667,10
5.02500,10
5.03333,10
5.04167,11
5.05000,11
5.05833,11
5.06667,11
5.07500,11
5.08333,11
5.09167,11
5.10000,11
5.10833,11
5.11667,11
5.12500,11
5.13333,11
5.14167,12
5.15000,11
5.15833,12
5.16667,12
5.17500,12
5.18333,12
5.19167,13
5.20000,13
5.20833,13
5.21667,13
5.22500,14
5.23333,14
5.24167,15
5.25000,16
5.25833,15
5.26667,15
5.27500,15
5.28333,15
5.29167,15
5.30000,15
5.30833,14
5.31667,14
5.32500,14
5.33333,14
5.34167,14
5.35000,14
5.35833,14
5.36667,14
5.37500,14
5.38333,14
5.39167,14
5.40000,14
5.40833,14
5.41667,14
5.42500,14
5.43333,13
5.44167,13
5.45000,13
5.45833,13
5.46667,13
5.47500,13
5.48333,13
5.49167,12
5.50000,12
5.50833,12
5.51667,12
5.52500,11
5.53333,11
5.54167,11
5.55000,12
5.55833,12
5.56667,11
5.57500,11
5.58333,11
5.59167,11
5.60000,11
5.60833,11
5.61667,11
5.62500,10
5.63333,10
5.64167,10
5.65000,10
5.65833,10
5.66667,11
5.67500,11
5.68333,10
5.69167,10
5.70000,10
5.70833,10
5.71667,10
5.72500,9
5.73333,9
5.74167,9
5.75000,9
5.75833,9
5.76667,9
5.77500,9
5.78333,9
5.79167,9
5.80000,9
5.80833,9
5.81667,8
5.82500,8
5.83333,8
5.84167,8
5.85000,8
5.85833,8
5.86667,8
5.87500,8
5.88333,8
5.89167,8
5.90000,8
5.90833,8
5.91667,8
5.92500,8
5.93333,8
5.94167,8
5.95000,8
5.95833,7
5.96667,7
5.97500,7
5.98333,7
5.99167,7
6.00000,8
6.00833,8
6.01667,8
6.02500,7
6.03333,7
6.04167,8
6.05000,8
6.05833,8
6.06667,8
6.07500,8
6.08333,8
6.09167,8
6.10000,8
6.10833,8
6.11667,8
6.12500,8
6.13333,8
6.14167,8
6.15000,8
6.15833,8
6.16667,8
6.17500,8
6.18333,8
6.19167,8
6.20000,8
6.20833,7
6.21667,7
6.22500,7
6.23333,7
6.24167,7
6.25000,7
6.25833,7
6.26667,7
6.27500,6
6.28333,6
6.29167,6
6.30000,6
6.30833,7
6.31667,7
6.32500,7
6.33333,7
6.34167,7
6.35000,7
6.35833,7
6.36667,7
6.37500,7
6.38333,7
6.39167,8
6.40000,8
6.40833,9
6.41667,9
6.42500,9
6.43333,9
6.44167,9
6.45000,9
6.45833,9
6.46667,10
6.47500,10
6.48333,9
6.49167,9
6.50000,9
6.50833,9
6.51667,10
6.52500,10
6.53333,11
6.54167,11
6.55000,11
6.55833,11
6.56667,11
6.57500,11
6.58333,11
6.59167,11
6.60000,11
6.60833,11
6.61667,11
6.62500,11
6.63333,11
6.64167,11
6.65000,11
6.65833,11
6.66667,11
6.67500,11
6.68333,11
6.69167,11
6.70000,11
6.70833,11
6.71667,10
6.72500,10
6.73333,10
6.74167,10
6.75000,9
6.75833,9
6.76667,10
6.77500,10
6.78333,9
6.79167,9
6.80000,8
6.80833,8
6.81667,8
6.82500,8
6.83333,8
6.84167,8
6.85000,8
6.85833,9
6.86667,9
6.87500,9
6.88333,9
6.89167,8
6.90000,9
6.90833,9
6.91667,9
6.92500,9
6.93333,9
6.94167,9
6.95000,10
6.95833,10
6.96667,10
6.97500,10
6.98333,11
6.99167,11
7.00000,11
7.00833,11
7.01667,11
7.02500,11
7.03333,11
7.04167,12
7.05000,12
7.05833,13
7.06667,13
7.07500,13
7.08333,13
7.09167,14
7.10000,14
7.10833,14
7.11667,15
7.12500,15
7.13333,15
7.14167,16
7.15000,16
7.15833,16
7.16667,16
7.17500,16
7.18333,16
7.19167,16
7.20000,16
7.20833,16
7.21667,16
7.22500,16
7.23333,16
7.24167,16
7.25000,16
7.25833,16
7.26667,16
7.27500,16
7.28333,16
7.29167,17
7.30000,16
7.30833,16
7.31667,16
7.32500,16
7.33333,16
7.34167,16
7.35000,16
7.35833,16
7.36667,15
7.37500,15
7.38333,14
7.39167,13
7.40000,13
7.40833,13
7.41667,13
7.42500,13
7.43333,13
7.44167,13
7.45000,13
7.45833,13
7.46667,12
7.47500,11
7.48333,11
7.49167,11
7.50000,11
7.50833,10
7.51667,10
7.52500,10
7.53333,10
7.54167,9
7.55000,9
7.55833,9
7.56667,9
7.57500,8
7.58333,8
7.59167,7
7.60000,7
7.60833,6
7.61667,6
7.62500,6
7.63333,5
7.64167,5
7.65000,5
7.65833,5
7.66667,5
7.67500,5
7.68333,4
7.69167,4
7.70000,5
7.70833,4
7.71667,4
7.72500,4
7.73333,4
7.74167,4
7.75000,4
7.75833,4
7.76667,4
7.77500,4
7.78333,4
7.79167,3
7.80000,3
7.80833,4
7.81667,4
7.82500,4
7.83333,4
7.84167,4
7.85000,4
7.85833,4
7.86667,5
7.87500,5
7.88333,5
7.89167,5
7.90000,6
7.90833,6
7.91667,6
7.92500,6
7.93333,7
7.94167,7
7.95000,7
7.95833,7
7.96667,7
7.97500,7
7.98333,8
7.99167,8
8.00000,8
8.00833,9
8.01667,9
8.02500,10
8.03333,10
8.04167,10
8.05000,10
8.05833,10
8.06667,10
8.07500,10
8.08333,10
8.09167,10
8.10000,11
8.10833,11
8.11667,11
8.12500,11
8.13333,11
8.14167,11
8.15000,11
8.15833,11
8.16667,11
8.17500,11
8.18333,11
8.19167,11
8.20000,11
8.20833,11
8.21667,11
8.22500,11
8.23333,11
8.24167,11
8.25000,11
8.25833,11
8.26667,10
8.27500,10
8.28333,10
8.29167,9
8.30000,9
8.30833,9
8.31667,9
8.32500,9
8.33333,9
8.34167,9
8.35000,8
8.35833,8
8.36667,8
8.37500,8
8.38333,8
8.39167,8
8.40000,8
8.40833,8
8.41667,8
8.42500,9
8.43333,9
8.44167,10
8.45000,10
8.45833,10
8.46667,10
8.47500,10
8.48333,10
8.49167,11
8.50000,11
8.50833,11
8.51667,12
8.52500,12
8.53333,13
8.54167,13
8.55000,14
8.55833,14
8.56667,15
8.57500,15
8.58333,15
8.59167,16
8.60000,16
8.60833,16
8.61667,17
8.62500,18
8.63333,19
8.64167,20
8.65000,20
8.65833,20
8.66667,20
8.67500,21
8.68333,21
8.69167,21
8.70000,22
8.70833,22
8.71667,23
8.72500,24
8.73333,24
8.74167,25
8.75000,26
8.75833,27
8.76667,28
8.77500,28
8.78333,28
8.79167,28
8.80000,29
8.80833,29
8.81667,29
8.82500,29
8.83333,30
8.84167,30
8.85000,30
8.85833,31
8.86667,32
8.87500,32
8.88333,33
8.89167,33
8.90000,34
8.90833,34
8.91667,34
8.92500,34
8.93333,34
8.94167,34
8.95000,34
8.95833,34
8.96667,34
8.97500,34
8.98333,34
8.99167,34
9.00000,34
9.00833,34
9.01667,35
9.02500,35
9.03333,36
9.04167,36
9.05000,36
9.05833,36
9.06667,36
9.07500,36
9.08333,36
9.09167,36
9.10000,36
9.10833,36
9.11667,37
9.12500,37
9.13333,36
9.14167,37
9.15000,37
9.15833,36
9.16667,37
9.17500,36
9.18333,36
9.19167,36
9.20000,36
9.20833,36
9.21667,36
9.22500,36
9.23333,36
9.24167,36
9.25000,35
9.25833,35
9.26667,35
9.27500,34
9.28333,34
9.29167,34
9.30000,34
9.30833,34
9.31667,34
9.32500,34
9.33333,34
9.34167,34
9.35000,34
9.35833,34
9.36667,34
9.37500,34
9.38333,34
9.39167,34
9.40000,33
9.40833,33
9.41667,33
9.42500,32
9.43333,32
9.44167,32
9.45000,32
9.45833,32
9.46667,32
9.47500,32
9.48333,32
9.49167,31
9.50000,31
9.50833,30
9.51667,30
9.52500,30
9.53333,29
9.54167,30
9.55000,30
9.55833,30
9.56667,30
9.57500,29
9.58333,29
9.59167,29
9.60000,29
9.60833,29
9.61667,28
9.62500,28
9.63333,28
9.64167,27
9.65000,27
9.65833,27
9.66667,26
9.67500,26
9.68333,26
9.69167,25
9.70000,25
9.70833,25
9.71667,24
9.72500,24
9.73333,24
9.74167,23
9.75000,23
9.75833,22
9.76667,22
9.77500,22
9.78333,21
9.79167,21
9.80000,20
9.80833,20
9.81667,19
9.82500,19
9.83333,19
9.84167,18
9.85000,18
9.85833,17
9.86667,17
9.87500,17
9.88333,17
9.89167,17
9.90000,17
9.90833,17
9.91667,17
9.92500,17
9.93333,17
9.94167,17
9.95000,16
9.95833,16
9.96667,16
9.97500,16
9.98333,16
9.99167,16
10.00000,16
10.00833,16
10.01667,16
10.02500,16
10.03333,16
10.04167,17
10.05000,17
10.05833,17
10.06667,17
10.07500,18
10.08333,18
10.09167,18
10.10000,18
10.10833,18
10.11667,19
10.12500,19
10.13333,19
10.14167,19
10.15000,19
10.15833,19
10.16667,19
10.17500,19
10.18333,19
10.19167,20
10.20000,20
10.20833,20
10.21667,20
10.22500,20
10.23333,19
10.24167,19
10.25000,19
10.25833,19
10.26667,19
10.27500,19
10.28333,19
10.29167,19
10.30000,19
10.30833,20
10.31667,20
10.32500,19
10.33333,19
10.34167,19
10.35000,19
10.35833,20
10.36667,20
10.37500,20
10.38333,21
10.39167,21
10.40000,21
10.40833,22
10.41667,23
10.42500,24
10.43333,25
10.44167,27
10.45000,28
10.45833,30
10.46667,33
10.47500,36
10.48333,41
10.49167,47
10.50000,54
10.50833,63
10.51667,74
10.52500,89
10.53333,108
10.54167,131
10.55000,161
10.55833,197
10.56667,241
10.57500,295
10.58333,361
10.59167,439
10.60000,533
10.60833,643
10.61667,773
10.62500,924
10.63333,1099
10.64167,1299
10.65000,1526
10.65833,1782
10.66667,2069
10.67500,2388
10.68333,2740
10.69167,3125
10.70000,3544
10.70833,3996
10.71667,4480
10.72500,4994
10.73333,5537
10.74167,6105
10.75000,6695
10.75833,7303
10.76667,7923
10.77500,8549
10.78333,9176
10.79167,9797
10.80000,10405
10.80833,10992
10.81667,11549
10.82500,12070
10.83333,12545
10.84167,12968
10.85000,13331
10.85833,13628
10.86667,13854
10.87500,14003
10.88333,14073
10.89167,14061
10.90000,13969
10.90833,13796
10.91667,13546
10.92500,13224
10.93333,12834
10.94167,12383
10.95000,11881
10.95833,11335
10.96667,10754
10.97500,10147
10.98333,9524
10.99167,8892
11.00000,8261
11.00833,7638
11.01667,7029
11.02500,6439
11.03333,5874
11.04167,5337
11.05000,4830
11.05833,4355
11.06667,3913
11.07500,3505
11.08333,3130
11.09167,2787
11.10000,2476
11.10833,2194
11.11667,1940
11.12500,1712
11.13333,1507
11.14167,1325
11.15000,1164
11.15833,1021
11.16667,895
11.17500,783
11.18333,685
11.19167,599
11.20000,525
11.20833,460
11.21667,404
11.22500,356
11.23333,314
11.24167,278
11.25000,247
11.25833,220
11.26667,198
11.27500,178
11.28333,162
11.29167,148
11.30000,137
11.30833,127
11.31667,119
11.32500,112
11.33333,107
11.34167,102
11.35000,98
11.35833,95
11.36667,93
11.37500,90
11.38333,88
11.39167,86
11.40000,84
11.40833,82
11.41667,80
11.42500,79
11.43333,77
11.44167,76
11.45000,75
11.45833,74
11.46667,72
11.47500,71
11.48333,70
11.49167,68
11.50000,67
11.50833,65
11.51667,64
11.52500,63
11.53333,61
11.54167,60
11.55000,59
11.55833,58
11.56667,56
11.57500,55
11.58333,53
11.59167,51
11.60000,50
11.60833,49
11.61667,47
11.62500,46
11.63333,45
11.64167,43
11.65000,42
11.65833,41
11.66667,40
11.67500,40
11.68333,39
11.69167,38
11.70000,38
11.70833,37
11.71667,36
11.72500,36
11.73333,35
11.74167,35
11.75000,35
11.75833,34
11.76667,33
11.77500,33
11.78333,33
11.79167,33
11.80000,33
11.80833,32
11.81667,32
11.82500,31
11.83333,31
11.84167,31
11.85000,31
11.85833,31
11.86667,31
11.87500,30
11.88333,30
11.89167,30
11.90000,30
11.90833,30
11.91667,31
11.92500,31
11.93333,31
11.94167,31
11.95000,32
11.95833,32
11.96667,32
11.97500,32
11.98333,32
11.99167,33
12.00000,33
12.00833,33
12.01667,33
12.02500,32
12.03333,32
12.04167,32
12.05000,32
12.05833,32
12.06667,32
12.07500,32
12.08333,32
12.09167,32
12.10000,32
12.10833,32
12.11667,32
12.12500,31
12.13333,31
12.14167,31
12.15000,31
12.15833,31
12.16667,30
12.17500,30
12.18333,30
12.19167,30
12.20000,29
12.20833,29
12.21667,29
12.22500,29
12.23333,28
12.24167,28
12.25000,28
12.25833,27
12.26667,27
12.27500,28
12.28333,28
12.29167,27
12.30000,27
12.30833,27
12.31667,26
12.32500,26
12.33333,25
12.34167,25
12.35000,24
12.35833,24
12.36667,23
12.37500,23
12.38333,23
12.39167,22
12.40000,22
12.40833,22
12.41667,22
12.42500,22
12.43333,22
12.44167,21
12.45000,21
12.45833,21
12.46667,21
12.47500,21
12.48333,21
12.49167,21
12.50000,21
12.50833,21
12.51667,21
12.52500,21
12.53333,21
12.54167,21
12.55000,21
12.55833,21
12.56667,22
12.57500,22
12.58333,23
12.59167,25
12.60000,27
12.60833,30
12.61667,33
12.62500,37
12.63333,42
12.64167,48
12.65000,55
12.65833,64
12.66667,74
12.67500,87
12.68333,103
12.69167,121
12.70000,142
12.70833,168
12.71667,197
12.72500,230
12.73333,268
12.74167,312
12.75000,360
12.75833,414
12.76667,473
12.77500,539
12.78333,612
12.79167,691
12.80000,776
12.80833,868
12.81667,967
12.82500,1073
12.83333,1185
12.84167,1304
12.85000,1430
12.85833,1562
12.86667,1701
12.87500,1846
12.88333,1998
12.89167,2156
12.90000,2320
12.90833,2489
12.91667,2664
12.92500,2845
12.93333,3030
12.94167,3221
12.95000,3416
12.95833,3616
12.96667,3821
12.97500,4030
12.98333,4243
12.99167,4460
13.00000,4682
13.00833,4907
13.01667,5136
13.02500,5368
13.03333,5604
13.04167,5843
13.05000,6085
13.05833,6331
13.06667,6580
13.07500,6831
13.08333,7086
13.09167,7343
13.10000,7603
13.10833,7866
13.11667,8131
13.12500,8399
13.13333,8669
13.14167,8943
13.15000,9218
13.15833,9496
13.16667,9777
13.17500,10060
13.18333,10346
13.19167,10635
13.20000,10925
13.20833,11218
13.21667,11513
13.22500,11811
13.23333,12111
13.24167,12414
13.25000,12718
13.25833,13025
13.26667,13334
13.27500,13645
13.28333,13958
13.29167,14274
13.30000,14593
13.30833,14914
13.31667,15237
13.32500,15563
13.33333,15891
13.34167,16221
13.35000,16553
13.35833,16888
13.36667,17225
13.37500,17565
13.38333,17908
13.39167,18253
13.40000,18600
13.40833,18950
13.41667,19302
13.42500,19657
13.43333,20014
13.44167,20374
13.45000,20737
13.45833,21102
13.46667,21470
13.47500,21840
13.48333,22213
13.49167,22588
13.50000,22966
13.50833,23346
13.51667,23730
13.52500,24116
13.53333,24505
13.54167,24897
13.55000,25291
13.55833,25688
13.56667,26088
13.57500,26491
13.58333,26896
13.59167,27304
13.60000,27715
13.60833,28129
13.61667,28546
13.62500,28967
13.63333,29390
13.64167,29816
13.65000,30245
13.65833,30677
13.66667,31112
13.67500,31550
13.68333,31991
13.69167,32435
13.70000,32882
13.70833,33333
13.71667,33786
13.72500,34243
13.73333,34703
13.74167,35166
13.75000,35633
13.75833,36103
13.76667,36577
13.77500,37053
13.78333,37533
13.79167,38016
13.80000,38502
13.80833,38992
13.81667,39485
13.82500,39981
13.83333,40480
13.84167,40982
13.85000,41485
13.85833,41988
13.86667,42489
13.87500,42982
13.88333,43462
13.89167,43918
13.90000,44338
13.90833,44706
13.91667,45001
13.92500,45199
13.93333,45274
13.94167,45199
13.95000,44947
13.95833,44495
13.96667,43824
13.97500,42921
13.98333,41782
13.99167,40413
14.00000,38825
14.00833,37043
14.01667,35097
14.02500,33023
14.03333,30860
14.04167,28652
14.05000,26440
14.05833,24263
14.06667,22156
14.07500,20149
14.08333,18266
14.09167,16526
14.10000,14941
14.10833,13517
14.11667,12256
14.12500,11157
14.13333,10213
14.14167,9419
14.15000,8764
14.15833,8239
14.16667,7832
14.17500,7532
14.18333,7328
14.19167,7210
14.20000,7165
14.20833,7184
14.21667,7255
14.22500,7370
14.23333,7519
14.24167,7693
14.25000,7883
14.25833,8082
14.26667,8282
14.27500,8476
14.28333,8659
14.29167,8824
14.30000,8967
14.30833,9084
14.31667,9172
14.32500,9228
14.33333,9251
14.34167,9239
14.35000,9192
14.35833,9112
14.36667,8998
14.37500,8852
14.38333,8677
14.39167,8474
14.40000,8246
14.40833,7996
14.41667,7728
14.42500,7444
14.43333,7146
14.44167,6840
14.45000,6527
14.45833,6210
14.46667,5893
14.47500,5577
14.48333,5265
14.49167,4959
14.50000,4660
14.50833,4370
14.51667,4090
14.52500,3822
14.53333,3565
14.54167,3322
14.55000,3090
14.55833,2872
14.56667,2666
14.57500,2474
14.58333,2294
14.59167,2127
14.60000,1972
14.60833,1828
14.61667,1694
14.62500,1571
14.63333,1458
14.64167,1353
14.65000,1256
14.65833,1168
14.66667,1088
14.67500,1014
14.68333,947
14.69167,886
14.70000,831
14.70833,780
14.71667,733
14.72500,691
14.73333,653
14.74167,618
14.75000,586
14.75833,556
14.76667,530
14.77500,506
14.78333,484
14.79167,464
14.80000,446
14.80833,430
14.81667,414
14.82500,400
14.83333,388
14.84167,376
14.85000,365
14.85833,356
14.86667,348
14.87500,340
14.88333,333
14.89167,327
14.90000,321
14.90833,317
14.91667,312
14.92500,309
14.93333,306
14.94167,304
14.95000,302
14.95833,300
14.96667,299
14.97500,298
14.98333,298
14.99167,298
15.00000,299
15.00833,300
15.01667,302
15.02500,304
15.03333,307
15.04167,310
15.05000,313
15.05833,316
15.06667,320
15.07500,325
15.08333,330
15.09167,336
15.10000,341
15.10833,347
15.11667,354
15.12500,361
15.13333,369
15.14167,378
15.15000,388
15.15833,400
15.16667,414
15.17500,430
15.18333,449
15.19167,472
15.20000,500
15.20833,533
15.21667,572
15.22500,619
15.23333,675
15.24167,742
15.25000,821
15.25833,914
15.26667,1023
15.27500,1151
15.28333,1299
15.29167,1472
15.30000,1672
15.30833,1901
15.31667,2163
15.32500,2462
15.33333,2800
15.34167,3181
15.35000,3608
15.35833,4084
15.36667,4612
15.37500,5196
15.38333,5837
15.39167,6538
15.40000,7301
15.40833,8126
15.41667,9014
15.42500,9966
15.43333,10979
15.44167,12054
15.45000,13186
15.45833,14374
15.46667,15613
15.47500,16899
15.48333,18226
15.49167,19587
15.50000,20976
15.50833,22385
15.51667,23806
15.52500,25231
15.53333,26649
15.54167,28052
15.55000,29431
15.55833,30774
15.56667,32074
15.57500,33321
15.58333,34505
15.59167,35618
15.60000,36653
15.60833,37601
15.61667,38456
15.62500,39213
15.63333,39867
15.64167,40414
15.65000,40851
15.65833,41175
15.66667,41385
15.67500,41482
15.68333,41468
15.69167,41342
15.70000,41109
15.70833,40771
15.71667,40333
15.72500,39800
15.73333,39177
15.74167,38471
15.75000,37687
15.75833,36834
15.76667,35916
15.77500,34943
15.78333,33920
15.79167,32856
15.80000,31757
15.80833,30631
15.81667,29484
15.82500,28323
15.83333,27153
15.84167,25982
15.85000,24815
15.85833,23657
15.86667,22512
15.87500,21385
15.88333,20280
15.89167,19200
15.90000,18148
15.90833,17128
15.91667,16140
15.92500,15186
15.93333,14269
15.94167,13390
15.95000,12547
15.95833,11744
15.96667,10978
15.97500,10251
15.98333,9562
15.99167,8911
16.00000,8296
16.00833,7717
16.01667,7173
16.02500,6662
16.03333,6183
16.04167,5736
16.05000,5319
16.05833,4930
16.06667,4569
16.07500,4232
16.08333,3920
16.09167,3631
16.10000,3363
16.10833,3116
16.11667,2887
16.12500,2677
16.13333,2483
16.14167,2304
16.15000,2140
16.15833,1989
16.16667,1850
16.17500,1722
16.18333,1605
16.19167,1498
16.20000,1400
16.20833,1309
16.21667,1227
16.22500,1151
16.23333,1081
16.24167,1017
16.25000,959
16.25833,905
16.26667,856
16.27500,811
16.28333,770
16.29167,732
16.30000,697
16.30833,665
16.31667,636
16.32500,609
16.33333,584
16.34167,561
16.35000,539
16.35833,520
16.36667,501
16.37500,485
16.38333,469
16.39167,455
16.40000,441
16.40833,428
16.41667,416
16.42500,405
16.43333,395
16.44167,386
16.45000,377
16.45833,368
16.46667,360
16.47500,353
16.48333,347
16.49167,340
16.50000,334
16.50833,329
16.51667,323
16.52500,318
16.53333,313
16.54167,308
16.55000,304
16.55833,300
16.56667,296
16.57500,292
16.58333,289
16.59167,286
16.60000,283
16.60833,279
16.61667,276
16.62500,274
16.63333,271
16.64167,268
16.65000,266
16.65833,264
16.66667,262
16.67500,259
16.68333,257
16.69167,256
16.70000,254
16.70833,252
16.71667,250
16.72500,249
16.73333,247
16.74167,245
16.75000,243
16.75833,241
16.76667,240
16.77500,238
16.78333,236
16.79167,235
16.80000,233
16.80833,232
16.81667,231
16.82500,230
16.83333,228
16.84167,226
16.85000,224
16.85833,223
16.86667,222
16.87500,220
16.88333,219
16.89167,218
16.90000,216
16.90833,215
16.91667,214
16.92500,213
16.93333,212
16.94167,211
16.95000,209
16.95833,208
16.96667,207
16.97500,206
16.98333,205
16.99167,203
17.00000,202
17.00833,201
17.01667,200
17.02500,199
17.03333,198
17.04167,197
17.05000,196
17.05833,195
17.06667,194
17.07500,193
17.08333,192
17.09167,191
17.10000,190
17.10833,189
17.11667,188
17.12500,187
17.13333,186
17.14167,185
17.15000,184
17.15833,183
17.16667,182
17.17500,182
17.18333,181
17.19167,180
17.20000,180
17.20833,179
17.21667,178
17.22500,177
17.23333,176
17.24167,175
17.25000,174
17.25833,174
17.26667,173
17.27500,172
17.28333,171
17.29167,170
17.30000,169
17.30833,168
17.31667,167
17.32500,166
17.33333,165
17.34167,165
17.35000,164
17.35833,163
17.36667,162
17.37500,161
17.38333,160
17.39167,159
17.40000,158
17.40833,157
17.41667,157
17.42500,156
17.43333,155
17.44167,155
17.45000,154
17.45833,153
17.46667,152
17.47500,152
17.48333,151
17.49167,150
17.50000,150
17.50833,150
17.51667,149
17.52500,148
17.53333,147
17.54167,147
17.55000,147
17.55833,146
17.56667,145
17.57500,144
17.58333,144
17.59167,143
17.60000,143
17.60833,142
17.61667,142
17.62500,141
17.63333,141
17.64167,141
17.65000,141
17.65833,140
17.66667,140
17.67500,140
17.68333,139
17.69167,139
17.70000,139
17.70833,138
17.71667,138
17.72500,138
17.73333,138
17.74167,137
17.75000,137
17.75833,137
17.76667,137
17.77500,136
17.78333,136
17.79167,136
17.80000,136
17.80833,136
17.81667,136
17.82500,136
17.83333,136
17.84167,135
17.85000,135
17.85833,134
17.86667,134
17.87500,133
17.88333,133
17.89167,133
17.90000,133
17.90833,133
17.91667,133
17.92500,133
17.93333,132
17.94167,132
17.95000,131
17.95833,131
17.96667,130
17.97500,130
17.98333,129
17.99167,129
18.00000,129
18.00833,129
18.01667,128
18.02500,128
18.03333,128
18.04167,127
18.05000,127
18.05833,127
18.06667,127
18.07500,126
18.08333,126
18.09167,126
18.10000,125
18.10833,125
18.11667,125
18.12500,125
18.13333,124
18.14167,124
18.15000,124
18.15833,124
18.16667,123
18.17500,123
18.18333,122
18.19167,122
18.20000,121
18.20833,120
18.21667,120
18.22500,119
18.23333,119
18.24167,119
18.25000,118
18.25833,118
18.26667,118
18.27500,117
18.28333,117
18.29167,116
18.30000,115
18.30833,115
18.31667,114
18.32500,114
18.33333,113
18.34167,113
18.35000,112
18.35833,112
18.36667,111
18.37500,110
18.38333,110
18.39167,109
18.40000,109
18.40833,108
18.41667,108
18.42500,108
18.43333,108
18.44167,107
18.45000,107
18.45833,107
18.46667,107
18.47500,106
18.48333,106
18.49167,106
18.50000,106
18.50833,106
18.51667,105
18.52500,105
18.53333,104
18.54167,104
18.55000,104
18.55833,104
18.56667,104
18.57500,104
18.58333,103
18.59167,103
18.60000,103
18.60833,102
18.61667,102
18.62500,102
18.63333,101
18.64167,101
18.65000,101
18.65833,102
18.66667,102
18.67500,102
18.68333,102
18.69167,103
18.70000,103
18.70833,103
18.71667,104
18.72500,105
18.73333,106
18.74167,107
18.75000,108
18.75833,109
18.76667,110
18.77500,111
18.78333,113
18.79167,115
18.80000,117
18.80833,119
18.81667,121
18.82500,124
18.83333,127
18.84167,129
18.85000,132
18.85833,135
18.86667,138
18.87500,142
18.88333,145
18.89167,148
18.90000,152
18.90833,155
18.91667,159
18.92500,163
18.93333,167
18.94167,171
18.95000,174
18.95833,178
18.96667,181
18.97500,184
18.98333,187
18.99167,190
19.00000,193
19.00833,195
19.01667,197
19.02500,200
19.03333,201
19.04167,202
19.05000,203
19.05833,204
19.06667,205
19.07500,205
19.08333,205
19.09167,205
19.10000,205
19.10833,204
19.11667,203
19.12500,201
19.13333,200
19.14167,198
19.15000,196
19.15833,193
19.16667,190
19.17500,188
19.18333,185
19.19167,182
19.20000,179
19.20833,175
19.21667,172
19.22500,168
19.23333,165
19.24167,161
19.25000,158
19.25833,155
19.26667,151
19.27500,148
19.28333,144
19.29167,141
19.30000,137
19.30833,134
19.31667,131
19.32500,128
19.33333,125
19.34167,123
19.35000,120
19.35833,118
19.36667,116
19.37500,114
19.38333,112
19.39167,110
19.40000,109
19.40833,107
19.41667,105
19.42500,103
19.43333,102
19.44167,101
19.45000,100
19.45833,99
19.46667,98
19.47500,98
19.48333,97
19.49167,96
19.50000,96
19.50833,95
19.51667,95
19.52500,94
19.53333,94
19.54167,93
19.55000,93
19.55833,92
19.56667,92
19.57500,92
19.58333,92
19.59167,92
19.60000,92
19.60833,91
19.61667,91
19.62500,91
19.63333,91
19.64167,91
19.65000,91
19.65833,91
19.66667,91
19.67500,91
19.68333,90
19.69167,90
19.70000,89
19.70833,89
19.71667,89
19.72500,88
19.73333,88
19.74167,88
19.75000,88
19.75833,87
19.76667,87
19.77500,87
19.78333,86
19.79167,86
19.80000,86
19.80833,86
19.81667,86
19.82500,86
19.83333,85
19.84167,85
19.85000,84
19.85833,83
19.86667,82
19.87500,82
19.88333,81
19.89167,81
19.90000,80
19.90833,80
19.91667,80
19.92500,80
19.93333,80
19.94167,79
19.95000,79
19.95833,79
19.96667,79
19.97500,79
19.98333,78
19.99167,78
20.00000,77
20.00833,77
20.01667,76
20.02500,76
20.03333,76
20.04167,76
20.05000,76
20.05833,75
20.06667,75
20.07500,75
20.08333,75
20.09167,75
20.10000,74
20.10833,74
20.11667,74
20.12500,74
20.13333,74
20.14167,74
20.15000,74
20.15833,74
20.16667,73
20.17500,72
20.18333,72
20.19167,72
20.20000,71
20.20833,71
20.21667,70
20.22500,70
20.23333,70
20.24167,70
20.25000,70
20.25833,70
20.26667,70
20.27500,69
20.28333,69
20.29167,68
20.30000,68
20.30833,68
20.31667,67
20.32500,67
20.33333,67
20.34167,67
20.35000,67
20.35833,67
20.36667,67
20.37500,66
20.38333,66
20.39167,67
20.40000,67
20.40833,66
20.41667,67
20.42500,67
20.43333,67
20.44167,67
20.45000,66
20.45833,66
20.46667,66
20.47500,66
20.48333,65
20.49167,65
20.50000,65
20.50833,65
20.51667,65
20.52500,66
20.53333,66
20.54167,66
20.55000,66
20.55833,66
20.56667,67
20.57500,67
20.58333,66
20.59167,66
20.60000,66
20.60833,66
20.61667,66
20.62500,66
20.63333,66
20.64167,66
20.65000,66
20.65833,67
20.66667,67
20.67500,67
20.68333,68
20.69167,68
20.70000,69
20.70833,68
20.71667,68
20.72500,68
20.73333,68
20.74167,68
20.75000,68
20.75833,68
20.76667,68
20.77500,68
20.78333,68
20.79167,68
20.80000,68
20.80833,69
20.81667,69
20.82500,69
20.83333,68
20.84167,68
20.85000,68
20.85833,68
20.86667,68
20.87500,68
20.88333,68
20.89167,68
20.90000,68
20.90833,68
20.91667,69
20.92500,69
20.93333,68
20.94167,69
20.95000,69
20.95833,69
20.96667,69
20.97500,69
20.98333,69
20.99167,68
21.00000,69
21.00833,69
21.01667,69
21.02500,70
21.03333,70
21.04167,70
21.05000,70
21.05833,70
21.06667,70
21.07500,70
21.08333,70
21.09167,70
21.10000,70
21.10833,71
21.11667,71
21.12500,71
21.13333,71
21.14167,71
21.15000,71
21.15833,72
21.16667,72
21.17500,73
21.18333,73
21.19167,73
21.20000,73
21.20833,73
21.21667,73
21.22500,73
21.23333,73
21.24167,73
21.25000,73
21.25833,73
21.26667,74
21.27500,74
21.28333,74
21.29167,73
21.30000,73
21.30833,73
21.31667,74
21.32500,74
21.33333,74
21.34167,74
21.35000,74
21.35833,74
21.36667,73
21.37500,73
21.38333,73
21.39167,73
21.40000,73
21.40833,73
21.41667,73
21.42500,73
21.43333,72
21.44167,72
21.45000,72
21.45833,72
21.46667,72
21.47500,72
21.48333,71
21.49167,71
21.50000,71
21.50833,70
21.51667,70
21.52500,70
21.53333,70
21.54167,69
21.55000,69
21.55833,68
21.56667,68
21.57500,67
21.58333,67
21.59167,66
21.60000,66
21.60833,66
21.61667,66
21.62500,65
21.63333,65
21.64167,65
21.65000,64
21.65833,64
21.66667,64
21.67500,63
21.68333,63
21.69167,63
21.70000,63
21.70833,62
21.71667,62
21.72500,62
21.73333,62
21.74167,61
21.75000,61
21.75833,62
21.76667,62
21.77500,61
21.78333,62
21.79167,62
21.80000,61
21.80833,61
21.81667,61
21.82500,61
21.83333,61
21.84167,60
21.85000,60
21.85833,60
21.86667,60
21.87500,60
21.88333,60
21.89167,60
21.90000,60
21.90833,60
21.91667,59
21.92500,59
21.93333,59
21.94167,60
21.95000,59
21.95833,59
21.96667,59
21.97500,59
21.98333,59
21.99167,59
22.00000,60
22.00833,60
22.01667,60
22.02500,60
22.03333,60
22.04167,60
22.05000,60
22.05833,60
22.06667,60
22.07500,60
22.08333,60
22.09167,60
22.10000,60
22.10833,60
22.11667,60
22.12500,61
22.13333,61
22.14167,61
22.15000,61
22.15833,61
22.16667,61
22.17500,62
22.18333,62
22.19167,62
22.20000,63
22.20833,63
22.21667,63
22.22500,64
22.23333,64
22.24167,64
22.25000,64
22.25833,64
22.26667,65
22.27500,66
22.28333,66
22.29167,66
22.30000,66
22.30833,66
22.31667,66
22.32500,67
22.33333,67
22.34167,67
22.35000,67
22.35833,68
22.36667,68
22.37500,68
22.38333,69
22.39167,69
22.40000,69
22.40833,70
22.41667,70
22.42500,70
22.43333,71
22.44167,71
22.45000,71
22.45833,71
22.46667,71
22.47500,71
22.48333,71
22.49167,71
22.50000,71
22.50833,71
22.51667,72
22.52500,72
22.53333,72
22.54167,72
22.55000,72
22.55833,72
22.56667,73
22.57500,73
22.58333,73
22.59167,73
22.60000,73
22.60833,73
22.61667,73
22.62500,73
22.63333,74
22.64167,74
22.65000,74
22.65833,75
22.66667,76
22.67500,76
22.68333,77
22.69167,77
22.70000,78
22.70833,78
22.71667,78
22.72500,79
22.73333,79
22.74167,80
22.75000,80
22.75833,81
22.76667,81
22.77500,81
22.78333,82
22.79167,82
22.80000,83
22.80833,83
22.81667,84
22.82500,84
22.83333,85
22.84167,85
22.85000,85
22.85833,86
22.86667,86
22.87500,86
22.88333,86
22.89167,86
22.90000,86
22.90833,86
22.91667,86
22.92500,86
22.93333,86
22.94167,86
22.95000,86
22.95833,86
22.96667,86
22.97500,85
22.98333,85
22.99167,85
23.00000,84
23.00833,84
23.01667,84
23.02500,83
23.03333,83
23.04167,82
23.05000,82
23.05833,81
23.06667,81
23.07500,80
23.08333,80
23.09167,79
23.10000,79
23.10833,78
23.11667,78
23.12500,78
23.13333,77
23.14167,76
23.15000,76
23.15833,76
23.16667,75
23.17500,75
23.18333,74
23.19167,74
23.20000,73
23.20833,73
23.21667,72
23.22500,72
23.23333,71
23.24167,71
23.25000,70
23.25833,70
23.26667,70
23.27500,70
23.28333,69
23.29167,69
23.30000,69
23.30833,68
23.31667,68
23.32500,68
23.33333,68
23.34167,68
23.35000,68
23.35833,68
23.36667,67
23.37500,67
23.38333,67
23.39167,67
23.40000,67
23.40833,67
23.41667,67
23.42500,67
23.43333,67
23.44167,67
23.45000,67
23.45833,67
23.46667,67
23.47500,67
23.48333,67
23.49167,66
23.50000,66
23.50833,66
23.51667,66
23.52500,66
23.53333,67
23.54167,67
23.55000,67
23.55833,67
23.56667,67
23.57500,67
23.58333,67
23.59167,67
23.60000,67
23.60833,67
23.61667,67
23.62500,67
23.63333,67
23.64167,67
23.65000,67
23.65833,67
23.66667,68
23.67500,68
23.68333,68
23.69167,68
23.70000,67
23.70833,67
23.71667,66
23.72500,67
23.73333,67
23.74167,67
23.75000,67
23.75833,67
23.76667,67
23.77500,67
23.78333,67
23.79167,67
23.80000,68
23.80833,68
23.81667,68
23.82500,69
23.83333,69
23.84167,69
23.85000,69
23.85833,69
23.86667,69
23.87500,69
23.88333,69
23.89167,69
23.90000,68
23.90833,68
23.91667,68
23.92500,68
23.93333,68
23.94167,69
23.95000,69
23.95833,69
23.96667,69
23.97500,69
23.98333,69
23.99167,69
24.00000,69
24.00833,69
24.01667,68
24.02500,69
24.03333,69
24.04167,69
24.05000,69
24.05833,69
24.06667,69
24.07500,69
24.08333,69
24.09167,69
24.10000,69
24.10833,69
24.11667,68
24.12500,68
24.13333,68
24.14167,68
24.15000,68
24.15833,68
24.16667,68
24.17500,68
24.18333,68
24.19167,68
24.20000,68
24.20833,68
24.21667,68
24.22500,67
24.23333,67
24.24167,68
24.25000,68
24.25833,68
24.26667,68
24.27500,68
24.28333,68
24.29167,68
24.30000,67
24.30833,67
24.31667,67
24.32500,67
24.33333,67
24.34167,66
24.35000,66
24.35833,66
24.36667,66
24.37500,66
24.38333,66
24.39167,66
24.40000,66
24.40833,66
24.41667,66
24.42500,65
24.43333,66
24.44167,66
24.45000,66
24.45833,67
24.46667,67
24.47500,67
24.48333,67
24.49167,68
24.50000,68
24.50833,69
24.51667,70
24.52500,71
24.53333,71
24.54167,72
24.55000,73
24.55833,74
24.56667,75
24.57500,77
24.58333,78
24.59167,80
24.60000,81
24.60833,83
24.61667,85
24.62500,87
24.63333,89
24.64167,92
24.65000,94
24.65833,98
24.66667,101
24.67500,104
24.68333,108
24.69167,111
24.70000,115
24.70833,120
24.71667,124
24.72500,130
24.73333,135
24.74167,141
24.75000,147
24.75833,153
24.76667,159
24.77500,165
24.78333,171
24.79167,178
24.80000,184
24.80833,191
24.81667,198
24.82500,205
24.83333,212
24.84167,219
24.85000,226
24.85833,233
24.86667,240
24.87500,247
24.88333,254
24.89167,260
24.90000,267
24.90833,273
24.91667,279
24.92500,285
24.93333,291
24.94167,296
24.95000,301
24.95833,305
24.96667,309
24.97500,313
24.98333,316
24.99167,319
25.00000,321
25.00833,323
25.01667,325
25.02500,326
25.03333,327
25.04167,327
25.05000,327
25.05833,326
25.06667,325
25.07500,323
25.08333,322
25.09167,319
25.10000,316
25.10833,313
25.11667,309
25.12500,305
25.13333,301
25.14167,296
25.15000,291
25.15833,285
25.16667,280
25.17500,274
25.18333,269
25.19167,263
25.20000,257
25.20833,251
25.21667,245
25.22500,239
25.23333,233
25.24167,227
25.25000,221
25.25833,215
25.26667,209
25.27500,203
25.28333,198
25.29167,192
25.30000,186
25.30833,181
25.31667,176
25.32500,171
25.33333,166
25.34167,161
25.35000,157
25.35833,152
25.36667,147
25.37500,143
25.38333,139
25.39167,135
25.40000,132
25.40833,128
25.41667,125
25.42500,122
25.43333,119
25.44167,116
25.45000,113
25.45833,111
25.46667,108
25.47500,106
25.48333,104
25.49167,102
25.50000,100
25.50833,98
25.51667,96
25.52500,94
25.53333,93
25.54167,91
25.55000,90
25.55833,89
25.56667,89
25.57500,88
25.58333,87
25.59167,86
25.60000,85
25.60833,84
25.61667,84
25.62500,83
25.63333,83
25.64167,82
25.65000,81
25.65833,81
25.66667,81
25.67500,81
25.68333,81
25.69167,81
25.70000,81
25.70833,81
25.71667,81
25.72500,80
25.73333,80
25.74167,80
25.75000,80
25.75833,79
25.76667,79
25.77500,79
25.78333,80
25.79167,80
25.80000,79
25.80833,79
25.81667,79
25.82500,79
25.83333,79
25.84167,79
25.85000,79
25.85833,79
25.86667,79
25.87500,79
25.88333,80
25.89167,80
25.90000,80
25.90833,80
25.91667,80
25.92500,80
25.93333,80
25.94167,81
25.95000,81
25.95833,81
25.96667,80
25.97500,80
25.98333,80
25.99167,80
26.00000,80
26.00833,80
26.01667,80
26.02500,80
26.03333,80
26.04167,80
26.05000,80
26.05833,80
26.06667,79
26.07500,79
26.08333,79
26.09167,79
26.10000,79
26.10833,80
26.11667,79
26.12500,79
26.13333,79
26.14167,80
26.15000,80
26.15833,80
26.16667,80
26.17500,80
26.18333,80
26.19167,80
26.20000,80
26.20833,80
26.21667,79
26.22500,79
26.23333,79
26.24167,79
26.25000,79
26.25833,79
26.26667,79
26.27500,79
26.28333,79
26.29167,78
26.30000,78
26.30833,78
26.31667,78
26.32500,78
26.33333,79
26.34167,78
26.35000,78
26.35833,78
26.36667,77
26.37500,77
26.38333,76
26.39167,76
26.40000,76
26.40833,76
26.41667,76
26.42500,76
26.43333,76
26.44167,76
26.45000,76
26.45833,76
26.46667,76
26.47500,76
26.48333,76
26.49167,76
26.50000,77
26.50833,77
26.51667,77
26.52500,77
26.53333,77
26.54167,77
26.55000,77
26.55833,77
26.56667,77
26.57500,77
26.58333,77
26.59167,77
26.60000,77
26.60833,78
26.61667,78
26.62500,78
26.63333,78
26.64167,78
26.65000,78
26.65833,78
26.66667,79
26.67500,79
26.68333,79
26.69167,79
26.70000,79
26.70833,79
26.71667,79
26.72500,79
26.73333,79
26.74167,79
26.75000,79
26.75833,79
26.76667,79
26.77500,79
26.78333,79
26.79167,79
26.80000,78
26.80833,78
26.81667,78
26.82500,78
26.83333,78
26.84167,77
26.85000,78
26.85833,77
26.86667,77
26.87500,77
26.88333,76
26.89167,76
26.90000,76
26.90833,76
26.91667,76
26.92500,76
26.93333,75
26.94167,75
26.95000,75
26.95833,75
26.96667,75
26.97500,75
26.98333,74
26.99167,74
27.00000,74
27.00833,74
27.01667,73
27.02500,73
27.03333,73
27.04167,72
27.05000,72
27.05833,72
27.06667,71
27.07500,71
27.08333,71
27.09167,71
27.10000,71
27.10833,71
27.11667,71
27.12500,71
27.13333,70
27.14167,70
27.15000,70
27.15833,69
27.16667,69
27.17500,69
27.18333,70
27.19167,70
27.20000,70
27.20833,70
27.21667,70
27.22500,69
27.23333,69
27.24167,69
27.25000,69
27.25833,69
27.26667,69
27.27500,69
27.28333,69
27.29167,69
27.30000,68
27.30833,68
27.31667,68
27.32500,68
27.33333,68
27.34167,68
27.35000,67
27.35833,67
27.36667,67
27.37500,66
27.38333,66
27.39167,66
27.40000,66
27.40833,66
27.41667,66
27.42500,66
27.43333,66
27.44167,65
27.45000,65
27.45833,65
27.46667,65
27.47500,65
27.48333,65
27.49167,65
27.50000,65
27.50833,64
27.51667,64
27.52500,63
27.53333,63
27.54167,63
27.55000,63
27.55833,63
27.56667,63
27.57500,63
27.58333,63
27.59167,63
27.60000,63
27.60833,63
27.61667,63
27.62500,63
27.63333,63
27.64167,63
27.65000,63
27.65833,62
27.66667,63
27.67500,62
27.68333,62
27.69167,62
27.70000,62
27.70833,63
27.71667,63
27.72500,63
27.73333,63
27.74167,62
27.75000,62
27.75833,62
27.76667,61
27.77500,61
27.78333,61
27.79167,60
27.80000,60
27.80833,60
27.81667,60
27.82500,59
27.83333,58
27.84167,57
27.85000,57
27.85833,56
27.86667,55
27.87500,55
27.88333,54
27.89167,53
27.90000,52
27.90833,51
27.91667,50
27.92500,48
27.93333,46
27.94167,45
27.95000,43
27.95833,41
27.96667,39
27.97500,37
27.98333,34
27.99167,32
28.00000,29
28.00833,27
28.01667,24
28.02500,22
28.03333,19
28.04167,16
28.05000,13
28.05833,10
28.06667,6
28.07500,3
28.08333,-0
28.09167,-4
28.10000,-7
28.10833,-10
28.11667,-13
28.12500,-17
28.13333,-21
28.14167,-24
28.15000,-27
28.15833,-31
28.16667,-34
28.17500,-37
28.18333,-40
28.19167,-43
28.20000,-46
28.20833,-49
28.21667,-52
28.22500,-55
28.23333,-58
28.24167,-61
28.25000,-63
28.25833,-66
28.26667,-68
28.27500,-70
28.28333,-72
28.29167,-73
28.30000,-75
28.30833,-76
28.31667,-77
28.32500,-78
28.33333,-79
28.34167,-80
28.35000,-81
28.35833,-81
28.36667,-81
28.37500,-81
28.38333,-81
28.39167,-81
28.40000,-81
28.40833,-80
28.41667,-79
28.42500,-78
28.43333,-76
28.44167,-75
28.45000,-73
28.45833,-72
28.46667,-70
28.47500,-68
28.48333,-66
28.49167,-63
28.50000,-61
28.50833,-59
28.51667,-57
28.52500,-54
28.53333,-52
28.54167,-48
28.55000,-45
28.55833,-42
28.56667,-40
28.57500,-37
28.58333,-34
28.59167,-31
28.60000,-28
28.60833,-25
28.61667,-22
28.62500,-18
28.63333,-16
28.64167,-13
28.65000,-10
28.65833,-7
28.66667,-5
28.67500,-2
28.68333,1
28.69167,4
28.70000,7
28.70833,10
28.71667,13
28.72500,15
28.73333,17
28.74167,20
28.75000,22
28.75833,25
28.76667,27
28.77500,29
28.78333,32
28.79167,34
28.80000,36
28.80833,38
28.81667,40
28.82500,42
28.83333,44
28.84167,46
28.85000,48
28.85833,49
28.86667,51
28.87500,52
28.88333,54
28.89167,56
28.90000,57
28.90833,58
28.91667,59
28.92500,60
28.93333,61
28.94167,62
28.95000,63
28.95833,64
28.96667,65
28.97500,66
28.98333,67
28.99167,67
29.00000,68
29.00833,69
29.01667,69
29.02500,70
29.03333,70
29.04167,71
29.05000,72
29.05833,72
29.06667,73
29.07500,74
29.08333,74
29.09167,74
29.10000,74
29.10833,74
29.11667,75
29.12500,75
29.13333,75
29.14167,76
29.15000,76
29.15833,76
29.16667,77
29.17500,77
29.18333,77
29.19167,77
29.20000,77
29.20833,77
29.21667,77
29.22500,77
29.23333,77
29.24167,78
29.25000,78
29.25833,78
29.26667,77
29.27500,77
29.28333,77
29.29167,77
29.30000,77
29.30833,77
29.31667,77
29.32500,77
29.33333,76
29.34167,75
29.35000,75
29.35833,74
29.36667,74
29.37500,74
29.38333,74
29.39167,74
29.40000,73
29.40833,73
29.41667,73
29.42500,73
29.43333,72
29.44167,72
29.45000,72
29.45833,71
29.46667,71
29.47500,70
29.48333,70
29.49167,70
29.50000,69
29.50833,69
29.51667,69
29.52500,68
29.53333,68
29.54167,67
29.55000,67
29.55833,66
29.56667,65
29.57500,65
29.58333,64
29.59167,64
29.60000,63
29.60833,63
29.61667,62
29.62500,61
29.63333,60
29.64167,60
29.65000,59
29.65833,58
29.66667,57
29.67500,56
29.68333,55
29.69167,54
29.70000,53
29.70833,52
29.71667,51
29.72500,50
29.73333,49
29.74167,48
29.75000,47
29.75833,46
29.76667,45
29.77500,44
29.78333,42
29.79167,41
29.80000,40
29.80833,39
29.81667,37
29.82500,36
29.83333,35
29.84167,33
29.85000,32
29.85833,31
29.86667,30
29.87500,29
29.88333,28
29.89167,27
29.90000,26
29.90833,25
29.91667,24
29.92500,23
29.93333,22
29.94167,21
29.95000,20
29.95833,19
29.96667,18
29.97500,18
29.98333,16
29.99167,15
30.00000,15
30.00833,14
30.01667,14
30.02500,13
30.03333,13
30.04167,12
30.05000,12
30.05833,12
30.06667,12
30.07500,11
30.08333,11
30.09167,11
30.10000,11
30.10833,11
30.11667,12
30.12500,12
30.13333,13
30.14167,13
30.15000,13
30.15833,14
30.16667,14
30.17500,14
30.18333,15
30.19167,15
30.20000,16
30.20833,17
30.21667,18
30.22500,19
30.23333,20
30.24167,21
30.25000,22
30.25833,23
30.26667,23
30.27500,24
30.28333,25
30.29167,26
30.30000,27
30.30833,28
30.31667,29
30.32500,31
30.33333,32
30.34167,33
30.35000,34
30.35833,35
30.36667,37
30.37500,38
30.38333,39
30.39167,41
30.40000,42
30.40833,43
30.41667,43
30.42500,44
30.43333,45
30.44167,47
30.45000,48
30.45833,49
30.46667,50
30.47500,51
30.48333,52
30.49167,52
30.50000,53
30.50833,54
30.51667,55
30.52500,56
30.53333,57
30.54167,58
30.55000,59
30.55833,59
30.56667,60
30.57500,60
30.58333,61
30.59167,62
30.60000,62
30.60833,63
30.61667,63
30.62500,64
30.63333,65
30.64167,66
30.65000,66
30.65833,66
30.66667,66
30.67500,67
30.68333,67
30.69167,67
30.70000,67
30.70833,68
30.71667,68
30.72500,68
30.73333,69
30.74167,69
30.75000,69
30.75833,68
30.76667,68
30.77500,68
30.78333,68
30.79167,68
30.80000,68
30.80833,68
30.81667,68
30.82500,68
30.83333,68
30.84167,68
30.85000,67
30.85833,67
30.86667,67
30.87500,67
30.88333,67
30.89167,67
30.90000,67
30.90833,66
30.91667,66
30.92500,66
30.93333,66
30.94167,66
30.95000,65
30.95833,65
30.96667,65
30.97500,65
30.98333,65
30.99167,65
31.00000,65
31.00833,65
31.01667,65
31.02500,65
31.03333,65
31.04167,65
31.05000,65
31.05833,65
31.06667,65
31.07500,65
31.08333,65
31.09167,65
31.10000,65
31.10833,65
31.11667,65
31.12500,65
31.13333,66
31.14167,66
31.15000,66
31.15833,66
31.16667,67
31.17500,67
31.18333,68
31.19167,68
31.20000,68
31.20833,68
31.21667,69
31.22500,69
31.23333,70
31.24167,70
31.25000,70
31.25833,70
31.26667,70
31.27500,70
31.28333,70
31.29167,71
31.30000,71
31.30833,72
31.31667,72
31.32500,73
31.33333,73
31.34167,73
31.35000,74
31.35833,74
31.36667,74
31.37500,74
31.38333,74
31.39167,75
31.40000,75
31.40833,75
31.41667,75
31.42500,75
31.43333,76
31.44167,76
31.45000,76
31.45833,76
31.46667,76
31.47500,76
31.48333,77
31.49167,77
31.50000,77
31.50833,77
31.51667,78
31.52500,78
31.53333,78
31.54167,77
31.55000,77
31.55833,77
31.56667,77
31.57500,77
31.58333,77
31.59167,77
31.60000,77
31.60833,77
31.61667,77
31.62500,77
31.63333,77
31.64167,77
31.65000,78
31.65833,77
31.66667,77
31.67500,77
31.68333,77
31.69167,77
31.70000,77
31.70833,77
31.71667,77
31.72500,77
31.73333,76
31.74167,76
31.75000,76
31.75833,77
31.76667,77
31.77500,77
31.78333,76
31.79167,76
31.80000,76
31.80833,76
31.81667,76
31.82500,76
31.83333,76
31.84167,76
31.85000,76
31.85833,76
31.86667,76
31.87500,76
31.88333,76
31.89167,76
31.90000,76
31.90833,76
31.91667,75
31.92500,75
31.93333,75
31.94167,75
31.95000,74
31.95833,74
31.96667,74
31.97500,74
31.98333,74
31.99167,74
32.00000,74
32.00833,73
32.01667,73
32.02500,73
32.03333,73
32.04167,73
32.05000,73
32.05833,74
32.06667,74
32.07500,74
32.08333,74
32.09167,73
32.10000,73
32.10833,74
32.11667,74
32.12500,73
32.13333,73
32.14167,73
32.15000,74
32.15833,74
32.16667,74
32.17500,74
32.18333,74
32.19167,74
32.20000,74
32.20833,74
32.21667,75
32.22500,75
32.23333,75
32.24167,76
32.25000,76
32.25833,76
32.26667,76
32.27500,76
32.28333,76
32.29167,76
32.30000,76
32.30833,77
32.31667,76
32.32500,76
32.33333,76
32.34167,76
32.35000,77
32.35833,77
32.36667,76
32.37500,77
32.38333,77
32.39167,77
32.40000,77
32.40833,77
32.41667,77
32.42500,77
32.43333,78
32.44167,78
32.45000,78
32.45833,78
32.46667,78
32.47500,78
32.48333,78
32.49167,78
32.50000,78
32.50833,77
32.51667,77
32.52500,77
32.53333,78
32.54167,78
32.55000,79
32.55833,79
32.56667,79
32.57500,79
32.58333,79
32.59167,79
32.60000,80
32.60833,80
32.61667,80
32.62500,80
32.63333,81
32.64167,80
32.65000,81
32.65833,81
32.66667,81
32.67500,81
32.68333,81
32.69167,82
32.70000,83
32.70833,83
32.71667,84
32.72500,84
32.73333,85
32.74167,84
32.75000,84
32.75833,85
32.76667,85
32.77500,85
32.78333,86
32.79167,86
32.80000,87
32.80833,87
32.81667,87
32.82500,88
32.83333,88
32.84167,89
32.85000,89
32.85833,89
32.86667,89
32.87500,89
32.88333,89
32.89167,89
32.90000,90
32.90833,90
32.91667,90
32.92500,90
32.93333,90
32.94167,90
32.95000,90
32.95833,90
32.96667,90
32.97500,90
32.98333,90
32.99167,90
33.00000,90
33.00833,90
33.01667,90
33.02500,90
33.03333,89
33.04167,89
33.05000,89
33.05833,90
33.06667,90
33.07500,90
33.08333,90
33.09167,89
33.10000,89
33.10833,89
33.11667,89
33.12500,89
33.13333,89
33.14167,88
33.15000,88
33.15833,88
33.16667,88
33.17500,87
33.18333,87
33.19167,87
33.20000,86
33.20833,86
33.21667,86
33.22500,85
33.23333,85
33.24167,85
33.25000,85
33.25833,84
33.26667,84
33.27500,84
33.28333,84
33.29167,84
33.30000,84
33.30833,84
33.31667,84
33.32500,83
33.33333,82
33.34167,82
33.35000,82
33.35833,82
33.36667,82
33.37500,82
33.38333,82
33.39167,82
33.40000,81
33.40833,81
33.41667,81
33.42500,80
33.43333,80
33.44167,80
33.45000,80
33.45833,80
33.46667,80
33.47500,80
33.48333,80
33.49167,80
33.50000,80
33.50833,80
33.51667,80
33.52500,80
33.53333,80
33.54167,80
33.55000,80
33.55833,81
33.56667,81
33.57500,81
33.58333,82
33.59167,82
33.60000,82
33.60833,82
33.61667,82
33.62500,82
33.63333,83
33.64167,83
33.65000,83
33.65833,84
33.66667,84
33.67500,84
33.68333,84
33.69167,84
33.70000,85
33.70833,85
33.71667,85
33.72500,85
33.73333,85
33.74167,86
33.75000,85
33.75833,85
33.76667,85
33.77500,85
33.78333,85
33.79167,86
33.80000,86
33.80833,86
33.81667,86
33.82500,85
33.83333,85
33.84167,85
33.85000,85
33.85833,85
33.86667,85
33.87500,85
33.88333,85
33.89167,84
33.90000,84
33.90833,84
33.91667,84
33.92500,84
33.93333,84
33.94167,84
33.95000,84
33.95833,84
33.96667,84
33.97500,84
33.98333,84
33.99167,84
34.00000,84
34.00833,84
34.01667,84
34.02500,84
34.03333,84
34.04167,84
34.05000,84
34.05833,84
34.06667,83
34.07500,83
34.08333,83
34.09167,82
34.10000,82
34.10833,82
34.11667,82
34.12500,81
34.13333,81
34.14167,81
34.15000,81
34.15833,80
34.16667,80
34.17500,79
34.18333,79
34.19167,79
34.20000,79
34.20833,79
34.21667,79
34.22500,79
34.23333,79
34.24167,79
34.25000,79
34.25833,78
34.26667,78
34.27500,78
34.28333,78
34.29167,77
34.30000,77
34.30833,77
34.31667,77
34.32500,77
34.33333,77
34.34167,78
34.35000,77
34.35833,77
34.36667,77
34.37500,77
34.38333,77
34.39167,77
34.40000,77
34.40833,77
34.41667,77
34.42500,77
34.43333,77
34.44167,78
34.45000,78
34.45833,78
34.46667,78
34.47500,78
34.48333,78
34.49167,78
34.50000,78
34.50833,78
34.51667,78
34.52500,79
34.53333,78
34.54167,78
34.55000,79
34.55833,79
34.56667,79
34.57500,79
34.58333,79
34.59167,80
34.60000,80
34.60833,80
34.61667,80
34.62500,80
34.63333,80
34.64167,80
34.65000,80
34.65833,80
34.66667,80
34.67500,80
34.68333,80
34.69167,80
34.70000,81
34.70833,81
34.71667,81
34.72500,81
34.73333,81
34.74167,81
34.75000,81
34.75833,82
34.76667,83
34.77500,83
34.78333,83
34.79167,83
34.80000,83
34.80833,83
34.81667,83
34.82500,83
34.83333,83
34.84167,83
34.85000,83
34.85833,84
34.86667,84
34.87500,84
34.88333,84
34.89167,84
34.90000,84
34.90833,84
34.91667,84
34.92500,84
34.93333,85
34.94167,85
34.95000,85
34.95833,85
34.96667,85
34.97500,85
34.98333,85
34.99167,85
35.00000,85
35.00833,85
35.01667,85
35.02500,86
35.03333,86
35.04167,86
35.05000,86
35.05833,86
35.06667,86
35.07500,86
35.08333,86
35.09167,86
35.10000,86
35.10833,86
35.11667,86
35.12500,86
35.13333,86
35.14167,86
35.15000,86
35.15833,86
35.16667,86
35.17500,87
35.18333,87
35.19167,87
35.20000,88
35.20833,88
35.21667,88
35.22500,88
35.23333,88
35.24167,89
35.25000,89
35.25833,89
35.26667,89
35.27500,90
35.28333,90
35.29167,90
35.30000,90
35.30833,90
35.31667,90
35.32500,90
35.33333,90
35.34167,90
35.35000,90
35.35833,90
35.36667,90
35.37500,90
35.38333,90
35.39167,90
35.40000,90
35.40833,91
35.41667,91
35.42500,91
35.43333,91
35.44167,91
35.45000,91
35.45833,90
35.46667,90
35.47500,90
35.48333,90
35.49167,90
35.50000,90
35.50833,90
35.51667,90
35.52500,90
35.53333,90
35.54167,90
35.55000,90
35.55833,90
35.56667,90
35.57500,90
35.58333,90
35.59167,90
35.60000,90
35.60833,90
35.61667,90
35.62500,90
35.63333,89
35.64167,89
35.65000,89
35.65833,90
35.66667,90
35.67500,90
35.68333,90
35.69167,90
35.70000,89
35.70833,90
35.71667,90
35.72500,90
35.73333,90
35.74167,90
35.75000,89
35.75833,89
35.76667,90
35.77500,90
35.78333,91
35.79167,91
35.80000,91
35.80833,91
35.81667,91
35.82500,91
35.83333,91
35.84167,91
35.85000,91
35.85833,91
35.86667,92
35.87500,92
35.88333,92
35.89167,92
35.90000,92
35.90833,92
35.91667,92
35.92500,92
35.93333,92
35.94167,92
35.95000,93
35.95833,93
35.96667,93
35.97500,93
35.98333,93
35.99167,93
36.00000,93
36.00833,93
36.01667,93
36.02500,93
36.03333,93
36.04167,93
36.05000,93
36.05833,93
36.06667,93
36.07500,93
36.08333,92
36.09167,92
36.10000,92
36.10833,92
36.11667,91
36.12500,91
36.13333,91
36.14167,91
36.15000,91
36.15833,91
36.16667,91
36.17500,91
36.18333,91
36.19167,91
36.20000,91
36.20833,91
36.21667,91
36.22500,91
36.23333,91
36.24167,91
36.25000,91
36.25833,92
36.26667,92
36.27500,92
36.28333,92
36.29167,91
36.30000,91
36.30833,91
36.31667,91
36.32500,91
36.33333,91
36.34167,91
36.35000,91
36.35833,91
36.36667,91
36.37500,91
36.38333,91
36.39167,90
36.40000,90
36.40833,90
36.41667,90
36.42500,90
36.43333,89
36.44167,89
36.45000,89
36.45833,89
36.46667,89
36.47500,89
36.48333,89
36.49167,89
36.50000,89
36.50833,88
36.51667,88
36.52500,88
36.53333,88
36.54167,88
36.55000,88
36.55833,88
36.56667,87
36.57500,87
36.58333,87
36.59167,87
36.60000,87
36.60833,86
36.61667,86
36.62500,86
36.63333,86
36.64167,86
36.65000,86
36.65833,86
36.66667,86
36.67500,86
36.68333,86
36.69167,86
36.70000,86
36.70833,86
36.71667,86
36.72500,86
36.73333,86
36.74167,86
36.75000,86
36.75833,86
36.76667,86
36.77500,86
36.78333,86
36.79167,86
36.80000,86
36.80833,86
36.81667,86
36.82500,87
36.83333,87
36.84167,88
36.85000,88
36.85833,88
36.86667,88
36.87500,88
36.88333,89
36.89167,89
36.90000,90
36.90833,90
36.91667,90
36.92500,90
36.93333,91
36.94167,91
36.95000,91
36.95833,91
36.96667,91
36.97500,92
36.98333,92
36.99167,93
37.00000,94
37.00833,94
37.01667,95
37.02500,95
37.03333,96
37.04167,96
37.05000,96
37.05833,97
37.06667,97
37.07500,97
37.08333,97
37.09167,97
37.10000,97
37.10833,97
37.11667,97
37.12500,98
37.13333,98
37.14167,98
37.15000,98
37.15833,98
37.16667,98
37.17500,99
37.18333,99
37.19167,99
37.20000,100
37.20833,100
37.21667,100
37.22500,100
37.23333,99
37.24167,99
37.25000,99
37.25833,99
37.26667,99
37.27500,98
37.28333,98
37.29167,98
37.30000,99
37.30833,99
37.31667,98
37.32500,98
37.33333,98
37.34167,99
37.35000,99
37.35833,99
37.36667,99
37.37500,99
37.38333,99
37.39167,99
37.40000,99
37.40833,99
37.41667,99
37.42500,99
37.43333,99
37.44167,99
37.45000,98
37.45833,98
37.46667,98
37.47500,98
37.48333,98
37.49167,97
37.50000,97
37.50833,97
37.51667,97
37.52500,97
37.53333,96
37.54167,96
37.55000,96
37.55833,96
37.56667,96
37.57500,96
37.58333,96
37.59167,95
37.60000,95
37.60833,95
37.61667,95
37.62500,95
37.63333,94
37.64167,94
37.65000,94
37.65833,93
37.66667,93
37.67500,93
37.68333,92
37.69167,92
37.70000,92
37.70833,92
37.71667,92
37.72500,92
37.73333,91
37.74167,91
37.75000,91
37.75833,91
37.76667,91
37.77500,91
37.78333,91
37.79167,91
37.80000,91
37.80833,91
37.81667,90
37.82500,90
37.83333,90
37.84167,89
37.85000,89
37.85833,89
37.86667,90
37.87500,90
37.88333,90
37.89167,90
37.90000,90
37.90833,90
37.91667,89
37.92500,89
37.93333,89
37.94167,90
37.95000,90
37.95833,90
37.96667,90
37.97500,90
37.98333,90
37.99167,90
38.00000,90
38.00833,91
38.01667,91
38.02500,91
38.03333,91
38.04167,91
38.05000,91
38.05833,92
38.06667,92
38.07500,93
38.08333,93
38.09167,94
38.10000,94
38.10833,94
38.11667,94
38.12500,95
38.13333,95
38.14167,95
38.15000,96
38.15833,96
38.16667,96
38.17500,96
38.18333,96
38.19167,96
38.20000,96
38.20833,96
38.21667,97
38.22500,97
38.23333,97
38.24167,98
38.25000,98
38.25833,98
38.26667,98
38.27500,98
38.28333,98
38.29167,98
38.30000,98
38.30833,98
38.31667,98
38.32500,98
38.33333,98
38.34167,98
38.35000,98
38.35833,98
38.36667,99
38.37500,99
38.38333,98
38.39167,98
38.40000,98
38.40833,98
38.41667,98
38.42500,98
38.43333,98
38.44167,98
38.45000,98
38.45833,98
38.46667,98
38.47500,98
38.48333,98
38.49167,98
38.50000,97
38.50833,97
38.51667,97
38.52500,97
38.53333,97
38.54167,97
38.55000,97
38.55833,97
38.56667,97
38.57500,96
38.58333,96
38.59167,96
38.60000,96
38.60833,96
38.61667,95
38.62500,95
38.63333,95
38.64167,95
38.65000,95
38.65833,95
38.66667,95
38.67500,94
38.68333,93
38.69167,93
38.70000,92
38.70833,92
38.71667,92
38.72500,92
38.73333,91
38.74167,91
38.75000,91
38.75833,91
38.76667,91
38.77500,91
38.78333,91
38.79167,90
38.80000,90
38.80833,89
38.81667,89
38.82500,89
38.83333,88
38.84167,88
38.85000,88
38.85833,88
38.86667,88
38.87500,88
38.88333,88
38.89167,87
38.90000,87
38.90833,87
38.91667,87
38.92500,87
38.93333,87
38.94167,86
38.95000,86
38.95833,86
38.96667,86
38.97500,87
38.98333,87
38.99167,87
39.00000,87
39.00833,87
39.01667,87
39.02500,87
39.03333,87
39.04167,87
39.05000,88
39.05833,88
39.06667,87
39.07500,87
39.08333,87
39.09167,87
39.10000,87
39.10833,87
39.11667,87
39.12500,87
39.13333,87
39.14167,87
39.15000,87
39.15833,87
39.16667,87
39.17500,87
39.18333,87
39.19167,87
39.20000,88
39.20833,88
39.21667,88
39.22500,88
39.23333,88
39.24167,88
39.25000,89
39.25833,89
39.26667,89
39.27500,89
39.28333,89
39.29167,89
39.30000,89
39.30833,89
39.31667,89
39.32500,90
39.33333,90
39.34167,90
39.35000,91
39.35833,91
39.36667,91
39.37500,91
39.38333,91
39.39167,91
39.40000,92
39.40833,92
39.41667,92
39.42500,92
39.43333,92
39.44167,92
39.45000,93
39.45833,93
39.46667,94
39.47500,94
39.48333,94
39.49167,95
39.50000,95
39.50833,96
39.51667,96
39.52500,97
39.53333,97
39.54167,97
39.55000,98
39.55833,98
39.56667,98
39.57500,99
39.58333,99
39.59167,100
39.60000,100
39.60833,100
39.61667,100
39.62500,101
39.63333,101
39.64167,101
39.65000,101
39.65833,101
39.66667,101
39.67500,102
39.68333,103
39.69167,103
39.70000,103
39.70833,103
39.71667,103
39.72500,103
39.73333,103
39.74167,103
39.75000,104
39.75833,104
39.76667,104
39.77500,104
39.78333,104
39.79167,104
39.80000,104
39.80833,104
39.81667,104
39.82500,104
39.83333,103
39.84167,103
39.85000,103
39.85833,102
39.86667,102
39.87500,102
39.88333,103
39.89167,102
39.90000,102
39.90833,102
39.91667,102
39.92500,102
39.93333,102
39.94167,102
39.95000,101
39.95833,101
39.96667,101
39.97500,101
39.98333,101
39.99167,101
40.00000,101

