[Header]
Application Name,LabSolutions
Version,5.97 SP1
Data File Name,C:\Users\cremerlab\Desktop\griffin\2021-02-15_NCM_diauxie_turnover\2021-02-15_NCM_acetate_glucose_diauxie_turnover_2152021_004.lcd
Output Date,2/16/2021
Output Time,11:18:02 AM

[File Information]
Type,Data File
Generated,2/15/2021 9:56:20 PM
Generated by,System Administrator
Modified,2/15/2021 10:26:39 PM
Modified by,System Administrator

[Sample Information]
Operator Name,System Administrator
Acquired,2/15/2021 9:56:38 PM
Sample Type,0:Unknown
Level,0
Sample Name,NCM diauxic shift timepoint 4
Sample ID,004
ISTD Amount1,1
ISTD Amount2,1
ISTD Amount3,1
ISTD Amount4,1
ISTD Amount5,1
ISTD Amount6,1
ISTD Amount7,1
ISTD Amount8,1
ISTD Amount9,1
ISTD Amount10,1
ISTD Amount11,1
ISTD Amount12,1
ISTD Amount13,1
ISTD Amount14,1
ISTD Amount15,1
ISTD Amount16,1
ISTD Amount17,1
ISTD Amount18,1
ISTD Amount19,1
ISTD Amount20,1
ISTD Amount21,1
ISTD Amount22,1
ISTD Amount23,1
ISTD Amount24,1
ISTD Amount25,1
ISTD Amount26,1
ISTD Amount27,1
ISTD Amount28,1
ISTD Amount29,1
ISTD Amount30,1
ISTD Amount31,1
ISTD Amount32,1
Sample Amount,1
Dilution Factor,1
Vial#,4
Injection Volume,20

[Original Files]
Data File,C:\Users\cremerlab\Desktop\griffin\2021-02-15_NCM_diauxie_turnover\2021-02-15_NCM_acetate_glucose_diauxie_turnover_2152021_004.lcd
Method File,C:\LabSolutions\Data\Project1\organicacidsetc.lcm
Batch File,C:\Users\cremerlab\Desktop\griffin\2021-02-15_NCM_diauxie_turnover\2021-02-15_NCM_acetate_glucose_diauxie_turnover.lcb
Report Format File,c:\LabSolutions\System\DEFAULT.lsr

[File Description]


[Configuration]
Instrument Name,HPLC-PC-Instrument1
Instrument #,1
Line #,1
# of Detectors,2
Detector ID,Detector A,Detector B
Detector Name,Detector A,Detector B
# of Channels,1,1

[Peak Table(Detector A)]
# of Peaks,0

[Peak Table(Detector B)]
# of Peaks,5
Peak#,R.Time,I.Time,F.Time,Area,Height,A/H,Conc.,Mark,ID#,Name,k',Plate #,Plate Ht.,Tailing,Resolution,Sep.Factor,Area Ratio,Height Ratio,Conc. %,Norm Conc.
1,10.876,10.625,11.433,123196,7888,15.618,0.000,   ,,,0.000,10950,13.698,1.255,0.000,0.000,0,0,0.000,0.000
2,13.404,12.583,14.667,447428,17622,25.390,0.000, V ,,,0.232,5822,25.763,0.729,4.522,0.000,0,0,0.000,0.000
3,15.549,15.275,16.075,1340,64,20.923,0.000,   ,,,0.430,12094,12.403,1.272,3.383,1.848,0,0,0.000,0.000
4,24.910,24.292,25.692,38162,1355,28.173,0.000,   ,,,1.290,17997,8.335,1.063,14.309,3.003,0,0,0.000,0.000
5,29.740,28.675,29.967,10438,144,72.417,0.000,   ,,,1.735,8756,17.131,0.607,4.796,1.344,0,0,0.000,0.000

[Compound Results(Detector A)]
# of IDs,0

[Compound Results(Detector B)]
# of IDs,0

[LC Chromatogram(Detector B-Ch1)]
Interval(msec),500
# of Points,3601
Start Time(min),0.000
End Time(min),30.000
Intensity Units,mV
Intensity Multiplier,0.001
R.Time (min),Intensity
0.00000,-114
0.00833,-114
0.01667,-0
0.02500,-0
0.03333,-0
0.04167,-2
0.05000,-5
0.05833,-7
0.06667,-10
0.07500,-11
0.08333,-12
0.09167,-11
0.10000,-9
0.10833,-7
0.11667,-4
0.12500,-1
0.13333,2
0.14167,5
0.15000,8
0.15833,10
0.16667,13
0.17500,16
0.18333,18
0.19167,21
0.20000,24
0.20833,27
0.21667,30
0.22500,33
0.23333,36
0.24167,40
0.25000,43
0.25833,47
0.26667,50
0.27500,53
0.28333,56
0.29167,59
0.30000,62
0.30833,65
0.31667,68
0.32500,72
0.33333,75
0.34167,78
0.35000,81
0.35833,84
0.36667,87
0.37500,90
0.38333,93
0.39167,96
0.40000,99
0.40833,103
0.41667,106
0.42500,109
0.43333,112
0.44167,115
0.45000,118
0.45833,121
0.46667,123
0.47500,126
0.48333,129
0.49167,132
0.50000,134
0.50833,137
0.51667,139
0.52500,142
0.53333,145
0.54167,148
0.55000,150
0.55833,153
0.56667,156
0.57500,159
0.58333,162
0.59167,165
0.60000,167
0.60833,170
0.61667,172
0.62500,175
0.63333,177
0.64167,178
0.65000,179
0.65833,179
0.66667,180
0.67500,181
0.68333,181
0.69167,182
0.70000,183
0.70833,183
0.71667,184
0.72500,185
0.73333,186
0.74167,187
0.75000,188
0.75833,190
0.76667,191
0.77500,192
0.78333,194
0.79167,195
0.80000,197
0.80833,198
0.81667,199
0.82500,201
0.83333,202
0.84167,204
0.85000,205
0.85833,206
0.86667,207
0.87500,208
0.88333,208
0.89167,209
0.90000,210
0.90833,211
0.91667,212
0.92500,213
0.93333,214
0.94167,215
0.95000,216
0.95833,216
0.96667,217
0.97500,218
0.98333,218
0.99167,218
1.00000,219
1.00833,220
1.01667,220
1.02500,220
1.03333,221
1.04167,221
1.05000,222
1.05833,222
1.06667,223
1.07500,223
1.08333,224
1.09167,224
1.10000,225
1.10833,225
1.11667,225
1.12500,226
1.13333,227
1.14167,227
1.15000,228
1.15833,229
1.16667,229
1.17500,230
1.18333,231
1.19167,231
1.20000,232
1.20833,232
1.21667,233
1.22500,233
1.23333,233
1.24167,234
1.25000,234
1.25833,235
1.26667,236
1.27500,236
1.28333,237
1.29167,237
1.30000,238
1.30833,238
1.31667,239
1.32500,240
1.33333,240
1.34167,241
1.35000,242
1.35833,243
1.36667,243
1.37500,244
1.38333,245
1.39167,245
1.40000,246
1.40833,247
1.41667,248
1.42500,248
1.43333,249
1.44167,249
1.45000,250
1.45833,250
1.46667,251
1.47500,251
1.48333,251
1.49167,252
1.50000,252
1.50833,253
1.51667,253
1.52500,254
1.53333,255
1.54167,255
1.55000,256
1.55833,257
1.56667,257
1.57500,258
1.58333,258
1.59167,259
1.60000,259
1.60833,260
1.61667,260
1.62500,261
1.63333,261
1.64167,262
1.65000,263
1.65833,264
1.66667,265
1.67500,265
1.68333,266
1.69167,266
1.70000,267
1.70833,267
1.71667,268
1.72500,269
1.73333,269
1.74167,270
1.75000,271
1.75833,272
1.76667,273
1.77500,274
1.78333,275
1.79167,276
1.80000,277
1.80833,277
1.81667,278
1.82500,279
1.83333,280
1.84167,281
1.85000,281
1.85833,282
1.86667,283
1.87500,284
1.88333,285
1.89167,286
1.90000,287
1.90833,288
1.91667,289
1.92500,289
1.93333,290
1.94167,290
1.95000,291
1.95833,292
1.96667,293
1.97500,294
1.98333,295
1.99167,296
2.00000,297
2.00833,298
2.01667,300
2.02500,301
2.03333,302
2.04167,303
2.05000,304
2.05833,305
2.06667,306
2.07500,306
2.08333,307
2.09167,308
2.10000,308
2.10833,309
2.11667,310
2.12500,310
2.13333,311
2.14167,312
2.15000,313
2.15833,314
2.16667,315
2.17500,316
2.18333,316
2.19167,317
2.20000,317
2.20833,318
2.21667,319
2.22500,319
2.23333,320
2.24167,321
2.25000,322
2.25833,322
2.26667,323
2.27500,325
2.28333,325
2.29167,327
2.30000,328
2.30833,329
2.31667,331
2.32500,332
2.33333,333
2.34167,334
2.35000,335
2.35833,337
2.36667,338
2.37500,339
2.38333,340
2.39167,342
2.40000,343
2.40833,344
2.41667,345
2.42500,345
2.43333,346
2.44167,347
2.45000,348
2.45833,349
2.46667,350
2.47500,351
2.48333,352
2.49167,353
2.50000,353
2.50833,354
2.51667,355
2.52500,356
2.53333,357
2.54167,357
2.55000,358
2.55833,359
2.56667,359
2.57500,360
2.58333,361
2.59167,361
2.60000,362
2.60833,362
2.61667,363
2.62500,364
2.63333,364
2.64167,365
2.65000,365
2.65833,365
2.66667,366
2.67500,366
2.68333,366
2.69167,366
2.70000,366
2.70833,366
2.71667,367
2.72500,367
2.73333,367
2.74167,367
2.75000,368
2.75833,368
2.76667,368
2.77500,368
2.78333,368
2.79167,368
2.80000,368
2.80833,368
2.81667,368
2.82500,368
2.83333,368
2.84167,368
2.85000,368
2.85833,368
2.86667,369
2.87500,369
2.88333,369
2.89167,370
2.90000,370
2.90833,371
2.91667,371
2.92500,371
2.93333,371
2.94167,371
2.95000,371
2.95833,372
2.96667,372
2.97500,372
2.98333,373
2.99167,373
3.00000,374
3.00833,375
3.01667,375
3.02500,376
3.03333,377
3.04167,377
3.05000,378
3.05833,378
3.06667,379
3.07500,379
3.08333,381
3.09167,382
3.10000,383
3.10833,383
3.11667,384
3.12500,385
3.13333,386
3.14167,387
3.15000,388
3.15833,388
3.16667,389
3.17500,390
3.18333,391
3.19167,391
3.20000,392
3.20833,393
3.21667,394
3.22500,394
3.23333,395
3.24167,397
3.25000,398
3.25833,399
3.26667,400
3.27500,401
3.28333,402
3.29167,403
3.30000,403
3.30833,405
3.31667,406
3.32500,406
3.33333,407
3.34167,407
3.35000,408
3.35833,410
3.36667,411
3.37500,412
3.38333,414
3.39167,415
3.40000,416
3.40833,417
3.41667,418
3.42500,419
3.43333,420
3.44167,421
3.45000,422
3.45833,423
3.46667,424
3.47500,425
3.48333,426
3.49167,427
3.50000,429
3.50833,430
3.51667,431
3.52500,432
3.53333,434
3.54167,435
3.55000,436
3.55833,438
3.56667,439
3.57500,440
3.58333,442
3.59167,443
3.60000,444
3.60833,446
3.61667,447
3.62500,449
3.63333,450
3.64167,451
3.65000,452
3.65833,453
3.66667,454
3.67500,455
3.68333,456
3.69167,457
3.70000,458
3.70833,459
3.71667,460
3.72500,461
3.73333,462
3.74167,464
3.75000,465
3.75833,466
3.76667,467
3.77500,469
3.78333,470
3.79167,470
3.80000,471
3.80833,472
3.81667,473
3.82500,474
3.83333,475
3.84167,476
3.85000,477
3.85833,478
3.86667,479
3.87500,480
3.88333,481
3.89167,483
3.90000,484
3.90833,485
3.91667,486
3.92500,487
3.93333,488
3.94167,488
3.95000,489
3.95833,489
3.96667,490
3.97500,490
3.98333,491
3.99167,492
4.00000,492
4.00833,493
4.01667,494
4.02500,495
4.03333,496
4.04167,496
4.05000,497
4.05833,498
4.06667,499
4.07500,499
4.08333,500
4.09167,501
4.10000,501
4.10833,502
4.11667,503
4.12500,503
4.13333,504
4.14167,505
4.15000,506
4.15833,506
4.16667,507
4.17500,508
4.18333,509
4.19167,509
4.20000,510
4.20833,511
4.21667,511
4.22500,512
4.23333,513
4.24167,514
4.25000,514
4.25833,515
4.26667,515
4.27500,516
4.28333,517
4.29167,518
4.30000,518
4.30833,519
4.31667,520
4.32500,520
4.33333,521
4.34167,522
4.35000,523
4.35833,524
4.36667,525
4.37500,526
4.38333,527
4.39167,528
4.40000,530
4.40833,531
4.41667,532
4.42500,533
4.43333,534
4.44167,535
4.45000,536
4.45833,537
4.46667,538
4.47500,539
4.48333,541
4.49167,542
4.50000,543
4.50833,544
4.51667,545
4.52500,547
4.53333,548
4.54167,549
4.55000,549
4.55833,550
4.56667,551
4.57500,552
4.58333,553
4.59167,554
4.60000,555
4.60833,557
4.61667,558
4.62500,559
4.63333,560
4.64167,562
4.65000,563
4.65833,564
4.66667,564
4.67500,564
4.68333,565
4.69167,566
4.70000,567
4.70833,568
4.71667,568
4.72500,569
4.73333,570
4.74167,571
4.75000,571
4.75833,571
4.76667,571
4.77500,572
4.78333,572
4.79167,573
4.80000,574
4.80833,574
4.81667,575
4.82500,575
4.83333,576
4.84167,577
4.85000,578
4.85833,579
4.86667,580
4.87500,580
4.88333,581
4.89167,582
4.90000,582
4.90833,583
4.91667,584
4.92500,585
4.93333,586
4.94167,586
4.95000,587
4.95833,587
4.96667,588
4.97500,589
4.98333,590
4.99167,590
5.00000,591
5.00833,592
5.01667,592
5.02500,593
5.03333,594
5.04167,594
5.05000,595
5.05833,595
5.06667,596
5.07500,596
5.08333,597
5.09167,598
5.10000,598
5.10833,599
5.11667,600
5.12500,601
5.13333,601
5.14167,602
5.15000,603
5.15833,603
5.16667,603
5.17500,603
5.18333,604
5.19167,604
5.20000,604
5.20833,605
5.21667,605
5.22500,606
5.23333,606
5.24167,607
5.25000,607
5.25833,607
5.26667,607
5.27500,607
5.28333,608
5.29167,608
5.30000,608
5.30833,608
5.31667,608
5.32500,608
5.33333,607
5.34167,607
5.35000,607
5.35833,607
5.36667,607
5.37500,607
5.38333,607
5.39167,607
5.40000,608
5.40833,608
5.41667,608
5.42500,608
5.43333,608
5.44167,608
5.45000,608
5.45833,608
5.46667,609
5.47500,609
5.48333,609
5.49167,609
5.50000,610
5.50833,610
5.51667,610
5.52500,611
5.53333,611
5.54167,611
5.55000,611
5.55833,611
5.56667,612
5.57500,612
5.58333,612
5.59167,613
5.60000,613
5.60833,614
5.61667,614
5.62500,615
5.63333,615
5.64167,616
5.65000,617
5.65833,617
5.66667,618
5.67500,618
5.68333,619
5.69167,619
5.70000,619
5.70833,619
5.71667,620
5.72500,621
5.73333,621
5.74167,622
5.75000,622
5.75833,623
5.76667,624
5.77500,624
5.78333,624
5.79167,625
5.80000,626
5.80833,627
5.81667,627
5.82500,627
5.83333,628
5.84167,628
5.85000,628
5.85833,629
5.86667,629
5.87500,630
5.88333,630
5.89167,631
5.90000,631
5.90833,632
5.91667,632
5.92500,632
5.93333,632
5.94167,632
5.95000,633
5.95833,633
5.96667,634
5.97500,634
5.98333,634
5.99167,634
6.00000,634
6.00833,634
6.01667,635
6.02500,635
6.03333,636
6.04167,636
6.05000,636
6.05833,636
6.06667,636
6.07500,636
6.08333,636
6.09167,637
6.10000,637
6.10833,637
6.11667,637
6.12500,638
6.13333,638
6.14167,638
6.15000,638
6.15833,638
6.16667,639
6.17500,639
6.18333,639
6.19167,639
6.20000,639
6.20833,639
6.21667,639
6.22500,639
6.23333,640
6.24167,640
6.25000,641
6.25833,641
6.26667,642
6.27500,642
6.28333,642
6.29167,643
6.30000,643
6.30833,643
6.31667,643
6.32500,643
6.33333,644
6.34167,644
6.35000,645
6.35833,645
6.36667,645
6.37500,646
6.38333,646
6.39167,646
6.40000,647
6.40833,647
6.41667,648
6.42500,648
6.43333,649
6.44167,649
6.45000,650
6.45833,650
6.46667,651
6.47500,652
6.48333,652
6.49167,653
6.50000,654
6.50833,654
6.51667,654
6.52500,655
6.53333,655
6.54167,656
6.55000,657
6.55833,658
6.56667,659
6.57500,660
6.58333,661
6.59167,662
6.60000,663
6.60833,664
6.61667,664
6.62500,665
6.63333,666
6.64167,667
6.65000,669
6.65833,670
6.66667,671
6.67500,672
6.68333,673
6.69167,674
6.70000,675
6.70833,676
6.71667,677
6.72500,679
6.73333,680
6.74167,681
6.75000,682
6.75833,683
6.76667,684
6.77500,685
6.78333,687
6.79167,688
6.80000,689
6.80833,690
6.81667,691
6.82500,692
6.83333,693
6.84167,695
6.85000,696
6.85833,697
6.86667,699
6.87500,700
6.88333,701
6.89167,702
6.90000,703
6.90833,704
6.91667,705
6.92500,706
6.93333,707
6.94167,707
6.95000,709
6.95833,710
6.96667,711
6.97500,712
6.98333,713
6.99167,714
7.00000,716
7.00833,717
7.01667,718
7.02500,719
7.03333,720
7.04167,721
7.05000,722
7.05833,722
7.06667,723
7.07500,724
7.08333,724
7.09167,725
7.10000,725
7.10833,725
7.11667,726
7.12500,726
7.13333,727
7.14167,728
7.15000,728
7.15833,728
7.16667,729
7.17500,729
7.18333,729
7.19167,730
7.20000,730
7.20833,730
7.21667,730
7.22500,730
7.23333,730
7.24167,730
7.25000,730
7.25833,730
7.26667,730
7.27500,730
7.28333,730
7.29167,730
7.30000,729
7.30833,729
7.31667,728
7.32500,728
7.33333,727
7.34167,727
7.35000,726
7.35833,725
7.36667,724
7.37500,723
7.38333,722
7.39167,721
7.40000,720
7.40833,719
7.41667,718
7.42500,716
7.43333,716
7.44167,715
7.45000,714
7.45833,713
7.46667,712
7.47500,711
7.48333,710
7.49167,709
7.50000,707
7.50833,706
7.51667,705
7.52500,703
7.53333,702
7.54167,701
7.55000,699
7.55833,698
7.56667,696
7.57500,695
7.58333,694
7.59167,693
7.60000,691
7.60833,690
7.61667,689
7.62500,688
7.63333,687
7.64167,686
7.65000,685
7.65833,683
7.66667,682
7.67500,681
7.68333,680
7.69167,679
7.70000,678
7.70833,677
7.71667,676
7.72500,675
7.73333,675
7.74167,674
7.75000,672
7.75833,671
7.76667,670
7.77500,669
7.78333,669
7.79167,668
7.80000,668
7.80833,667
7.81667,667
7.82500,666
7.83333,666
7.84167,665
7.85000,664
7.85833,664
7.86667,663
7.87500,663
7.88333,663
7.89167,662
7.90000,662
7.90833,662
7.91667,662
7.92500,661
7.93333,661
7.94167,661
7.95000,661
7.95833,660
7.96667,660
7.97500,660
7.98333,659
7.99167,659
8.00000,659
8.00833,659
8.01667,659
8.02500,659
8.03333,659
8.04167,659
8.05000,659
8.05833,659
8.06667,659
8.07500,659
8.08333,659
8.09167,659
8.10000,659
8.10833,659
8.11667,659
8.12500,659
8.13333,659
8.14167,660
8.15000,660
8.15833,660
8.16667,660
8.17500,660
8.18333,660
8.19167,660
8.20000,661
8.20833,660
8.21667,660
8.22500,660
8.23333,660
8.24167,660
8.25000,660
8.25833,660
8.26667,660
8.27500,660
8.28333,660
8.29167,659
8.30000,659
8.30833,659
8.31667,659
8.32500,658
8.33333,658
8.34167,658
8.35000,658
8.35833,658
8.36667,658
8.37500,658
8.38333,658
8.39167,657
8.40000,657
8.40833,657
8.41667,657
8.42500,657
8.43333,657
8.44167,656
8.45000,656
8.45833,656
8.46667,656
8.47500,656
8.48333,655
8.49167,655
8.50000,655
8.50833,655
8.51667,654
8.52500,654
8.53333,654
8.54167,653
8.55000,653
8.55833,652
8.56667,652
8.57500,652
8.58333,653
8.59167,652
8.60000,652
8.60833,652
8.61667,651
8.62500,651
8.63333,651
8.64167,651
8.65000,651
8.65833,651
8.66667,651
8.67500,651
8.68333,651
8.69167,651
8.70000,651
8.70833,651
8.71667,650
8.72500,650
8.73333,650
8.74167,650
8.75000,650
8.75833,649
8.76667,650
8.77500,650
8.78333,649
8.79167,649
8.80000,650
8.80833,650
8.81667,650
8.82500,650
8.83333,649
8.84167,649
8.85000,649
8.85833,649
8.86667,650
8.87500,650
8.88333,650
8.89167,649
8.90000,649
8.90833,649
8.91667,649
8.92500,648
8.93333,648
8.94167,648
8.95000,649
8.95833,648
8.96667,648
8.97500,648
8.98333,648
8.99167,648
9.00000,648
9.00833,648
9.01667,648
9.02500,648
9.03333,647
9.04167,648
9.05000,648
9.05833,648
9.06667,648
9.07500,648
9.08333,648
9.09167,648
9.10000,648
9.10833,648
9.11667,648
9.12500,648
9.13333,647
9.14167,647
9.15000,647
9.15833,647
9.16667,646
9.17500,646
9.18333,646
9.19167,645
9.20000,645
9.20833,644
9.21667,644
9.22500,644
9.23333,643
9.24167,643
9.25000,643
9.25833,643
9.26667,642
9.27500,642
9.28333,642
9.29167,642
9.30000,642
9.30833,642
9.31667,641
9.32500,641
9.33333,641
9.34167,640
9.35000,640
9.35833,639
9.36667,639
9.37500,638
9.38333,638
9.39167,638
9.40000,638
9.40833,638
9.41667,638
9.42500,638
9.43333,638
9.44167,637
9.45000,637
9.45833,637
9.46667,636
9.47500,636
9.48333,635
9.49167,635
9.50000,635
9.50833,635
9.51667,635
9.52500,635
9.53333,635
9.54167,635
9.55000,635
9.55833,634
9.56667,634
9.57500,634
9.58333,634
9.59167,634
9.60000,634
9.60833,634
9.61667,635
9.62500,635
9.63333,636
9.64167,636
9.65000,636
9.65833,636
9.66667,636
9.67500,636
9.68333,637
9.69167,637
9.70000,637
9.70833,638
9.71667,639
9.72500,639
9.73333,640
9.74167,640
9.75000,641
9.75833,641
9.76667,641
9.77500,642
9.78333,642
9.79167,643
9.80000,644
9.80833,645
9.81667,645
9.82500,645
9.83333,645
9.84167,645
9.85000,646
9.85833,647
9.86667,647
9.87500,647
9.88333,648
9.89167,648
9.90000,649
9.90833,649
9.91667,650
9.92500,650
9.93333,650
9.94167,650
9.95000,650
9.95833,650
9.96667,651
9.97500,651
9.98333,651
9.99167,651
10.00000,651
10.00833,652
10.01667,652
10.02500,652
10.03333,652
10.04167,653
10.05000,653
10.05833,653
10.06667,653
10.07500,654
10.08333,654
10.09167,655
10.10000,655
10.10833,655
10.11667,655
10.12500,656
10.13333,656
10.14167,656
10.15000,656
10.15833,656
10.16667,657
10.17500,657
10.18333,658
10.19167,658
10.20000,659
10.20833,659
10.21667,660
10.22500,661
10.23333,661
10.24167,662
10.25000,663
10.25833,663
10.26667,664
10.27500,664
10.28333,664
10.29167,664
10.30000,664
10.30833,665
10.31667,665
10.32500,665
10.33333,665
10.34167,665
10.35000,664
10.35833,664
10.36667,664
10.37500,663
10.38333,662
10.39167,661
10.40000,661
10.40833,660
10.41667,658
10.42500,656
10.43333,654
10.44167,650
10.45000,646
10.45833,640
10.46667,632
10.47500,622
10.48333,610
10.49167,595
10.50000,578
10.50833,556
10.51667,531
10.52500,502
10.53333,470
10.54167,434
10.55000,394
10.55833,352
10.56667,309
10.57500,266
10.58333,225
10.59167,187
10.60000,156
10.60833,134
10.61667,124
10.62500,129
10.63333,153
10.64167,199
10.65000,270
10.65833,368
10.66667,496
10.67500,655
10.68333,848
10.69167,1075
10.70000,1336
10.70833,1630
10.71667,1956
10.72500,2311
10.73333,2694
10.74167,3099
10.75000,3523
10.75833,3961
10.76667,4407
10.77500,4855
10.78333,5299
10.79167,5731
10.80000,6146
10.80833,6537
10.81667,6897
10.82500,7222
10.83333,7505
10.84167,7742
10.85000,7931
10.85833,8067
10.86667,8151
10.87500,8181
10.88333,8159
10.89167,8086
10.90000,7965
10.90833,7801
10.91667,7596
10.92500,7356
10.93333,7086
10.94167,6792
10.95000,6478
10.95833,6151
10.96667,5814
10.97500,5474
10.98333,5134
10.99167,4798
11.00000,4470
11.00833,4152
11.01667,3847
11.02500,3556
11.03333,3280
11.04167,3021
11.05000,2779
11.05833,2555
11.06667,2349
11.07500,2159
11.08333,1987
11.09167,1830
11.10000,1689
11.10833,1563
11.11667,1449
11.12500,1348
11.13333,1258
11.14167,1178
11.15000,1108
11.15833,1047
11.16667,993
11.17500,946
11.18333,905
11.19167,870
11.20000,840
11.20833,813
11.21667,791
11.22500,771
11.23333,755
11.24167,741
11.25000,729
11.25833,719
11.26667,710
11.27500,702
11.28333,696
11.29167,690
11.30000,685
11.30833,681
11.31667,677
11.32500,674
11.33333,671
11.34167,669
11.35000,667
11.35833,665
11.36667,663
11.37500,662
11.38333,661
11.39167,660
11.40000,659
11.40833,658
11.41667,658
11.42500,658
11.43333,657
11.44167,658
11.45000,658
11.45833,657
11.46667,657
11.47500,656
11.48333,656
11.49167,656
11.50000,656
11.50833,656
11.51667,656
11.52500,656
11.53333,655
11.54167,655
11.55000,654
11.55833,654
11.56667,654
11.57500,653
11.58333,652
11.59167,651
11.60000,651
11.60833,650
11.61667,649
11.62500,648
11.63333,647
11.64167,646
11.65000,644
11.65833,643
11.66667,641
11.67500,639
11.68333,638
11.69167,636
11.70000,634
11.70833,632
11.71667,631
11.72500,629
11.73333,628
11.74167,626
11.75000,625
11.75833,624
11.76667,622
11.77500,621
11.78333,620
11.79167,619
11.80000,617
11.80833,615
11.81667,614
11.82500,613
11.83333,612
11.84167,611
11.85000,610
11.85833,610
11.86667,610
11.87500,610
11.88333,610
11.89167,609
11.90000,609
11.90833,609
11.91667,610
11.92500,610
11.93333,611
11.94167,611
11.95000,612
11.95833,613
11.96667,614
11.97500,615
11.98333,616
11.99167,617
12.00000,619
12.00833,621
12.01667,622
12.02500,624
12.03333,626
12.04167,627
12.05000,629
12.05833,630
12.06667,631
12.07500,633
12.08333,634
12.09167,636
12.10000,638
12.10833,641
12.11667,642
12.12500,644
12.13333,645
12.14167,647
12.15000,649
12.15833,650
12.16667,652
12.17500,653
12.18333,655
12.19167,656
12.20000,658
12.20833,659
12.21667,661
12.22500,662
12.23333,664
12.24167,666
12.25000,667
12.25833,668
12.26667,669
12.27500,670
12.28333,671
12.29167,672
12.30000,673
12.30833,674
12.31667,675
12.32500,676
12.33333,676
12.34167,677
12.35000,678
12.35833,679
12.36667,679
12.37500,679
12.38333,679
12.39167,679
12.40000,679
12.40833,679
12.41667,679
12.42500,679
12.43333,679
12.44167,679
12.45000,679
12.45833,679
12.46667,679
12.47500,679
12.48333,679
12.49167,679
12.50000,679
12.50833,678
12.51667,678
12.52500,678
12.53333,678
12.54167,678
12.55000,678
12.55833,679
12.56667,679
12.57500,680
12.58333,682
12.59167,683
12.60000,685
12.60833,687
12.61667,690
12.62500,693
12.63333,698
12.64167,704
12.65000,711
12.65833,720
12.66667,730
12.67500,743
12.68333,757
12.69167,775
12.70000,796
12.70833,821
12.71667,849
12.72500,882
12.73333,919
12.74167,961
12.75000,1009
12.75833,1063
12.76667,1122
12.77500,1189
12.78333,1262
12.79167,1342
12.80000,1428
12.80833,1522
12.81667,1623
12.82500,1731
12.83333,1846
12.84167,1968
12.85000,2098
12.85833,2234
12.86667,2377
12.87500,2527
12.88333,2684
12.89167,2846
12.90000,3015
12.90833,3190
12.91667,3371
12.92500,3557
12.93333,3748
12.94167,3944
12.95000,4145
12.95833,4351
12.96667,4561
12.97500,4775
12.98333,4994
12.99167,5216
13.00000,5442
13.00833,5672
13.01667,5905
13.02500,6142
13.03333,6381
13.04167,6624
13.05000,6870
13.05833,7119
13.06667,7371
13.07500,7625
13.08333,7882
13.09167,8142
13.10000,8404
13.10833,8668
13.11667,8935
13.12500,9205
13.13333,9476
13.14167,9749
13.15000,10025
13.15833,10303
13.16667,10583
13.17500,10866
13.18333,11150
13.19167,11437
13.20000,11725
13.20833,12016
13.21667,12308
13.22500,12603
13.23333,12899
13.24167,13197
13.25000,13497
13.25833,13798
13.26667,14100
13.27500,14404
13.28333,14709
13.29167,15015
13.30000,15321
13.30833,15628
13.31667,15934
13.32500,16238
13.33333,16539
13.34167,16836
13.35000,17124
13.35833,17399
13.36667,17655
13.37500,17883
13.38333,18074
13.39167,18214
13.40000,18291
13.40833,18291
13.41667,18201
13.42500,18009
13.43333,17707
13.44167,17292
13.45000,16763
13.45833,16127
13.46667,15395
13.47500,14583
13.48333,13707
13.49167,12788
13.50000,11848
13.50833,10905
13.51667,9978
13.52500,9082
13.53333,8228
13.54167,7427
13.55000,6683
13.55833,6001
13.56667,5381
13.57500,4822
13.58333,4322
13.59167,3879
13.60000,3487
13.60833,3142
13.61667,2840
13.62500,2577
13.63333,2348
13.64167,2149
13.65000,1976
13.65833,1826
13.66667,1697
13.67500,1585
13.68333,1488
13.69167,1404
13.70000,1332
13.70833,1269
13.71667,1214
13.72500,1166
13.73333,1124
13.74167,1088
13.75000,1056
13.75833,1028
13.76667,1003
13.77500,980
13.78333,961
13.79167,943
13.80000,928
13.80833,914
13.81667,902
13.82500,891
13.83333,881
13.84167,871
13.85000,863
13.85833,855
13.86667,848
13.87500,842
13.88333,837
13.89167,831
13.90000,826
13.90833,822
13.91667,818
13.92500,813
13.93333,810
13.94167,806
13.95000,803
13.95833,799
13.96667,797
13.97500,794
13.98333,791
13.99167,789
14.00000,787
14.00833,785
14.01667,783
14.02500,781
14.03333,780
14.04167,778
14.05000,776
14.05833,775
14.06667,773
14.07500,772
14.08333,770
14.09167,769
14.10000,767
14.10833,766
14.11667,765
14.12500,764
14.13333,763
14.14167,763
14.15000,762
14.15833,761
14.16667,759
14.17500,758
14.18333,757
14.19167,756
14.20000,755
14.20833,754
14.21667,753
14.22500,752
14.23333,751
14.24167,750
14.25000,749
14.25833,748
14.26667,747
14.27500,745
14.28333,745
14.29167,744
14.30000,743
14.30833,742
14.31667,741
14.32500,740
14.33333,739
14.34167,738
14.35000,737
14.35833,736
14.36667,735
14.37500,733
14.38333,732
14.39167,731
14.40000,730
14.40833,728
14.41667,727
14.42500,727
14.43333,726
14.44167,726
14.45000,725
14.45833,724
14.46667,723
14.47500,722
14.48333,721
14.49167,720
14.50000,719
14.50833,718
14.51667,717
14.52500,717
14.53333,716
14.54167,715
14.55000,714
14.55833,713
14.56667,713
14.57500,712
14.58333,712
14.59167,711
14.60000,711
14.60833,710
14.61667,710
14.62500,709
14.63333,709
14.64167,708
14.65000,708
14.65833,707
14.66667,707
14.67500,707
14.68333,706
14.69167,706
14.70000,705
14.70833,705
14.71667,705
14.72500,705
14.73333,705
14.74167,705
14.75000,705
14.75833,704
14.76667,704
14.77500,704
14.78333,704
14.79167,703
14.80000,703
14.80833,703
14.81667,703
14.82500,703
14.83333,703
14.84167,702
14.85000,702
14.85833,702
14.86667,702
14.87500,702
14.88333,702
14.89167,703
14.90000,704
14.90833,704
14.91667,704
14.92500,705
14.93333,705
14.94167,705
14.95000,705
14.95833,706
14.96667,706
14.97500,706
14.98333,706
14.99167,706
15.00000,706
15.00833,707
15.01667,707
15.02500,707
15.03333,707
15.04167,707
15.05000,707
15.05833,706
15.06667,706
15.07500,706
15.08333,706
15.09167,706
15.10000,705
15.10833,705
15.11667,705
15.12500,704
15.13333,704
15.14167,704
15.15000,703
15.15833,703
15.16667,703
15.17500,702
15.18333,702
15.19167,701
15.20000,701
15.20833,701
15.21667,701
15.22500,701
15.23333,701
15.24167,702
15.25000,702
15.25833,702
15.26667,703
15.27500,704
15.28333,705
15.29167,706
15.30000,707
15.30833,708
15.31667,710
15.32500,712
15.33333,714
15.34167,716
15.35000,718
15.35833,720
15.36667,722
15.37500,724
15.38333,726
15.39167,728
15.40000,731
15.40833,733
15.41667,735
15.42500,738
15.43333,740
15.44167,742
15.45000,744
15.45833,747
15.46667,748
15.47500,750
15.48333,751
15.49167,752
15.50000,753
15.50833,754
15.51667,754
15.52500,755
15.53333,755
15.54167,755
15.55000,755
15.55833,755
15.56667,755
15.57500,754
15.58333,753
15.59167,752
15.60000,751
15.60833,750
15.61667,748
15.62500,747
15.63333,745
15.64167,742
15.65000,740
15.65833,738
15.66667,735
15.67500,733
15.68333,731
15.69167,728
15.70000,726
15.70833,723
15.71667,721
15.72500,718
15.73333,716
15.74167,714
15.75000,712
15.75833,709
15.76667,707
15.77500,704
15.78333,702
15.79167,700
15.80000,698
15.80833,697
15.81667,695
15.82500,693
15.83333,692
15.84167,690
15.85000,689
15.85833,687
15.86667,686
15.87500,685
15.88333,683
15.89167,682
15.90000,681
15.90833,680
15.91667,679
15.92500,678
15.93333,678
15.94167,677
15.95000,676
15.95833,676
15.96667,675
15.97500,674
15.98333,673
15.99167,672
16.00000,672
16.00833,672
16.01667,671
16.02500,671
16.03333,670
16.04167,669
16.05000,669
16.05833,669
16.06667,668
16.07500,668
16.08333,667
16.09167,667
16.10000,667
16.10833,667
16.11667,667
16.12500,667
16.13333,668
16.14167,668
16.15000,667
16.15833,667
16.16667,667
16.17500,667
16.18333,666
16.19167,667
16.20000,667
16.20833,667
16.21667,667
16.22500,667
16.23333,667
16.24167,668
16.25000,668
16.25833,669
16.26667,669
16.27500,670
16.28333,670
16.29167,670
16.30000,670
16.30833,671
16.31667,671
16.32500,672
16.33333,672
16.34167,673
16.35000,673
16.35833,673
16.36667,673
16.37500,673
16.38333,673
16.39167,674
16.40000,674
16.40833,674
16.41667,675
16.42500,676
16.43333,676
16.44167,676
16.45000,677
16.45833,677
16.46667,678
16.47500,678
16.48333,679
16.49167,679
16.50000,680
16.50833,680
16.51667,681
16.52500,681
16.53333,681
16.54167,681
16.55000,682
16.55833,682
16.56667,683
16.57500,684
16.58333,684
16.59167,684
16.60000,684
16.60833,684
16.61667,684
16.62500,684
16.63333,684
16.64167,684
16.65000,684
16.65833,684
16.66667,685
16.67500,685
16.68333,685
16.69167,685
16.70000,685
16.70833,686
16.71667,686
16.72500,685
16.73333,685
16.74167,685
16.75000,684
16.75833,684
16.76667,683
16.77500,683
16.78333,682
16.79167,682
16.80000,681
16.80833,681
16.81667,681
16.82500,680
16.83333,680
16.84167,680
16.85000,679
16.85833,679
16.86667,678
16.87500,677
16.88333,677
16.89167,677
16.90000,677
16.90833,676
16.91667,676
16.92500,676
16.93333,675
16.94167,675
16.95000,674
16.95833,674
16.96667,674
16.97500,674
16.98333,673
16.99167,673
17.00000,673
17.00833,672
17.01667,672
17.02500,672
17.03333,672
17.04167,671
17.05000,671
17.05833,671
17.06667,671
17.07500,671
17.08333,671
17.09167,671
17.10000,672
17.10833,672
17.11667,671
17.12500,672
17.13333,672
17.14167,672
17.15000,672
17.15833,672
17.16667,673
17.17500,673
17.18333,673
17.19167,673
17.20000,674
17.20833,674
17.21667,675
17.22500,675
17.23333,675
17.24167,674
17.25000,674
17.25833,674
17.26667,674
17.27500,675
17.28333,675
17.29167,675
17.30000,676
17.30833,676
17.31667,676
17.32500,676
17.33333,677
17.34167,677
17.35000,677
17.35833,677
17.36667,678
17.37500,678
17.38333,678
17.39167,678
17.40000,679
17.40833,679
17.41667,679
17.42500,679
17.43333,679
17.44167,679
17.45000,679
17.45833,679
17.46667,680
17.47500,680
17.48333,680
17.49167,680
17.50000,680
17.50833,679
17.51667,679
17.52500,679
17.53333,679
17.54167,679
17.55000,679
17.55833,680
17.56667,680
17.57500,679
17.58333,679
17.59167,679
17.60000,679
17.60833,678
17.61667,678
17.62500,678
17.63333,678
17.64167,678
17.65000,678
17.65833,678
17.66667,678
17.67500,677
17.68333,677
17.69167,677
17.70000,677
17.70833,677
17.71667,676
17.72500,675
17.73333,675
17.74167,674
17.75000,674
17.75833,673
17.76667,673
17.77500,673
17.78333,673
17.79167,673
17.80000,673
17.80833,672
17.81667,672
17.82500,672
17.83333,672
17.84167,672
17.85000,672
17.85833,672
17.86667,672
17.87500,671
17.88333,671
17.89167,671
17.90000,671
17.90833,672
17.91667,672
17.92500,672
17.93333,671
17.94167,671
17.95000,671
17.95833,671
17.96667,671
17.97500,671
17.98333,671
17.99167,671
18.00000,670
18.00833,670
18.01667,670
18.02500,670
18.03333,670
18.04167,670
18.05000,670
18.05833,670
18.06667,671
18.07500,671
18.08333,671
18.09167,671
18.10000,671
18.10833,672
18.11667,672
18.12500,672
18.13333,672
18.14167,672
18.15000,672
18.15833,672
18.16667,672
18.17500,672
18.18333,672
18.19167,672
18.20000,672
18.20833,672
18.21667,673
18.22500,673
18.23333,673
18.24167,674
18.25000,674
18.25833,675
18.26667,675
18.27500,675
18.28333,675
18.29167,675
18.30000,676
18.30833,675
18.31667,676
18.32500,676
18.33333,676
18.34167,676
18.35000,676
18.35833,675
18.36667,675
18.37500,675
18.38333,675
18.39167,675
18.40000,674
18.40833,674
18.41667,673
18.42500,672
18.43333,672
18.44167,672
18.45000,672
18.45833,672
18.46667,671
18.47500,670
18.48333,669
18.49167,668
18.50000,668
18.50833,667
18.51667,667
18.52500,667
18.53333,666
18.54167,666
18.55000,666
18.55833,665
18.56667,665
18.57500,664
18.58333,664
18.59167,664
18.60000,663
18.60833,664
18.61667,664
18.62500,663
18.63333,663
18.64167,663
18.65000,663
18.65833,663
18.66667,662
18.67500,662
18.68333,662
18.69167,662
18.70000,663
18.70833,663
18.71667,664
18.72500,664
18.73333,665
18.74167,665
18.75000,665
18.75833,665
18.76667,666
18.77500,666
18.78333,667
18.79167,667
18.80000,668
18.80833,668
18.81667,669
18.82500,669
18.83333,670
18.84167,670
18.85000,670
18.85833,671
18.86667,671
18.87500,671
18.88333,671
18.89167,671
18.90000,671
18.90833,671
18.91667,671
18.92500,671
18.93333,671
18.94167,671
18.95000,671
18.95833,671
18.96667,671
18.97500,671
18.98333,670
18.99167,670
19.00000,669
19.00833,669
19.01667,668
19.02500,668
19.03333,668
19.04167,667
19.05000,667
19.05833,666
19.06667,666
19.07500,665
19.08333,665
19.09167,665
19.10000,664
19.10833,664
19.11667,663
19.12500,663
19.13333,663
19.14167,662
19.15000,662
19.15833,661
19.16667,660
19.17500,660
19.18333,659
19.19167,659
19.20000,659
19.20833,658
19.21667,658
19.22500,657
19.23333,657
19.24167,657
19.25000,657
19.25833,657
19.26667,657
19.27500,657
19.28333,657
19.29167,657
19.30000,657
19.30833,657
19.31667,657
19.32500,656
19.33333,656
19.34167,656
19.35000,657
19.35833,657
19.36667,657
19.37500,657
19.38333,657
19.39167,657
19.40000,657
19.40833,657
19.41667,657
19.42500,657
19.43333,657
19.44167,657
19.45000,657
19.45833,657
19.46667,657
19.47500,658
19.48333,658
19.49167,657
19.50000,657
19.50833,657
19.51667,657
19.52500,657
19.53333,658
19.54167,658
19.55000,658
19.55833,658
19.56667,658
19.57500,657
19.58333,658
19.59167,658
19.60000,658
19.60833,658
19.61667,658
19.62500,658
19.63333,658
19.64167,658
19.65000,658
19.65833,658
19.66667,658
19.67500,658
19.68333,658
19.69167,658
19.70000,658
19.70833,658
19.71667,658
19.72500,658
19.73333,659
19.74167,659
19.75000,659
19.75833,659
19.76667,659
19.77500,659
19.78333,659
19.79167,660
19.80000,660
19.80833,660
19.81667,660
19.82500,660
19.83333,660
19.84167,661
19.85000,661
19.85833,662
19.86667,662
19.87500,662
19.88333,663
19.89167,663
19.90000,664
19.90833,665
19.91667,666
19.92500,667
19.93333,667
19.94167,668
19.95000,669
19.95833,669
19.96667,670
19.97500,670
19.98333,671
19.99167,672
20.00000,673
20.00833,674
20.01667,675
20.02500,676
20.03333,677
20.04167,678
20.05000,678
20.05833,679
20.06667,680
20.07500,681
20.08333,682
20.09167,683
20.10000,683
20.10833,684
20.11667,684
20.12500,684
20.13333,685
20.14167,686
20.15000,686
20.15833,687
20.16667,688
20.17500,688
20.18333,689
20.19167,689
20.20000,689
20.20833,689
20.21667,690
20.22500,690
20.23333,690
20.24167,690
20.25000,689
20.25833,689
20.26667,689
20.27500,689
20.28333,689
20.29167,689
20.30000,689
20.30833,688
20.31667,688
20.32500,688
20.33333,688
20.34167,687
20.35000,687
20.35833,687
20.36667,687
20.37500,687
20.38333,687
20.39167,686
20.40000,686
20.40833,685
20.41667,685
20.42500,685
20.43333,684
20.44167,683
20.45000,682
20.45833,681
20.46667,680
20.47500,680
20.48333,680
20.49167,679
20.50000,679
20.50833,679
20.51667,678
20.52500,677
20.53333,676
20.54167,675
20.55000,675
20.55833,674
20.56667,674
20.57500,673
20.58333,672
20.59167,671
20.60000,670
20.60833,669
20.61667,668
20.62500,668
20.63333,667
20.64167,666
20.65000,665
20.65833,664
20.66667,663
20.67500,663
20.68333,662
20.69167,661
20.70000,660
20.70833,660
20.71667,659
20.72500,659
20.73333,658
20.74167,658
20.75000,657
20.75833,657
20.76667,657
20.77500,657
20.78333,657
20.79167,656
20.80000,656
20.80833,656
20.81667,655
20.82500,655
20.83333,655
20.84167,655
20.85000,655
20.85833,655
20.86667,655
20.87500,655
20.88333,656
20.89167,656
20.90000,656
20.90833,656
20.91667,656
20.92500,656
20.93333,657
20.94167,657
20.95000,657
20.95833,658
20.96667,658
20.97500,659
20.98333,659
20.99167,659
21.00000,660
21.00833,661
21.01667,661
21.02500,662
21.03333,662
21.04167,662
21.05000,663
21.05833,663
21.06667,664
21.07500,664
21.08333,664
21.09167,664
21.10000,664
21.10833,665
21.11667,665
21.12500,665
21.13333,665
21.14167,665
21.15000,665
21.15833,666
21.16667,666
21.17500,667
21.18333,667
21.19167,667
21.20000,667
21.20833,668
21.21667,668
21.22500,668
21.23333,668
21.24167,667
21.25000,667
21.25833,667
21.26667,667
21.27500,667
21.28333,668
21.29167,668
21.30000,667
21.30833,667
21.31667,667
21.32500,667
21.33333,667
21.34167,667
21.35000,667
21.35833,668
21.36667,668
21.37500,668
21.38333,668
21.39167,668
21.40000,668
21.40833,668
21.41667,668
21.42500,668
21.43333,669
21.44167,669
21.45000,669
21.45833,669
21.46667,669
21.47500,669
21.48333,669
21.49167,669
21.50000,669
21.50833,670
21.51667,670
21.52500,670
21.53333,670
21.54167,670
21.55000,671
21.55833,671
21.56667,671
21.57500,671
21.58333,671
21.59167,671
21.60000,671
21.60833,671
21.61667,672
21.62500,672
21.63333,672
21.64167,672
21.65000,672
21.65833,673
21.66667,673
21.67500,673
21.68333,673
21.69167,673
21.70000,673
21.70833,673
21.71667,673
21.72500,673
21.73333,673
21.74167,672
21.75000,672
21.75833,672
21.76667,671
21.77500,671
21.78333,671
21.79167,671
21.80000,671
21.80833,670
21.81667,670
21.82500,669
21.83333,669
21.84167,669
21.85000,668
21.85833,668
21.86667,668
21.87500,668
21.88333,667
21.89167,667
21.90000,666
21.90833,666
21.91667,665
21.92500,665
21.93333,664
21.94167,664
21.95000,664
21.95833,664
21.96667,664
21.97500,664
21.98333,664
21.99167,663
22.00000,663
22.00833,662
22.01667,662
22.02500,661
22.03333,661
22.04167,661
22.05000,661
22.05833,662
22.06667,662
22.07500,662
22.08333,662
22.09167,662
22.10000,662
22.10833,662
22.11667,662
22.12500,663
22.13333,663
22.14167,663
22.15000,663
22.15833,664
22.16667,664
22.17500,664
22.18333,664
22.19167,665
22.20000,665
22.20833,665
22.21667,665
22.22500,666
22.23333,666
22.24167,667
22.25000,667
22.25833,668
22.26667,668
22.27500,668
22.28333,668
22.29167,669
22.30000,669
22.30833,669
22.31667,669
22.32500,670
22.33333,670
22.34167,670
22.35000,670
22.35833,670
22.36667,670
22.37500,670
22.38333,670
22.39167,670
22.40000,669
22.40833,669
22.41667,669
22.42500,669
22.43333,669
22.44167,668
22.45000,668
22.45833,669
22.46667,669
22.47500,669
22.48333,669
22.49167,669
22.50000,669
22.50833,669
22.51667,668
22.52500,668
22.53333,667
22.54167,667
22.55000,666
22.55833,666
22.56667,666
22.57500,666
22.58333,666
22.59167,666
22.60000,666
22.60833,666
22.61667,666
22.62500,666
22.63333,666
22.64167,666
22.65000,666
22.65833,666
22.66667,667
22.67500,667
22.68333,667
22.69167,667
22.70000,667
22.70833,666
22.71667,666
22.72500,666
22.73333,666
22.74167,666
22.75000,666
22.75833,666
22.76667,666
22.77500,665
22.78333,665
22.79167,665
22.80000,665
22.80833,665
22.81667,665
22.82500,665
22.83333,665
22.84167,665
22.85000,665
22.85833,664
22.86667,664
22.87500,664
22.88333,664
22.89167,663
22.90000,663
22.90833,663
22.91667,663
22.92500,663
22.93333,663
22.94167,663
22.95000,664
22.95833,664
22.96667,664
22.97500,664
22.98333,664
22.99167,665
23.00000,665
23.00833,666
23.01667,666
23.02500,667
23.03333,667
23.04167,667
23.05000,667
23.05833,667
23.06667,667
23.07500,668
23.08333,668
23.09167,669
23.10000,669
23.10833,670
23.11667,670
23.12500,670
23.13333,671
23.14167,671
23.15000,672
23.15833,672
23.16667,673
23.17500,673
23.18333,673
23.19167,674
23.20000,674
23.20833,674
23.21667,674
23.22500,674
23.23333,674
23.24167,674
23.25000,674
23.25833,674
23.26667,673
23.27500,673
23.28333,673
23.29167,673
23.30000,673
23.30833,673
23.31667,672
23.32500,672
23.33333,672
23.34167,672
23.35000,671
23.35833,671
23.36667,670
23.37500,670
23.38333,669
23.39167,668
23.40000,668
23.40833,667
23.41667,666
23.42500,665
23.43333,664
23.44167,664
23.45000,664
23.45833,663
23.46667,663
23.47500,663
23.48333,662
23.49167,661
23.50000,661
23.50833,660
23.51667,659
23.52500,658
23.53333,658
23.54167,657
23.55000,657
23.55833,657
23.56667,656
23.57500,656
23.58333,655
23.59167,655
23.60000,655
23.60833,655
23.61667,655
23.62500,655
23.63333,655
23.64167,655
23.65000,655
23.65833,655
23.66667,655
23.67500,655
23.68333,655
23.69167,656
23.70000,656
23.70833,656
23.71667,656
23.72500,656
23.73333,657
23.74167,657
23.75000,657
23.75833,658
23.76667,658
23.77500,659
23.78333,659
23.79167,659
23.80000,660
23.80833,660
23.81667,661
23.82500,661
23.83333,662
23.84167,662
23.85000,662
23.85833,662
23.86667,662
23.87500,662
23.88333,662
23.89167,662
23.90000,662
23.90833,662
23.91667,662
23.92500,662
23.93333,662
23.94167,662
23.95000,663
23.95833,663
23.96667,663
23.97500,663
23.98333,663
23.99167,663
24.00000,663
24.00833,663
24.01667,663
24.02500,663
24.03333,663
24.04167,663
24.05000,662
24.05833,662
24.06667,662
24.07500,662
24.08333,662
24.09167,661
24.10000,661
24.10833,661
24.11667,661
24.12500,661
24.13333,661
24.14167,660
24.15000,661
24.15833,661
24.16667,662
24.17500,662
24.18333,663
24.19167,662
24.20000,662
24.20833,662
24.21667,662
24.22500,663
24.23333,663
24.24167,663
24.25000,664
24.25833,664
24.26667,665
24.27500,665
24.28333,666
24.29167,667
24.30000,667
24.30833,668
24.31667,670
24.32500,671
24.33333,673
24.34167,675
24.35000,678
24.35833,680
24.36667,682
24.37500,685
24.38333,688
24.39167,691
24.40000,694
24.40833,698
24.41667,702
24.42500,706
24.43333,712
24.44167,717
24.45000,723
24.45833,730
24.46667,737
24.47500,745
24.48333,754
24.49167,763
24.50000,774
24.50833,785
24.51667,797
24.52500,810
24.53333,824
24.54167,839
24.55000,856
24.55833,873
24.56667,892
24.57500,912
24.58333,934
24.59167,956
24.60000,980
24.60833,1005
24.61667,1031
24.62500,1058
24.63333,1087
24.64167,1117
24.65000,1148
24.65833,1180
24.66667,1213
24.67500,1247
24.68333,1283
24.69167,1318
24.70000,1355
24.70833,1393
24.71667,1430
24.72500,1468
24.73333,1507
24.74167,1545
24.75000,1583
24.75833,1621
24.76667,1658
24.77500,1694
24.78333,1729
24.79167,1763
24.80000,1795
24.80833,1826
24.81667,1855
24.82500,1882
24.83333,1907
24.84167,1930
24.85000,1951
24.85833,1969
24.86667,1985
24.87500,1998
24.88333,2009
24.89167,2016
24.90000,2020
24.90833,2022
24.91667,2021
24.92500,2018
24.93333,2011
24.94167,2002
24.95000,1991
24.95833,1977
24.96667,1960
24.97500,1941
24.98333,1919
24.99167,1896
25.00000,1870
25.00833,1843
25.01667,1814
25.02500,1784
25.03333,1753
25.04167,1720
25.05000,1687
25.05833,1653
25.06667,1619
25.07500,1584
25.08333,1548
25.09167,1513
25.10000,1477
25.10833,1442
25.11667,1407
25.12500,1372
25.13333,1338
25.14167,1304
25.15000,1272
25.15833,1240
25.16667,1209
25.17500,1179
25.18333,1150
25.19167,1122
25.20000,1095
25.20833,1070
25.21667,1045
25.22500,1022
25.23333,999
25.24167,978
25.25000,958
25.25833,939
25.26667,920
25.27500,903
25.28333,887
25.29167,872
25.30000,858
25.30833,844
25.31667,832
25.32500,820
25.33333,810
25.34167,799
25.35000,790
25.35833,780
25.36667,772
25.37500,764
25.38333,757
25.39167,750
25.40000,744
25.40833,739
25.41667,733
25.42500,729
25.43333,724
25.44167,720
25.45000,716
25.45833,713
25.46667,709
25.47500,706
25.48333,703
25.49167,700
25.50000,698
25.50833,696
25.51667,693
25.52500,691
25.53333,689
25.54167,688
25.55000,686
25.55833,684
25.56667,683
25.57500,681
25.58333,679
25.59167,678
25.60000,676
25.60833,675
25.61667,674
25.62500,673
25.63333,672
25.64167,671
25.65000,671
25.65833,670
25.66667,670
25.67500,670
25.68333,669
25.69167,669
25.70000,668
25.70833,668
25.71667,668
25.72500,668
25.73333,668
25.74167,668
25.75000,668
25.75833,668
25.76667,668
25.77500,668
25.78333,668
25.79167,667
25.80000,667
25.80833,667
25.81667,668
25.82500,668
25.83333,668
25.84167,669
25.85000,669
25.85833,669
25.86667,669
25.87500,670
25.88333,670
25.89167,670
25.90000,671
25.90833,671
25.91667,671
25.92500,671
25.93333,672
25.94167,672
25.95000,673
25.95833,674
25.96667,674
25.97500,675
25.98333,675
25.99167,676
26.00000,676
26.00833,676
26.01667,677
26.02500,677
26.03333,677
26.04167,678
26.05000,678
26.05833,678
26.06667,678
26.07500,679
26.08333,678
26.09167,678
26.10000,678
26.10833,679
26.11667,679
26.12500,678
26.13333,678
26.14167,678
26.15000,678
26.15833,677
26.16667,676
26.17500,676
26.18333,675
26.19167,674
26.20000,674
26.20833,673
26.21667,673
26.22500,672
26.23333,671
26.24167,671
26.25000,670
26.25833,670
26.26667,669
26.27500,668
26.28333,667
26.29167,667
26.30000,666
26.30833,666
26.31667,666
26.32500,666
26.33333,665
26.34167,665
26.35000,665
26.35833,664
26.36667,664
26.37500,663
26.38333,663
26.39167,662
26.40000,662
26.40833,662
26.41667,662
26.42500,662
26.43333,662
26.44167,662
26.45000,662
26.45833,662
26.46667,662
26.47500,661
26.48333,662
26.49167,662
26.50000,662
26.50833,663
26.51667,663
26.52500,663
26.53333,663
26.54167,663
26.55000,664
26.55833,664
26.56667,664
26.57500,665
26.58333,665
26.59167,666
26.60000,666
26.60833,667
26.61667,667
26.62500,668
26.63333,668
26.64167,669
26.65000,669
26.65833,669
26.66667,669
26.67500,669
26.68333,669
26.69167,669
26.70000,669
26.70833,668
26.71667,668
26.72500,668
26.73333,668
26.74167,668
26.75000,668
26.75833,667
26.76667,667
26.77500,667
26.78333,667
26.79167,666
26.80000,666
26.80833,666
26.81667,665
26.82500,665
26.83333,665
26.84167,664
26.85000,663
26.85833,663
26.86667,663
26.87500,662
26.88333,662
26.89167,662
26.90000,661
26.90833,661
26.91667,660
26.92500,660
26.93333,659
26.94167,659
26.95000,659
26.95833,659
26.96667,658
26.97500,658
26.98333,658
26.99167,658
27.00000,658
27.00833,658
27.01667,658
27.02500,658
27.03333,658
27.04167,658
27.05000,658
27.05833,659
27.06667,659
27.07500,659
27.08333,659
27.09167,660
27.10000,660
27.10833,660
27.11667,660
27.12500,660
27.13333,660
27.14167,660
27.15000,660
27.15833,660
27.16667,660
27.17500,661
27.18333,661
27.19167,662
27.20000,662
27.20833,663
27.21667,663
27.22500,664
27.23333,664
27.24167,665
27.25000,665
27.25833,666
27.26667,666
27.27500,666
27.28333,667
27.29167,667
27.30000,668
27.30833,668
27.31667,669
27.32500,670
27.33333,670
27.34167,671
27.35000,671
27.35833,672
27.36667,672
27.37500,673
27.38333,674
27.39167,675
27.40000,675
27.40833,676
27.41667,676
27.42500,676
27.43333,677
27.44167,677
27.45000,677
27.45833,678
27.46667,679
27.47500,680
27.48333,680
27.49167,681
27.50000,681
27.50833,681
27.51667,681
27.52500,681
27.53333,682
27.54167,682
27.55000,682
27.55833,682
27.56667,682
27.57500,682
27.58333,681
27.59167,681
27.60000,680
27.60833,679
27.61667,679
27.62500,678
27.63333,678
27.64167,678
27.65000,677
27.65833,677
27.66667,676
27.67500,676
27.68333,676
27.69167,676
27.70000,675
27.70833,675
27.71667,674
27.72500,674
27.73333,673
27.74167,672
27.75000,671
27.75833,670
27.76667,669
27.77500,668
27.78333,667
27.79167,666
27.80000,665
27.80833,664
27.81667,663
27.82500,662
27.83333,661
27.84167,659
27.85000,658
27.85833,656
27.86667,654
27.87500,652
27.88333,650
27.89167,648
27.90000,645
27.90833,643
27.91667,641
27.92500,638
27.93333,635
27.94167,632
27.95000,630
27.95833,627
27.96667,623
27.97500,619
27.98333,615
27.99167,611
28.00000,606
28.00833,601
28.01667,596
28.02500,590
28.03333,584
28.04167,577
28.05000,569
28.05833,562
28.06667,554
28.07500,546
28.08333,537
28.09167,528
28.10000,519
28.10833,509
28.11667,499
28.12500,488
28.13333,477
28.14167,465
28.15000,452
28.15833,439
28.16667,426
28.17500,412
28.18333,397
28.19167,382
28.20000,367
28.20833,352
28.21667,335
28.22500,319
28.23333,301
28.24167,284
28.25000,267
28.25833,249
28.26667,231
28.27500,212
28.28333,193
28.29167,174
28.30000,155
28.30833,135
28.31667,116
28.32500,97
28.33333,77
28.34167,57
28.35000,38
28.35833,18
28.36667,-2
28.37500,-21
28.38333,-40
28.39167,-58
28.40000,-77
28.40833,-95
28.41667,-112
28.42500,-130
28.43333,-147
28.44167,-163
28.45000,-179
28.45833,-195
28.46667,-209
28.47500,-223
28.48333,-237
28.49167,-249
28.50000,-261
28.50833,-272
28.51667,-282
28.52500,-292
28.53333,-301
28.54167,-309
28.55000,-317
28.55833,-324
28.56667,-330
28.57500,-335
28.58333,-339
28.59167,-343
28.60000,-345
28.60833,-348
28.61667,-349
28.62500,-350
28.63333,-350
28.64167,-349
28.65000,-348
28.65833,-346
28.66667,-344
28.67500,-341
28.68333,-337
28.69167,-333
28.70000,-328
28.70833,-323
28.71667,-318
28.72500,-313
28.73333,-307
28.74167,-301
28.75000,-295
28.75833,-288
28.76667,-281
28.77500,-273
28.78333,-266
28.79167,-258
28.80000,-251
28.80833,-244
28.81667,-236
28.82500,-229
28.83333,-221
28.84167,-214
28.85000,-206
28.85833,-198
28.86667,-191
28.87500,-183
28.88333,-176
28.89167,-169
28.90000,-162
28.90833,-155
28.91667,-148
28.92500,-141
28.93333,-134
28.94167,-127
28.95000,-120
28.95833,-113
28.96667,-106
28.97500,-100
28.98333,-94
28.99167,-88
29.00000,-82
29.00833,-75
29.01667,-69
29.02500,-63
29.03333,-57
29.04167,-51
29.05000,-46
29.05833,-41
29.06667,-35
29.07500,-30
29.08333,-24
29.09167,-19
29.10000,-14
29.10833,-9
29.11667,-4
29.12500,0
29.13333,5
29.14167,10
29.15000,15
29.15833,20
29.16667,25
29.17500,30
29.18333,34
29.19167,39
29.20000,43
29.20833,48
29.21667,52
29.22500,57
29.23333,61
29.24167,65
29.25000,70
29.25833,74
29.26667,78
29.27500,82
29.28333,86
29.29167,89
29.30000,93
29.30833,97
29.31667,101
29.32500,104
29.33333,108
29.34167,111
29.35000,114
29.35833,118
29.36667,121
29.37500,124
29.38333,127
29.39167,130
29.40000,133
29.40833,136
29.41667,139
29.42500,142
29.43333,144
29.44167,147
29.45000,150
29.45833,153
29.46667,156
29.47500,158
29.48333,161
29.49167,163
29.50000,165
29.50833,168
29.51667,170
29.52500,172
29.53333,174
29.54167,177
29.55000,179
29.55833,181
29.56667,184
29.57500,186
29.58333,188
29.59167,189
29.60000,191
29.60833,193
29.61667,195
29.62500,196
29.63333,198
29.64167,199
29.65000,200
29.65833,201
29.66667,202
29.67500,204
29.68333,205
29.69167,205
29.70000,206
29.70833,206
29.71667,207
29.72500,207
29.73333,208
29.74167,208
29.75000,208
29.75833,207
29.76667,207
29.77500,206
29.78333,205
29.79167,205
29.80000,204
29.80833,203
29.81667,201
29.82500,199
29.83333,197
29.84167,195
29.85000,193
29.85833,191
29.86667,190
29.87500,187
29.88333,185
29.89167,181
29.90000,178
29.90833,175
29.91667,172
29.92500,169
29.93333,165
29.94167,162
29.95000,158
29.95833,154
29.96667,150
29.97500,145
29.98333,141
29.99167,136
30.00000,130

