[Header]
Application Name,LabSolutions
Version,5.97 SP1
Data File Name,C:\Users\cremerlab\Desktop\griffin\2021-02-15_NCM_diauxie_turnover\2021-02-15_NCM_acetate_glucose_diauxie_turnover_2152021_001.lcd
Output Date,2/16/2021
Output Time,8:46:40 AM

[File Information]
Type,Data File
Generated,2/15/2021 8:25:21 PM
Generated by,System Administrator
Modified,2/15/2021 8:55:39 PM
Modified by,System Administrator

[Sample Information]
Operator Name,System Administrator
Acquired,2/15/2021 8:25:39 PM
Sample Type,0:Unknown
Level,0
Sample Name,NCM diauxic shift timepoint 1
Sample ID,001
ISTD Amount1,1
ISTD Amount2,1
ISTD Amount3,1
ISTD Amount4,1
ISTD Amount5,1
ISTD Amount6,1
ISTD Amount7,1
ISTD Amount8,1
ISTD Amount9,1
ISTD Amount10,1
ISTD Amount11,1
ISTD Amount12,1
ISTD Amount13,1
ISTD Amount14,1
ISTD Amount15,1
ISTD Amount16,1
ISTD Amount17,1
ISTD Amount18,1
ISTD Amount19,1
ISTD Amount20,1
ISTD Amount21,1
ISTD Amount22,1
ISTD Amount23,1
ISTD Amount24,1
ISTD Amount25,1
ISTD Amount26,1
ISTD Amount27,1
ISTD Amount28,1
ISTD Amount29,1
ISTD Amount30,1
ISTD Amount31,1
ISTD Amount32,1
Sample Amount,1
Dilution Factor,1
Vial#,1
Injection Volume,20

[Original Files]
Data File,C:\Users\cremerlab\Desktop\griffin\2021-02-15_NCM_diauxie_turnover\2021-02-15_NCM_acetate_glucose_diauxie_turnover_2152021_001.lcd
Method File,C:\LabSolutions\Data\Project1\organicacidsetc.lcm
Batch File,C:\Users\cremerlab\Desktop\griffin\2021-02-15_NCM_diauxie_turnover\2021-02-15_NCM_acetate_glucose_diauxie_turnover.lcb
Report Format File,c:\LabSolutions\System\DEFAULT.lsr

[File Description]


[Configuration]
Instrument Name,HPLC-PC-Instrument1
Instrument #,1
Line #,1
# of Detectors,2
Detector ID,Detector A,Detector B
Detector Name,Detector A,Detector B
# of Channels,1,1

[Peak Table(Detector A)]
# of Peaks,0

[Peak Table(Detector B)]
# of Peaks,4
Peak#,R.Time,I.Time,F.Time,Area,Height,A/H,Conc.,Mark,ID#,Name,k',Plate #,Plate Ht.,Tailing,Resolution,Sep.Factor,Area Ratio,Height Ratio,Conc. %,Norm Conc.
1,10.876,10.625,11.492,149204,9629,15.496,0.000,   ,,,0.000,11323,13.248,1.273,0.000,0.000,0,0,0.000,0.000
2,13.452,12.533,14.475,529056,20076,26.353,0.000,   ,,,0.237,5392,27.820,0.715,4.513,0.000,0,0,0.000,0.000
3,15.557,15.158,16.125,8652,387,22.382,0.000,   ,,,0.430,10641,14.096,1.128,3.151,1.817,0,0,0.000,0.000
4,24.903,24.258,25.625,45016,1616,27.863,0.000,   ,,,1.290,18025,8.322,1.017,13.895,2.996,0,0,0.000,0.000

[Compound Results(Detector A)]
# of IDs,0

[Compound Results(Detector B)]
# of IDs,0

[LC Chromatogram(Detector B-Ch1)]
Interval(msec),500
# of Points,3601
Start Time(min),0.000
End Time(min),30.000
Intensity Units,mV
Intensity Multiplier,0.001
R.Time (min),Intensity
0.00000,-7
0.00833,-7
0.01667,-1
0.02500,-0
0.03333,-0
0.04167,-1
0.05000,-3
0.05833,-6
0.06667,-8
0.07500,-9
0.08333,-9
0.09167,-9
0.10000,-8
0.10833,-7
0.11667,-6
0.12500,-5
0.13333,-4
0.14167,-2
0.15000,-2
0.15833,-1
0.16667,-1
0.17500,-0
0.18333,0
0.19167,0
0.20000,0
0.20833,0
0.21667,0
0.22500,0
0.23333,0
0.24167,0
0.25000,0
0.25833,0
0.26667,2
0.27500,3
0.28333,3
0.29167,3
0.30000,2
0.30833,1
0.31667,-0
0.32500,-2
0.33333,-3
0.34167,-4
0.35000,-5
0.35833,-6
0.36667,-7
0.37500,-8
0.38333,-8
0.39167,-9
0.40000,-9
0.40833,-10
0.41667,-10
0.42500,-10
0.43333,-10
0.44167,-10
0.45000,-10
0.45833,-10
0.46667,-10
0.47500,-10
0.48333,-11
0.49167,-11
0.50000,-11
0.50833,-11
0.51667,-10
0.52500,-10
0.53333,-10
0.54167,-10
0.55000,-10
0.55833,-10
0.56667,-10
0.57500,-10
0.58333,-9
0.59167,-9
0.60000,-9
0.60833,-9
0.61667,-8
0.62500,-8
0.63333,-9
0.64167,-10
0.65000,-10
0.65833,-11
0.66667,-12
0.67500,-13
0.68333,-14
0.69167,-15
0.70000,-15
0.70833,-16
0.71667,-16
0.72500,-17
0.73333,-17
0.74167,-17
0.75000,-17
0.75833,-17
0.76667,-17
0.77500,-18
0.78333,-18
0.79167,-18
0.80000,-18
0.80833,-18
0.81667,-17
0.82500,-17
0.83333,-17
0.84167,-17
0.85000,-17
0.85833,-16
0.86667,-16
0.87500,-16
0.88333,-16
0.89167,-16
0.90000,-16
0.90833,-17
0.91667,-17
0.92500,-17
0.93333,-18
0.94167,-18
0.95000,-19
0.95833,-19
0.96667,-19
0.97500,-20
0.98333,-20
0.99167,-20
1.00000,-20
1.00833,-21
1.01667,-21
1.02500,-22
1.03333,-22
1.04167,-23
1.05000,-23
1.05833,-23
1.06667,-24
1.07500,-24
1.08333,-25
1.09167,-25
1.10000,-25
1.10833,-25
1.11667,-25
1.12500,-25
1.13333,-25
1.14167,-25
1.15000,-25
1.15833,-25
1.16667,-26
1.17500,-26
1.18333,-26
1.19167,-26
1.20000,-26
1.20833,-26
1.21667,-26
1.22500,-26
1.23333,-26
1.24167,-26
1.25000,-26
1.25833,-26
1.26667,-26
1.27500,-25
1.28333,-25
1.29167,-25
1.30000,-24
1.30833,-24
1.31667,-23
1.32500,-23
1.33333,-23
1.34167,-22
1.35000,-22
1.35833,-22
1.36667,-21
1.37500,-21
1.38333,-21
1.39167,-21
1.40000,-20
1.40833,-20
1.41667,-19
1.42500,-19
1.43333,-19
1.44167,-18
1.45000,-18
1.45833,-18
1.46667,-17
1.47500,-17
1.48333,-16
1.49167,-16
1.50000,-16
1.50833,-15
1.51667,-15
1.52500,-14
1.53333,-14
1.54167,-13
1.55000,-13
1.55833,-13
1.56667,-12
1.57500,-12
1.58333,-11
1.59167,-10
1.60000,-10
1.60833,-10
1.61667,-9
1.62500,-9
1.63333,-8
1.64167,-7
1.65000,-6
1.65833,-6
1.66667,-5
1.67500,-5
1.68333,-4
1.69167,-4
1.70000,-4
1.70833,-4
1.71667,-4
1.72500,-4
1.73333,-3
1.74167,-3
1.75000,-3
1.75833,-3
1.76667,-3
1.77500,-3
1.78333,-3
1.79167,-3
1.80000,-3
1.80833,-3
1.81667,-3
1.82500,-3
1.83333,-4
1.84167,-4
1.85000,-5
1.85833,-6
1.86667,-6
1.87500,-7
1.88333,-7
1.89167,-8
1.90000,-9
1.90833,-9
1.91667,-10
1.92500,-10
1.93333,-11
1.94167,-12
1.95000,-13
1.95833,-14
1.96667,-15
1.97500,-16
1.98333,-17
1.99167,-18
2.00000,-19
2.00833,-20
2.01667,-21
2.02500,-22
2.03333,-23
2.04167,-24
2.05000,-25
2.05833,-26
2.06667,-26
2.07500,-27
2.08333,-28
2.09167,-29
2.10000,-30
2.10833,-31
2.11667,-32
2.12500,-32
2.13333,-32
2.14167,-33
2.15000,-33
2.15833,-33
2.16667,-33
2.17500,-34
2.18333,-35
2.19167,-35
2.20000,-35
2.20833,-35
2.21667,-35
2.22500,-36
2.23333,-35
2.24167,-35
2.25000,-35
2.25833,-35
2.26667,-35
2.27500,-35
2.28333,-35
2.29167,-35
2.30000,-35
2.30833,-35
2.31667,-35
2.32500,-35
2.33333,-35
2.34167,-35
2.35000,-34
2.35833,-34
2.36667,-33
2.37500,-33
2.38333,-32
2.39167,-32
2.40000,-32
2.40833,-32
2.41667,-31
2.42500,-31
2.43333,-30
2.44167,-30
2.45000,-29
2.45833,-28
2.46667,-28
2.47500,-27
2.48333,-27
2.49167,-26
2.50000,-25
2.50833,-25
2.51667,-24
2.52500,-23
2.53333,-23
2.54167,-22
2.55000,-22
2.55833,-22
2.56667,-22
2.57500,-22
2.58333,-22
2.59167,-22
2.60000,-21
2.60833,-21
2.61667,-20
2.62500,-20
2.63333,-20
2.64167,-20
2.65000,-20
2.65833,-19
2.66667,-19
2.67500,-19
2.68333,-19
2.69167,-18
2.70000,-19
2.70833,-19
2.71667,-19
2.72500,-19
2.73333,-19
2.74167,-19
2.75000,-19
2.75833,-19
2.76667,-19
2.77500,-19
2.78333,-19
2.79167,-20
2.80000,-20
2.80833,-20
2.81667,-20
2.82500,-21
2.83333,-22
2.84167,-23
2.85000,-23
2.85833,-24
2.86667,-24
2.87500,-25
2.88333,-25
2.89167,-26
2.90000,-27
2.90833,-27
2.91667,-28
2.92500,-28
2.93333,-29
2.94167,-29
2.95000,-30
2.95833,-31
2.96667,-31
2.97500,-32
2.98333,-32
2.99167,-32
3.00000,-32
3.00833,-33
3.01667,-33
3.02500,-34
3.03333,-34
3.04167,-35
3.05000,-35
3.05833,-36
3.06667,-36
3.07500,-36
3.08333,-37
3.09167,-37
3.10000,-37
3.10833,-37
3.11667,-37
3.12500,-37
3.13333,-37
3.14167,-37
3.15000,-37
3.15833,-37
3.16667,-37
3.17500,-37
3.18333,-37
3.19167,-37
3.20000,-37
3.20833,-36
3.21667,-36
3.22500,-35
3.23333,-35
3.24167,-34
3.25000,-34
3.25833,-33
3.26667,-33
3.27500,-33
3.28333,-33
3.29167,-32
3.30000,-31
3.30833,-31
3.31667,-30
3.32500,-29
3.33333,-29
3.34167,-28
3.35000,-28
3.35833,-27
3.36667,-27
3.37500,-26
3.38333,-26
3.39167,-25
3.40000,-25
3.40833,-24
3.41667,-24
3.42500,-23
3.43333,-23
3.44167,-22
3.45000,-21
3.45833,-21
3.46667,-20
3.47500,-19
3.48333,-19
3.49167,-19
3.50000,-19
3.50833,-18
3.51667,-18
3.52500,-18
3.53333,-17
3.54167,-17
3.55000,-17
3.55833,-17
3.56667,-16
3.57500,-16
3.58333,-16
3.59167,-15
3.60000,-15
3.60833,-15
3.61667,-14
3.62500,-14
3.63333,-14
3.64167,-13
3.65000,-13
3.65833,-13
3.66667,-13
3.67500,-13
3.68333,-13
3.69167,-13
3.70000,-13
3.70833,-13
3.71667,-13
3.72500,-13
3.73333,-13
3.74167,-13
3.75000,-12
3.75833,-12
3.76667,-11
3.77500,-11
3.78333,-11
3.79167,-11
3.80000,-11
3.80833,-11
3.81667,-11
3.82500,-11
3.83333,-11
3.84167,-11
3.85000,-11
3.85833,-11
3.86667,-11
3.87500,-10
3.88333,-10
3.89167,-10
3.90000,-10
3.90833,-10
3.91667,-10
3.92500,-10
3.93333,-10
3.94167,-10
3.95000,-10
3.95833,-10
3.96667,-10
3.97500,-10
3.98333,-10
3.99167,-10
4.00000,-10
4.00833,-10
4.01667,-10
4.02500,-10
4.03333,-10
4.04167,-10
4.05000,-10
4.05833,-10
4.06667,-10
4.07500,-10
4.08333,-10
4.09167,-10
4.10000,-10
4.10833,-10
4.11667,-10
4.12500,-10
4.13333,-10
4.14167,-10
4.15000,-9
4.15833,-10
4.16667,-10
4.17500,-10
4.18333,-11
4.19167,-11
4.20000,-11
4.20833,-11
4.21667,-11
4.22500,-11
4.23333,-11
4.24167,-11
4.25000,-12
4.25833,-12
4.26667,-12
4.27500,-13
4.28333,-13
4.29167,-13
4.30000,-13
4.30833,-13
4.31667,-14
4.32500,-14
4.33333,-14
4.34167,-14
4.35000,-15
4.35833,-15
4.36667,-15
4.37500,-15
4.38333,-15
4.39167,-15
4.40000,-16
4.40833,-16
4.41667,-16
4.42500,-16
4.43333,-16
4.44167,-17
4.45000,-17
4.45833,-18
4.46667,-18
4.47500,-18
4.48333,-18
4.49167,-18
4.50000,-19
4.50833,-19
4.51667,-20
4.52500,-21
4.53333,-21
4.54167,-22
4.55000,-22
4.55833,-23
4.56667,-23
4.57500,-24
4.58333,-24
4.59167,-24
4.60000,-24
4.60833,-25
4.61667,-25
4.62500,-25
4.63333,-26
4.64167,-26
4.65000,-27
4.65833,-27
4.66667,-28
4.67500,-28
4.68333,-28
4.69167,-28
4.70000,-29
4.70833,-29
4.71667,-29
4.72500,-30
4.73333,-30
4.74167,-30
4.75000,-30
4.75833,-30
4.76667,-31
4.77500,-31
4.78333,-32
4.79167,-32
4.80000,-32
4.80833,-33
4.81667,-33
4.82500,-34
4.83333,-35
4.84167,-35
4.85000,-35
4.85833,-35
4.86667,-35
4.87500,-35
4.88333,-35
4.89167,-35
4.90000,-35
4.90833,-35
4.91667,-34
4.92500,-34
4.93333,-34
4.94167,-34
4.95000,-34
4.95833,-34
4.96667,-33
4.97500,-33
4.98333,-33
4.99167,-33
5.00000,-33
5.00833,-33
5.01667,-32
5.02500,-32
5.03333,-32
5.04167,-32
5.05000,-32
5.05833,-32
5.06667,-31
5.07500,-31
5.08333,-31
5.09167,-30
5.10000,-30
5.10833,-30
5.11667,-29
5.12500,-29
5.13333,-28
5.14167,-28
5.15000,-27
5.15833,-27
5.16667,-26
5.17500,-25
5.18333,-25
5.19167,-24
5.20000,-24
5.20833,-23
5.21667,-22
5.22500,-22
5.23333,-21
5.24167,-21
5.25000,-20
5.25833,-20
5.26667,-19
5.27500,-19
5.28333,-18
5.29167,-18
5.30000,-18
5.30833,-17
5.31667,-17
5.32500,-16
5.33333,-15
5.34167,-15
5.35000,-14
5.35833,-13
5.36667,-12
5.37500,-12
5.38333,-11
5.39167,-11
5.40000,-11
5.40833,-10
5.41667,-10
5.42500,-10
5.43333,-10
5.44167,-10
5.45000,-10
5.45833,-9
5.46667,-9
5.47500,-9
5.48333,-9
5.49167,-9
5.50000,-9
5.50833,-8
5.51667,-8
5.52500,-8
5.53333,-8
5.54167,-9
5.55000,-9
5.55833,-9
5.56667,-9
5.57500,-9
5.58333,-10
5.59167,-10
5.60000,-10
5.60833,-10
5.61667,-10
5.62500,-11
5.63333,-11
5.64167,-11
5.65000,-12
5.65833,-13
5.66667,-14
5.67500,-15
5.68333,-16
5.69167,-16
5.70000,-16
5.70833,-17
5.71667,-17
5.72500,-18
5.73333,-18
5.74167,-19
5.75000,-20
5.75833,-20
5.76667,-20
5.77500,-21
5.78333,-22
5.79167,-23
5.80000,-24
5.80833,-25
5.81667,-25
5.82500,-26
5.83333,-26
5.84167,-26
5.85000,-26
5.85833,-26
5.86667,-26
5.87500,-27
5.88333,-27
5.89167,-27
5.90000,-27
5.90833,-27
5.91667,-27
5.92500,-27
5.93333,-27
5.94167,-27
5.95000,-27
5.95833,-27
5.96667,-27
5.97500,-27
5.98333,-27
5.99167,-27
6.00000,-27
6.00833,-27
6.01667,-27
6.02500,-28
6.03333,-28
6.04167,-27
6.05000,-27
6.05833,-27
6.06667,-27
6.07500,-27
6.08333,-27
6.09167,-27
6.10000,-27
6.10833,-27
6.11667,-27
6.12500,-27
6.13333,-27
6.14167,-27
6.15000,-27
6.15833,-27
6.16667,-27
6.17500,-27
6.18333,-27
6.19167,-27
6.20000,-27
6.20833,-27
6.21667,-27
6.22500,-28
6.23333,-28
6.24167,-28
6.25000,-28
6.25833,-28
6.26667,-28
6.27500,-28
6.28333,-28
6.29167,-28
6.30000,-28
6.30833,-28
6.31667,-28
6.32500,-28
6.33333,-28
6.34167,-28
6.35000,-28
6.35833,-28
6.36667,-28
6.37500,-28
6.38333,-28
6.39167,-28
6.40000,-28
6.40833,-28
6.41667,-28
6.42500,-28
6.43333,-29
6.44167,-29
6.45000,-29
6.45833,-29
6.46667,-29
6.47500,-29
6.48333,-30
6.49167,-30
6.50000,-31
6.50833,-31
6.51667,-31
6.52500,-31
6.53333,-31
6.54167,-31
6.55000,-31
6.55833,-31
6.56667,-32
6.57500,-32
6.58333,-33
6.59167,-33
6.60000,-33
6.60833,-34
6.61667,-34
6.62500,-34
6.63333,-34
6.64167,-34
6.65000,-34
6.65833,-34
6.66667,-34
6.67500,-35
6.68333,-34
6.69167,-34
6.70000,-35
6.70833,-35
6.71667,-35
6.72500,-35
6.73333,-35
6.74167,-35
6.75000,-35
6.75833,-35
6.76667,-35
6.77500,-35
6.78333,-34
6.79167,-34
6.80000,-33
6.80833,-33
6.81667,-32
6.82500,-32
6.83333,-31
6.84167,-31
6.85000,-31
6.85833,-31
6.86667,-30
6.87500,-30
6.88333,-29
6.89167,-29
6.90000,-29
6.90833,-29
6.91667,-28
6.92500,-28
6.93333,-27
6.94167,-26
6.95000,-25
6.95833,-25
6.96667,-24
6.97500,-23
6.98333,-23
6.99167,-22
7.00000,-21
7.00833,-21
7.01667,-20
7.02500,-20
7.03333,-19
7.04167,-19
7.05000,-18
7.05833,-18
7.06667,-18
7.07500,-17
7.08333,-17
7.09167,-17
7.10000,-16
7.10833,-16
7.11667,-16
7.12500,-16
7.13333,-17
7.14167,-17
7.15000,-17
7.15833,-17
7.16667,-17
7.17500,-17
7.18333,-17
7.19167,-18
7.20000,-18
7.20833,-19
7.21667,-19
7.22500,-20
7.23333,-20
7.24167,-21
7.25000,-22
7.25833,-22
7.26667,-23
7.27500,-23
7.28333,-24
7.29167,-25
7.30000,-26
7.30833,-26
7.31667,-27
7.32500,-27
7.33333,-28
7.34167,-29
7.35000,-31
7.35833,-31
7.36667,-32
7.37500,-33
7.38333,-34
7.39167,-35
7.40000,-35
7.40833,-36
7.41667,-37
7.42500,-38
7.43333,-38
7.44167,-38
7.45000,-39
7.45833,-39
7.46667,-40
7.47500,-40
7.48333,-41
7.49167,-41
7.50000,-42
7.50833,-42
7.51667,-43
7.52500,-43
7.53333,-43
7.54167,-43
7.55000,-43
7.55833,-43
7.56667,-43
7.57500,-43
7.58333,-43
7.59167,-43
7.60000,-42
7.60833,-42
7.61667,-41
7.62500,-41
7.63333,-40
7.64167,-39
7.65000,-39
7.65833,-39
7.66667,-39
7.67500,-38
7.68333,-37
7.69167,-36
7.70000,-35
7.70833,-34
7.71667,-33
7.72500,-32
7.73333,-31
7.74167,-30
7.75000,-29
7.75833,-28
7.76667,-28
7.77500,-27
7.78333,-26
7.79167,-26
7.80000,-25
7.80833,-23
7.81667,-22
7.82500,-22
7.83333,-21
7.84167,-20
7.85000,-19
7.85833,-18
7.86667,-16
7.87500,-16
7.88333,-15
7.89167,-14
7.90000,-13
7.90833,-12
7.91667,-12
7.92500,-11
7.93333,-10
7.94167,-9
7.95000,-8
7.95833,-7
7.96667,-7
7.97500,-7
7.98333,-6
7.99167,-6
8.00000,-6
8.00833,-5
8.01667,-5
8.02500,-5
8.03333,-6
8.04167,-6
8.05000,-6
8.05833,-6
8.06667,-6
8.07500,-6
8.08333,-6
8.09167,-6
8.10000,-6
8.10833,-6
8.11667,-7
8.12500,-7
8.13333,-7
8.14167,-7
8.15000,-7
8.15833,-7
8.16667,-8
8.17500,-8
8.18333,-9
8.19167,-9
8.20000,-10
8.20833,-10
8.21667,-11
8.22500,-12
8.23333,-13
8.24167,-13
8.25000,-14
8.25833,-14
8.26667,-15
8.27500,-16
8.28333,-16
8.29167,-17
8.30000,-17
8.30833,-18
8.31667,-18
8.32500,-19
8.33333,-19
8.34167,-20
8.35000,-20
8.35833,-21
8.36667,-21
8.37500,-21
8.38333,-22
8.39167,-23
8.40000,-24
8.40833,-24
8.41667,-24
8.42500,-25
8.43333,-26
8.44167,-26
8.45000,-26
8.45833,-27
8.46667,-27
8.47500,-27
8.48333,-28
8.49167,-28
8.50000,-28
8.50833,-28
8.51667,-28
8.52500,-28
8.53333,-28
8.54167,-28
8.55000,-28
8.55833,-28
8.56667,-28
8.57500,-28
8.58333,-28
8.59167,-29
8.60000,-29
8.60833,-29
8.61667,-29
8.62500,-28
8.63333,-28
8.64167,-28
8.65000,-27
8.65833,-27
8.66667,-27
8.67500,-27
8.68333,-28
8.69167,-28
8.70000,-28
8.70833,-27
8.71667,-27
8.72500,-27
8.73333,-26
8.74167,-26
8.75000,-25
8.75833,-25
8.76667,-25
8.77500,-25
8.78333,-24
8.79167,-24
8.80000,-24
8.80833,-24
8.81667,-24
8.82500,-24
8.83333,-24
8.84167,-24
8.85000,-23
8.85833,-23
8.86667,-23
8.87500,-23
8.88333,-23
8.89167,-23
8.90000,-23
8.90833,-22
8.91667,-22
8.92500,-22
8.93333,-22
8.94167,-23
8.95000,-23
8.95833,-23
8.96667,-24
8.97500,-24
8.98333,-24
8.99167,-24
9.00000,-24
9.00833,-25
9.01667,-25
9.02500,-25
9.03333,-26
9.04167,-26
9.05000,-27
9.05833,-27
9.06667,-28
9.07500,-29
9.08333,-29
9.09167,-29
9.10000,-30
9.10833,-30
9.11667,-31
9.12500,-32
9.13333,-33
9.14167,-33
9.15000,-33
9.15833,-34
9.16667,-34
9.17500,-34
9.18333,-35
9.19167,-35
9.20000,-36
9.20833,-37
9.21667,-37
9.22500,-38
9.23333,-39
9.24167,-40
9.25000,-40
9.25833,-41
9.26667,-41
9.27500,-41
9.28333,-41
9.29167,-41
9.30000,-41
9.30833,-41
9.31667,-41
9.32500,-42
9.33333,-42
9.34167,-41
9.35000,-41
9.35833,-41
9.36667,-40
9.37500,-40
9.38333,-40
9.39167,-39
9.40000,-39
9.40833,-38
9.41667,-37
9.42500,-37
9.43333,-36
9.44167,-36
9.45000,-35
9.45833,-35
9.46667,-34
9.47500,-33
9.48333,-32
9.49167,-31
9.50000,-30
9.50833,-29
9.51667,-28
9.52500,-28
9.53333,-27
9.54167,-26
9.55000,-25
9.55833,-24
9.56667,-23
9.57500,-22
9.58333,-21
9.59167,-20
9.60000,-18
9.60833,-18
9.61667,-17
9.62500,-16
9.63333,-16
9.64167,-15
9.65000,-14
9.65833,-14
9.66667,-13
9.67500,-13
9.68333,-12
9.69167,-12
9.70000,-11
9.70833,-11
9.71667,-10
9.72500,-9
9.73333,-9
9.74167,-8
9.75000,-8
9.75833,-8
9.76667,-8
9.77500,-8
9.78333,-8
9.79167,-8
9.80000,-8
9.80833,-7
9.81667,-7
9.82500,-7
9.83333,-7
9.84167,-7
9.85000,-7
9.85833,-7
9.86667,-7
9.87500,-8
9.88333,-8
9.89167,-8
9.90000,-9
9.90833,-10
9.91667,-10
9.92500,-11
9.93333,-12
9.94167,-12
9.95000,-13
9.95833,-13
9.96667,-14
9.97500,-15
9.98333,-15
9.99167,-16
10.00000,-16
10.00833,-16
10.01667,-17
10.02500,-17
10.03333,-18
10.04167,-18
10.05000,-19
10.05833,-19
10.06667,-20
10.07500,-20
10.08333,-21
10.09167,-21
10.10000,-22
10.10833,-22
10.11667,-22
10.12500,-22
10.13333,-23
10.14167,-23
10.15000,-23
10.15833,-24
10.16667,-24
10.17500,-24
10.18333,-24
10.19167,-25
10.20000,-25
10.20833,-25
10.21667,-25
10.22500,-25
10.23333,-25
10.24167,-25
10.25000,-25
10.25833,-25
10.26667,-25
10.27500,-25
10.28333,-24
10.29167,-24
10.30000,-24
10.30833,-24
10.31667,-24
10.32500,-24
10.33333,-24
10.34167,-24
10.35000,-24
10.35833,-24
10.36667,-24
10.37500,-24
10.38333,-25
10.39167,-26
10.40000,-26
10.40833,-28
10.41667,-30
10.42500,-32
10.43333,-35
10.44167,-39
10.45000,-44
10.45833,-50
10.46667,-59
10.47500,-70
10.48333,-85
10.49167,-102
10.50000,-123
10.50833,-148
10.51667,-178
10.52500,-213
10.53333,-253
10.54167,-297
10.55000,-346
10.55833,-398
10.56667,-451
10.57500,-505
10.58333,-557
10.59167,-605
10.60000,-645
10.60833,-675
10.61667,-690
10.62500,-687
10.63333,-662
10.64167,-611
10.65000,-531
10.65833,-418
10.66667,-270
10.67500,-83
10.68333,143
10.69167,410
10.70000,719
10.70833,1067
10.71667,1455
10.72500,1880
10.73333,2339
10.74167,2827
10.75000,3340
10.75833,3872
10.76667,4416
10.77500,4965
10.78333,5512
10.79167,6047
10.80000,6564
10.80833,7053
10.81667,7505
10.82500,7914
10.83333,8272
10.84167,8574
10.85000,8814
10.85833,8989
10.86667,9097
10.87500,9136
10.88333,9108
10.89167,9016
10.90000,8862
10.90833,8652
10.91667,8390
10.92500,8085
10.93333,7742
10.94167,7369
10.95000,6973
10.95833,6561
10.96667,6140
10.97500,5715
10.98333,5293
10.99167,4878
11.00000,4475
11.00833,4086
11.01667,3715
11.02500,3364
11.03333,3033
11.04167,2724
11.05000,2438
11.05833,2174
11.06667,1932
11.07500,1711
11.08333,1510
11.09167,1329
11.10000,1166
11.10833,1020
11.11667,890
11.12500,774
11.13333,672
11.14167,581
11.15000,502
11.15833,433
11.16667,373
11.17500,320
11.18333,275
11.19167,235
11.20000,201
11.20833,172
11.21667,147
11.22500,125
11.23333,106
11.24167,90
11.25000,76
11.25833,64
11.26667,54
11.27500,45
11.28333,37
11.29167,30
11.30000,25
11.30833,20
11.31667,16
11.32500,12
11.33333,9
11.34167,6
11.35000,4
11.35833,2
11.36667,0
11.37500,-1
11.38333,-3
11.39167,-4
11.40000,-6
11.40833,-7
11.41667,-8
11.42500,-10
11.43333,-10
11.44167,-11
11.45000,-12
11.45833,-13
11.46667,-13
11.47500,-13
11.48333,-14
11.49167,-14
11.50000,-15
11.50833,-15
11.51667,-15
11.52500,-15
11.53333,-15
11.54167,-15
11.55000,-16
11.55833,-16
11.56667,-16
11.57500,-16
11.58333,-16
11.59167,-16
11.60000,-16
11.60833,-17
11.61667,-17
11.62500,-17
11.63333,-18
11.64167,-18
11.65000,-19
11.65833,-19
11.66667,-20
11.67500,-21
11.68333,-21
11.69167,-22
11.70000,-23
11.70833,-25
11.71667,-25
11.72500,-27
11.73333,-28
11.74167,-29
11.75000,-30
11.75833,-31
11.76667,-32
11.77500,-33
11.78333,-35
11.79167,-36
11.80000,-37
11.80833,-39
11.81667,-40
11.82500,-41
11.83333,-43
11.84167,-44
11.85000,-45
11.85833,-45
11.86667,-46
11.87500,-47
11.88333,-48
11.89167,-49
11.90000,-50
11.90833,-50
11.91667,-50
11.92500,-51
11.93333,-51
11.94167,-51
11.95000,-51
11.95833,-50
11.96667,-50
11.97500,-50
11.98333,-50
11.99167,-50
12.00000,-50
12.00833,-49
12.01667,-49
12.02500,-48
12.03333,-48
12.04167,-48
12.05000,-47
12.05833,-46
12.06667,-46
12.07500,-45
12.08333,-44
12.09167,-43
12.10000,-42
12.10833,-42
12.11667,-41
12.12500,-40
12.13333,-40
12.14167,-39
12.15000,-38
12.15833,-37
12.16667,-37
12.17500,-36
12.18333,-35
12.19167,-35
12.20000,-35
12.20833,-35
12.21667,-35
12.22500,-34
12.23333,-34
12.24167,-34
12.25000,-34
12.25833,-34
12.26667,-34
12.27500,-33
12.28333,-33
12.29167,-33
12.30000,-33
12.30833,-33
12.31667,-32
12.32500,-32
12.33333,-31
12.34167,-31
12.35000,-30
12.35833,-30
12.36667,-29
12.37500,-29
12.38333,-29
12.39167,-29
12.40000,-28
12.40833,-28
12.41667,-27
12.42500,-27
12.43333,-27
12.44167,-26
12.45000,-25
12.45833,-25
12.46667,-24
12.47500,-24
12.48333,-24
12.49167,-23
12.50000,-23
12.50833,-22
12.51667,-22
12.52500,-22
12.53333,-21
12.54167,-20
12.55000,-19
12.55833,-18
12.56667,-16
12.57500,-14
12.58333,-12
12.59167,-10
12.60000,-8
12.60833,-5
12.61667,-1
12.62500,4
12.63333,9
12.64167,16
12.65000,24
12.65833,33
12.66667,44
12.67500,58
12.68333,73
12.69167,92
12.70000,113
12.70833,138
12.71667,167
12.72500,201
12.73333,239
12.74167,282
12.75000,331
12.75833,385
12.76667,445
12.77500,513
12.78333,587
12.79167,668
12.80000,756
12.80833,852
12.81667,954
12.82500,1064
12.83333,1182
12.84167,1306
12.85000,1438
12.85833,1577
12.86667,1723
12.87500,1875
12.88333,2035
12.89167,2200
12.90000,2372
12.90833,2550
12.91667,2734
12.92500,2923
12.93333,3118
12.94167,3318
12.95000,3523
12.95833,3733
12.96667,3947
12.97500,4166
12.98333,4389
12.99167,4616
13.00000,4847
13.00833,5082
13.01667,5320
13.02500,5561
13.03333,5805
13.04167,6053
13.05000,6305
13.05833,6559
13.06667,6815
13.07500,7076
13.08333,7339
13.09167,7604
13.10000,7873
13.10833,8143
13.11667,8417
13.12500,8692
13.13333,8970
13.14167,9250
13.15000,9533
13.15833,9818
13.16667,10106
13.17500,10395
13.18333,10687
13.19167,10981
13.20000,11277
13.20833,11576
13.21667,11876
13.22500,12179
13.23333,12483
13.24167,12789
13.25000,13098
13.25833,13408
13.26667,13721
13.27500,14036
13.28333,14352
13.29167,14671
13.30000,14991
13.30833,15313
13.31667,15637
13.32500,15962
13.33333,16287
13.34167,16614
13.35000,16941
13.35833,17269
13.36667,17597
13.37500,17923
13.38333,18247
13.39167,18565
13.40000,18873
13.40833,19167
13.41667,19439
13.42500,19679
13.43333,19876
13.44167,20015
13.45000,20081
13.45833,20059
13.46667,19933
13.47500,19690
13.48333,19321
13.49167,18822
13.50000,18195
13.50833,17448
13.51667,16593
13.52500,15649
13.53333,14637
13.54167,13580
13.55000,12502
13.55833,11425
13.56667,10369
13.57500,9352
13.58333,8387
13.59167,7484
13.60000,6648
13.60833,5884
13.61667,5191
13.62500,4569
13.63333,4013
13.64167,3521
13.65000,3087
13.65833,2706
13.66667,2373
13.67500,2083
13.68333,1831
13.69167,1612
13.70000,1423
13.70833,1259
13.71667,1117
13.72500,995
13.73333,889
13.74167,797
13.75000,717
13.75833,648
13.76667,587
13.77500,535
13.78333,489
13.79167,449
13.80000,413
13.80833,382
13.81667,354
13.82500,330
13.83333,308
13.84167,289
13.85000,271
13.85833,255
13.86667,241
13.87500,227
13.88333,216
13.89167,205
13.90000,195
13.90833,186
13.91667,177
13.92500,170
13.93333,163
13.94167,156
13.95000,150
13.95833,145
13.96667,139
13.97500,134
13.98333,129
13.99167,125
14.00000,121
14.00833,116
14.01667,113
14.02500,109
14.03333,106
14.04167,103
14.05000,100
14.05833,97
14.06667,95
14.07500,92
14.08333,90
14.09167,87
14.10000,85
14.10833,83
14.11667,80
14.12500,78
14.13333,76
14.14167,75
14.15000,73
14.15833,71
14.16667,70
14.17500,68
14.18333,66
14.19167,65
14.20000,64
14.20833,62
14.21667,61
14.22500,60
14.23333,58
14.24167,57
14.25000,56
14.25833,55
14.26667,54
14.27500,53
14.28333,52
14.29167,51
14.30000,50
14.30833,49
14.31667,48
14.32500,47
14.33333,46
14.34167,45
14.35000,44
14.35833,43
14.36667,42
14.37500,41
14.38333,41
14.39167,40
14.40000,40
14.40833,40
14.41667,39
14.42500,38
14.43333,38
14.44167,37
14.45000,36
14.45833,36
14.46667,35
14.47500,35
14.48333,35
14.49167,35
14.50000,35
14.50833,36
14.51667,36
14.52500,36
14.53333,36
14.54167,36
14.55000,36
14.55833,36
14.56667,36
14.57500,36
14.58333,36
14.59167,37
14.60000,37
14.60833,37
14.61667,37
14.62500,37
14.63333,37
14.64167,37
14.65000,38
14.65833,38
14.66667,38
14.67500,38
14.68333,38
14.69167,38
14.70000,38
14.70833,38
14.71667,38
14.72500,38
14.73333,38
14.74167,37
14.75000,37
14.75833,38
14.76667,38
14.77500,38
14.78333,38
14.79167,38
14.80000,38
14.80833,38
14.81667,38
14.82500,38
14.83333,38
14.84167,38
14.85000,38
14.85833,39
14.86667,38
14.87500,38
14.88333,38
14.89167,38
14.90000,38
14.90833,38
14.91667,38
14.92500,38
14.93333,38
14.94167,38
14.95000,38
14.95833,38
14.96667,38
14.97500,38
14.98333,38
14.99167,37
15.00000,37
15.00833,37
15.01667,37
15.02500,37
15.03333,37
15.04167,37
15.05000,36
15.05833,36
15.06667,36
15.07500,35
15.08333,35
15.09167,35
15.10000,34
15.10833,34
15.11667,33
15.12500,33
15.13333,33
15.14167,33
15.15000,33
15.15833,33
15.16667,34
15.17500,35
15.18333,36
15.19167,37
15.20000,39
15.20833,41
15.21667,43
15.22500,46
15.23333,49
15.24167,52
15.25000,56
15.25833,60
15.26667,65
15.27500,70
15.28333,76
15.29167,83
15.30000,91
15.30833,99
15.31667,108
15.32500,118
15.33333,128
15.34167,139
15.35000,151
15.35833,163
15.36667,176
15.37500,189
15.38333,203
15.39167,217
15.40000,231
15.40833,246
15.41667,260
15.42500,274
15.43333,288
15.44167,302
15.45000,316
15.45833,328
15.46667,340
15.47500,352
15.48333,362
15.49167,371
15.50000,380
15.50833,387
15.51667,394
15.52500,399
15.53333,403
15.54167,405
15.55000,407
15.55833,407
15.56667,407
15.57500,404
15.58333,401
15.59167,397
15.60000,392
15.60833,386
15.61667,379
15.62500,371
15.63333,362
15.64167,352
15.65000,342
15.65833,332
15.66667,321
15.67500,309
15.68333,298
15.69167,286
15.70000,273
15.70833,261
15.71667,250
15.72500,238
15.73333,226
15.74167,215
15.75000,204
15.75833,192
15.76667,181
15.77500,170
15.78333,160
15.79167,150
15.80000,141
15.80833,132
15.81667,123
15.82500,114
15.83333,107
15.84167,99
15.85000,91
15.85833,84
15.86667,78
15.87500,72
15.88333,66
15.89167,61
15.90000,56
15.90833,51
15.91667,47
15.92500,42
15.93333,39
15.94167,35
15.95000,31
15.95833,28
15.96667,26
15.97500,23
15.98333,21
15.99167,19
16.00000,17
16.00833,15
16.01667,13
16.02500,12
16.03333,11
16.04167,10
16.05000,9
16.05833,8
16.06667,7
16.07500,6
16.08333,6
16.09167,5
16.10000,5
16.10833,4
16.11667,4
16.12500,4
16.13333,3
16.14167,3
16.15000,3
16.15833,3
16.16667,3
16.17500,3
16.18333,3
16.19167,3
16.20000,2
16.20833,2
16.21667,2
16.22500,2
16.23333,2
16.24167,3
16.25000,3
16.25833,3
16.26667,3
16.27500,3
16.28333,3
16.29167,3
16.30000,3
16.30833,3
16.31667,3
16.32500,3
16.33333,4
16.34167,4
16.35000,4
16.35833,5
16.36667,5
16.37500,6
16.38333,6
16.39167,6
16.40000,6
16.40833,7
16.41667,7
16.42500,7
16.43333,8
16.44167,8
16.45000,8
16.45833,8
16.46667,8
16.47500,8
16.48333,8
16.49167,9
16.50000,9
16.50833,10
16.51667,10
16.52500,11
16.53333,11
16.54167,11
16.55000,11
16.55833,12
16.56667,12
16.57500,12
16.58333,12
16.59167,13
16.60000,13
16.60833,13
16.61667,13
16.62500,13
16.63333,13
16.64167,12
16.65000,12
16.65833,11
16.66667,11
16.67500,10
16.68333,10
16.69167,9
16.70000,9
16.70833,9
16.71667,8
16.72500,8
16.73333,8
16.74167,7
16.75000,7
16.75833,6
16.76667,5
16.77500,5
16.78333,5
16.79167,5
16.80000,4
16.80833,3
16.81667,3
16.82500,2
16.83333,1
16.84167,1
16.85000,-0
16.85833,-1
16.86667,-1
16.87500,-2
16.88333,-3
16.89167,-3
16.90000,-4
16.90833,-5
16.91667,-6
16.92500,-7
16.93333,-7
16.94167,-8
16.95000,-9
16.95833,-10
16.96667,-11
16.97500,-12
16.98333,-12
16.99167,-13
17.00000,-13
17.00833,-14
17.01667,-14
17.02500,-15
17.03333,-15
17.04167,-15
17.05000,-16
17.05833,-16
17.06667,-16
17.07500,-17
17.08333,-17
17.09167,-18
17.10000,-19
17.10833,-19
17.11667,-19
17.12500,-20
17.13333,-20
17.14167,-20
17.15000,-21
17.15833,-21
17.16667,-21
17.17500,-21
17.18333,-22
17.19167,-22
17.20000,-22
17.20833,-22
17.21667,-22
17.22500,-23
17.23333,-23
17.24167,-24
17.25000,-24
17.25833,-24
17.26667,-24
17.27500,-25
17.28333,-26
17.29167,-26
17.30000,-27
17.30833,-27
17.31667,-27
17.32500,-27
17.33333,-27
17.34167,-28
17.35000,-28
17.35833,-28
17.36667,-28
17.37500,-28
17.38333,-29
17.39167,-29
17.40000,-28
17.40833,-28
17.41667,-28
17.42500,-29
17.43333,-29
17.44167,-28
17.45000,-28
17.45833,-28
17.46667,-28
17.47500,-28
17.48333,-27
17.49167,-28
17.50000,-28
17.50833,-28
17.51667,-28
17.52500,-28
17.53333,-28
17.54167,-28
17.55000,-27
17.55833,-27
17.56667,-26
17.57500,-25
17.58333,-25
17.59167,-24
17.60000,-23
17.60833,-23
17.61667,-22
17.62500,-22
17.63333,-21
17.64167,-21
17.65000,-20
17.65833,-20
17.66667,-20
17.67500,-19
17.68333,-19
17.69167,-19
17.70000,-19
17.70833,-18
17.71667,-18
17.72500,-18
17.73333,-18
17.74167,-17
17.75000,-17
17.75833,-16
17.76667,-16
17.77500,-16
17.78333,-15
17.79167,-15
17.80000,-15
17.80833,-14
17.81667,-14
17.82500,-14
17.83333,-14
17.84167,-13
17.85000,-13
17.85833,-13
17.86667,-13
17.87500,-13
17.88333,-12
17.89167,-12
17.90000,-12
17.90833,-11
17.91667,-11
17.92500,-11
17.93333,-10
17.94167,-10
17.95000,-10
17.95833,-9
17.96667,-9
17.97500,-10
17.98333,-10
17.99167,-10
18.00000,-10
18.00833,-10
18.01667,-10
18.02500,-10
18.03333,-10
18.04167,-10
18.05000,-10
18.05833,-10
18.06667,-9
18.07500,-9
18.08333,-9
18.09167,-9
18.10000,-10
18.10833,-11
18.11667,-11
18.12500,-11
18.13333,-12
18.14167,-12
18.15000,-13
18.15833,-13
18.16667,-13
18.17500,-13
18.18333,-13
18.19167,-14
18.20000,-15
18.20833,-16
18.21667,-16
18.22500,-17
18.23333,-17
18.24167,-17
18.25000,-18
18.25833,-18
18.26667,-19
18.27500,-19
18.28333,-20
18.29167,-20
18.30000,-21
18.30833,-21
18.31667,-21
18.32500,-21
18.33333,-22
18.34167,-22
18.35000,-23
18.35833,-23
18.36667,-23
18.37500,-24
18.38333,-24
18.39167,-24
18.40000,-24
18.40833,-24
18.41667,-23
18.42500,-23
18.43333,-23
18.44167,-22
18.45000,-22
18.45833,-22
18.46667,-21
18.47500,-21
18.48333,-20
18.49167,-20
18.50000,-20
18.50833,-19
18.51667,-19
18.52500,-19
18.53333,-18
18.54167,-18
18.55000,-17
18.55833,-16
18.56667,-16
18.57500,-15
18.58333,-14
18.59167,-14
18.60000,-14
18.60833,-14
18.61667,-13
18.62500,-13
18.63333,-12
18.64167,-11
18.65000,-10
18.65833,-10
18.66667,-9
18.67500,-9
18.68333,-8
18.69167,-7
18.70000,-6
18.70833,-6
18.71667,-5
18.72500,-5
18.73333,-4
18.74167,-3
18.75000,-2
18.75833,-1
18.76667,-1
18.77500,-0
18.78333,0
18.79167,1
18.80000,1
18.80833,1
18.81667,2
18.82500,2
18.83333,2
18.84167,2
18.85000,2
18.85833,2
18.86667,3
18.87500,3
18.88333,3
18.89167,2
18.90000,2
18.90833,2
18.91667,1
18.92500,1
18.93333,0
18.94167,-0
18.95000,-1
18.95833,-1
18.96667,-2
18.97500,-3
18.98333,-4
18.99167,-5
19.00000,-5
19.00833,-5
19.01667,-6
19.02500,-6
19.03333,-7
19.04167,-7
19.05000,-8
19.05833,-8
19.06667,-8
19.07500,-9
19.08333,-9
19.09167,-10
19.10000,-11
19.10833,-11
19.11667,-11
19.12500,-12
19.13333,-12
19.14167,-12
19.15000,-12
19.15833,-12
19.16667,-12
19.17500,-12
19.18333,-12
19.19167,-12
19.20000,-12
19.20833,-12
19.21667,-12
19.22500,-12
19.23333,-12
19.24167,-12
19.25000,-12
19.25833,-12
19.26667,-12
19.27500,-12
19.28333,-12
19.29167,-12
19.30000,-11
19.30833,-11
19.31667,-11
19.32500,-11
19.33333,-11
19.34167,-10
19.35000,-10
19.35833,-10
19.36667,-11
19.37500,-11
19.38333,-10
19.39167,-10
19.40000,-10
19.40833,-10
19.41667,-10
19.42500,-10
19.43333,-9
19.44167,-9
19.45000,-9
19.45833,-9
19.46667,-9
19.47500,-9
19.48333,-9
19.49167,-10
19.50000,-10
19.50833,-10
19.51667,-11
19.52500,-11
19.53333,-11
19.54167,-12
19.55000,-12
19.55833,-12
19.56667,-12
19.57500,-12
19.58333,-12
19.59167,-13
19.60000,-13
19.60833,-14
19.61667,-14
19.62500,-14
19.63333,-14
19.64167,-14
19.65000,-14
19.65833,-14
19.66667,-14
19.67500,-14
19.68333,-15
19.69167,-15
19.70000,-15
19.70833,-15
19.71667,-15
19.72500,-16
19.73333,-16
19.74167,-16
19.75000,-16
19.75833,-16
19.76667,-16
19.77500,-16
19.78333,-16
19.79167,-17
19.80000,-17
19.80833,-17
19.81667,-17
19.82500,-17
19.83333,-17
19.84167,-17
19.85000,-16
19.85833,-16
19.86667,-16
19.87500,-16
19.88333,-16
19.89167,-15
19.90000,-15
19.90833,-15
19.91667,-14
19.92500,-15
19.93333,-14
19.94167,-14
19.95000,-14
19.95833,-14
19.96667,-14
19.97500,-14
19.98333,-13
19.99167,-13
20.00000,-13
20.00833,-12
20.01667,-12
20.02500,-12
20.03333,-12
20.04167,-11
20.05000,-11
20.05833,-10
20.06667,-10
20.07500,-10
20.08333,-9
20.09167,-9
20.10000,-10
20.10833,-10
20.11667,-10
20.12500,-10
20.13333,-10
20.14167,-10
20.15000,-10
20.15833,-10
20.16667,-10
20.17500,-10
20.18333,-10
20.19167,-10
20.20000,-11
20.20833,-11
20.21667,-11
20.22500,-11
20.23333,-11
20.24167,-12
20.25000,-12
20.25833,-12
20.26667,-12
20.27500,-12
20.28333,-12
20.29167,-12
20.30000,-12
20.30833,-12
20.31667,-12
20.32500,-13
20.33333,-13
20.34167,-13
20.35000,-14
20.35833,-15
20.36667,-15
20.37500,-15
20.38333,-15
20.39167,-16
20.40000,-16
20.40833,-17
20.41667,-17
20.42500,-18
20.43333,-18
20.44167,-18
20.45000,-18
20.45833,-19
20.46667,-19
20.47500,-19
20.48333,-19
20.49167,-19
20.50000,-19
20.50833,-20
20.51667,-20
20.52500,-20
20.53333,-20
20.54167,-21
20.55000,-21
20.55833,-22
20.56667,-22
20.57500,-21
20.58333,-22
20.59167,-22
20.60000,-22
20.60833,-22
20.61667,-22
20.62500,-22
20.63333,-22
20.64167,-22
20.65000,-22
20.65833,-22
20.66667,-22
20.67500,-21
20.68333,-21
20.69167,-21
20.70000,-21
20.70833,-21
20.71667,-20
20.72500,-20
20.73333,-20
20.74167,-20
20.75000,-20
20.75833,-19
20.76667,-18
20.77500,-17
20.78333,-17
20.79167,-16
20.80000,-16
20.80833,-16
20.81667,-15
20.82500,-15
20.83333,-15
20.84167,-14
20.85000,-14
20.85833,-15
20.86667,-14
20.87500,-13
20.88333,-13
20.89167,-13
20.90000,-12
20.90833,-12
20.91667,-12
20.92500,-12
20.93333,-12
20.94167,-12
20.95000,-12
20.95833,-12
20.96667,-11
20.97500,-11
20.98333,-11
20.99167,-11
21.00000,-11
21.00833,-11
21.01667,-11
21.02500,-11
21.03333,-12
21.04167,-12
21.05000,-12
21.05833,-12
21.06667,-12
21.07500,-12
21.08333,-12
21.09167,-12
21.10000,-12
21.10833,-12
21.11667,-12
21.12500,-13
21.13333,-13
21.14167,-14
21.15000,-14
21.15833,-15
21.16667,-15
21.17500,-15
21.18333,-16
21.19167,-16
21.20000,-17
21.20833,-17
21.21667,-17
21.22500,-17
21.23333,-17
21.24167,-17
21.25000,-17
21.25833,-17
21.26667,-17
21.27500,-17
21.28333,-17
21.29167,-17
21.30000,-17
21.30833,-17
21.31667,-16
21.32500,-16
21.33333,-16
21.34167,-15
21.35000,-15
21.35833,-15
21.36667,-15
21.37500,-14
21.38333,-14
21.39167,-14
21.40000,-13
21.40833,-13
21.41667,-12
21.42500,-12
21.43333,-12
21.44167,-11
21.45000,-11
21.45833,-11
21.46667,-11
21.47500,-11
21.48333,-10
21.49167,-9
21.50000,-9
21.50833,-9
21.51667,-9
21.52500,-8
21.53333,-8
21.54167,-7
21.55000,-7
21.55833,-7
21.56667,-7
21.57500,-7
21.58333,-6
21.59167,-6
21.60000,-6
21.60833,-6
21.61667,-6
21.62500,-6
21.63333,-5
21.64167,-5
21.65000,-5
21.65833,-5
21.66667,-5
21.67500,-5
21.68333,-5
21.69167,-5
21.70000,-6
21.70833,-6
21.71667,-6
21.72500,-6
21.73333,-6
21.74167,-6
21.75000,-7
21.75833,-7
21.76667,-7
21.77500,-8
21.78333,-8
21.79167,-8
21.80000,-8
21.80833,-9
21.81667,-9
21.82500,-10
21.83333,-10
21.84167,-10
21.85000,-10
21.85833,-11
21.86667,-11
21.87500,-11
21.88333,-11
21.89167,-12
21.90000,-12
21.90833,-13
21.91667,-13
21.92500,-13
21.93333,-14
21.94167,-14
21.95000,-14
21.95833,-14
21.96667,-15
21.97500,-15
21.98333,-15
21.99167,-15
22.00000,-15
22.00833,-16
22.01667,-16
22.02500,-17
22.03333,-18
22.04167,-18
22.05000,-19
22.05833,-19
22.06667,-20
22.07500,-20
22.08333,-20
22.09167,-21
22.10000,-21
22.10833,-21
22.11667,-22
22.12500,-22
22.13333,-23
22.14167,-23
22.15000,-24
22.15833,-24
22.16667,-24
22.17500,-25
22.18333,-24
22.19167,-24
22.20000,-25
22.20833,-25
22.21667,-25
22.22500,-26
22.23333,-26
22.24167,-26
22.25000,-27
22.25833,-27
22.26667,-28
22.27500,-28
22.28333,-28
22.29167,-27
22.30000,-27
22.30833,-27
22.31667,-27
22.32500,-27
22.33333,-27
22.34167,-27
22.35000,-27
22.35833,-27
22.36667,-27
22.37500,-27
22.38333,-27
22.39167,-28
22.40000,-27
22.40833,-28
22.41667,-28
22.42500,-27
22.43333,-28
22.44167,-28
22.45000,-28
22.45833,-28
22.46667,-28
22.47500,-28
22.48333,-29
22.49167,-28
22.50000,-28
22.50833,-27
22.51667,-27
22.52500,-26
22.53333,-26
22.54167,-26
22.55000,-26
22.55833,-26
22.56667,-25
22.57500,-25
22.58333,-25
22.59167,-25
22.60000,-25
22.60833,-25
22.61667,-25
22.62500,-25
22.63333,-25
22.64167,-24
22.65000,-24
22.65833,-24
22.66667,-24
22.67500,-24
22.68333,-24
22.69167,-23
22.70000,-23
22.70833,-22
22.71667,-22
22.72500,-22
22.73333,-21
22.74167,-21
22.75000,-21
22.75833,-20
22.76667,-20
22.77500,-19
22.78333,-19
22.79167,-19
22.80000,-18
22.80833,-18
22.81667,-17
22.82500,-17
22.83333,-17
22.84167,-16
22.85000,-16
22.85833,-15
22.86667,-15
22.87500,-15
22.88333,-14
22.89167,-14
22.90000,-13
22.90833,-13
22.91667,-12
22.92500,-11
22.93333,-11
22.94167,-10
22.95000,-10
22.95833,-10
22.96667,-9
22.97500,-8
22.98333,-8
22.99167,-7
23.00000,-7
23.00833,-6
23.01667,-6
23.02500,-5
23.03333,-5
23.04167,-4
23.05000,-4
23.05833,-3
23.06667,-2
23.07500,-2
23.08333,-1
23.09167,-1
23.10000,-1
23.10833,-0
23.11667,-0
23.12500,0
23.13333,1
23.14167,1
23.15000,1
23.15833,2
23.16667,2
23.17500,2
23.18333,2
23.19167,2
23.20000,2
23.20833,3
23.21667,3
23.22500,3
23.23333,3
23.24167,3
23.25000,3
23.25833,3
23.26667,3
23.27500,3
23.28333,3
23.29167,3
23.30000,2
23.30833,2
23.31667,2
23.32500,2
23.33333,2
23.34167,2
23.35000,2
23.35833,2
23.36667,2
23.37500,1
23.38333,0
23.39167,0
23.40000,-0
23.40833,-0
23.41667,-0
23.42500,-0
23.43333,-1
23.44167,-1
23.45000,-2
23.45833,-3
23.46667,-4
23.47500,-4
23.48333,-5
23.49167,-5
23.50000,-5
23.50833,-5
23.51667,-6
23.52500,-6
23.53333,-6
23.54167,-6
23.55000,-7
23.55833,-7
23.56667,-7
23.57500,-7
23.58333,-8
23.59167,-8
23.60000,-8
23.60833,-8
23.61667,-8
23.62500,-8
23.63333,-8
23.64167,-8
23.65000,-8
23.65833,-8
23.66667,-8
23.67500,-8
23.68333,-8
23.69167,-8
23.70000,-8
23.70833,-8
23.71667,-8
23.72500,-7
23.73333,-7
23.74167,-8
23.75000,-8
23.75833,-8
23.76667,-7
23.77500,-7
23.78333,-7
23.79167,-7
23.80000,-7
23.80833,-6
23.81667,-6
23.82500,-6
23.83333,-6
23.84167,-6
23.85000,-7
23.85833,-7
23.86667,-6
23.87500,-6
23.88333,-6
23.89167,-7
23.90000,-7
23.90833,-7
23.91667,-7
23.92500,-7
23.93333,-7
23.94167,-7
23.95000,-7
23.95833,-7
23.96667,-7
23.97500,-7
23.98333,-7
23.99167,-7
24.00000,-7
24.00833,-8
24.01667,-8
24.02500,-8
24.03333,-9
24.04167,-9
24.05000,-9
24.05833,-9
24.06667,-9
24.07500,-10
24.08333,-10
24.09167,-11
24.10000,-11
24.10833,-11
24.11667,-11
24.12500,-11
24.13333,-10
24.14167,-10
24.15000,-10
24.15833,-9
24.16667,-8
24.17500,-8
24.18333,-7
24.19167,-7
24.20000,-7
24.20833,-6
24.21667,-6
24.22500,-5
24.23333,-5
24.24167,-4
24.25000,-4
24.25833,-3
24.26667,-2
24.27500,-1
24.28333,0
24.29167,2
24.30000,3
24.30833,5
24.31667,7
24.32500,9
24.33333,11
24.34167,13
24.35000,16
24.35833,18
24.36667,21
24.37500,25
24.38333,29
24.39167,34
24.40000,39
24.40833,45
24.41667,51
24.42500,57
24.43333,64
24.44167,71
24.45000,80
24.45833,88
24.46667,98
24.47500,108
24.48333,120
24.49167,133
24.50000,146
24.50833,160
24.51667,176
24.52500,192
24.53333,210
24.54167,229
24.55000,249
24.55833,271
24.56667,294
24.57500,319
24.58333,346
24.59167,373
24.60000,403
24.60833,433
24.61667,465
24.62500,499
24.63333,535
24.64167,571
24.65000,609
24.65833,648
24.66667,689
24.67500,730
24.68333,773
24.69167,816
24.70000,860
24.70833,904
24.71667,948
24.72500,993
24.73333,1038
24.74167,1083
24.75000,1127
24.75833,1171
24.76667,1213
24.77500,1256
24.78333,1296
24.79167,1335
24.80000,1372
24.80833,1407
24.81667,1440
24.82500,1471
24.83333,1499
24.84167,1524
24.85000,1547
24.85833,1566
24.86667,1583
24.87500,1596
24.88333,1606
24.89167,1612
24.90000,1616
24.90833,1615
24.91667,1612
24.92500,1605
24.93333,1594
24.94167,1581
24.95000,1565
24.95833,1546
24.96667,1523
24.97500,1498
24.98333,1471
24.99167,1441
25.00000,1408
25.00833,1374
25.01667,1338
25.02500,1301
25.03333,1262
25.04167,1222
25.05000,1180
25.05833,1138
25.06667,1096
25.07500,1053
25.08333,1011
25.09167,968
25.10000,925
25.10833,882
25.11667,840
25.12500,798
25.13333,757
25.14167,717
25.15000,678
25.15833,640
25.16667,603
25.17500,567
25.18333,533
25.19167,499
25.20000,468
25.20833,437
25.21667,408
25.22500,380
25.23333,353
25.24167,328
25.25000,305
25.25833,282
25.26667,261
25.27500,241
25.28333,222
25.29167,205
25.30000,188
25.30833,172
25.31667,157
25.32500,143
25.33333,130
25.34167,119
25.35000,108
25.35833,98
25.36667,90
25.37500,81
25.38333,74
25.39167,67
25.40000,60
25.40833,55
25.41667,50
25.42500,45
25.43333,40
25.44167,36
25.45000,33
25.45833,29
25.46667,27
25.47500,24
25.48333,21
25.49167,19
25.50000,17
25.50833,16
25.51667,14
25.52500,13
25.53333,11
25.54167,10
25.55000,9
25.55833,8
25.56667,7
25.57500,6
25.58333,6
25.59167,5
25.60000,4
25.60833,4
25.61667,4
25.62500,3
25.63333,3
25.64167,3
25.65000,4
25.65833,4
25.66667,4
25.67500,4
25.68333,4
25.69167,4
25.70000,3
25.70833,3
25.71667,3
25.72500,2
25.73333,1
25.74167,1
25.75000,0
25.75833,-0
25.76667,-0
25.77500,-1
25.78333,-1
25.79167,-2
25.80000,-2
25.80833,-2
25.81667,-2
25.82500,-2
25.83333,-2
25.84167,-3
25.85000,-3
25.85833,-3
25.86667,-4
25.87500,-4
25.88333,-4
25.89167,-5
25.90000,-5
25.90833,-6
25.91667,-6
25.92500,-6
25.93333,-7
25.94167,-7
25.95000,-7
25.95833,-7
25.96667,-8
25.97500,-8
25.98333,-8
25.99167,-9
26.00000,-9
26.00833,-9
26.01667,-9
26.02500,-9
26.03333,-9
26.04167,-8
26.05000,-9
26.05833,-9
26.06667,-9
26.07500,-9
26.08333,-9
26.09167,-9
26.10000,-9
26.10833,-10
26.11667,-10
26.12500,-10
26.13333,-9
26.14167,-9
26.15000,-9
26.15833,-9
26.16667,-9
26.17500,-9
26.18333,-9
26.19167,-9
26.20000,-10
26.20833,-10
26.21667,-10
26.22500,-9
26.23333,-9
26.24167,-9
26.25000,-9
26.25833,-9
26.26667,-9
26.27500,-9
26.28333,-9
26.29167,-9
26.30000,-9
26.30833,-8
26.31667,-8
26.32500,-8
26.33333,-8
26.34167,-8
26.35000,-8
26.35833,-8
26.36667,-8
26.37500,-9
26.38333,-9
26.39167,-9
26.40000,-9
26.40833,-9
26.41667,-9
26.42500,-9
26.43333,-9
26.44167,-10
26.45000,-10
26.45833,-10
26.46667,-10
26.47500,-10
26.48333,-10
26.49167,-10
26.50000,-10
26.50833,-11
26.51667,-11
26.52500,-11
26.53333,-12
26.54167,-12
26.55000,-13
26.55833,-13
26.56667,-13
26.57500,-13
26.58333,-13
26.59167,-13
26.60000,-13
26.60833,-13
26.61667,-13
26.62500,-14
26.63333,-14
26.64167,-14
26.65000,-14
26.65833,-14
26.66667,-14
26.67500,-14
26.68333,-14
26.69167,-14
26.70000,-14
26.70833,-14
26.71667,-14
26.72500,-14
26.73333,-13
26.74167,-12
26.75000,-12
26.75833,-11
26.76667,-11
26.77500,-11
26.78333,-11
26.79167,-10
26.80000,-10
26.80833,-10
26.81667,-10
26.82500,-9
26.83333,-9
26.84167,-9
26.85000,-8
26.85833,-8
26.86667,-8
26.87500,-8
26.88333,-8
26.89167,-8
26.90000,-9
26.90833,-9
26.91667,-8
26.92500,-8
26.93333,-8
26.94167,-9
26.95000,-9
26.95833,-9
26.96667,-10
26.97500,-10
26.98333,-10
26.99167,-10
27.00000,-10
27.00833,-11
27.01667,-11
27.02500,-11
27.03333,-11
27.04167,-12
27.05000,-12
27.05833,-12
27.06667,-12
27.07500,-12
27.08333,-12
27.09167,-13
27.10000,-13
27.10833,-14
27.11667,-14
27.12500,-14
27.13333,-14
27.14167,-15
27.15000,-15
27.15833,-15
27.16667,-15
27.17500,-15
27.18333,-15
27.19167,-15
27.20000,-15
27.20833,-15
27.21667,-15
27.22500,-14
27.23333,-14
27.24167,-14
27.25000,-14
27.25833,-14
27.26667,-13
27.27500,-14
27.28333,-14
27.29167,-14
27.30000,-14
27.30833,-14
27.31667,-14
27.32500,-13
27.33333,-13
27.34167,-13
27.35000,-13
27.35833,-13
27.36667,-13
27.37500,-13
27.38333,-12
27.39167,-12
27.40000,-12
27.40833,-12
27.41667,-12
27.42500,-12
27.43333,-12
27.44167,-11
27.45000,-11
27.45833,-11
27.46667,-11
27.47500,-11
27.48333,-11
27.49167,-11
27.50000,-11
27.50833,-11
27.51667,-10
27.52500,-10
27.53333,-10
27.54167,-10
27.55000,-10
27.55833,-9
27.56667,-10
27.57500,-9
27.58333,-9
27.59167,-9
27.60000,-9
27.60833,-9
27.61667,-10
27.62500,-10
27.63333,-10
27.64167,-10
27.65000,-11
27.65833,-11
27.66667,-12
27.67500,-12
27.68333,-13
27.69167,-13
27.70000,-14
27.70833,-14
27.71667,-14
27.72500,-14
27.73333,-15
27.74167,-15
27.75000,-16
27.75833,-16
27.76667,-17
27.77500,-18
27.78333,-19
27.79167,-20
27.80000,-20
27.80833,-21
27.81667,-22
27.82500,-23
27.83333,-24
27.84167,-25
27.85000,-26
27.85833,-27
27.86667,-28
27.87500,-29
27.88333,-31
27.89167,-32
27.90000,-34
27.90833,-36
27.91667,-38
27.92500,-41
27.93333,-43
27.94167,-46
27.95000,-49
27.95833,-52
27.96667,-55
27.97500,-59
27.98333,-63
27.99167,-66
28.00000,-70
28.00833,-75
28.01667,-80
28.02500,-85
28.03333,-90
28.04167,-96
28.05000,-102
28.05833,-109
28.06667,-116
28.07500,-123
28.08333,-130
28.09167,-138
28.10000,-146
28.10833,-155
28.11667,-165
28.12500,-174
28.13333,-184
28.14167,-195
28.15000,-205
28.15833,-217
28.16667,-229
28.17500,-241
28.18333,-255
28.19167,-268
28.20000,-281
28.20833,-295
28.21667,-309
28.22500,-324
28.23333,-339
28.24167,-354
28.25000,-370
28.25833,-386
28.26667,-402
28.27500,-418
28.28333,-434
28.29167,-450
28.30000,-467
28.30833,-483
28.31667,-500
28.32500,-517
28.33333,-534
28.34167,-550
28.35000,-567
28.35833,-583
28.36667,-600
28.37500,-615
28.38333,-630
28.39167,-645
28.40000,-660
28.40833,-674
28.41667,-687
28.42500,-700
28.43333,-713
28.44167,-725
28.45000,-736
28.45833,-746
28.46667,-756
28.47500,-765
28.48333,-774
28.49167,-781
28.50000,-788
28.50833,-795
28.51667,-800
28.52500,-805
28.53333,-809
28.54167,-813
28.55000,-815
28.55833,-817
28.56667,-818
28.57500,-818
28.58333,-818
28.59167,-817
28.60000,-814
28.60833,-812
28.61667,-808
28.62500,-805
28.63333,-800
28.64167,-795
28.65000,-789
28.65833,-783
28.66667,-776
28.67500,-769
28.68333,-761
28.69167,-754
28.70000,-746
28.70833,-737
28.71667,-728
28.72500,-719
28.73333,-710
28.74167,-701
28.75000,-691
28.75833,-681
28.76667,-671
28.77500,-661
28.78333,-651
28.79167,-642
28.80000,-632
28.80833,-623
28.81667,-613
28.82500,-603
28.83333,-593
28.84167,-584
28.85000,-574
28.85833,-565
28.86667,-556
28.87500,-547
28.88333,-539
28.89167,-530
28.90000,-522
28.90833,-514
28.91667,-506
28.92500,-498
28.93333,-490
28.94167,-483
28.95000,-476
28.95833,-470
28.96667,-463
28.97500,-457
28.98333,-451
28.99167,-445
29.00000,-439
29.00833,-434
29.01667,-429
29.02500,-424
29.03333,-418
29.04167,-414
29.05000,-409
29.05833,-404
29.06667,-400
29.07500,-397
29.08333,-393
29.09167,-389
29.10000,-385
29.10833,-382
29.11667,-378
29.12500,-376
29.13333,-373
29.14167,-370
29.15000,-368
29.15833,-366
29.16667,-363
29.17500,-361
29.18333,-359
29.19167,-357
29.20000,-355
29.20833,-353
29.21667,-352
29.22500,-350
29.23333,-349
29.24167,-348
29.25000,-347
29.25833,-345
29.26667,-344
29.27500,-343
29.28333,-342
29.29167,-341
29.30000,-340
29.30833,-339
29.31667,-339
29.32500,-338
29.33333,-338
29.34167,-337
29.35000,-337
29.35833,-336
29.36667,-336
29.37500,-335
29.38333,-335
29.39167,-334
29.40000,-334
29.40833,-333
29.41667,-333
29.42500,-333
29.43333,-332
29.44167,-333
29.45000,-333
29.45833,-332
29.46667,-332
29.47500,-332
29.48333,-332
29.49167,-332
29.50000,-332
29.50833,-332
29.51667,-332
29.52500,-331
29.53333,-331
29.54167,-331
29.55000,-331
29.55833,-331
29.56667,-331
29.57500,-331
29.58333,-331
29.59167,-332
29.60000,-332
29.60833,-333
29.61667,-333
29.62500,-333
29.63333,-334
29.64167,-334
29.65000,-335
29.65833,-336
29.66667,-336
29.67500,-337
29.68333,-338
29.69167,-339
29.70000,-340
29.70833,-341
29.71667,-342
29.72500,-343
29.73333,-344
29.74167,-345
29.75000,-347
29.75833,-348
29.76667,-350
29.77500,-352
29.78333,-354
29.79167,-356
29.80000,-358
29.80833,-360
29.81667,-362
29.82500,-364
29.83333,-367
29.84167,-370
29.85000,-373
29.85833,-376
29.86667,-379
29.87500,-382
29.88333,-385
29.89167,-389
29.90000,-392
29.90833,-395
29.91667,-399
29.92500,-403
29.93333,-407
29.94167,-410
29.95000,-414
29.95833,-419
29.96667,-423
29.97500,-427
29.98333,-432
29.99167,-436
30.00000,-441

