[Header]
Application Name,LabSolutions
Version,5.97 SP1
Data File Name,C:\Users\cremerlab\Desktop\griffin\2021-02-15_NCM_diauxie_turnover\2021-02-15_NCM_acetate_glucose_diauxie_turnover_2152021_003.lcd
Output Date,2/16/2021
Output Time,8:51:58 AM

[File Information]
Type,Data File
Generated,2/15/2021 9:26:00 PM
Generated by,System Administrator
Modified,2/15/2021 9:56:19 PM
Modified by,System Administrator

[Sample Information]
Operator Name,System Administrator
Acquired,2/15/2021 9:26:18 PM
Sample Type,0:Unknown
Level,0
Sample Name,NCM diauxic shift timepoint 3
Sample ID,003
ISTD Amount1,1
ISTD Amount2,1
ISTD Amount3,1
ISTD Amount4,1
ISTD Amount5,1
ISTD Amount6,1
ISTD Amount7,1
ISTD Amount8,1
ISTD Amount9,1
ISTD Amount10,1
ISTD Amount11,1
ISTD Amount12,1
ISTD Amount13,1
ISTD Amount14,1
ISTD Amount15,1
ISTD Amount16,1
ISTD Amount17,1
ISTD Amount18,1
ISTD Amount19,1
ISTD Amount20,1
ISTD Amount21,1
ISTD Amount22,1
ISTD Amount23,1
ISTD Amount24,1
ISTD Amount25,1
ISTD Amount26,1
ISTD Amount27,1
ISTD Amount28,1
ISTD Amount29,1
ISTD Amount30,1
ISTD Amount31,1
ISTD Amount32,1
Sample Amount,1
Dilution Factor,1
Vial#,3
Injection Volume,20

[Original Files]
Data File,C:\Users\cremerlab\Desktop\griffin\2021-02-15_NCM_diauxie_turnover\2021-02-15_NCM_acetate_glucose_diauxie_turnover_2152021_003.lcd
Method File,C:\LabSolutions\Data\Project1\organicacidsetc.lcm
Batch File,C:\Users\cremerlab\Desktop\griffin\2021-02-15_NCM_diauxie_turnover\2021-02-15_NCM_acetate_glucose_diauxie_turnover.lcb
Report Format File,c:\LabSolutions\System\DEFAULT.lsr

[File Description]


[Configuration]
Instrument Name,HPLC-PC-Instrument1
Instrument #,1
Line #,1
# of Detectors,2
Detector ID,Detector A,Detector B
Detector Name,Detector A,Detector B
# of Channels,1,1

[Peak Table(Detector A)]
# of Peaks,0

[Peak Table(Detector B)]
# of Peaks,5
Peak#,R.Time,I.Time,F.Time,Area,Height,A/H,Conc.,Mark,ID#,Name,k',Plate #,Plate Ht.,Tailing,Resolution,Sep.Factor,Area Ratio,Height Ratio,Conc. %,Norm Conc.
1,10.874,10.625,11.817,136924,8411,16.278,0.000,   ,,,0.000,11071,13.549,1.386,0.000,0.000,0,0,0.000,0.000
2,13.415,12.533,14.483,463777,18206,25.474,0.000,   ,,,0.234,5765,26.017,0.725,4.536,0.000,0,0,0.000,0.000
3,15.545,15.242,15.975,2511,126,19.953,0.000,   ,,,0.430,12496,12.004,1.125,3.374,1.839,0,0,0.000,0.000
4,24.911,24.308,25.583,38795,1415,27.414,0.000,   ,,,1.291,18502,8.107,1.022,14.534,3.005,0,0,0.000,0.000
5,29.658,28.658,29.967,12967,183,70.945,0.000,   ,,,1.727,8368,17.924,0.656,4.679,1.338,0,0,0.000,0.000

[Compound Results(Detector A)]
# of IDs,0

[Compound Results(Detector B)]
# of IDs,0

[LC Chromatogram(Detector B-Ch1)]
Interval(msec),500
# of Points,3601
Start Time(min),0.000
End Time(min),30.000
Intensity Units,mV
Intensity Multiplier,0.001
R.Time (min),Intensity
0.00000,-129
0.00833,-129
0.01667,-21
0.02500,0
0.03333,0
0.04167,-0
0.05000,-2
0.05833,-4
0.06667,-5
0.07500,-5
0.08333,-5
0.09167,-3
0.10000,-1
0.10833,2
0.11667,6
0.12500,10
0.13333,13
0.14167,17
0.15000,20
0.15833,24
0.16667,28
0.17500,32
0.18333,35
0.19167,38
0.20000,42
0.20833,45
0.21667,49
0.22500,52
0.23333,56
0.24167,60
0.25000,63
0.25833,67
0.26667,70
0.27500,74
0.28333,77
0.29167,81
0.30000,84
0.30833,88
0.31667,91
0.32500,94
0.33333,97
0.34167,100
0.35000,103
0.35833,106
0.36667,109
0.37500,112
0.38333,115
0.39167,117
0.40000,119
0.40833,121
0.41667,123
0.42500,126
0.43333,128
0.44167,131
0.45000,133
0.45833,135
0.46667,137
0.47500,139
0.48333,141
0.49167,143
0.50000,145
0.50833,147
0.51667,149
0.52500,151
0.53333,153
0.54167,155
0.55000,157
0.55833,159
0.56667,161
0.57500,163
0.58333,166
0.59167,168
0.60000,170
0.60833,171
0.61667,173
0.62500,174
0.63333,175
0.64167,176
0.65000,176
0.65833,177
0.66667,177
0.67500,177
0.68333,177
0.69167,177
0.70000,178
0.70833,178
0.71667,179
0.72500,180
0.73333,180
0.74167,181
0.75000,183
0.75833,184
0.76667,185
0.77500,187
0.78333,188
0.79167,190
0.80000,191
0.80833,193
0.81667,194
0.82500,195
0.83333,197
0.84167,198
0.85000,200
0.85833,201
0.86667,202
0.87500,203
0.88333,205
0.89167,206
0.90000,207
0.90833,207
0.91667,209
0.92500,210
0.93333,211
0.94167,212
0.95000,213
0.95833,214
0.96667,215
0.97500,216
0.98333,218
0.99167,219
1.00000,221
1.00833,222
1.01667,223
1.02500,224
1.03333,225
1.04167,226
1.05000,227
1.05833,228
1.06667,230
1.07500,231
1.08333,231
1.09167,232
1.10000,233
1.10833,234
1.11667,235
1.12500,236
1.13333,237
1.14167,238
1.15000,239
1.15833,240
1.16667,241
1.17500,242
1.18333,243
1.19167,244
1.20000,246
1.20833,247
1.21667,248
1.22500,249
1.23333,250
1.24167,251
1.25000,252
1.25833,253
1.26667,255
1.27500,256
1.28333,257
1.29167,258
1.30000,259
1.30833,260
1.31667,261
1.32500,262
1.33333,263
1.34167,264
1.35000,265
1.35833,266
1.36667,267
1.37500,268
1.38333,269
1.39167,270
1.40000,271
1.40833,271
1.41667,272
1.42500,274
1.43333,275
1.44167,276
1.45000,276
1.45833,278
1.46667,279
1.47500,280
1.48333,281
1.49167,282
1.50000,283
1.50833,284
1.51667,285
1.52500,286
1.53333,286
1.54167,287
1.55000,289
1.55833,290
1.56667,291
1.57500,292
1.58333,293
1.59167,294
1.60000,295
1.60833,296
1.61667,298
1.62500,298
1.63333,299
1.64167,299
1.65000,300
1.65833,300
1.66667,301
1.67500,302
1.68333,303
1.69167,304
1.70000,305
1.70833,306
1.71667,307
1.72500,308
1.73333,309
1.74167,310
1.75000,311
1.75833,312
1.76667,313
1.77500,313
1.78333,314
1.79167,315
1.80000,315
1.80833,315
1.81667,316
1.82500,317
1.83333,317
1.84167,318
1.85000,319
1.85833,319
1.86667,320
1.87500,321
1.88333,322
1.89167,323
1.90000,324
1.90833,324
1.91667,325
1.92500,326
1.93333,327
1.94167,327
1.95000,328
1.95833,329
1.96667,329
1.97500,329
1.98333,330
1.99167,331
2.00000,331
2.00833,332
2.01667,333
2.02500,333
2.03333,334
2.04167,334
2.05000,335
2.05833,336
2.06667,336
2.07500,337
2.08333,337
2.09167,337
2.10000,337
2.10833,338
2.11667,339
2.12500,339
2.13333,339
2.14167,340
2.15000,341
2.15833,341
2.16667,342
2.17500,342
2.18333,343
2.19167,344
2.20000,345
2.20833,346
2.21667,346
2.22500,347
2.23333,348
2.24167,348
2.25000,349
2.25833,350
2.26667,350
2.27500,351
2.28333,352
2.29167,352
2.30000,353
2.30833,354
2.31667,355
2.32500,355
2.33333,355
2.34167,356
2.35000,356
2.35833,357
2.36667,357
2.37500,358
2.38333,359
2.39167,359
2.40000,359
2.40833,360
2.41667,361
2.42500,361
2.43333,362
2.44167,362
2.45000,362
2.45833,363
2.46667,363
2.47500,364
2.48333,364
2.49167,365
2.50000,366
2.50833,367
2.51667,367
2.52500,368
2.53333,368
2.54167,369
2.55000,369
2.55833,369
2.56667,370
2.57500,370
2.58333,370
2.59167,370
2.60000,370
2.60833,370
2.61667,371
2.62500,371
2.63333,372
2.64167,373
2.65000,374
2.65833,374
2.66667,375
2.67500,376
2.68333,377
2.69167,377
2.70000,378
2.70833,379
2.71667,379
2.72500,379
2.73333,380
2.74167,380
2.75000,382
2.75833,383
2.76667,384
2.77500,385
2.78333,386
2.79167,387
2.80000,388
2.80833,389
2.81667,390
2.82500,391
2.83333,392
2.84167,393
2.85000,394
2.85833,396
2.86667,397
2.87500,398
2.88333,399
2.89167,399
2.90000,400
2.90833,401
2.91667,402
2.92500,402
2.93333,403
2.94167,404
2.95000,406
2.95833,407
2.96667,407
2.97500,408
2.98333,409
2.99167,410
3.00000,411
3.00833,412
3.01667,413
3.02500,414
3.03333,415
3.04167,416
3.05000,417
3.05833,418
3.06667,418
3.07500,418
3.08333,419
3.09167,420
3.10000,420
3.10833,421
3.11667,421
3.12500,422
3.13333,423
3.14167,423
3.15000,424
3.15833,425
3.16667,426
3.17500,427
3.18333,428
3.19167,429
3.20000,429
3.20833,430
3.21667,430
3.22500,431
3.23333,431
3.24167,431
3.25000,431
3.25833,431
3.26667,432
3.27500,432
3.28333,433
3.29167,434
3.30000,434
3.30833,435
3.31667,436
3.32500,436
3.33333,437
3.34167,438
3.35000,438
3.35833,438
3.36667,439
3.37500,439
3.38333,440
3.39167,440
3.40000,441
3.40833,441
3.41667,442
3.42500,443
3.43333,444
3.44167,444
3.45000,445
3.45833,446
3.46667,447
3.47500,447
3.48333,448
3.49167,448
3.50000,448
3.50833,449
3.51667,450
3.52500,451
3.53333,452
3.54167,453
3.55000,454
3.55833,455
3.56667,455
3.57500,456
3.58333,457
3.59167,458
3.60000,459
3.60833,459
3.61667,460
3.62500,461
3.63333,461
3.64167,461
3.65000,462
3.65833,462
3.66667,463
3.67500,464
3.68333,464
3.69167,465
3.70000,466
3.70833,467
3.71667,468
3.72500,469
3.73333,470
3.74167,470
3.75000,471
3.75833,472
3.76667,473
3.77500,473
3.78333,474
3.79167,475
3.80000,475
3.80833,476
3.81667,477
3.82500,478
3.83333,479
3.84167,480
3.85000,481
3.85833,481
3.86667,482
3.87500,483
3.88333,484
3.89167,484
3.90000,485
3.90833,485
3.91667,486
3.92500,487
3.93333,487
3.94167,488
3.95000,488
3.95833,488
3.96667,489
3.97500,490
3.98333,491
3.99167,492
4.00000,492
4.00833,492
4.01667,493
4.02500,494
4.03333,494
4.04167,495
4.05000,496
4.05833,498
4.06667,498
4.07500,499
4.08333,500
4.09167,501
4.10000,502
4.10833,502
4.11667,503
4.12500,503
4.13333,504
4.14167,504
4.15000,505
4.15833,506
4.16667,506
4.17500,507
4.18333,508
4.19167,510
4.20000,511
4.20833,512
4.21667,512
4.22500,513
4.23333,514
4.24167,514
4.25000,515
4.25833,516
4.26667,516
4.27500,517
4.28333,518
4.29167,519
4.30000,519
4.30833,520
4.31667,522
4.32500,522
4.33333,523
4.34167,524
4.35000,524
4.35833,525
4.36667,526
4.37500,526
4.38333,526
4.39167,527
4.40000,527
4.40833,528
4.41667,528
4.42500,528
4.43333,528
4.44167,528
4.45000,529
4.45833,529
4.46667,530
4.47500,530
4.48333,530
4.49167,531
4.50000,531
4.50833,531
4.51667,531
4.52500,531
4.53333,531
4.54167,531
4.55000,531
4.55833,532
4.56667,532
4.57500,532
4.58333,532
4.59167,533
4.60000,533
4.60833,533
4.61667,534
4.62500,534
4.63333,535
4.64167,535
4.65000,534
4.65833,534
4.66667,534
4.67500,534
4.68333,534
4.69167,534
4.70000,534
4.70833,535
4.71667,535
4.72500,536
4.73333,537
4.74167,537
4.75000,538
4.75833,538
4.76667,538
4.77500,539
4.78333,539
4.79167,540
4.80000,541
4.80833,541
4.81667,541
4.82500,542
4.83333,543
4.84167,544
4.85000,544
4.85833,544
4.86667,544
4.87500,545
4.88333,545
4.89167,546
4.90000,546
4.90833,546
4.91667,547
4.92500,548
4.93333,549
4.94167,550
4.95000,551
4.95833,552
4.96667,553
4.97500,553
4.98333,554
4.99167,555
5.00000,555
5.00833,556
5.01667,557
5.02500,557
5.03333,558
5.04167,559
5.05000,560
5.05833,561
5.06667,562
5.07500,563
5.08333,564
5.09167,565
5.10000,566
5.10833,567
5.11667,568
5.12500,569
5.13333,569
5.14167,570
5.15000,571
5.15833,572
5.16667,573
5.17500,574
5.18333,575
5.19167,576
5.20000,577
5.20833,577
5.21667,579
5.22500,580
5.23333,581
5.24167,582
5.25000,583
5.25833,583
5.26667,585
5.27500,586
5.28333,586
5.29167,587
5.30000,588
5.30833,589
5.31667,590
5.32500,591
5.33333,592
5.34167,593
5.35000,594
5.35833,594
5.36667,595
5.37500,596
5.38333,597
5.39167,598
5.40000,599
5.40833,599
5.41667,600
5.42500,600
5.43333,600
5.44167,601
5.45000,602
5.45833,602
5.46667,603
5.47500,603
5.48333,603
5.49167,604
5.50000,604
5.50833,605
5.51667,605
5.52500,605
5.53333,605
5.54167,605
5.55000,605
5.55833,606
5.56667,605
5.57500,605
5.58333,605
5.59167,605
5.60000,606
5.60833,606
5.61667,606
5.62500,606
5.63333,606
5.64167,606
5.65000,606
5.65833,606
5.66667,606
5.67500,606
5.68333,606
5.69167,607
5.70000,607
5.70833,607
5.71667,607
5.72500,607
5.73333,607
5.74167,607
5.75000,606
5.75833,606
5.76667,606
5.77500,606
5.78333,607
5.79167,607
5.80000,606
5.80833,606
5.81667,606
5.82500,606
5.83333,605
5.84167,605
5.85000,606
5.85833,606
5.86667,606
5.87500,606
5.88333,606
5.89167,606
5.90000,606
5.90833,606
5.91667,607
5.92500,607
5.93333,607
5.94167,607
5.95000,607
5.95833,606
5.96667,606
5.97500,606
5.98333,606
5.99167,606
6.00000,606
6.00833,606
6.01667,606
6.02500,605
6.03333,605
6.04167,604
6.05000,604
6.05833,604
6.06667,604
6.07500,604
6.08333,604
6.09167,604
6.10000,604
6.10833,604
6.11667,604
6.12500,604
6.13333,604
6.14167,604
6.15000,605
6.15833,605
6.16667,605
6.17500,605
6.18333,605
6.19167,605
6.20000,605
6.20833,605
6.21667,606
6.22500,607
6.23333,607
6.24167,608
6.25000,608
6.25833,608
6.26667,608
6.27500,609
6.28333,609
6.29167,610
6.30000,610
6.30833,610
6.31667,610
6.32500,611
6.33333,611
6.34167,612
6.35000,613
6.35833,614
6.36667,614
6.37500,615
6.38333,615
6.39167,616
6.40000,616
6.40833,617
6.41667,618
6.42500,619
6.43333,620
6.44167,621
6.45000,622
6.45833,622
6.46667,623
6.47500,623
6.48333,624
6.49167,625
6.50000,626
6.50833,626
6.51667,627
6.52500,628
6.53333,629
6.54167,630
6.55000,630
6.55833,631
6.56667,632
6.57500,633
6.58333,635
6.59167,636
6.60000,638
6.60833,639
6.61667,640
6.62500,641
6.63333,642
6.64167,643
6.65000,644
6.65833,645
6.66667,646
6.67500,648
6.68333,649
6.69167,651
6.70000,652
6.70833,654
6.71667,655
6.72500,656
6.73333,658
6.74167,659
6.75000,661
6.75833,662
6.76667,664
6.77500,666
6.78333,668
6.79167,669
6.80000,671
6.80833,672
6.81667,674
6.82500,675
6.83333,677
6.84167,679
6.85000,681
6.85833,682
6.86667,683
6.87500,685
6.88333,686
6.89167,688
6.90000,689
6.90833,691
6.91667,692
6.92500,694
6.93333,695
6.94167,697
6.95000,698
6.95833,699
6.96667,701
6.97500,702
6.98333,704
6.99167,705
7.00000,706
7.00833,708
7.01667,709
7.02500,710
7.03333,711
7.04167,712
7.05000,713
7.05833,714
7.06667,715
7.07500,716
7.08333,716
7.09167,717
7.10000,717
7.10833,717
7.11667,717
7.12500,717
7.13333,718
7.14167,718
7.15000,718
7.15833,717
7.16667,717
7.17500,717
7.18333,717
7.19167,716
7.20000,716
7.20833,715
7.21667,715
7.22500,714
7.23333,714
7.24167,713
7.25000,713
7.25833,712
7.26667,711
7.27500,710
7.28333,709
7.29167,708
7.30000,707
7.30833,705
7.31667,704
7.32500,703
7.33333,702
7.34167,701
7.35000,700
7.35833,698
7.36667,697
7.37500,696
7.38333,694
7.39167,693
7.40000,691
7.40833,690
7.41667,688
7.42500,687
7.43333,686
7.44167,684
7.45000,682
7.45833,681
7.46667,680
7.47500,679
7.48333,677
7.49167,676
7.50000,675
7.50833,674
7.51667,673
7.52500,672
7.53333,671
7.54167,670
7.55000,668
7.55833,667
7.56667,666
7.57500,665
7.58333,664
7.59167,663
7.60000,662
7.60833,661
7.61667,660
7.62500,658
7.63333,657
7.64167,656
7.65000,655
7.65833,654
7.66667,653
7.67500,653
7.68333,652
7.69167,651
7.70000,650
7.70833,649
7.71667,648
7.72500,647
7.73333,645
7.74167,644
7.75000,643
7.75833,642
7.76667,641
7.77500,641
7.78333,640
7.79167,639
7.80000,639
7.80833,638
7.81667,637
7.82500,637
7.83333,636
7.84167,635
7.85000,635
7.85833,634
7.86667,634
7.87500,634
7.88333,634
7.89167,634
7.90000,633
7.90833,633
7.91667,632
7.92500,631
7.93333,631
7.94167,630
7.95000,630
7.95833,629
7.96667,629
7.97500,628
7.98333,627
7.99167,627
8.00000,627
8.00833,626
8.01667,626
8.02500,625
8.03333,625
8.04167,624
8.05000,624
8.05833,623
8.06667,623
8.07500,623
8.08333,622
8.09167,622
8.10000,621
8.10833,621
8.11667,621
8.12500,621
8.13333,621
8.14167,620
8.15000,620
8.15833,620
8.16667,620
8.17500,620
8.18333,619
8.19167,619
8.20000,619
8.20833,618
8.21667,618
8.22500,617
8.23333,617
8.24167,617
8.25000,618
8.25833,618
8.26667,618
8.27500,618
8.28333,618
8.29167,617
8.30000,617
8.30833,617
8.31667,617
8.32500,617
8.33333,617
8.34167,617
8.35000,617
8.35833,617
8.36667,617
8.37500,617
8.38333,617
8.39167,617
8.40000,617
8.40833,618
8.41667,618
8.42500,618
8.43333,618
8.44167,618
8.45000,618
8.45833,618
8.46667,618
8.47500,618
8.48333,619
8.49167,619
8.50000,619
8.50833,619
8.51667,619
8.52500,619
8.53333,619
8.54167,619
8.55000,619
8.55833,618
8.56667,618
8.57500,618
8.58333,617
8.59167,617
8.60000,617
8.60833,616
8.61667,616
8.62500,616
8.63333,615
8.64167,615
8.65000,615
8.65833,614
8.66667,614
8.67500,614
8.68333,613
8.69167,613
8.70000,612
8.70833,612
8.71667,611
8.72500,611
8.73333,611
8.74167,610
8.75000,610
8.75833,610
8.76667,609
8.77500,608
8.78333,608
8.79167,607
8.80000,607
8.80833,606
8.81667,606
8.82500,606
8.83333,606
8.84167,605
8.85000,605
8.85833,605
8.86667,605
8.87500,604
8.88333,604
8.89167,604
8.90000,604
8.90833,603
8.91667,603
8.92500,603
8.93333,602
8.94167,602
8.95000,602
8.95833,602
8.96667,602
8.97500,602
8.98333,602
8.99167,602
9.00000,602
9.00833,602
9.01667,602
9.02500,602
9.03333,602
9.04167,603
9.05000,603
9.05833,603
9.06667,604
9.07500,604
9.08333,604
9.09167,604
9.10000,604
9.10833,604
9.11667,605
9.12500,606
9.13333,606
9.14167,606
9.15000,607
9.15833,607
9.16667,608
9.17500,608
9.18333,608
9.19167,608
9.20000,609
9.20833,610
9.21667,610
9.22500,610
9.23333,611
9.24167,611
9.25000,611
9.25833,612
9.26667,612
9.27500,613
9.28333,613
9.29167,614
9.30000,615
9.30833,615
9.31667,616
9.32500,616
9.33333,617
9.34167,617
9.35000,617
9.35833,618
9.36667,618
9.37500,618
9.38333,619
9.39167,619
9.40000,619
9.40833,619
9.41667,620
9.42500,621
9.43333,622
9.44167,623
9.45000,623
9.45833,623
9.46667,623
9.47500,624
9.48333,625
9.49167,625
9.50000,626
9.50833,626
9.51667,626
9.52500,627
9.53333,627
9.54167,628
9.55000,628
9.55833,628
9.56667,628
9.57500,629
9.58333,629
9.59167,630
9.60000,630
9.60833,631
9.61667,632
9.62500,633
9.63333,633
9.64167,634
9.65000,634
9.65833,634
9.66667,634
9.67500,634
9.68333,634
9.69167,634
9.70000,634
9.70833,634
9.71667,634
9.72500,635
9.73333,635
9.74167,636
9.75000,636
9.75833,637
9.76667,637
9.77500,637
9.78333,638
9.79167,638
9.80000,638
9.80833,639
9.81667,639
9.82500,639
9.83333,639
9.84167,639
9.85000,639
9.85833,639
9.86667,639
9.87500,639
9.88333,639
9.89167,639
9.90000,638
9.90833,638
9.91667,638
9.92500,638
9.93333,638
9.94167,638
9.95000,637
9.95833,637
9.96667,637
9.97500,637
9.98333,636
9.99167,636
10.00000,636
10.00833,635
10.01667,635
10.02500,634
10.03333,633
10.04167,633
10.05000,632
10.05833,632
10.06667,632
10.07500,632
10.08333,631
10.09167,630
10.10000,630
10.10833,629
10.11667,628
10.12500,628
10.13333,627
10.14167,627
10.15000,627
10.15833,626
10.16667,626
10.17500,626
10.18333,626
10.19167,626
10.20000,626
10.20833,626
10.21667,626
10.22500,625
10.23333,625
10.24167,625
10.25000,625
10.25833,625
10.26667,625
10.27500,625
10.28333,625
10.29167,625
10.30000,625
10.30833,625
10.31667,625
10.32500,625
10.33333,624
10.34167,624
10.35000,624
10.35833,623
10.36667,623
10.37500,622
10.38333,622
10.39167,621
10.40000,620
10.40833,620
10.41667,619
10.42500,617
10.43333,615
10.44167,611
10.45000,607
10.45833,602
10.46667,594
10.47500,585
10.48333,572
10.49167,557
10.50000,539
10.50833,517
10.51667,491
10.52500,461
10.53333,426
10.54167,388
10.55000,345
10.55833,300
10.56667,252
10.57500,204
10.58333,158
10.59167,115
10.60000,79
10.60833,52
10.61667,38
10.62500,41
10.63333,63
10.64167,108
10.65000,180
10.65833,281
10.66667,413
10.67500,580
10.68333,783
10.69167,1022
10.70000,1297
10.70833,1609
10.71667,1955
10.72500,2334
10.73333,2741
10.74167,3174
10.75000,3627
10.75833,4095
10.76667,4572
10.77500,5052
10.78333,5527
10.79167,5990
10.80000,6433
10.80833,6851
10.81667,7235
10.82500,7579
10.83333,7879
10.84167,8128
10.85000,8323
10.85833,8462
10.86667,8543
10.87500,8566
10.88333,8531
10.89167,8442
10.90000,8302
10.90833,8114
10.91667,7884
10.92500,7617
10.93333,7319
10.94167,6996
10.95000,6655
10.95833,6300
10.96667,5938
10.97500,5574
10.98333,5211
10.99167,4855
11.00000,4508
11.00833,4174
11.01667,3855
11.02500,3553
11.03333,3269
11.04167,3003
11.05000,2756
11.05833,2528
11.06667,2320
11.07500,2129
11.08333,1956
11.09167,1800
11.10000,1660
11.10833,1535
11.11667,1423
11.12500,1323
11.13333,1235
11.14167,1157
11.15000,1089
11.15833,1029
11.16667,976
11.17500,931
11.18333,891
11.19167,857
11.20000,827
11.20833,801
11.21667,779
11.22500,760
11.23333,743
11.24167,729
11.25000,716
11.25833,705
11.26667,696
11.27500,688
11.28333,681
11.29167,675
11.30000,670
11.30833,665
11.31667,660
11.32500,657
11.33333,653
11.34167,649
11.35000,646
11.35833,643
11.36667,641
11.37500,639
11.38333,636
11.39167,634
11.40000,631
11.40833,629
11.41667,627
11.42500,625
11.43333,623
11.44167,622
11.45000,620
11.45833,619
11.46667,617
11.47500,616
11.48333,615
11.49167,614
11.50000,614
11.50833,613
11.51667,611
11.52500,610
11.53333,609
11.54167,607
11.55000,606
11.55833,605
11.56667,605
11.57500,604
11.58333,603
11.59167,602
11.60000,601
11.60833,600
11.61667,599
11.62500,598
11.63333,598
11.64167,597
11.65000,596
11.65833,595
11.66667,594
11.67500,593
11.68333,592
11.69167,592
11.70000,591
11.70833,590
11.71667,589
11.72500,588
11.73333,588
11.74167,587
11.75000,586
11.75833,586
11.76667,585
11.77500,584
11.78333,584
11.79167,583
11.80000,583
11.80833,582
11.81667,582
11.82500,582
11.83333,582
11.84167,581
11.85000,581
11.85833,581
11.86667,581
11.87500,582
11.88333,582
11.89167,582
11.90000,583
11.90833,583
11.91667,583
11.92500,584
11.93333,585
11.94167,586
11.95000,587
11.95833,589
11.96667,590
11.97500,592
11.98333,593
11.99167,594
12.00000,595
12.00833,596
12.01667,597
12.02500,598
12.03333,599
12.04167,601
12.05000,602
12.05833,604
12.06667,605
12.07500,606
12.08333,607
12.09167,608
12.10000,610
12.10833,611
12.11667,611
12.12500,612
12.13333,613
12.14167,614
12.15000,615
12.15833,616
12.16667,616
12.17500,617
12.18333,617
12.19167,618
12.20000,619
12.20833,620
12.21667,620
12.22500,621
12.23333,622
12.24167,622
12.25000,622
12.25833,622
12.26667,622
12.27500,622
12.28333,623
12.29167,622
12.30000,622
12.30833,622
12.31667,622
12.32500,622
12.33333,622
12.34167,622
12.35000,622
12.35833,622
12.36667,623
12.37500,623
12.38333,623
12.39167,623
12.40000,624
12.40833,624
12.41667,625
12.42500,625
12.43333,625
12.44167,625
12.45000,625
12.45833,625
12.46667,626
12.47500,627
12.48333,627
12.49167,628
12.50000,628
12.50833,629
12.51667,629
12.52500,630
12.53333,631
12.54167,632
12.55000,633
12.55833,635
12.56667,636
12.57500,638
12.58333,640
12.59167,643
12.60000,646
12.60833,649
12.61667,653
12.62500,658
12.63333,664
12.64167,670
12.65000,679
12.65833,688
12.66667,700
12.67500,714
12.68333,730
12.69167,748
12.70000,770
12.70833,795
12.71667,824
12.72500,858
12.73333,896
12.74167,939
12.75000,988
12.75833,1042
12.76667,1103
12.77500,1169
12.78333,1242
12.79167,1322
12.80000,1409
12.80833,1504
12.81667,1605
12.82500,1714
12.83333,1830
12.84167,1953
12.85000,2083
12.85833,2220
12.86667,2364
12.87500,2514
12.88333,2671
12.89167,2834
12.90000,3004
12.90833,3179
12.91667,3361
12.92500,3547
12.93333,3739
12.94167,3936
12.95000,4137
12.95833,4344
12.96667,4555
12.97500,4770
12.98333,4990
12.99167,5214
13.00000,5441
13.00833,5672
13.01667,5907
13.02500,6145
13.03333,6386
13.04167,6630
13.05000,6878
13.05833,7128
13.06667,7381
13.07500,7637
13.08333,7895
13.09167,8155
13.10000,8419
13.10833,8685
13.11667,8954
13.12500,9225
13.13333,9498
13.14167,9774
13.15000,10052
13.15833,10332
13.16667,10615
13.17500,10900
13.18333,11187
13.19167,11476
13.20000,11767
13.20833,12060
13.21667,12355
13.22500,12653
13.23333,12952
13.24167,13253
13.25000,13556
13.25833,13860
13.26667,14165
13.27500,14473
13.28333,14782
13.29167,15093
13.30000,15404
13.30833,15717
13.31667,16029
13.32500,16342
13.33333,16653
13.34167,16963
13.35000,17269
13.35833,17567
13.36667,17854
13.37500,18123
13.38333,18367
13.39167,18576
13.40000,18737
13.40833,18836
13.41667,18860
13.42500,18794
13.43333,18624
13.44167,18342
13.45000,17941
13.45833,17422
13.46667,16788
13.47500,16051
13.48333,15225
13.49167,14328
13.50000,13382
13.50833,12408
13.51667,11427
13.52500,10458
13.53333,9518
13.54167,8621
13.55000,7777
13.55833,6992
13.56667,6272
13.57500,5616
13.58333,5026
13.59167,4498
13.60000,4029
13.60833,3614
13.61667,3250
13.62500,2931
13.63333,2652
13.64167,2411
13.65000,2201
13.65833,2019
13.66667,1861
13.67500,1725
13.68333,1608
13.69167,1506
13.70000,1418
13.70833,1341
13.71667,1275
13.72500,1217
13.73333,1167
13.74167,1123
13.75000,1085
13.75833,1051
13.76667,1021
13.77500,995
13.78333,972
13.79167,951
13.80000,933
13.80833,916
13.81667,900
13.82500,887
13.83333,874
13.84167,863
13.85000,852
13.85833,843
13.86667,834
13.87500,827
13.88333,820
13.89167,813
13.90000,807
13.90833,801
13.91667,795
13.92500,790
13.93333,785
13.94167,781
13.95000,777
13.95833,772
13.96667,768
13.97500,765
13.98333,761
13.99167,758
14.00000,755
14.00833,752
14.01667,749
14.02500,746
14.03333,743
14.04167,741
14.05000,739
14.05833,736
14.06667,734
14.07500,732
14.08333,729
14.09167,727
14.10000,725
14.10833,723
14.11667,721
14.12500,720
14.13333,718
14.14167,717
14.15000,715
14.15833,714
14.16667,714
14.17500,712
14.18333,711
14.19167,710
14.20000,709
14.20833,708
14.21667,707
14.22500,706
14.23333,705
14.24167,704
14.25000,703
14.25833,701
14.26667,700
14.27500,699
14.28333,698
14.29167,697
14.30000,696
14.30833,696
14.31667,695
14.32500,694
14.33333,693
14.34167,693
14.35000,692
14.35833,691
14.36667,691
14.37500,690
14.38333,690
14.39167,689
14.40000,688
14.40833,688
14.41667,687
14.42500,687
14.43333,686
14.44167,685
14.45000,684
14.45833,683
14.46667,683
14.47500,682
14.48333,682
14.49167,682
14.50000,681
14.50833,681
14.51667,681
14.52500,680
14.53333,679
14.54167,678
14.55000,678
14.55833,677
14.56667,677
14.57500,677
14.58333,677
14.59167,677
14.60000,676
14.60833,676
14.61667,676
14.62500,676
14.63333,676
14.64167,675
14.65000,675
14.65833,675
14.66667,675
14.67500,675
14.68333,675
14.69167,675
14.70000,674
14.70833,674
14.71667,674
14.72500,674
14.73333,673
14.74167,673
14.75000,673
14.75833,674
14.76667,674
14.77500,674
14.78333,674
14.79167,674
14.80000,675
14.80833,675
14.81667,675
14.82500,675
14.83333,675
14.84167,675
14.85000,676
14.85833,676
14.86667,677
14.87500,678
14.88333,678
14.89167,679
14.90000,679
14.90833,680
14.91667,680
14.92500,681
14.93333,681
14.94167,682
14.95000,682
14.95833,683
14.96667,683
14.97500,684
14.98333,684
14.99167,685
15.00000,685
15.00833,685
15.01667,685
15.02500,685
15.03333,685
15.04167,685
15.05000,685
15.05833,686
15.06667,686
15.07500,686
15.08333,686
15.09167,686
15.10000,685
15.10833,685
15.11667,685
15.12500,684
15.13333,684
15.14167,684
15.15000,685
15.15833,685
15.16667,685
15.17500,685
15.18333,686
15.19167,686
15.20000,686
15.20833,686
15.21667,687
15.22500,687
15.23333,688
15.24167,689
15.25000,690
15.25833,691
15.26667,692
15.27500,693
15.28333,695
15.29167,697
15.30000,700
15.30833,703
15.31667,706
15.32500,709
15.33333,713
15.34167,717
15.35000,720
15.35833,724
15.36667,729
15.37500,733
15.38333,737
15.39167,741
15.40000,746
15.40833,751
15.41667,755
15.42500,760
15.43333,764
15.44167,769
15.45000,773
15.45833,777
15.46667,781
15.47500,785
15.48333,788
15.49167,791
15.50000,794
15.50833,797
15.51667,798
15.52500,800
15.53333,801
15.54167,801
15.55000,801
15.55833,801
15.56667,800
15.57500,799
15.58333,797
15.59167,795
15.60000,792
15.60833,789
15.61667,786
15.62500,782
15.63333,779
15.64167,775
15.65000,771
15.65833,767
15.66667,762
15.67500,758
15.68333,753
15.69167,748
15.70000,744
15.70833,739
15.71667,734
15.72500,730
15.73333,725
15.74167,720
15.75000,715
15.75833,711
15.76667,707
15.77500,703
15.78333,699
15.79167,695
15.80000,691
15.80833,688
15.81667,685
15.82500,682
15.83333,680
15.84167,677
15.85000,675
15.85833,673
15.86667,670
15.87500,669
15.88333,667
15.89167,666
15.90000,664
15.90833,663
15.91667,661
15.92500,660
15.93333,659
15.94167,658
15.95000,658
15.95833,657
15.96667,657
15.97500,657
15.98333,657
15.99167,657
16.00000,656
16.00833,657
16.01667,657
16.02500,657
16.03333,657
16.04167,657
16.05000,658
16.05833,658
16.06667,658
16.07500,659
16.08333,659
16.09167,659
16.10000,659
16.10833,659
16.11667,659
16.12500,660
16.13333,661
16.14167,661
16.15000,662
16.15833,663
16.16667,663
16.17500,664
16.18333,664
16.19167,665
16.20000,665
16.20833,665
16.21667,665
16.22500,665
16.23333,666
16.24167,666
16.25000,666
16.25833,667
16.26667,667
16.27500,667
16.28333,667
16.29167,667
16.30000,667
16.30833,667
16.31667,667
16.32500,667
16.33333,667
16.34167,666
16.35000,666
16.35833,666
16.36667,666
16.37500,666
16.38333,665
16.39167,666
16.40000,665
16.40833,665
16.41667,665
16.42500,664
16.43333,664
16.44167,664
16.45000,664
16.45833,664
16.46667,664
16.47500,663
16.48333,662
16.49167,662
16.50000,661
16.50833,661
16.51667,660
16.52500,660
16.53333,659
16.54167,659
16.55000,659
16.55833,659
16.56667,659
16.57500,659
16.58333,658
16.59167,657
16.60000,657
16.60833,656
16.61667,656
16.62500,655
16.63333,654
16.64167,654
16.65000,653
16.65833,653
16.66667,653
16.67500,652
16.68333,651
16.69167,651
16.70000,650
16.70833,649
16.71667,649
16.72500,648
16.73333,647
16.74167,646
16.75000,646
16.75833,645
16.76667,645
16.77500,644
16.78333,644
16.79167,643
16.80000,643
16.80833,642
16.81667,642
16.82500,641
16.83333,640
16.84167,640
16.85000,639
16.85833,639
16.86667,639
16.87500,639
16.88333,639
16.89167,638
16.90000,638
16.90833,638
16.91667,637
16.92500,637
16.93333,637
16.94167,636
16.95000,636
16.95833,635
16.96667,635
16.97500,634
16.98333,634
16.99167,634
17.00000,634
17.00833,634
17.01667,634
17.02500,634
17.03333,633
17.04167,633
17.05000,634
17.05833,634
17.06667,633
17.07500,633
17.08333,633
17.09167,633
17.10000,633
17.10833,633
17.11667,633
17.12500,633
17.13333,633
17.14167,632
17.15000,632
17.15833,632
17.16667,632
17.17500,632
17.18333,632
17.19167,632
17.20000,632
17.20833,631
17.21667,631
17.22500,631
17.23333,631
17.24167,631
17.25000,631
17.25833,631
17.26667,630
17.27500,631
17.28333,631
17.29167,630
17.30000,630
17.30833,629
17.31667,629
17.32500,629
17.33333,629
17.34167,629
17.35000,629
17.35833,628
17.36667,628
17.37500,628
17.38333,627
17.39167,627
17.40000,627
17.40833,627
17.41667,627
17.42500,627
17.43333,627
17.44167,627
17.45000,627
17.45833,627
17.46667,626
17.47500,626
17.48333,626
17.49167,625
17.50000,625
17.50833,625
17.51667,624
17.52500,624
17.53333,624
17.54167,624
17.55000,624
17.55833,623
17.56667,623
17.57500,623
17.58333,623
17.59167,622
17.60000,622
17.60833,622
17.61667,622
17.62500,622
17.63333,622
17.64167,621
17.65000,621
17.65833,621
17.66667,620
17.67500,620
17.68333,619
17.69167,619
17.70000,619
17.70833,619
17.71667,619
17.72500,618
17.73333,618
17.74167,618
17.75000,617
17.75833,617
17.76667,617
17.77500,617
17.78333,617
17.79167,617
17.80000,617
17.80833,617
17.81667,617
17.82500,617
17.83333,617
17.84167,616
17.85000,616
17.85833,616
17.86667,616
17.87500,616
17.88333,616
17.89167,616
17.90000,616
17.90833,616
17.91667,615
17.92500,615
17.93333,615
17.94167,615
17.95000,615
17.95833,615
17.96667,616
17.97500,616
17.98333,615
17.99167,615
18.00000,615
18.00833,616
18.01667,616
18.02500,616
18.03333,616
18.04167,616
18.05000,616
18.05833,616
18.06667,616
18.07500,616
18.08333,616
18.09167,616
18.10000,616
18.10833,617
18.11667,617
18.12500,617
18.13333,617
18.14167,617
18.15000,617
18.15833,618
18.16667,618
18.17500,618
18.18333,618
18.19167,618
18.20000,619
18.20833,620
18.21667,620
18.22500,620
18.23333,620
18.24167,621
18.25000,621
18.25833,622
18.26667,622
18.27500,623
18.28333,623
18.29167,623
18.30000,623
18.30833,624
18.31667,624
18.32500,625
18.33333,626
18.34167,626
18.35000,627
18.35833,628
18.36667,628
18.37500,629
18.38333,631
18.39167,632
18.40000,632
18.40833,633
18.41667,633
18.42500,634
18.43333,635
18.44167,636
18.45000,637
18.45833,638
18.46667,639
18.47500,640
18.48333,641
18.49167,641
18.50000,642
18.50833,642
18.51667,643
18.52500,643
18.53333,644
18.54167,645
18.55000,646
18.55833,647
18.56667,647
18.57500,648
18.58333,649
18.59167,649
18.60000,650
18.60833,651
18.61667,652
18.62500,652
18.63333,653
18.64167,654
18.65000,654
18.65833,655
18.66667,655
18.67500,656
18.68333,656
18.69167,657
18.70000,657
18.70833,657
18.71667,657
18.72500,657
18.73333,658
18.74167,658
18.75000,658
18.75833,658
18.76667,658
18.77500,659
18.78333,659
18.79167,659
18.80000,660
18.80833,660
18.81667,660
18.82500,660
18.83333,660
18.84167,660
18.85000,659
18.85833,659
18.86667,659
18.87500,658
18.88333,657
18.89167,656
18.90000,656
18.90833,655
18.91667,653
18.92500,652
18.93333,652
18.94167,651
18.95000,650
18.95833,649
18.96667,648
18.97500,646
18.98333,645
18.99167,644
19.00000,643
19.00833,642
19.01667,641
19.02500,640
19.03333,639
19.04167,639
19.05000,638
19.05833,638
19.06667,637
19.07500,637
19.08333,636
19.09167,636
19.10000,635
19.10833,635
19.11667,634
19.12500,634
19.13333,633
19.14167,633
19.15000,632
19.15833,632
19.16667,632
19.17500,632
19.18333,632
19.19167,632
19.20000,632
19.20833,632
19.21667,632
19.22500,632
19.23333,631
19.24167,631
19.25000,631
19.25833,631
19.26667,631
19.27500,631
19.28333,631
19.29167,631
19.30000,631
19.30833,631
19.31667,630
19.32500,630
19.33333,630
19.34167,630
19.35000,629
19.35833,629
19.36667,629
19.37500,629
19.38333,629
19.39167,629
19.40000,629
19.40833,628
19.41667,628
19.42500,628
19.43333,628
19.44167,628
19.45000,628
19.45833,628
19.46667,628
19.47500,628
19.48333,628
19.49167,628
19.50000,627
19.50833,627
19.51667,627
19.52500,627
19.53333,627
19.54167,627
19.55000,628
19.55833,628
19.56667,628
19.57500,627
19.58333,627
19.59167,627
19.60000,626
19.60833,626
19.61667,626
19.62500,625
19.63333,625
19.64167,625
19.65000,625
19.65833,624
19.66667,624
19.67500,624
19.68333,624
19.69167,624
19.70000,624
19.70833,624
19.71667,624
19.72500,624
19.73333,624
19.74167,624
19.75000,624
19.75833,624
19.76667,624
19.77500,624
19.78333,624
19.79167,624
19.80000,624
19.80833,624
19.81667,624
19.82500,624
19.83333,624
19.84167,624
19.85000,624
19.85833,625
19.86667,625
19.87500,625
19.88333,625
19.89167,625
19.90000,625
19.90833,626
19.91667,627
19.92500,627
19.93333,627
19.94167,627
19.95000,627
19.95833,627
19.96667,627
19.97500,626
19.98333,626
19.99167,626
20.00000,626
20.00833,626
20.01667,626
20.02500,626
20.03333,626
20.04167,627
20.05000,627
20.05833,628
20.06667,629
20.07500,629
20.08333,629
20.09167,629
20.10000,628
20.10833,629
20.11667,628
20.12500,628
20.13333,628
20.14167,628
20.15000,629
20.15833,629
20.16667,629
20.17500,628
20.18333,628
20.19167,628
20.20000,628
20.20833,628
20.21667,628
20.22500,628
20.23333,628
20.24167,627
20.25000,627
20.25833,627
20.26667,627
20.27500,626
20.28333,626
20.29167,626
20.30000,626
20.30833,625
20.31667,625
20.32500,625
20.33333,624
20.34167,624
20.35000,624
20.35833,624
20.36667,624
20.37500,624
20.38333,624
20.39167,624
20.40000,623
20.40833,623
20.41667,623
20.42500,622
20.43333,622
20.44167,622
20.45000,622
20.45833,622
20.46667,621
20.47500,621
20.48333,621
20.49167,621
20.50000,620
20.50833,620
20.51667,620
20.52500,620
20.53333,619
20.54167,619
20.55000,619
20.55833,619
20.56667,619
20.57500,619
20.58333,619
20.59167,619
20.60000,619
20.60833,619
20.61667,620
20.62500,620
20.63333,620
20.64167,620
20.65000,620
20.65833,621
20.66667,621
20.67500,621
20.68333,621
20.69167,621
20.70000,621
20.70833,622
20.71667,622
20.72500,622
20.73333,623
20.74167,623
20.75000,623
20.75833,624
20.76667,624
20.77500,624
20.78333,625
20.79167,625
20.80000,625
20.80833,625
20.81667,625
20.82500,626
20.83333,626
20.84167,627
20.85000,628
20.85833,628
20.86667,629
20.87500,629
20.88333,629
20.89167,629
20.90000,630
20.90833,630
20.91667,630
20.92500,630
20.93333,631
20.94167,631
20.95000,632
20.95833,632
20.96667,633
20.97500,633
20.98333,633
20.99167,634
21.00000,634
21.00833,634
21.01667,634
21.02500,635
21.03333,635
21.04167,635
21.05000,635
21.05833,635
21.06667,636
21.07500,636
21.08333,636
21.09167,636
21.10000,635
21.10833,635
21.11667,635
21.12500,635
21.13333,634
21.14167,634
21.15000,634
21.15833,634
21.16667,633
21.17500,633
21.18333,632
21.19167,632
21.20000,631
21.20833,631
21.21667,630
21.22500,630
21.23333,629
21.24167,629
21.25000,628
21.25833,628
21.26667,628
21.27500,627
21.28333,627
21.29167,626
21.30000,626
21.30833,625
21.31667,624
21.32500,623
21.33333,623
21.34167,622
21.35000,622
21.35833,621
21.36667,621
21.37500,620
21.38333,620
21.39167,620
21.40000,620
21.40833,620
21.41667,619
21.42500,619
21.43333,619
21.44167,619
21.45000,619
21.45833,619
21.46667,619
21.47500,619
21.48333,619
21.49167,618
21.50000,618
21.50833,618
21.51667,618
21.52500,618
21.53333,618
21.54167,618
21.55000,618
21.55833,619
21.56667,619
21.57500,619
21.58333,620
21.59167,620
21.60000,620
21.60833,621
21.61667,621
21.62500,622
21.63333,622
21.64167,623
21.65000,623
21.65833,623
21.66667,623
21.67500,624
21.68333,624
21.69167,625
21.70000,625
21.70833,626
21.71667,626
21.72500,626
21.73333,626
21.74167,627
21.75000,627
21.75833,628
21.76667,628
21.77500,628
21.78333,628
21.79167,629
21.80000,629
21.80833,629
21.81667,629
21.82500,629
21.83333,629
21.84167,629
21.85000,629
21.85833,628
21.86667,628
21.87500,628
21.88333,628
21.89167,628
21.90000,628
21.90833,628
21.91667,628
21.92500,628
21.93333,628
21.94167,628
21.95000,628
21.95833,627
21.96667,627
21.97500,627
21.98333,627
21.99167,627
22.00000,627
22.00833,627
22.01667,627
22.02500,626
22.03333,626
22.04167,625
22.05000,625
22.05833,624
22.06667,623
22.07500,623
22.08333,623
22.09167,622
22.10000,622
22.10833,622
22.11667,622
22.12500,621
22.13333,621
22.14167,621
22.15000,621
22.15833,621
22.16667,621
22.17500,620
22.18333,620
22.19167,620
22.20000,620
22.20833,620
22.21667,620
22.22500,620
22.23333,619
22.24167,619
22.25000,619
22.25833,619
22.26667,619
22.27500,619
22.28333,619
22.29167,619
22.30000,619
22.30833,619
22.31667,619
22.32500,618
22.33333,618
22.34167,618
22.35000,618
22.35833,618
22.36667,618
22.37500,619
22.38333,619
22.39167,619
22.40000,620
22.40833,620
22.41667,620
22.42500,620
22.43333,621
22.44167,621
22.45000,621
22.45833,622
22.46667,622
22.47500,622
22.48333,623
22.49167,623
22.50000,623
22.50833,624
22.51667,624
22.52500,624
22.53333,625
22.54167,626
22.55000,626
22.55833,626
22.56667,627
22.57500,628
22.58333,629
22.59167,629
22.60000,630
22.60833,630
22.61667,631
22.62500,631
22.63333,632
22.64167,633
22.65000,633
22.65833,634
22.66667,634
22.67500,635
22.68333,635
22.69167,636
22.70000,636
22.70833,637
22.71667,637
22.72500,638
22.73333,638
22.74167,639
22.75000,639
22.75833,640
22.76667,640
22.77500,641
22.78333,641
22.79167,641
22.80000,641
22.80833,640
22.81667,640
22.82500,640
22.83333,640
22.84167,640
22.85000,640
22.85833,640
22.86667,640
22.87500,639
22.88333,639
22.89167,639
22.90000,638
22.90833,638
22.91667,637
22.92500,637
22.93333,637
22.94167,637
22.95000,636
22.95833,636
22.96667,636
22.97500,635
22.98333,635
22.99167,635
23.00000,634
23.00833,634
23.01667,633
23.02500,633
23.03333,633
23.04167,632
23.05000,631
23.05833,631
23.06667,630
23.07500,630
23.08333,630
23.09167,629
23.10000,629
23.10833,629
23.11667,628
23.12500,628
23.13333,627
23.14167,626
23.15000,626
23.15833,625
23.16667,625
23.17500,624
23.18333,624
23.19167,623
23.20000,623
23.20833,623
23.21667,623
23.22500,622
23.23333,621
23.24167,621
23.25000,620
23.25833,620
23.26667,619
23.27500,619
23.28333,618
23.29167,618
23.30000,618
23.30833,617
23.31667,617
23.32500,616
23.33333,616
23.34167,616
23.35000,616
23.35833,615
23.36667,615
23.37500,615
23.38333,615
23.39167,615
23.40000,615
23.40833,615
23.41667,615
23.42500,615
23.43333,615
23.44167,615
23.45000,615
23.45833,615
23.46667,615
23.47500,615
23.48333,615
23.49167,616
23.50000,616
23.50833,616
23.51667,616
23.52500,617
23.53333,618
23.54167,618
23.55000,618
23.55833,619
23.56667,619
23.57500,619
23.58333,620
23.59167,620
23.60000,620
23.60833,620
23.61667,621
23.62500,621
23.63333,621
23.64167,621
23.65000,621
23.65833,621
23.66667,622
23.67500,622
23.68333,622
23.69167,622
23.70000,623
23.70833,623
23.71667,624
23.72500,624
23.73333,625
23.74167,625
23.75000,626
23.75833,626
23.76667,626
23.77500,627
23.78333,627
23.79167,627
23.80000,628
23.80833,628
23.81667,628
23.82500,628
23.83333,629
23.84167,629
23.85000,629
23.85833,629
23.86667,629
23.87500,630
23.88333,630
23.89167,630
23.90000,630
23.90833,630
23.91667,631
23.92500,631
23.93333,631
23.94167,631
23.95000,632
23.95833,632
23.96667,632
23.97500,632
23.98333,632
23.99167,632
24.00000,632
24.00833,633
24.01667,633
24.02500,633
24.03333,634
24.04167,634
24.05000,634
24.05833,634
24.06667,635
24.07500,635
24.08333,635
24.09167,635
24.10000,635
24.10833,635
24.11667,636
24.12500,636
24.13333,636
24.14167,636
24.15000,636
24.15833,636
24.16667,636
24.17500,637
24.18333,637
24.19167,637
24.20000,637
24.20833,637
24.21667,637
24.22500,638
24.23333,639
24.24167,640
24.25000,640
24.25833,641
24.26667,641
24.27500,641
24.28333,642
24.29167,643
24.30000,644
24.30833,645
24.31667,646
24.32500,647
24.33333,648
24.34167,649
24.35000,651
24.35833,654
24.36667,656
24.37500,659
24.38333,662
24.39167,665
24.40000,669
24.40833,673
24.41667,677
24.42500,681
24.43333,686
24.44167,692
24.45000,698
24.45833,705
24.46667,712
24.47500,720
24.48333,729
24.49167,739
24.50000,750
24.50833,762
24.51667,774
24.52500,788
24.53333,803
24.54167,819
24.55000,836
24.55833,854
24.56667,874
24.57500,895
24.58333,918
24.59167,941
24.60000,966
24.60833,992
24.61667,1019
24.62500,1048
24.63333,1079
24.64167,1110
24.65000,1143
24.65833,1178
24.66667,1213
24.67500,1249
24.68333,1286
24.69167,1324
24.70000,1363
24.70833,1402
24.71667,1441
24.72500,1481
24.73333,1521
24.74167,1561
24.75000,1601
24.75833,1640
24.76667,1679
24.77500,1717
24.78333,1753
24.79167,1789
24.80000,1823
24.80833,1856
24.81667,1887
24.82500,1916
24.83333,1943
24.84167,1967
24.85000,1989
24.85833,2008
24.86667,2024
24.87500,2038
24.88333,2049
24.89167,2057
24.90000,2062
24.90833,2064
24.91667,2064
24.92500,2060
24.93333,2054
24.94167,2044
24.95000,2032
24.95833,2016
24.96667,1998
24.97500,1977
24.98333,1954
24.99167,1929
25.00000,1902
25.00833,1873
25.01667,1842
25.02500,1809
25.03333,1776
25.04167,1741
25.05000,1705
25.05833,1669
25.06667,1631
25.07500,1593
25.08333,1555
25.09167,1517
25.10000,1479
25.10833,1441
25.11667,1403
25.12500,1366
25.13333,1330
25.14167,1294
25.15000,1259
25.15833,1225
25.16667,1192
25.17500,1160
25.18333,1128
25.19167,1098
25.20000,1070
25.20833,1042
25.21667,1015
25.22500,990
25.23333,966
25.24167,943
25.25000,922
25.25833,901
25.26667,881
25.27500,863
25.28333,846
25.29167,830
25.30000,815
25.30833,801
25.31667,788
25.32500,775
25.33333,764
25.34167,753
25.35000,744
25.35833,734
25.36667,726
25.37500,718
25.38333,711
25.39167,705
25.40000,700
25.40833,695
25.41667,691
25.42500,687
25.43333,683
25.44167,679
25.45000,676
25.45833,674
25.46667,671
25.47500,669
25.48333,667
25.49167,665
25.50000,663
25.50833,662
25.51667,661
25.52500,660
25.53333,658
25.54167,657
25.55000,656
25.55833,656
25.56667,655
25.57500,655
25.58333,655
25.59167,655
25.60000,655
25.60833,655
25.61667,654
25.62500,654
25.63333,654
25.64167,655
25.65000,655
25.65833,655
25.66667,655
25.67500,655
25.68333,655
25.69167,655
25.70000,655
25.70833,656
25.71667,656
25.72500,656
25.73333,655
25.74167,655
25.75000,655
25.75833,655
25.76667,655
25.77500,655
25.78333,655
25.79167,655
25.80000,654
25.80833,654
25.81667,654
25.82500,653
25.83333,653
25.84167,653
25.85000,652
25.85833,652
25.86667,652
25.87500,652
25.88333,651
25.89167,651
25.90000,651
25.90833,650
25.91667,650
25.92500,649
25.93333,649
25.94167,648
25.95000,648
25.95833,647
25.96667,646
25.97500,646
25.98333,645
25.99167,645
26.00000,644
26.00833,643
26.01667,642
26.02500,642
26.03333,641
26.04167,641
26.05000,640
26.05833,640
26.06667,640
26.07500,640
26.08333,640
26.09167,639
26.10000,639
26.10833,638
26.11667,638
26.12500,638
26.13333,638
26.14167,637
26.15000,637
26.15833,637
26.16667,636
26.17500,636
26.18333,636
26.19167,635
26.20000,635
26.20833,635
26.21667,635
26.22500,635
26.23333,635
26.24167,635
26.25000,635
26.25833,635
26.26667,635
26.27500,635
26.28333,635
26.29167,635
26.30000,636
26.30833,636
26.31667,636
26.32500,636
26.33333,636
26.34167,636
26.35000,636
26.35833,637
26.36667,637
26.37500,637
26.38333,637
26.39167,637
26.40000,637
26.40833,637
26.41667,637
26.42500,637
26.43333,637
26.44167,637
26.45000,637
26.45833,638
26.46667,638
26.47500,638
26.48333,638
26.49167,638
26.50000,638
26.50833,638
26.51667,638
26.52500,638
26.53333,638
26.54167,638
26.55000,638
26.55833,638
26.56667,639
26.57500,638
26.58333,638
26.59167,638
26.60000,638
26.60833,637
26.61667,637
26.62500,637
26.63333,637
26.64167,637
26.65000,636
26.65833,636
26.66667,636
26.67500,636
26.68333,636
26.69167,635
26.70000,635
26.70833,635
26.71667,635
26.72500,634
26.73333,634
26.74167,634
26.75000,633
26.75833,633
26.76667,633
26.77500,633
26.78333,634
26.79167,634
26.80000,634
26.80833,634
26.81667,634
26.82500,634
26.83333,633
26.84167,633
26.85000,633
26.85833,632
26.86667,632
26.87500,632
26.88333,633
26.89167,633
26.90000,633
26.90833,633
26.91667,632
26.92500,632
26.93333,632
26.94167,632
26.95000,633
26.95833,633
26.96667,633
26.97500,633
26.98333,633
26.99167,633
27.00000,633
27.00833,634
27.01667,634
27.02500,635
27.03333,635
27.04167,635
27.05000,635
27.05833,635
27.06667,635
27.07500,636
27.08333,637
27.09167,637
27.10000,637
27.10833,638
27.11667,638
27.12500,638
27.13333,638
27.14167,639
27.15000,639
27.15833,640
27.16667,640
27.17500,640
27.18333,640
27.19167,641
27.20000,641
27.20833,642
27.21667,642
27.22500,642
27.23333,642
27.24167,643
27.25000,643
27.25833,644
27.26667,644
27.27500,644
27.28333,644
27.29167,644
27.30000,644
27.30833,644
27.31667,645
27.32500,645
27.33333,645
27.34167,646
27.35000,646
27.35833,647
27.36667,647
27.37500,647
27.38333,647
27.39167,647
27.40000,646
27.40833,646
27.41667,646
27.42500,645
27.43333,645
27.44167,645
27.45000,644
27.45833,644
27.46667,644
27.47500,644
27.48333,644
27.49167,644
27.50000,643
27.50833,643
27.51667,643
27.52500,643
27.53333,642
27.54167,642
27.55000,642
27.55833,642
27.56667,642
27.57500,642
27.58333,642
27.59167,641
27.60000,641
27.60833,640
27.61667,639
27.62500,639
27.63333,638
27.64167,638
27.65000,637
27.65833,637
27.66667,636
27.67500,636
27.68333,636
27.69167,636
27.70000,635
27.70833,634
27.71667,633
27.72500,632
27.73333,631
27.74167,630
27.75000,630
27.75833,629
27.76667,628
27.77500,628
27.78333,627
27.79167,626
27.80000,625
27.80833,623
27.81667,622
27.82500,621
27.83333,620
27.84167,618
27.85000,617
27.85833,616
27.86667,614
27.87500,613
27.88333,611
27.89167,609
27.90000,607
27.90833,604
27.91667,602
27.92500,600
27.93333,597
27.94167,594
27.95000,591
27.95833,587
27.96667,584
27.97500,580
27.98333,575
27.99167,571
28.00000,566
28.00833,561
28.01667,556
28.02500,550
28.03333,544
28.04167,537
28.05000,531
28.05833,523
28.06667,516
28.07500,508
28.08333,500
28.09167,491
28.10000,482
28.10833,472
28.11667,461
28.12500,451
28.13333,440
28.14167,428
28.15000,417
28.15833,404
28.16667,392
28.17500,378
28.18333,365
28.19167,350
28.20000,336
28.20833,320
28.21667,305
28.22500,289
28.23333,273
28.24167,256
28.25000,239
28.25833,222
28.26667,204
28.27500,186
28.28333,168
28.29167,150
28.30000,132
28.30833,113
28.31667,95
28.32500,76
28.33333,57
28.34167,39
28.35000,20
28.35833,2
28.36667,-16
28.37500,-34
28.38333,-52
28.39167,-69
28.40000,-86
28.40833,-103
28.41667,-120
28.42500,-136
28.43333,-151
28.44167,-166
28.45000,-180
28.45833,-194
28.46667,-207
28.47500,-219
28.48333,-231
28.49167,-243
28.50000,-253
28.50833,-263
28.51667,-272
28.52500,-280
28.53333,-288
28.54167,-295
28.55000,-301
28.55833,-306
28.56667,-311
28.57500,-315
28.58333,-318
28.59167,-321
28.60000,-322
28.60833,-323
28.61667,-322
28.62500,-322
28.63333,-320
28.64167,-318
28.65000,-316
28.65833,-313
28.66667,-310
28.67500,-306
28.68333,-301
28.69167,-296
28.70000,-291
28.70833,-284
28.71667,-278
28.72500,-271
28.73333,-264
28.74167,-257
28.75000,-249
28.75833,-241
28.76667,-233
28.77500,-225
28.78333,-217
28.79167,-209
28.80000,-200
28.80833,-191
28.81667,-182
28.82500,-173
28.83333,-164
28.84167,-156
28.85000,-147
28.85833,-138
28.86667,-129
28.87500,-121
28.88333,-112
28.89167,-103
28.90000,-94
28.90833,-86
28.91667,-77
28.92500,-68
28.93333,-60
28.94167,-52
28.95000,-44
28.95833,-37
28.96667,-29
28.97500,-22
28.98333,-15
28.99167,-7
29.00000,-0
29.00833,6
29.01667,13
29.02500,20
29.03333,26
29.04167,33
29.05000,39
29.05833,45
29.06667,51
29.07500,57
29.08333,63
29.09167,69
29.10000,76
29.10833,82
29.11667,87
29.12500,92
29.13333,97
29.14167,101
29.15000,106
29.15833,110
29.16667,115
29.17500,119
29.18333,123
29.19167,128
29.20000,132
29.20833,136
29.21667,140
29.22500,144
29.23333,148
29.24167,152
29.25000,155
29.25833,159
29.26667,162
29.27500,166
29.28333,169
29.29167,173
29.30000,176
29.30833,178
29.31667,181
29.32500,183
29.33333,186
29.34167,188
29.35000,191
29.35833,193
29.36667,195
29.37500,197
29.38333,199
29.39167,201
29.40000,203
29.40833,205
29.41667,207
29.42500,209
29.43333,211
29.44167,212
29.45000,214
29.45833,215
29.46667,216
29.47500,217
29.48333,218
29.49167,219
29.50000,221
29.50833,222
29.51667,223
29.52500,224
29.53333,224
29.54167,225
29.55000,226
29.55833,227
29.56667,227
29.57500,228
29.58333,228
29.59167,229
29.60000,229
29.60833,229
29.61667,230
29.62500,230
29.63333,231
29.64167,231
29.65000,231
29.65833,231
29.66667,231
29.67500,231
29.68333,231
29.69167,230
29.70000,230
29.70833,230
29.71667,229
29.72500,228
29.73333,227
29.74167,226
29.75000,225
29.75833,225
29.76667,224
29.77500,223
29.78333,222
29.79167,220
29.80000,219
29.80833,217
29.81667,216
29.82500,214
29.83333,212
29.84167,209
29.85000,207
29.85833,205
29.86667,202
29.87500,200
29.88333,197
29.89167,193
29.90000,190
29.90833,187
29.91667,183
29.92500,180
29.93333,176
29.94167,173
29.95000,169
29.95833,165
29.96667,160
29.97500,156
29.98333,151
29.99167,146
30.00000,142

