[Header]
Application Name,LabSolutions
Version,5.97 SP1
Data File Name,C:\Users\cremerlab\Desktop\griffin\2021-02-15_NCM_diauxie_turnover\2021-02-15_NCM_acetate_glucose_diauxie_turnover_2152021_006.lcd
Output Date,2/16/2021
Output Time,8:54:16 AM

[File Information]
Type,Data File
Generated,2/15/2021 10:56:59 PM
Generated by,System Administrator
Modified,2/15/2021 11:27:18 PM
Modified by,System Administrator

[Sample Information]
Operator Name,System Administrator
Acquired,2/15/2021 10:57:17 PM
Sample Type,0:Unknown
Level,0
Sample Name,NCM diauxic shift timepoint 6
Sample ID,006
ISTD Amount1,1
ISTD Amount2,1
ISTD Amount3,1
ISTD Amount4,1
ISTD Amount5,1
ISTD Amount6,1
ISTD Amount7,1
ISTD Amount8,1
ISTD Amount9,1
ISTD Amount10,1
ISTD Amount11,1
ISTD Amount12,1
ISTD Amount13,1
ISTD Amount14,1
ISTD Amount15,1
ISTD Amount16,1
ISTD Amount17,1
ISTD Amount18,1
ISTD Amount19,1
ISTD Amount20,1
ISTD Amount21,1
ISTD Amount22,1
ISTD Amount23,1
ISTD Amount24,1
ISTD Amount25,1
ISTD Amount26,1
ISTD Amount27,1
ISTD Amount28,1
ISTD Amount29,1
ISTD Amount30,1
ISTD Amount31,1
ISTD Amount32,1
Sample Amount,1
Dilution Factor,1
Vial#,6
Injection Volume,20

[Original Files]
Data File,C:\Users\cremerlab\Desktop\griffin\2021-02-15_NCM_diauxie_turnover\2021-02-15_NCM_acetate_glucose_diauxie_turnover_2152021_006.lcd
Method File,C:\LabSolutions\Data\Project1\organicacidsetc.lcm
Batch File,C:\Users\cremerlab\Desktop\griffin\2021-02-15_NCM_diauxie_turnover\2021-02-15_NCM_acetate_glucose_diauxie_turnover.lcb
Report Format File,c:\LabSolutions\System\DEFAULT.lsr

[File Description]


[Configuration]
Instrument Name,HPLC-PC-Instrument1
Instrument #,1
Line #,1
# of Detectors,2
Detector ID,Detector A,Detector B
Detector Name,Detector A,Detector B
# of Channels,1,1

[Peak Table(Detector A)]
# of Peaks,0

[Peak Table(Detector B)]
# of Peaks,4
Peak#,R.Time,I.Time,F.Time,Area,Height,A/H,Conc.,Mark,ID#,Name,k',Plate #,Plate Ht.,Tailing,Resolution,Sep.Factor,Area Ratio,Height Ratio,Conc. %,Norm Conc.
1,6.209,5.500,6.925,13863,373,37.214,0.000,   ,,,0.000,612,245.030,0.995,0.000,0.000,0,0,0.000,0.000
2,10.870,10.617,11.908,141740,8579,16.522,0.000,   ,,,0.751,10944,13.706,1.399,6.568,0.000,0,0,0.000,0.000
3,13.415,12.550,14.342,471765,18508,25.490,0.000,   ,,,1.161,5736,26.149,0.724,4.527,1.546,0,0,0.000,0.000
4,24.901,24.250,25.642,40675,1447,28.115,0.000,   ,,,3.011,17828,8.414,1.023,15.795,2.594,0,0,0.000,0.000

[Compound Results(Detector A)]
# of IDs,0

[Compound Results(Detector B)]
# of IDs,0

[LC Chromatogram(Detector B-Ch1)]
Interval(msec),500
# of Points,3601
Start Time(min),0.000
End Time(min),30.000
Intensity Units,mV
Intensity Multiplier,0.001
R.Time (min),Intensity
0.00000,-22
0.00833,-22
0.01667,0
0.02500,1
0.03333,1
0.04167,1
0.05000,-0
0.05833,-1
0.06667,-1
0.07500,-1
0.08333,0
0.09167,2
0.10000,4
0.10833,7
0.11667,10
0.12500,13
0.13333,16
0.14167,20
0.15000,23
0.15833,26
0.16667,30
0.17500,33
0.18333,36
0.19167,40
0.20000,43
0.20833,47
0.21667,50
0.22500,54
0.23333,58
0.24167,62
0.25000,66
0.25833,69
0.26667,74
0.27500,78
0.28333,82
0.29167,86
0.30000,90
0.30833,94
0.31667,98
0.32500,102
0.33333,106
0.34167,109
0.35000,113
0.35833,116
0.36667,120
0.37500,123
0.38333,127
0.39167,130
0.40000,134
0.40833,137
0.41667,141
0.42500,144
0.43333,148
0.44167,152
0.45000,155
0.45833,159
0.46667,162
0.47500,165
0.48333,167
0.49167,170
0.50000,173
0.50833,175
0.51667,178
0.52500,180
0.53333,183
0.54167,185
0.55000,188
0.55833,190
0.56667,193
0.57500,195
0.58333,198
0.59167,200
0.60000,202
0.60833,204
0.61667,205
0.62500,207
0.63333,208
0.64167,209
0.65000,210
0.65833,210
0.66667,210
0.67500,210
0.68333,210
0.69167,210
0.70000,210
0.70833,211
0.71667,211
0.72500,212
0.73333,213
0.74167,214
0.75000,215
0.75833,216
0.76667,218
0.77500,219
0.78333,220
0.79167,221
0.80000,221
0.80833,222
0.81667,223
0.82500,224
0.83333,224
0.84167,225
0.85000,226
0.85833,226
0.86667,227
0.87500,228
0.88333,229
0.89167,230
0.90000,231
0.90833,231
0.91667,232
0.92500,232
0.93333,233
0.94167,234
0.95000,236
0.95833,237
0.96667,238
0.97500,239
0.98333,240
0.99167,240
1.00000,241
1.00833,242
1.01667,242
1.02500,243
1.03333,244
1.04167,245
1.05000,247
1.05833,248
1.06667,249
1.07500,251
1.08333,252
1.09167,253
1.10000,254
1.10833,256
1.11667,257
1.12500,258
1.13333,260
1.14167,261
1.15000,262
1.15833,263
1.16667,264
1.17500,266
1.18333,267
1.19167,268
1.20000,269
1.20833,270
1.21667,271
1.22500,272
1.23333,274
1.24167,275
1.25000,276
1.25833,277
1.26667,278
1.27500,279
1.28333,280
1.29167,281
1.30000,282
1.30833,284
1.31667,285
1.32500,286
1.33333,286
1.34167,287
1.35000,288
1.35833,289
1.36667,290
1.37500,290
1.38333,291
1.39167,292
1.40000,293
1.40833,293
1.41667,294
1.42500,295
1.43333,296
1.44167,296
1.45000,297
1.45833,298
1.46667,299
1.47500,300
1.48333,300
1.49167,301
1.50000,301
1.50833,302
1.51667,303
1.52500,303
1.53333,303
1.54167,304
1.55000,305
1.55833,305
1.56667,306
1.57500,307
1.58333,307
1.59167,308
1.60000,308
1.60833,308
1.61667,309
1.62500,310
1.63333,310
1.64167,311
1.65000,311
1.65833,312
1.66667,312
1.67500,313
1.68333,313
1.69167,314
1.70000,314
1.70833,315
1.71667,315
1.72500,316
1.73333,317
1.74167,317
1.75000,318
1.75833,318
1.76667,318
1.77500,319
1.78333,320
1.79167,320
1.80000,321
1.80833,321
1.81667,321
1.82500,322
1.83333,323
1.84167,324
1.85000,324
1.85833,325
1.86667,325
1.87500,325
1.88333,326
1.89167,326
1.90000,327
1.90833,327
1.91667,328
1.92500,329
1.93333,329
1.94167,330
1.95000,330
1.95833,331
1.96667,331
1.97500,332
1.98333,332
1.99167,333
2.00000,333
2.00833,334
2.01667,334
2.02500,335
2.03333,335
2.04167,335
2.05000,336
2.05833,336
2.06667,337
2.07500,338
2.08333,339
2.09167,340
2.10000,340
2.10833,341
2.11667,342
2.12500,343
2.13333,344
2.14167,344
2.15000,345
2.15833,346
2.16667,347
2.17500,348
2.18333,349
2.19167,350
2.20000,351
2.20833,352
2.21667,353
2.22500,354
2.23333,355
2.24167,356
2.25000,357
2.25833,358
2.26667,359
2.27500,360
2.28333,361
2.29167,362
2.30000,363
2.30833,365
2.31667,366
2.32500,367
2.33333,368
2.34167,369
2.35000,370
2.35833,371
2.36667,371
2.37500,373
2.38333,374
2.39167,375
2.40000,376
2.40833,377
2.41667,377
2.42500,378
2.43333,379
2.44167,380
2.45000,381
2.45833,381
2.46667,382
2.47500,383
2.48333,383
2.49167,384
2.50000,385
2.50833,386
2.51667,387
2.52500,388
2.53333,389
2.54167,389
2.55000,390
2.55833,391
2.56667,391
2.57500,392
2.58333,392
2.59167,393
2.60000,394
2.60833,395
2.61667,396
2.62500,397
2.63333,398
2.64167,399
2.65000,399
2.65833,400
2.66667,401
2.67500,402
2.68333,403
2.69167,404
2.70000,405
2.70833,406
2.71667,407
2.72500,408
2.73333,409
2.74167,410
2.75000,411
2.75833,412
2.76667,413
2.77500,414
2.78333,415
2.79167,416
2.80000,417
2.80833,418
2.81667,419
2.82500,420
2.83333,421
2.84167,422
2.85000,424
2.85833,425
2.86667,426
2.87500,427
2.88333,428
2.89167,429
2.90000,430
2.90833,432
2.91667,433
2.92500,434
2.93333,434
2.94167,435
2.95000,436
2.95833,437
2.96667,437
2.97500,438
2.98333,439
2.99167,440
3.00000,441
3.00833,441
3.01667,442
3.02500,443
3.03333,443
3.04167,444
3.05000,444
3.05833,445
3.06667,445
3.07500,445
3.08333,445
3.09167,445
3.10000,446
3.10833,446
3.11667,446
3.12500,447
3.13333,447
3.14167,447
3.15000,448
3.15833,448
3.16667,449
3.17500,449
3.18333,449
3.19167,450
3.20000,450
3.20833,451
3.21667,451
3.22500,451
3.23333,451
3.24167,452
3.25000,452
3.25833,453
3.26667,453
3.27500,454
3.28333,454
3.29167,454
3.30000,454
3.30833,454
3.31667,454
3.32500,454
3.33333,454
3.34167,455
3.35000,455
3.35833,455
3.36667,455
3.37500,455
3.38333,455
3.39167,455
3.40000,456
3.40833,456
3.41667,456
3.42500,456
3.43333,456
3.44167,457
3.45000,457
3.45833,457
3.46667,457
3.47500,458
3.48333,458
3.49167,459
3.50000,459
3.50833,459
3.51667,460
3.52500,460
3.53333,461
3.54167,461
3.55000,461
3.55833,462
3.56667,462
3.57500,462
3.58333,463
3.59167,464
3.60000,464
3.60833,465
3.61667,466
3.62500,466
3.63333,467
3.64167,468
3.65000,468
3.65833,469
3.66667,470
3.67500,471
3.68333,473
3.69167,473
3.70000,474
3.70833,475
3.71667,476
3.72500,477
3.73333,478
3.74167,479
3.75000,481
3.75833,482
3.76667,483
3.77500,485
3.78333,486
3.79167,487
3.80000,489
3.80833,490
3.81667,492
3.82500,493
3.83333,494
3.84167,495
3.85000,496
3.85833,497
3.86667,498
3.87500,499
3.88333,500
3.89167,501
3.90000,502
3.90833,503
3.91667,504
3.92500,505
3.93333,506
3.94167,507
3.95000,509
3.95833,510
3.96667,510
3.97500,511
3.98333,512
3.99167,513
4.00000,513
4.00833,514
4.01667,514
4.02500,514
4.03333,514
4.04167,514
4.05000,515
4.05833,514
4.06667,514
4.07500,514
4.08333,514
4.09167,514
4.10000,514
4.10833,514
4.11667,514
4.12500,515
4.13333,514
4.14167,514
4.15000,514
4.15833,514
4.16667,514
4.17500,514
4.18333,513
4.19167,513
4.20000,513
4.20833,512
4.21667,512
4.22500,512
4.23333,512
4.24167,512
4.25000,512
4.25833,511
4.26667,511
4.27500,510
4.28333,510
4.29167,510
4.30000,509
4.30833,509
4.31667,509
4.32500,509
4.33333,509
4.34167,509
4.35000,510
4.35833,510
4.36667,509
4.37500,509
4.38333,509
4.39167,509
4.40000,509
4.40833,509
4.41667,509
4.42500,509
4.43333,509
4.44167,509
4.45000,509
4.45833,510
4.46667,510
4.47500,510
4.48333,510
4.49167,510
4.50000,510
4.50833,510
4.51667,511
4.52500,511
4.53333,511
4.54167,511
4.55000,511
4.55833,512
4.56667,512
4.57500,512
4.58333,513
4.59167,513
4.60000,513
4.60833,514
4.61667,514
4.62500,515
4.63333,515
4.64167,515
4.65000,516
4.65833,516
4.66667,517
4.67500,517
4.68333,518
4.69167,518
4.70000,518
4.70833,518
4.71667,518
4.72500,519
4.73333,519
4.74167,519
4.75000,519
4.75833,520
4.76667,520
4.77500,520
4.78333,521
4.79167,521
4.80000,521
4.80833,521
4.81667,522
4.82500,522
4.83333,523
4.84167,523
4.85000,524
4.85833,524
4.86667,524
4.87500,525
4.88333,525
4.89167,525
4.90000,525
4.90833,526
4.91667,526
4.92500,526
4.93333,526
4.94167,526
4.95000,527
4.95833,527
4.96667,528
4.97500,528
4.98333,528
4.99167,529
5.00000,529
5.00833,529
5.01667,530
5.02500,530
5.03333,530
5.04167,531
5.05000,531
5.05833,531
5.06667,532
5.07500,532
5.08333,532
5.09167,532
5.10000,532
5.10833,533
5.11667,533
5.12500,533
5.13333,533
5.14167,533
5.15000,533
5.15833,534
5.16667,535
5.17500,535
5.18333,535
5.19167,535
5.20000,536
5.20833,536
5.21667,536
5.22500,536
5.23333,536
5.24167,536
5.25000,537
5.25833,537
5.26667,537
5.27500,537
5.28333,537
5.29167,537
5.30000,537
5.30833,538
5.31667,538
5.32500,538
5.33333,537
5.34167,537
5.35000,538
5.35833,538
5.36667,538
5.37500,539
5.38333,539
5.39167,539
5.40000,540
5.40833,540
5.41667,541
5.42500,541
5.43333,541
5.44167,542
5.45000,542
5.45833,544
5.46667,545
5.47500,546
5.48333,547
5.49167,547
5.50000,548
5.50833,549
5.51667,551
5.52500,552
5.53333,554
5.54167,556
5.55000,558
5.55833,560
5.56667,562
5.57500,564
5.58333,566
5.59167,568
5.60000,570
5.60833,572
5.61667,575
5.62500,577
5.63333,580
5.64167,583
5.65000,586
5.65833,589
5.66667,593
5.67500,597
5.68333,600
5.69167,604
5.70000,609
5.70833,613
5.71667,617
5.72500,622
5.73333,626
5.74167,631
5.75000,636
5.75833,641
5.76667,646
5.77500,651
5.78333,657
5.79167,662
5.80000,668
5.80833,675
5.81667,682
5.82500,689
5.83333,696
5.84167,704
5.85000,711
5.85833,719
5.86667,726
5.87500,734
5.88333,742
5.89167,749
5.90000,757
5.90833,765
5.91667,772
5.92500,780
5.93333,788
5.94167,796
5.95000,804
5.95833,812
5.96667,820
5.97500,828
5.98333,836
5.99167,844
6.00000,852
6.00833,860
6.01667,867
6.02500,875
6.03333,881
6.04167,888
6.05000,895
6.05833,901
6.06667,907
6.07500,914
6.08333,920
6.09167,925
6.10000,931
6.10833,935
6.11667,940
6.12500,944
6.13333,948
6.14167,952
6.15000,955
6.15833,957
6.16667,959
6.17500,961
6.18333,963
6.19167,964
6.20000,965
6.20833,965
6.21667,965
6.22500,965
6.23333,964
6.24167,963
6.25000,961
6.25833,959
6.26667,956
6.27500,953
6.28333,950
6.29167,946
6.30000,943
6.30833,939
6.31667,934
6.32500,930
6.33333,925
6.34167,919
6.35000,914
6.35833,908
6.36667,902
6.37500,895
6.38333,889
6.39167,882
6.40000,875
6.40833,868
6.41667,861
6.42500,854
6.43333,847
6.44167,840
6.45000,833
6.45833,826
6.46667,819
6.47500,812
6.48333,805
6.49167,798
6.50000,791
6.50833,785
6.51667,778
6.52500,772
6.53333,765
6.54167,759
6.55000,753
6.55833,747
6.56667,742
6.57500,736
6.58333,731
6.59167,726
6.60000,721
6.60833,716
6.61667,711
6.62500,706
6.63333,702
6.64167,698
6.65000,694
6.65833,690
6.66667,686
6.67500,682
6.68333,679
6.69167,675
6.70000,672
6.70833,670
6.71667,667
6.72500,665
6.73333,662
6.74167,660
6.75000,658
6.75833,656
6.76667,654
6.77500,652
6.78333,651
6.79167,649
6.80000,648
6.80833,646
6.81667,645
6.82500,644
6.83333,643
6.84167,643
6.85000,642
6.85833,642
6.86667,641
6.87500,641
6.88333,640
6.89167,639
6.90000,639
6.90833,639
6.91667,638
6.92500,638
6.93333,637
6.94167,637
6.95000,637
6.95833,637
6.96667,637
6.97500,637
6.98333,637
6.99167,637
7.00000,637
7.00833,637
7.01667,637
7.02500,637
7.03333,637
7.04167,637
7.05000,636
7.05833,636
7.06667,635
7.07500,635
7.08333,635
7.09167,634
7.10000,634
7.10833,634
7.11667,633
7.12500,633
7.13333,633
7.14167,632
7.15000,631
7.15833,630
7.16667,630
7.17500,629
7.18333,628
7.19167,628
7.20000,627
7.20833,626
7.21667,625
7.22500,624
7.23333,624
7.24167,623
7.25000,622
7.25833,621
7.26667,620
7.27500,619
7.28333,618
7.29167,617
7.30000,616
7.30833,615
7.31667,614
7.32500,613
7.33333,611
7.34167,610
7.35000,609
7.35833,608
7.36667,607
7.37500,605
7.38333,605
7.39167,604
7.40000,603
7.40833,602
7.41667,601
7.42500,600
7.43333,598
7.44167,597
7.45000,596
7.45833,596
7.46667,595
7.47500,594
7.48333,593
7.49167,592
7.50000,591
7.50833,590
7.51667,590
7.52500,589
7.53333,588
7.54167,588
7.55000,587
7.55833,586
7.56667,586
7.57500,585
7.58333,584
7.59167,583
7.60000,583
7.60833,582
7.61667,582
7.62500,582
7.63333,581
7.64167,581
7.65000,581
7.65833,580
7.66667,580
7.67500,579
7.68333,579
7.69167,578
7.70000,578
7.70833,577
7.71667,577
7.72500,577
7.73333,576
7.74167,575
7.75000,575
7.75833,574
7.76667,574
7.77500,574
7.78333,574
7.79167,574
7.80000,574
7.80833,574
7.81667,573
7.82500,573
7.83333,573
7.84167,572
7.85000,572
7.85833,572
7.86667,572
7.87500,571
7.88333,571
7.89167,571
7.90000,570
7.90833,570
7.91667,569
7.92500,569
7.93333,569
7.94167,569
7.95000,569
7.95833,569
7.96667,569
7.97500,569
7.98333,569
7.99167,569
8.00000,569
8.00833,569
8.01667,569
8.02500,570
8.03333,570
8.04167,570
8.05000,570
8.05833,570
8.06667,570
8.07500,570
8.08333,570
8.09167,570
8.10000,570
8.10833,570
8.11667,570
8.12500,570
8.13333,570
8.14167,570
8.15000,570
8.15833,570
8.16667,570
8.17500,570
8.18333,571
8.19167,571
8.20000,571
8.20833,571
8.21667,571
8.22500,572
8.23333,572
8.24167,572
8.25000,572
8.25833,572
8.26667,572
8.27500,572
8.28333,572
8.29167,572
8.30000,572
8.30833,572
8.31667,572
8.32500,572
8.33333,572
8.34167,572
8.35000,572
8.35833,572
8.36667,572
8.37500,572
8.38333,572
8.39167,573
8.40000,573
8.40833,573
8.41667,573
8.42500,573
8.43333,573
8.44167,573
8.45000,573
8.45833,573
8.46667,573
8.47500,573
8.48333,573
8.49167,573
8.50000,572
8.50833,572
8.51667,572
8.52500,572
8.53333,572
8.54167,571
8.55000,571
8.55833,571
8.56667,571
8.57500,571
8.58333,570
8.59167,570
8.60000,569
8.60833,569
8.61667,569
8.62500,569
8.63333,569
8.64167,569
8.65000,569
8.65833,569
8.66667,568
8.67500,568
8.68333,567
8.69167,567
8.70000,567
8.70833,567
8.71667,567
8.72500,567
8.73333,567
8.74167,567
8.75000,566
8.75833,567
8.76667,567
8.77500,567
8.78333,567
8.79167,566
8.80000,566
8.80833,566
8.81667,565
8.82500,565
8.83333,565
8.84167,565
8.85000,565
8.85833,565
8.86667,565
8.87500,565
8.88333,565
8.89167,565
8.90000,565
8.90833,565
8.91667,565
8.92500,566
8.93333,566
8.94167,566
8.95000,566
8.95833,566
8.96667,566
8.97500,566
8.98333,566
8.99167,566
9.00000,566
9.00833,567
9.01667,567
9.02500,567
9.03333,567
9.04167,568
9.05000,569
9.05833,569
9.06667,569
9.07500,569
9.08333,569
9.09167,569
9.10000,570
9.10833,570
9.11667,570
9.12500,571
9.13333,571
9.14167,572
9.15000,572
9.15833,572
9.16667,572
9.17500,572
9.18333,573
9.19167,573
9.20000,574
9.20833,574
9.21667,575
9.22500,575
9.23333,576
9.24167,576
9.25000,576
9.25833,577
9.26667,577
9.27500,577
9.28333,578
9.29167,578
9.30000,578
9.30833,579
9.31667,579
9.32500,580
9.33333,580
9.34167,580
9.35000,581
9.35833,581
9.36667,581
9.37500,581
9.38333,582
9.39167,582
9.40000,582
9.40833,583
9.41667,583
9.42500,584
9.43333,584
9.44167,584
9.45000,585
9.45833,585
9.46667,585
9.47500,586
9.48333,586
9.49167,586
9.50000,586
9.50833,586
9.51667,586
9.52500,586
9.53333,586
9.54167,586
9.55000,587
9.55833,587
9.56667,587
9.57500,587
9.58333,588
9.59167,588
9.60000,588
9.60833,588
9.61667,589
9.62500,589
9.63333,589
9.64167,590
9.65000,590
9.65833,590
9.66667,591
9.67500,591
9.68333,591
9.69167,590
9.70000,591
9.70833,591
9.71667,591
9.72500,591
9.73333,591
9.74167,591
9.75000,591
9.75833,591
9.76667,591
9.77500,590
9.78333,590
9.79167,590
9.80000,590
9.80833,589
9.81667,589
9.82500,589
9.83333,588
9.84167,588
9.85000,587
9.85833,587
9.86667,586
9.87500,585
9.88333,585
9.89167,584
9.90000,584
9.90833,583
9.91667,583
9.92500,582
9.93333,582
9.94167,581
9.95000,581
9.95833,580
9.96667,579
9.97500,579
9.98333,579
9.99167,578
10.00000,577
10.00833,577
10.01667,576
10.02500,575
10.03333,575
10.04167,574
10.05000,573
10.05833,572
10.06667,571
10.07500,570
10.08333,569
10.09167,569
10.10000,568
10.10833,568
10.11667,568
10.12500,567
10.13333,567
10.14167,566
10.15000,566
10.15833,566
10.16667,565
10.17500,565
10.18333,564
10.19167,564
10.20000,563
10.20833,563
10.21667,563
10.22500,563
10.23333,563
10.24167,563
10.25000,563
10.25833,563
10.26667,564
10.27500,564
10.28333,564
10.29167,564
10.30000,564
10.30833,565
10.31667,565
10.32500,566
10.33333,566
10.34167,566
10.35000,566
10.35833,566
10.36667,566
10.37500,566
10.38333,566
10.39167,566
10.40000,566
10.40833,565
10.41667,564
10.42500,563
10.43333,560
10.44167,557
10.45000,552
10.45833,546
10.46667,538
10.47500,527
10.48333,514
10.49167,498
10.50000,478
10.50833,453
10.51667,425
10.52500,392
10.53333,355
10.54167,314
10.55000,269
10.55833,222
10.56667,174
10.57500,127
10.58333,83
10.59167,44
10.60000,13
10.60833,-6
10.61667,-10
10.62500,4
10.63333,41
10.64167,102
10.65000,193
10.65833,314
10.66667,468
10.67500,659
10.68333,885
10.69167,1149
10.70000,1449
10.70833,1785
10.71667,2155
10.72500,2556
10.73333,2983
10.74167,3434
10.75000,3903
10.75833,4383
10.76667,4870
10.77500,5355
10.78333,5832
10.79167,6293
10.80000,6730
10.80833,7138
10.81667,7509
10.82500,7836
10.83333,8116
10.84167,8342
10.85000,8513
10.85833,8625
10.86667,8678
10.87500,8674
10.88333,8612
10.89167,8496
10.90000,8330
10.90833,8119
10.91667,7867
10.92500,7581
10.93333,7266
10.94167,6928
10.95000,6575
10.95833,6210
10.96667,5840
10.97500,5470
10.98333,5104
10.99167,4746
11.00000,4400
11.00833,4067
11.01667,3750
11.02500,3450
11.03333,3169
11.04167,2907
11.05000,2663
11.05833,2439
11.06667,2234
11.07500,2048
11.08333,1878
11.09167,1726
11.10000,1589
11.10833,1466
11.11667,1357
11.12500,1260
11.13333,1174
11.14167,1099
11.15000,1032
11.15833,974
11.16667,923
11.17500,879
11.18333,841
11.19167,807
11.20000,779
11.20833,754
11.21667,732
11.22500,713
11.23333,697
11.24167,683
11.25000,671
11.25833,661
11.26667,652
11.27500,644
11.28333,637
11.29167,631
11.30000,626
11.30833,622
11.31667,618
11.32500,614
11.33333,611
11.34167,608
11.35000,606
11.35833,604
11.36667,602
11.37500,600
11.38333,599
11.39167,597
11.40000,595
11.40833,594
11.41667,593
11.42500,591
11.43333,590
11.44167,589
11.45000,588
11.45833,587
11.46667,587
11.47500,586
11.48333,586
11.49167,585
11.50000,584
11.50833,584
11.51667,583
11.52500,583
11.53333,582
11.54167,581
11.55000,581
11.55833,580
11.56667,580
11.57500,580
11.58333,579
11.59167,578
11.60000,578
11.60833,577
11.61667,576
11.62500,576
11.63333,575
11.64167,575
11.65000,574
11.65833,574
11.66667,573
11.67500,572
11.68333,570
11.69167,569
11.70000,568
11.70833,567
11.71667,566
11.72500,565
11.73333,564
11.74167,563
11.75000,563
11.75833,562
11.76667,561
11.77500,560
11.78333,558
11.79167,557
11.80000,557
11.80833,556
11.81667,555
11.82500,555
11.83333,554
11.84167,553
11.85000,553
11.85833,552
11.86667,551
11.87500,551
11.88333,550
11.89167,549
11.90000,549
11.90833,549
11.91667,549
11.92500,549
11.93333,549
11.94167,550
11.95000,550
11.95833,550
11.96667,551
11.97500,551
11.98333,552
11.99167,553
12.00000,554
12.00833,555
12.01667,556
12.02500,557
12.03333,558
12.04167,559
12.05000,560
12.05833,561
12.06667,563
12.07500,564
12.08333,564
12.09167,565
12.10000,567
12.10833,568
12.11667,569
12.12500,570
12.13333,571
12.14167,572
12.15000,573
12.15833,574
12.16667,575
12.17500,577
12.18333,578
12.19167,579
12.20000,580
12.20833,581
12.21667,581
12.22500,582
12.23333,583
12.24167,584
12.25000,585
12.25833,585
12.26667,586
12.27500,586
12.28333,586
12.29167,587
12.30000,587
12.30833,587
12.31667,588
12.32500,588
12.33333,589
12.34167,590
12.35000,590
12.35833,590
12.36667,590
12.37500,590
12.38333,590
12.39167,590
12.40000,590
12.40833,590
12.41667,590
12.42500,590
12.43333,590
12.44167,590
12.45000,590
12.45833,590
12.46667,590
12.47500,590
12.48333,589
12.49167,589
12.50000,589
12.50833,589
12.51667,589
12.52500,590
12.53333,590
12.54167,591
12.55000,591
12.55833,592
12.56667,592
12.57500,594
12.58333,595
12.59167,597
12.60000,599
12.60833,602
12.61667,605
12.62500,610
12.63333,616
12.64167,622
12.65000,630
12.65833,640
12.66667,651
12.67500,665
12.68333,681
12.69167,701
12.70000,724
12.70833,751
12.71667,781
12.72500,817
12.73333,857
12.74167,903
12.75000,954
12.75833,1012
12.76667,1076
12.77500,1147
12.78333,1224
12.79167,1309
12.80000,1401
12.80833,1499
12.81667,1606
12.82500,1719
12.83333,1840
12.84167,1968
12.85000,2103
12.85833,2245
12.86667,2394
12.87500,2549
12.88333,2711
12.89167,2879
12.90000,3054
12.90833,3233
12.91667,3419
12.92500,3610
12.93333,3807
12.94167,4008
12.95000,4214
12.95833,4425
12.96667,4640
12.97500,4860
12.98333,5083
12.99167,5310
13.00000,5541
13.00833,5776
13.01667,6014
13.02500,6256
13.03333,6501
13.04167,6749
13.05000,6999
13.05833,7253
13.06667,7510
13.07500,7769
13.08333,8030
13.09167,8295
13.10000,8562
13.10833,8831
13.11667,9103
13.12500,9378
13.13333,9655
13.14167,9934
13.15000,10215
13.15833,10499
13.16667,10784
13.17500,11072
13.18333,11363
13.19167,11655
13.20000,11949
13.20833,12245
13.21667,12543
13.22500,12843
13.23333,13145
13.24167,13449
13.25000,13755
13.25833,14062
13.26667,14372
13.27500,14683
13.28333,14995
13.29167,15309
13.30000,15624
13.30833,15940
13.31667,16256
13.32500,16573
13.33333,16888
13.34167,17202
13.35000,17511
13.35833,17813
13.36667,18105
13.37500,18378
13.38333,18627
13.39167,18839
13.40000,19003
13.40833,19104
13.41667,19128
13.42500,19061
13.43333,18888
13.44167,18600
13.45000,18192
13.45833,17661
13.46667,17014
13.47500,16261
13.48333,15418
13.49167,14502
13.50000,13537
13.50833,12544
13.51667,11544
13.52500,10558
13.53333,9603
13.54167,8691
13.55000,7834
13.55833,7037
13.56667,6306
13.57500,5642
13.58333,5043
13.59167,4508
13.60000,4033
13.60833,3613
13.61667,3244
13.62500,2920
13.63333,2638
13.64167,2393
13.65000,2180
13.65833,1995
13.66667,1836
13.67500,1697
13.68333,1578
13.69167,1475
13.70000,1385
13.70833,1307
13.71667,1240
13.72500,1182
13.73333,1130
13.74167,1085
13.75000,1046
13.75833,1012
13.76667,982
13.77500,955
13.78333,932
13.79167,911
13.80000,892
13.80833,876
13.81667,861
13.82500,847
13.83333,835
13.84167,823
13.85000,813
13.85833,803
13.86667,795
13.87500,787
13.88333,779
13.89167,772
13.90000,766
13.90833,760
13.91667,755
13.92500,750
13.93333,745
13.94167,741
13.95000,736
13.95833,732
13.96667,728
13.97500,725
13.98333,721
13.99167,718
14.00000,715
14.00833,712
14.01667,709
14.02500,706
14.03333,703
14.04167,701
14.05000,698
14.05833,696
14.06667,694
14.07500,692
14.08333,690
14.09167,688
14.10000,686
14.10833,684
14.11667,682
14.12500,680
14.13333,678
14.14167,676
14.15000,674
14.15833,673
14.16667,672
14.17500,670
14.18333,669
14.19167,668
14.20000,667
14.20833,666
14.21667,664
14.22500,663
14.23333,662
14.24167,661
14.25000,660
14.25833,659
14.26667,658
14.27500,657
14.28333,656
14.29167,654
14.30000,654
14.30833,653
14.31667,653
14.32500,652
14.33333,652
14.34167,652
14.35000,651
14.35833,651
14.36667,650
14.37500,650
14.38333,649
14.39167,649
14.40000,648
14.40833,648
14.41667,647
14.42500,647
14.43333,646
14.44167,646
14.45000,645
14.45833,645
14.46667,645
14.47500,644
14.48333,644
14.49167,644
14.50000,643
14.50833,643
14.51667,643
14.52500,642
14.53333,642
14.54167,642
14.55000,642
14.55833,642
14.56667,641
14.57500,641
14.58333,641
14.59167,641
14.60000,641
14.60833,641
14.61667,641
14.62500,641
14.63333,640
14.64167,640
14.65000,639
14.65833,639
14.66667,639
14.67500,639
14.68333,639
14.69167,639
14.70000,638
14.70833,638
14.71667,637
14.72500,637
14.73333,637
14.74167,637
14.75000,637
14.75833,636
14.76667,636
14.77500,636
14.78333,636
14.79167,635
14.80000,635
14.80833,635
14.81667,634
14.82500,634
14.83333,634
14.84167,634
14.85000,634
14.85833,634
14.86667,634
14.87500,634
14.88333,634
14.89167,635
14.90000,635
14.90833,634
14.91667,634
14.92500,635
14.93333,635
14.94167,635
14.95000,635
14.95833,635
14.96667,635
14.97500,635
14.98333,635
14.99167,636
15.00000,636
15.00833,636
15.01667,636
15.02500,635
15.03333,635
15.04167,635
15.05000,634
15.05833,634
15.06667,634
15.07500,633
15.08333,633
15.09167,633
15.10000,632
15.10833,632
15.11667,631
15.12500,630
15.13333,630
15.14167,629
15.15000,629
15.15833,628
15.16667,628
15.17500,627
15.18333,627
15.19167,626
15.20000,626
15.20833,626
15.21667,626
15.22500,626
15.23333,626
15.24167,626
15.25000,626
15.25833,626
15.26667,626
15.27500,626
15.28333,626
15.29167,626
15.30000,627
15.30833,628
15.31667,629
15.32500,629
15.33333,630
15.34167,631
15.35000,631
15.35833,632
15.36667,633
15.37500,634
15.38333,635
15.39167,636
15.40000,637
15.40833,638
15.41667,639
15.42500,639
15.43333,640
15.44167,640
15.45000,641
15.45833,641
15.46667,642
15.47500,642
15.48333,642
15.49167,641
15.50000,641
15.50833,641
15.51667,641
15.52500,640
15.53333,640
15.54167,639
15.55000,638
15.55833,638
15.56667,637
15.57500,636
15.58333,635
15.59167,635
15.60000,634
15.60833,633
15.61667,631
15.62500,630
15.63333,629
15.64167,628
15.65000,628
15.65833,627
15.66667,626
15.67500,625
15.68333,625
15.69167,624
15.70000,623
15.70833,622
15.71667,622
15.72500,622
15.73333,621
15.74167,621
15.75000,620
15.75833,620
15.76667,620
15.77500,619
15.78333,619
15.79167,619
15.80000,619
15.80833,619
15.81667,618
15.82500,618
15.83333,618
15.84167,618
15.85000,618
15.85833,619
15.86667,619
15.87500,619
15.88333,619
15.89167,619
15.90000,620
15.90833,620
15.91667,620
15.92500,620
15.93333,620
15.94167,619
15.95000,619
15.95833,619
15.96667,619
15.97500,619
15.98333,619
15.99167,619
16.00000,619
16.00833,619
16.01667,618
16.02500,618
16.03333,618
16.04167,617
16.05000,617
16.05833,617
16.06667,616
16.07500,615
16.08333,615
16.09167,614
16.10000,613
16.10833,612
16.11667,611
16.12500,610
16.13333,610
16.14167,609
16.15000,609
16.15833,609
16.16667,608
16.17500,607
16.18333,607
16.19167,606
16.20000,606
16.20833,606
16.21667,606
16.22500,606
16.23333,605
16.24167,604
16.25000,604
16.25833,603
16.26667,603
16.27500,603
16.28333,602
16.29167,602
16.30000,602
16.30833,601
16.31667,601
16.32500,600
16.33333,600
16.34167,600
16.35000,600
16.35833,601
16.36667,601
16.37500,601
16.38333,601
16.39167,602
16.40000,602
16.40833,602
16.41667,603
16.42500,603
16.43333,604
16.44167,605
16.45000,605
16.45833,605
16.46667,605
16.47500,605
16.48333,606
16.49167,607
16.50000,609
16.50833,610
16.51667,611
16.52500,612
16.53333,612
16.54167,613
16.55000,613
16.55833,614
16.56667,614
16.57500,615
16.58333,616
16.59167,617
16.60000,618
16.60833,619
16.61667,620
16.62500,621
16.63333,621
16.64167,622
16.65000,623
16.65833,623
16.66667,624
16.67500,625
16.68333,625
16.69167,626
16.70000,626
16.70833,626
16.71667,626
16.72500,626
16.73333,626
16.74167,626
16.75000,626
16.75833,626
16.76667,626
16.77500,626
16.78333,625
16.79167,625
16.80000,625
16.80833,625
16.81667,625
16.82500,624
16.83333,624
16.84167,623
16.85000,622
16.85833,622
16.86667,621
16.87500,621
16.88333,620
16.89167,619
16.90000,618
16.90833,617
16.91667,617
16.92500,616
16.93333,615
16.94167,615
16.95000,614
16.95833,614
16.96667,613
16.97500,612
16.98333,611
16.99167,610
17.00000,609
17.00833,608
17.01667,608
17.02500,608
17.03333,607
17.04167,606
17.05000,606
17.05833,606
17.06667,605
17.07500,605
17.08333,604
17.09167,604
17.10000,603
17.10833,602
17.11667,602
17.12500,602
17.13333,601
17.14167,601
17.15000,600
17.15833,599
17.16667,598
17.17500,598
17.18333,598
17.19167,597
17.20000,596
17.20833,596
17.21667,595
17.22500,594
17.23333,594
17.24167,594
17.25000,593
17.25833,593
17.26667,592
17.27500,592
17.28333,591
17.29167,591
17.30000,590
17.30833,590
17.31667,590
17.32500,590
17.33333,590
17.34167,589
17.35000,589
17.35833,588
17.36667,588
17.37500,588
17.38333,587
17.39167,587
17.40000,587
17.40833,586
17.41667,586
17.42500,585
17.43333,585
17.44167,585
17.45000,585
17.45833,585
17.46667,585
17.47500,585
17.48333,585
17.49167,585
17.50000,585
17.50833,585
17.51667,585
17.52500,585
17.53333,586
17.54167,586
17.55000,586
17.55833,586
17.56667,586
17.57500,586
17.58333,585
17.59167,585
17.60000,585
17.60833,586
17.61667,586
17.62500,586
17.63333,587
17.64167,587
17.65000,588
17.65833,588
17.66667,588
17.67500,589
17.68333,589
17.69167,589
17.70000,590
17.70833,590
17.71667,590
17.72500,591
17.73333,591
17.74167,592
17.75000,592
17.75833,593
17.76667,593
17.77500,594
17.78333,594
17.79167,594
17.80000,594
17.80833,594
17.81667,595
17.82500,595
17.83333,596
17.84167,596
17.85000,596
17.85833,596
17.86667,597
17.87500,597
17.88333,597
17.89167,598
17.90000,598
17.90833,598
17.91667,599
17.92500,599
17.93333,599
17.94167,599
17.95000,599
17.95833,599
17.96667,598
17.97500,598
17.98333,598
17.99167,597
18.00000,598
18.00833,598
18.01667,597
18.02500,597
18.03333,597
18.04167,597
18.05000,597
18.05833,597
18.06667,596
18.07500,596
18.08333,595
18.09167,595
18.10000,594
18.10833,593
18.11667,593
18.12500,592
18.13333,592
18.14167,591
18.15000,591
18.15833,591
18.16667,591
18.17500,590
18.18333,590
18.19167,590
18.20000,590
18.20833,589
18.21667,589
18.22500,588
18.23333,588
18.24167,587
18.25000,587
18.25833,586
18.26667,586
18.27500,585
18.28333,585
18.29167,584
18.30000,584
18.30833,584
18.31667,584
18.32500,584
18.33333,584
18.34167,584
18.35000,584
18.35833,584
18.36667,584
18.37500,583
18.38333,584
18.39167,584
18.40000,584
18.40833,584
18.41667,585
18.42500,585
18.43333,585
18.44167,585
18.45000,585
18.45833,585
18.46667,585
18.47500,585
18.48333,585
18.49167,586
18.50000,586
18.50833,586
18.51667,586
18.52500,586
18.53333,587
18.54167,587
18.55000,587
18.55833,588
18.56667,588
18.57500,589
18.58333,589
18.59167,589
18.60000,590
18.60833,591
18.61667,592
18.62500,592
18.63333,593
18.64167,593
18.65000,594
18.65833,594
18.66667,595
18.67500,595
18.68333,596
18.69167,596
18.70000,597
18.70833,598
18.71667,599
18.72500,600
18.73333,601
18.74167,601
18.75000,602
18.75833,602
18.76667,603
18.77500,603
18.78333,604
18.79167,604
18.80000,604
18.80833,604
18.81667,604
18.82500,605
18.83333,605
18.84167,604
18.85000,604
18.85833,604
18.86667,604
18.87500,604
18.88333,603
18.89167,603
18.90000,602
18.90833,602
18.91667,601
18.92500,601
18.93333,601
18.94167,600
18.95000,600
18.95833,600
18.96667,599
18.97500,598
18.98333,597
18.99167,597
19.00000,596
19.00833,596
19.01667,595
19.02500,594
19.03333,593
19.04167,593
19.05000,593
19.05833,592
19.06667,592
19.07500,591
19.08333,591
19.09167,590
19.10000,590
19.10833,589
19.11667,589
19.12500,589
19.13333,589
19.14167,589
19.15000,590
19.15833,590
19.16667,590
19.17500,590
19.18333,590
19.19167,591
19.20000,591
19.20833,592
19.21667,591
19.22500,591
19.23333,592
19.24167,593
19.25000,593
19.25833,593
19.26667,593
19.27500,594
19.28333,594
19.29167,595
19.30000,595
19.30833,595
19.31667,596
19.32500,596
19.33333,596
19.34167,596
19.35000,597
19.35833,597
19.36667,597
19.37500,598
19.38333,598
19.39167,598
19.40000,599
19.40833,600
19.41667,600
19.42500,601
19.43333,601
19.44167,601
19.45000,601
19.45833,601
19.46667,602
19.47500,602
19.48333,602
19.49167,602
19.50000,603
19.50833,603
19.51667,603
19.52500,603
19.53333,603
19.54167,603
19.55000,603
19.55833,602
19.56667,602
19.57500,602
19.58333,602
19.59167,602
19.60000,601
19.60833,601
19.61667,600
19.62500,600
19.63333,600
19.64167,600
19.65000,600
19.65833,599
19.66667,599
19.67500,599
19.68333,599
19.69167,599
19.70000,598
19.70833,598
19.71667,597
19.72500,597
19.73333,597
19.74167,597
19.75000,597
19.75833,596
19.76667,596
19.77500,595
19.78333,594
19.79167,594
19.80000,594
19.80833,593
19.81667,592
19.82500,592
19.83333,592
19.84167,591
19.85000,591
19.85833,591
19.86667,591
19.87500,590
19.88333,590
19.89167,590
19.90000,589
19.90833,589
19.91667,589
19.92500,589
19.93333,589
19.94167,589
19.95000,589
19.95833,588
19.96667,588
19.97500,588
19.98333,588
19.99167,588
20.00000,587
20.00833,587
20.01667,587
20.02500,587
20.03333,587
20.04167,587
20.05000,587
20.05833,588
20.06667,588
20.07500,588
20.08333,588
20.09167,588
20.10000,588
20.10833,588
20.11667,588
20.12500,589
20.13333,589
20.14167,589
20.15000,589
20.15833,590
20.16667,590
20.17500,590
20.18333,590
20.19167,590
20.20000,590
20.20833,591
20.21667,591
20.22500,591
20.23333,592
20.24167,592
20.25000,592
20.25833,593
20.26667,593
20.27500,593
20.28333,594
20.29167,594
20.30000,594
20.30833,595
20.31667,595
20.32500,595
20.33333,595
20.34167,595
20.35000,595
20.35833,595
20.36667,595
20.37500,596
20.38333,596
20.39167,596
20.40000,597
20.40833,597
20.41667,597
20.42500,597
20.43333,597
20.44167,597
20.45000,597
20.45833,597
20.46667,597
20.47500,597
20.48333,597
20.49167,597
20.50000,597
20.50833,597
20.51667,597
20.52500,596
20.53333,596
20.54167,596
20.55000,596
20.55833,596
20.56667,596
20.57500,595
20.58333,595
20.59167,595
20.60000,595
20.60833,595
20.61667,595
20.62500,595
20.63333,594
20.64167,594
20.65000,593
20.65833,593
20.66667,592
20.67500,592
20.68333,592
20.69167,592
20.70000,592
20.70833,592
20.71667,592
20.72500,592
20.73333,592
20.74167,592
20.75000,592
20.75833,592
20.76667,592
20.77500,592
20.78333,592
20.79167,592
20.80000,593
20.80833,593
20.81667,593
20.82500,594
20.83333,594
20.84167,594
20.85000,594
20.85833,594
20.86667,595
20.87500,595
20.88333,595
20.89167,596
20.90000,596
20.90833,596
20.91667,596
20.92500,596
20.93333,597
20.94167,597
20.95000,598
20.95833,598
20.96667,598
20.97500,598
20.98333,598
20.99167,598
21.00000,599
21.00833,599
21.01667,599
21.02500,599
21.03333,599
21.04167,599
21.05000,599
21.05833,599
21.06667,599
21.07500,599
21.08333,599
21.09167,599
21.10000,599
21.10833,599
21.11667,599
21.12500,598
21.13333,598
21.14167,597
21.15000,597
21.15833,597
21.16667,596
21.17500,596
21.18333,595
21.19167,595
21.20000,595
21.20833,594
21.21667,594
21.22500,593
21.23333,593
21.24167,593
21.25000,593
21.25833,592
21.26667,592
21.27500,592
21.28333,591
21.29167,590
21.30000,590
21.30833,590
21.31667,589
21.32500,588
21.33333,588
21.34167,587
21.35000,587
21.35833,587
21.36667,587
21.37500,587
21.38333,587
21.39167,587
21.40000,587
21.40833,586
21.41667,586
21.42500,585
21.43333,585
21.44167,585
21.45000,584
21.45833,584
21.46667,583
21.47500,583
21.48333,583
21.49167,583
21.50000,582
21.50833,582
21.51667,582
21.52500,582
21.53333,582
21.54167,582
21.55000,583
21.55833,583
21.56667,583
21.57500,583
21.58333,583
21.59167,583
21.60000,583
21.60833,583
21.61667,583
21.62500,583
21.63333,582
21.64167,582
21.65000,582
21.65833,582
21.66667,582
21.67500,582
21.68333,582
21.69167,582
21.70000,583
21.70833,583
21.71667,583
21.72500,583
21.73333,583
21.74167,583
21.75000,583
21.75833,583
21.76667,583
21.77500,583
21.78333,583
21.79167,583
21.80000,583
21.80833,583
21.81667,583
21.82500,583
21.83333,583
21.84167,583
21.85000,583
21.85833,583
21.86667,583
21.87500,582
21.88333,583
21.89167,583
21.90000,583
21.90833,583
21.91667,583
21.92500,583
21.93333,583
21.94167,584
21.95000,584
21.95833,584
21.96667,584
21.97500,584
21.98333,584
21.99167,584
22.00000,584
22.00833,585
22.01667,585
22.02500,585
22.03333,585
22.04167,586
22.05000,586
22.05833,586
22.06667,586
22.07500,587
22.08333,588
22.09167,588
22.10000,589
22.10833,589
22.11667,589
22.12500,590
22.13333,590
22.14167,590
22.15000,591
22.15833,591
22.16667,592
22.17500,592
22.18333,593
22.19167,593
22.20000,594
22.20833,595
22.21667,596
22.22500,596
22.23333,596
22.24167,597
22.25000,597
22.25833,598
22.26667,598
22.27500,598
22.28333,599
22.29167,599
22.30000,599
22.30833,600
22.31667,600
22.32500,601
22.33333,601
22.34167,601
22.35000,601
22.35833,601
22.36667,601
22.37500,602
22.38333,602
22.39167,603
22.40000,603
22.40833,604
22.41667,605
22.42500,605
22.43333,605
22.44167,605
22.45000,605
22.45833,605
22.46667,605
22.47500,605
22.48333,605
22.49167,605
22.50000,605
22.50833,605
22.51667,605
22.52500,605
22.53333,605
22.54167,606
22.55000,606
22.55833,606
22.56667,606
22.57500,605
22.58333,605
22.59167,604
22.60000,604
22.60833,604
22.61667,603
22.62500,603
22.63333,603
22.64167,602
22.65000,602
22.65833,602
22.66667,601
22.67500,600
22.68333,600
22.69167,600
22.70000,599
22.70833,599
22.71667,598
22.72500,598
22.73333,597
22.74167,596
22.75000,595
22.75833,595
22.76667,594
22.77500,593
22.78333,592
22.79167,592
22.80000,591
22.80833,591
22.81667,590
22.82500,589
22.83333,589
22.84167,588
22.85000,587
22.85833,586
22.86667,585
22.87500,585
22.88333,584
22.89167,584
22.90000,584
22.90833,583
22.91667,583
22.92500,582
22.93333,582
22.94167,581
22.95000,581
22.95833,580
22.96667,580
22.97500,579
22.98333,579
22.99167,578
23.00000,578
23.00833,578
23.01667,577
23.02500,577
23.03333,577
23.04167,576
23.05000,576
23.05833,576
23.06667,576
23.07500,576
23.08333,576
23.09167,577
23.10000,577
23.10833,578
23.11667,578
23.12500,578
23.13333,579
23.14167,579
23.15000,579
23.15833,579
23.16667,579
23.17500,579
23.18333,580
23.19167,580
23.20000,580
23.20833,581
23.21667,581
23.22500,581
23.23333,582
23.24167,582
23.25000,582
23.25833,583
23.26667,583
23.27500,583
23.28333,584
23.29167,584
23.30000,584
23.30833,585
23.31667,585
23.32500,586
23.33333,587
23.34167,588
23.35000,588
23.35833,589
23.36667,589
23.37500,590
23.38333,590
23.39167,590
23.40000,591
23.40833,591
23.41667,591
23.42500,592
23.43333,593
23.44167,594
23.45000,594
23.45833,594
23.46667,595
23.47500,595
23.48333,595
23.49167,595
23.50000,596
23.50833,596
23.51667,596
23.52500,596
23.53333,596
23.54167,596
23.55000,597
23.55833,597
23.56667,597
23.57500,596
23.58333,596
23.59167,596
23.60000,596
23.60833,595
23.61667,595
23.62500,595
23.63333,595
23.64167,595
23.65000,595
23.65833,595
23.66667,595
23.67500,595
23.68333,594
23.69167,594
23.70000,594
23.70833,593
23.71667,593
23.72500,592
23.73333,591
23.74167,590
23.75000,589
23.75833,588
23.76667,587
23.77500,587
23.78333,586
23.79167,585
23.80000,585
23.80833,584
23.81667,584
23.82500,584
23.83333,583
23.84167,582
23.85000,581
23.85833,580
23.86667,580
23.87500,579
23.88333,579
23.89167,578
23.90000,577
23.90833,576
23.91667,575
23.92500,575
23.93333,574
23.94167,574
23.95000,573
23.95833,573
23.96667,573
23.97500,572
23.98333,572
23.99167,571
24.00000,571
24.00833,571
24.01667,570
24.02500,570
24.03333,570
24.04167,570
24.05000,570
24.05833,570
24.06667,570
24.07500,571
24.08333,571
24.09167,572
24.10000,572
24.10833,572
24.11667,572
24.12500,573
24.13333,573
24.14167,573
24.15000,574
24.15833,574
24.16667,575
24.17500,575
24.18333,576
24.19167,577
24.20000,578
24.20833,578
24.21667,579
24.22500,580
24.23333,581
24.24167,582
24.25000,583
24.25833,583
24.26667,584
24.27500,585
24.28333,587
24.29167,589
24.30000,591
24.30833,593
24.31667,595
24.32500,597
24.33333,599
24.34167,602
24.35000,605
24.35833,608
24.36667,612
24.37500,615
24.38333,619
24.39167,623
24.40000,627
24.40833,633
24.41667,638
24.42500,644
24.43333,651
24.44167,658
24.45000,666
24.45833,675
24.46667,684
24.47500,694
24.48333,705
24.49167,716
24.50000,729
24.50833,743
24.51667,757
24.52500,773
24.53333,790
24.54167,808
24.55000,827
24.55833,847
24.56667,868
24.57500,891
24.58333,915
24.59167,941
24.60000,968
24.60833,996
24.61667,1025
24.62500,1056
24.63333,1088
24.64167,1122
24.65000,1156
24.65833,1191
24.66667,1228
24.67500,1265
24.68333,1304
24.69167,1343
24.70000,1383
24.70833,1422
24.71667,1462
24.72500,1502
24.73333,1542
24.74167,1582
24.75000,1621
24.75833,1660
24.76667,1697
24.77500,1734
24.78333,1769
24.79167,1803
24.80000,1835
24.80833,1866
24.81667,1894
24.82500,1921
24.83333,1945
24.84167,1966
24.85000,1985
24.85833,2002
24.86667,2016
24.87500,2027
24.88333,2035
24.89167,2040
24.90000,2042
24.90833,2041
24.91667,2037
24.92500,2030
24.93333,2019
24.94167,2006
24.95000,1990
24.95833,1971
24.96667,1951
24.97500,1928
24.98333,1903
24.99167,1875
25.00000,1846
25.00833,1815
25.01667,1783
25.02500,1749
25.03333,1715
25.04167,1679
25.05000,1642
25.05833,1605
25.06667,1567
25.07500,1529
25.08333,1491
25.09167,1453
25.10000,1415
25.10833,1378
25.11667,1341
25.12500,1304
25.13333,1268
25.14167,1233
25.15000,1199
25.15833,1165
25.16667,1133
25.17500,1102
25.18333,1072
25.19167,1042
25.20000,1014
25.20833,987
25.21667,962
25.22500,939
25.23333,916
25.24167,894
25.25000,874
25.25833,855
25.26667,837
25.27500,819
25.28333,803
25.29167,788
25.30000,774
25.30833,760
25.31667,747
25.32500,736
25.33333,725
25.34167,715
25.35000,706
25.35833,697
25.36667,690
25.37500,682
25.38333,676
25.39167,669
25.40000,664
25.40833,658
25.41667,654
25.42500,650
25.43333,646
25.44167,643
25.45000,640
25.45833,638
25.46667,635
25.47500,633
25.48333,630
25.49167,627
25.50000,625
25.50833,623
25.51667,622
25.52500,620
25.53333,619
25.54167,617
25.55000,616
25.55833,615
25.56667,614
25.57500,614
25.58333,613
25.59167,612
25.60000,612
25.60833,611
25.61667,611
25.62500,610
25.63333,610
25.64167,610
25.65000,609
25.65833,609
25.66667,608
25.67500,608
25.68333,608
25.69167,608
25.70000,608
25.70833,608
25.71667,608
25.72500,608
25.73333,608
25.74167,608
25.75000,608
25.75833,608
25.76667,608
25.77500,608
25.78333,607
25.79167,607
25.80000,607
25.80833,607
25.81667,608
25.82500,607
25.83333,607
25.84167,607
25.85000,607
25.85833,607
25.86667,606
25.87500,606
25.88333,606
25.89167,606
25.90000,606
25.90833,607
25.91667,607
25.92500,607
25.93333,607
25.94167,607
25.95000,607
25.95833,607
25.96667,607
25.97500,607
25.98333,607
25.99167,607
26.00000,608
26.00833,608
26.01667,608
26.02500,608
26.03333,608
26.04167,608
26.05000,608
26.05833,608
26.06667,608
26.07500,608
26.08333,608
26.09167,608
26.10000,608
26.10833,608
26.11667,608
26.12500,608
26.13333,609
26.14167,609
26.15000,609
26.15833,610
26.16667,610
26.17500,610
26.18333,611
26.19167,611
26.20000,611
26.20833,611
26.21667,611
26.22500,612
26.23333,612
26.24167,612
26.25000,612
26.25833,612
26.26667,613
26.27500,613
26.28333,613
26.29167,613
26.30000,613
26.30833,612
26.31667,612
26.32500,612
26.33333,612
26.34167,612
26.35000,612
26.35833,611
26.36667,611
26.37500,611
26.38333,610
26.39167,610
26.40000,610
26.40833,609
26.41667,609
26.42500,609
26.43333,608
26.44167,608
26.45000,608
26.45833,607
26.46667,607
26.47500,606
26.48333,605
26.49167,605
26.50000,604
26.50833,603
26.51667,603
26.52500,603
26.53333,602
26.54167,601
26.55000,601
26.55833,600
26.56667,600
26.57500,600
26.58333,599
26.59167,598
26.60000,598
26.60833,597
26.61667,596
26.62500,596
26.63333,595
26.64167,594
26.65000,594
26.65833,593
26.66667,593
26.67500,592
26.68333,592
26.69167,592
26.70000,591
26.70833,590
26.71667,590
26.72500,589
26.73333,589
26.74167,589
26.75000,589
26.75833,589
26.76667,589
26.77500,589
26.78333,589
26.79167,589
26.80000,589
26.80833,589
26.81667,589
26.82500,589
26.83333,588
26.84167,588
26.85000,588
26.85833,589
26.86667,589
26.87500,589
26.88333,589
26.89167,589
26.90000,590
26.90833,590
26.91667,590
26.92500,590
26.93333,591
26.94167,591
26.95000,592
26.95833,592
26.96667,592
26.97500,593
26.98333,593
26.99167,592
27.00000,592
27.00833,592
27.01667,592
27.02500,592
27.03333,593
27.04167,593
27.05000,594
27.05833,594
27.06667,593
27.07500,593
27.08333,593
27.09167,593
27.10000,593
27.10833,593
27.11667,593
27.12500,594
27.13333,594
27.14167,594
27.15000,594
27.15833,594
27.16667,594
27.17500,594
27.18333,594
27.19167,593
27.20000,593
27.20833,593
27.21667,592
27.22500,592
27.23333,591
27.24167,591
27.25000,590
27.25833,590
27.26667,589
27.27500,589
27.28333,589
27.29167,589
27.30000,588
27.30833,587
27.31667,587
27.32500,586
27.33333,586
27.34167,586
27.35000,587
27.35833,587
27.36667,586
27.37500,586
27.38333,586
27.39167,586
27.40000,586
27.40833,586
27.41667,585
27.42500,586
27.43333,585
27.44167,585
27.45000,585
27.45833,585
27.46667,585
27.47500,585
27.48333,585
27.49167,585
27.50000,585
27.50833,586
27.51667,586
27.52500,586
27.53333,586
27.54167,586
27.55000,587
27.55833,587
27.56667,587
27.57500,587
27.58333,588
27.59167,588
27.60000,589
27.60833,589
27.61667,589
27.62500,589
27.63333,589
27.64167,589
27.65000,589
27.65833,589
27.66667,589
27.67500,589
27.68333,589
27.69167,589
27.70000,589
27.70833,589
27.71667,589
27.72500,588
27.73333,588
27.74167,587
27.75000,587
27.75833,587
27.76667,587
27.77500,587
27.78333,587
27.79167,586
27.80000,586
27.80833,585
27.81667,584
27.82500,583
27.83333,582
27.84167,581
27.85000,580
27.85833,578
27.86667,577
27.87500,575
27.88333,574
27.89167,572
27.90000,571
27.90833,569
27.91667,567
27.92500,564
27.93333,561
27.94167,558
27.95000,555
27.95833,551
27.96667,547
27.97500,543
27.98333,539
27.99167,535
28.00000,530
28.00833,525
28.01667,519
28.02500,513
28.03333,508
28.04167,501
28.05000,495
28.05833,488
28.06667,481
28.07500,473
28.08333,465
28.09167,457
28.10000,448
28.10833,439
28.11667,429
28.12500,419
28.13333,408
28.14167,398
28.15000,387
28.15833,375
28.16667,363
28.17500,351
28.18333,338
28.19167,325
28.20000,312
28.20833,298
28.21667,285
28.22500,271
28.23333,256
28.24167,242
28.25000,227
28.25833,212
28.26667,197
28.27500,181
28.28333,166
28.29167,150
28.30000,135
28.30833,119
28.31667,104
28.32500,89
28.33333,74
28.34167,59
28.35000,45
28.35833,30
28.36667,16
28.37500,2
28.38333,-11
28.39167,-24
28.40000,-37
28.40833,-49
28.41667,-61
28.42500,-72
28.43333,-83
28.44167,-93
28.45000,-102
28.45833,-111
28.46667,-120
28.47500,-127
28.48333,-134
28.49167,-140
28.50000,-146
28.50833,-151
28.51667,-156
28.52500,-159
28.53333,-162
28.54167,-164
28.55000,-165
28.55833,-166
28.56667,-165
28.57500,-165
28.58333,-163
28.59167,-161
28.60000,-158
28.60833,-154
28.61667,-150
28.62500,-146
28.63333,-141
28.64167,-135
28.65000,-129
28.65833,-122
28.66667,-115
28.67500,-108
28.68333,-100
28.69167,-92
28.70000,-84
28.70833,-75
28.71667,-67
28.72500,-58
28.73333,-49
28.74167,-39
28.75000,-30
28.75833,-20
28.76667,-10
28.77500,-1
28.78333,8
28.79167,18
28.80000,27
28.80833,37
28.81667,46
28.82500,55
28.83333,65
28.84167,74
28.85000,83
28.85833,91
28.86667,100
28.87500,108
28.88333,117
28.89167,125
28.90000,133
28.90833,140
28.91667,148
28.92500,155
28.93333,162
28.94167,169
28.95000,175
28.95833,181
28.96667,188
28.97500,193
28.98333,199
28.99167,204
29.00000,209
29.00833,214
29.01667,219
29.02500,223
29.03333,227
29.04167,232
29.05000,236
29.05833,240
29.06667,244
29.07500,247
29.08333,250
29.09167,253
29.10000,256
29.10833,259
29.11667,262
29.12500,264
29.13333,267
29.14167,269
29.15000,272
29.15833,274
29.16667,276
29.17500,277
29.18333,279
29.19167,281
29.20000,283
29.20833,285
29.21667,286
29.22500,287
29.23333,288
29.24167,289
29.25000,290
29.25833,291
29.26667,291
29.27500,292
29.28333,293
29.29167,294
29.30000,295
29.30833,295
29.31667,296
29.32500,296
29.33333,297
29.34167,297
29.35000,298
29.35833,298
29.36667,298
29.37500,298
29.38333,298
29.39167,298
29.40000,298
29.40833,298
29.41667,297
29.42500,297
29.43333,297
29.44167,297
29.45000,296
29.45833,296
29.46667,296
29.47500,295
29.48333,294
29.49167,293
29.50000,293
29.50833,292
29.51667,291
29.52500,290
29.53333,290
29.54167,289
29.55000,288
29.55833,287
29.56667,286
29.57500,285
29.58333,284
29.59167,283
29.60000,281
29.60833,280
29.61667,279
29.62500,277
29.63333,276
29.64167,274
29.65000,273
29.65833,272
29.66667,270
29.67500,268
29.68333,267
29.69167,266
29.70000,264
29.70833,262
29.71667,260
29.72500,257
29.73333,255
29.74167,253
29.75000,251
29.75833,249
29.76667,247
29.77500,244
29.78333,242
29.79167,240
29.80000,237
29.80833,235
29.81667,232
29.82500,229
29.83333,227
29.84167,224
29.85000,220
29.85833,217
29.86667,214
29.87500,211
29.88333,208
29.89167,204
29.90000,201
29.90833,198
29.91667,195
29.92500,192
29.93333,189
29.94167,185
29.95000,182
29.95833,179
29.96667,175
29.97500,171
29.98333,167
29.99167,163
30.00000,159

