[Header]
Application Name,LabSolutions
Version,5.97 SP1
Data File Name,C:\Users\cremerlab\Desktop\griffin\2021-02-15_NCM_diauxie_turnover\2021-02-15_NCM_acetate_glucose_diauxie_turnover_2152021_012.lcd
Output Date,2/16/2021
Output Time,9:09:44 AM

[File Information]
Type,Data File
Generated,2/16/2021 1:58:59 AM
Generated by,System Administrator
Modified,2/16/2021 2:29:18 AM
Modified by,System Administrator

[Sample Information]
Operator Name,System Administrator
Acquired,2/16/2021 1:59:17 AM
Sample Type,0:Unknown
Level,0
Sample Name,10 mM glucose medium 10 uL
Sample ID,001
ISTD Amount1,1
ISTD Amount2,1
ISTD Amount3,1
ISTD Amount4,1
ISTD Amount5,1
ISTD Amount6,1
ISTD Amount7,1
ISTD Amount8,1
ISTD Amount9,1
ISTD Amount10,1
ISTD Amount11,1
ISTD Amount12,1
ISTD Amount13,1
ISTD Amount14,1
ISTD Amount15,1
ISTD Amount16,1
ISTD Amount17,1
ISTD Amount18,1
ISTD Amount19,1
ISTD Amount20,1
ISTD Amount21,1
ISTD Amount22,1
ISTD Amount23,1
ISTD Amount24,1
ISTD Amount25,1
ISTD Amount26,1
ISTD Amount27,1
ISTD Amount28,1
ISTD Amount29,1
ISTD Amount30,1
ISTD Amount31,1
ISTD Amount32,1
Sample Amount,1
Dilution Factor,1
Vial#,10
Injection Volume,10

[Original Files]
Data File,C:\Users\cremerlab\Desktop\griffin\2021-02-15_NCM_diauxie_turnover\2021-02-15_NCM_acetate_glucose_diauxie_turnover_2152021_012.lcd
Method File,C:\LabSolutions\Data\Project1\organicacidsetc.lcm
Batch File,C:\Users\cremerlab\Desktop\griffin\2021-02-15_NCM_diauxie_turnover\2021-02-15_NCM_acetate_glucose_diauxie_turnover.lcb
Report Format File,c:\LabSolutions\System\DEFAULT.lsr

[File Description]


[Configuration]
Instrument Name,HPLC-PC-Instrument1
Instrument #,1
Line #,1
# of Detectors,2
Detector ID,Detector A,Detector B
Detector Name,Detector A,Detector B
# of Channels,1,1

[Peak Table(Detector A)]
# of Peaks,0

[Peak Table(Detector B)]
# of Peaks,4
Peak#,R.Time,I.Time,F.Time,Area,Height,A/H,Conc.,Mark,ID#,Name,k',Plate #,Plate Ht.,Tailing,Resolution,Sep.Factor,Area Ratio,Height Ratio,Conc. %,Norm Conc.
1,6.183,5.467,6.908,18889,522,36.213,0.000,   ,,,0.000,636,235.718,0.979,0.000,0.000,0,0,0.000,0.000
2,10.857,10.608,11.450,62596,3976,15.745,0.000,   ,,,0.756,10845,13.831,1.277,6.691,0.000,0,0,0.000,0.000
3,13.231,12.550,14.533,230629,10629,21.698,0.000,   ,,,1.140,7962,18.839,0.799,4.700,1.508,0,0,0.000,0.000
4,15.543,15.050,16.667,57415,2482,23.134,0.000,   ,,,1.514,10628,14.113,1.145,3.864,1.328,0,0,0.000,0.000

[Compound Results(Detector A)]
# of IDs,0

[Compound Results(Detector B)]
# of IDs,0

[LC Chromatogram(Detector B-Ch1)]
Interval(msec),500
# of Points,3601
Start Time(min),0.000
End Time(min),30.000
Intensity Units,mV
Intensity Multiplier,0.001
R.Time (min),Intensity
0.00000,-43
0.00833,-43
0.01667,0
0.02500,1
0.03333,2
0.04167,2
0.05000,2
0.05833,2
0.06667,2
0.07500,4
0.08333,5
0.09167,7
0.10000,9
0.10833,11
0.11667,13
0.12500,16
0.13333,19
0.14167,21
0.15000,24
0.15833,26
0.16667,29
0.17500,32
0.18333,34
0.19167,37
0.20000,40
0.20833,43
0.21667,45
0.22500,48
0.23333,51
0.24167,55
0.25000,58
0.25833,61
0.26667,64
0.27500,67
0.28333,70
0.29167,73
0.30000,76
0.30833,79
0.31667,82
0.32500,85
0.33333,88
0.34167,90
0.35000,93
0.35833,96
0.36667,99
0.37500,101
0.38333,103
0.39167,106
0.40000,109
0.40833,111
0.41667,113
0.42500,115
0.43333,118
0.44167,120
0.45000,123
0.45833,125
0.46667,128
0.47500,131
0.48333,134
0.49167,136
0.50000,139
0.50833,141
0.51667,144
0.52500,147
0.53333,149
0.54167,151
0.55000,153
0.55833,155
0.56667,157
0.57500,160
0.58333,162
0.59167,164
0.60000,166
0.60833,168
0.61667,170
0.62500,172
0.63333,173
0.64167,175
0.65000,176
0.65833,177
0.66667,178
0.67500,180
0.68333,181
0.69167,182
0.70000,183
0.70833,185
0.71667,187
0.72500,188
0.73333,190
0.74167,191
0.75000,193
0.75833,194
0.76667,196
0.77500,198
0.78333,199
0.79167,201
0.80000,202
0.80833,204
0.81667,206
0.82500,207
0.83333,209
0.84167,210
0.85000,211
0.85833,212
0.86667,214
0.87500,215
0.88333,215
0.89167,216
0.90000,218
0.90833,219
0.91667,220
0.92500,221
0.93333,222
0.94167,223
0.95000,224
0.95833,226
0.96667,227
0.97500,228
0.98333,229
0.99167,230
1.00000,231
1.00833,233
1.01667,234
1.02500,235
1.03333,237
1.04167,238
1.05000,240
1.05833,241
1.06667,242
1.07500,243
1.08333,245
1.09167,246
1.10000,248
1.10833,248
1.11667,249
1.12500,251
1.13333,252
1.14167,253
1.15000,255
1.15833,256
1.16667,257
1.17500,258
1.18333,259
1.19167,260
1.20000,261
1.20833,262
1.21667,263
1.22500,265
1.23333,266
1.24167,267
1.25000,268
1.25833,269
1.26667,270
1.27500,270
1.28333,271
1.29167,271
1.30000,272
1.30833,273
1.31667,274
1.32500,275
1.33333,276
1.34167,277
1.35000,278
1.35833,278
1.36667,279
1.37500,280
1.38333,280
1.39167,281
1.40000,282
1.40833,283
1.41667,284
1.42500,285
1.43333,286
1.44167,287
1.45000,288
1.45833,288
1.46667,289
1.47500,289
1.48333,290
1.49167,290
1.50000,291
1.50833,291
1.51667,292
1.52500,293
1.53333,293
1.54167,294
1.55000,294
1.55833,295
1.56667,295
1.57500,296
1.58333,297
1.59167,298
1.60000,298
1.60833,299
1.61667,299
1.62500,300
1.63333,300
1.64167,300
1.65000,300
1.65833,300
1.66667,301
1.67500,302
1.68333,302
1.69167,303
1.70000,304
1.70833,305
1.71667,305
1.72500,306
1.73333,306
1.74167,306
1.75000,306
1.75833,307
1.76667,307
1.77500,308
1.78333,308
1.79167,308
1.80000,308
1.80833,309
1.81667,309
1.82500,309
1.83333,310
1.84167,310
1.85000,311
1.85833,311
1.86667,311
1.87500,311
1.88333,311
1.89167,312
1.90000,312
1.90833,312
1.91667,313
1.92500,313
1.93333,313
1.94167,314
1.95000,314
1.95833,314
1.96667,314
1.97500,314
1.98333,315
1.99167,315
2.00000,316
2.00833,316
2.01667,316
2.02500,316
2.03333,316
2.04167,317
2.05000,317
2.05833,317
2.06667,318
2.07500,318
2.08333,319
2.09167,319
2.10000,320
2.10833,321
2.11667,321
2.12500,322
2.13333,323
2.14167,323
2.15000,324
2.15833,325
2.16667,326
2.17500,327
2.18333,327
2.19167,328
2.20000,329
2.20833,330
2.21667,330
2.22500,331
2.23333,332
2.24167,333
2.25000,334
2.25833,335
2.26667,335
2.27500,336
2.28333,337
2.29167,338
2.30000,339
2.30833,340
2.31667,341
2.32500,341
2.33333,341
2.34167,341
2.35000,341
2.35833,342
2.36667,343
2.37500,344
2.38333,345
2.39167,345
2.40000,346
2.40833,346
2.41667,346
2.42500,346
2.43333,346
2.44167,347
2.45000,347
2.45833,347
2.46667,348
2.47500,348
2.48333,349
2.49167,349
2.50000,350
2.50833,351
2.51667,351
2.52500,352
2.53333,352
2.54167,352
2.55000,352
2.55833,353
2.56667,353
2.57500,353
2.58333,353
2.59167,354
2.60000,355
2.60833,356
2.61667,357
2.62500,358
2.63333,358
2.64167,359
2.65000,359
2.65833,360
2.66667,360
2.67500,361
2.68333,362
2.69167,362
2.70000,363
2.70833,365
2.71667,366
2.72500,367
2.73333,368
2.74167,370
2.75000,371
2.75833,372
2.76667,373
2.77500,374
2.78333,375
2.79167,376
2.80000,378
2.80833,379
2.81667,380
2.82500,380
2.83333,382
2.84167,382
2.85000,383
2.85833,384
2.86667,385
2.87500,386
2.88333,387
2.89167,389
2.90000,390
2.90833,391
2.91667,392
2.92500,393
2.93333,395
2.94167,396
2.95000,397
2.95833,398
2.96667,399
2.97500,400
2.98333,401
2.99167,402
3.00000,403
3.00833,405
3.01667,406
3.02500,406
3.03333,407
3.04167,408
3.05000,409
3.05833,410
3.06667,411
3.07500,412
3.08333,413
3.09167,414
3.10000,415
3.10833,416
3.11667,418
3.12500,419
3.13333,420
3.14167,421
3.15000,422
3.15833,423
3.16667,423
3.17500,424
3.18333,425
3.19167,426
3.20000,427
3.20833,427
3.21667,429
3.22500,429
3.23333,431
3.24167,431
3.25000,432
3.25833,432
3.26667,433
3.27500,433
3.28333,434
3.29167,435
3.30000,436
3.30833,437
3.31667,438
3.32500,438
3.33333,439
3.34167,440
3.35000,441
3.35833,442
3.36667,443
3.37500,444
3.38333,445
3.39167,446
3.40000,446
3.40833,447
3.41667,448
3.42500,449
3.43333,450
3.44167,451
3.45000,452
3.45833,453
3.46667,454
3.47500,456
3.48333,457
3.49167,458
3.50000,459
3.50833,459
3.51667,460
3.52500,461
3.53333,462
3.54167,463
3.55000,464
3.55833,465
3.56667,466
3.57500,467
3.58333,468
3.59167,468
3.60000,469
3.60833,470
3.61667,471
3.62500,472
3.63333,472
3.64167,473
3.65000,473
3.65833,474
3.66667,474
3.67500,475
3.68333,475
3.69167,476
3.70000,476
3.70833,477
3.71667,477
3.72500,478
3.73333,479
3.74167,480
3.75000,480
3.75833,481
3.76667,481
3.77500,481
3.78333,482
3.79167,482
3.80000,482
3.80833,483
3.81667,483
3.82500,484
3.83333,484
3.84167,484
3.85000,484
3.85833,484
3.86667,485
3.87500,485
3.88333,486
3.89167,486
3.90000,487
3.90833,487
3.91667,487
3.92500,488
3.93333,488
3.94167,489
3.95000,490
3.95833,491
3.96667,491
3.97500,492
3.98333,493
3.99167,494
4.00000,494
4.00833,495
4.01667,495
4.02500,495
4.03333,496
4.04167,496
4.05000,496
4.05833,497
4.06667,497
4.07500,497
4.08333,498
4.09167,499
4.10000,500
4.10833,501
4.11667,502
4.12500,503
4.13333,503
4.14167,504
4.15000,505
4.15833,505
4.16667,506
4.17500,507
4.18333,508
4.19167,509
4.20000,509
4.20833,510
4.21667,511
4.22500,512
4.23333,512
4.24167,513
4.25000,514
4.25833,514
4.26667,515
4.27500,516
4.28333,516
4.29167,517
4.30000,517
4.30833,518
4.31667,518
4.32500,519
4.33333,520
4.34167,521
4.35000,522
4.35833,522
4.36667,523
4.37500,524
4.38333,524
4.39167,525
4.40000,525
4.40833,526
4.41667,526
4.42500,526
4.43333,526
4.44167,527
4.45000,528
4.45833,528
4.46667,528
4.47500,529
4.48333,529
4.49167,530
4.50000,530
4.50833,531
4.51667,531
4.52500,532
4.53333,532
4.54167,533
4.55000,533
4.55833,533
4.56667,534
4.57500,534
4.58333,534
4.59167,534
4.60000,535
4.60833,535
4.61667,535
4.62500,535
4.63333,535
4.64167,535
4.65000,535
4.65833,535
4.66667,534
4.67500,534
4.68333,534
4.69167,534
4.70000,534
4.70833,533
4.71667,533
4.72500,533
4.73333,532
4.74167,532
4.75000,532
4.75833,531
4.76667,531
4.77500,530
4.78333,530
4.79167,530
4.80000,529
4.80833,528
4.81667,528
4.82500,528
4.83333,528
4.84167,528
4.85000,527
4.85833,527
4.86667,527
4.87500,526
4.88333,526
4.89167,526
4.90000,526
4.90833,526
4.91667,526
4.92500,525
4.93333,525
4.94167,525
4.95000,525
4.95833,524
4.96667,524
4.97500,524
4.98333,524
4.99167,524
5.00000,524
5.00833,524
5.01667,524
5.02500,523
5.03333,524
5.04167,524
5.05000,524
5.05833,524
5.06667,524
5.07500,524
5.08333,525
5.09167,525
5.10000,525
5.10833,525
5.11667,526
5.12500,527
5.13333,527
5.14167,528
5.15000,528
5.15833,529
5.16667,529
5.17500,530
5.18333,530
5.19167,530
5.20000,530
5.20833,531
5.21667,531
5.22500,532
5.23333,533
5.24167,533
5.25000,534
5.25833,534
5.26667,535
5.27500,536
5.28333,537
5.29167,537
5.30000,538
5.30833,538
5.31667,539
5.32500,539
5.33333,540
5.34167,540
5.35000,541
5.35833,541
5.36667,542
5.37500,543
5.38333,543
5.39167,544
5.40000,545
5.40833,546
5.41667,547
5.42500,548
5.43333,549
5.44167,550
5.45000,551
5.45833,553
5.46667,554
5.47500,555
5.48333,556
5.49167,558
5.50000,559
5.50833,561
5.51667,563
5.52500,565
5.53333,567
5.54167,570
5.55000,572
5.55833,575
5.56667,578
5.57500,580
5.58333,583
5.59167,586
5.60000,589
5.60833,593
5.61667,596
5.62500,600
5.63333,604
5.64167,609
5.65000,613
5.65833,618
5.66667,622
5.67500,628
5.68333,633
5.69167,638
5.70000,644
5.70833,649
5.71667,656
5.72500,662
5.73333,669
5.74167,676
5.75000,683
5.75833,690
5.76667,698
5.77500,706
5.78333,713
5.79167,722
5.80000,731
5.80833,740
5.81667,750
5.82500,759
5.83333,769
5.84167,779
5.85000,789
5.85833,799
5.86667,809
5.87500,820
5.88333,831
5.89167,841
5.90000,852
5.90833,863
5.91667,874
5.92500,885
5.93333,896
5.94167,907
5.95000,918
5.95833,928
5.96667,939
5.97500,950
5.98333,961
5.99167,972
6.00000,983
6.00833,993
6.01667,1003
6.02500,1012
6.03333,1021
6.04167,1030
6.05000,1038
6.05833,1046
6.06667,1054
6.07500,1061
6.08333,1069
6.09167,1075
6.10000,1081
6.10833,1087
6.11667,1093
6.12500,1098
6.13333,1102
6.14167,1105
6.15000,1108
6.15833,1110
6.16667,1112
6.17500,1113
6.18333,1113
6.19167,1113
6.20000,1112
6.20833,1111
6.21667,1109
6.22500,1106
6.23333,1104
6.24167,1100
6.25000,1096
6.25833,1091
6.26667,1085
6.27500,1079
6.28333,1073
6.29167,1066
6.30000,1059
6.30833,1051
6.31667,1043
6.32500,1035
6.33333,1026
6.34167,1017
6.35000,1008
6.35833,998
6.36667,988
6.37500,978
6.38333,968
6.39167,958
6.40000,947
6.40833,937
6.41667,926
6.42500,916
6.43333,905
6.44167,894
6.45000,884
6.45833,873
6.46667,863
6.47500,852
6.48333,842
6.49167,832
6.50000,821
6.50833,812
6.51667,802
6.52500,793
6.53333,783
6.54167,775
6.55000,766
6.55833,758
6.56667,750
6.57500,742
6.58333,734
6.59167,727
6.60000,720
6.60833,713
6.61667,707
6.62500,701
6.63333,695
6.64167,690
6.65000,685
6.65833,681
6.66667,677
6.67500,673
6.68333,669
6.69167,665
6.70000,661
6.70833,658
6.71667,655
6.72500,653
6.73333,650
6.74167,648
6.75000,646
6.75833,644
6.76667,642
6.77500,640
6.78333,639
6.79167,638
6.80000,637
6.80833,636
6.81667,635
6.82500,635
6.83333,634
6.84167,633
6.85000,633
6.85833,632
6.86667,631
6.87500,631
6.88333,630
6.89167,629
6.90000,629
6.90833,629
6.91667,629
6.92500,628
6.93333,628
6.94167,627
6.95000,627
6.95833,627
6.96667,626
6.97500,626
6.98333,625
6.99167,625
7.00000,624
7.00833,624
7.01667,623
7.02500,622
7.03333,622
7.04167,621
7.05000,620
7.05833,620
7.06667,619
7.07500,618
7.08333,618
7.09167,617
7.10000,616
7.10833,615
7.11667,614
7.12500,613
7.13333,613
7.14167,612
7.15000,611
7.15833,610
7.16667,610
7.17500,609
7.18333,608
7.19167,607
7.20000,607
7.20833,606
7.21667,605
7.22500,604
7.23333,603
7.24167,603
7.25000,602
7.25833,601
7.26667,601
7.27500,600
7.28333,600
7.29167,600
7.30000,599
7.30833,598
7.31667,598
7.32500,597
7.33333,596
7.34167,596
7.35000,595
7.35833,594
7.36667,594
7.37500,593
7.38333,593
7.39167,592
7.40000,592
7.40833,591
7.41667,591
7.42500,590
7.43333,590
7.44167,590
7.45000,589
7.45833,589
7.46667,589
7.47500,589
7.48333,589
7.49167,589
7.50000,589
7.50833,588
7.51667,588
7.52500,588
7.53333,587
7.54167,587
7.55000,587
7.55833,586
7.56667,586
7.57500,586
7.58333,586
7.59167,585
7.60000,585
7.60833,584
7.61667,584
7.62500,584
7.63333,584
7.64167,583
7.65000,583
7.65833,583
7.66667,583
7.67500,582
7.68333,582
7.69167,582
7.70000,581
7.70833,581
7.71667,580
7.72500,580
7.73333,579
7.74167,579
7.75000,578
7.75833,577
7.76667,577
7.77500,577
7.78333,576
7.79167,576
7.80000,575
7.80833,574
7.81667,574
7.82500,573
7.83333,572
7.84167,572
7.85000,571
7.85833,570
7.86667,570
7.87500,570
7.88333,569
7.89167,569
7.90000,568
7.90833,568
7.91667,567
7.92500,566
7.93333,565
7.94167,565
7.95000,564
7.95833,564
7.96667,563
7.97500,563
7.98333,562
7.99167,562
8.00000,561
8.00833,560
8.01667,560
8.02500,559
8.03333,559
8.04167,558
8.05000,557
8.05833,557
8.06667,556
8.07500,556
8.08333,555
8.09167,554
8.10000,554
8.10833,553
8.11667,553
8.12500,553
8.13333,552
8.14167,552
8.15000,552
8.15833,551
8.16667,550
8.17500,550
8.18333,550
8.19167,550
8.20000,549
8.20833,549
8.21667,549
8.22500,549
8.23333,549
8.24167,548
8.25000,547
8.25833,547
8.26667,547
8.27500,546
8.28333,546
8.29167,546
8.30000,546
8.30833,546
8.31667,546
8.32500,546
8.33333,546
8.34167,547
8.35000,547
8.35833,547
8.36667,547
8.37500,547
8.38333,547
8.39167,547
8.40000,547
8.40833,546
8.41667,546
8.42500,547
8.43333,546
8.44167,546
8.45000,546
8.45833,546
8.46667,546
8.47500,546
8.48333,546
8.49167,545
8.50000,545
8.50833,545
8.51667,545
8.52500,545
8.53333,544
8.54167,544
8.55000,544
8.55833,544
8.56667,544
8.57500,544
8.58333,544
8.59167,544
8.60000,544
8.60833,544
8.61667,544
8.62500,544
8.63333,544
8.64167,544
8.65000,544
8.65833,545
8.66667,544
8.67500,544
8.68333,544
8.69167,544
8.70000,544
8.70833,544
8.71667,544
8.72500,544
8.73333,544
8.74167,545
8.75000,545
8.75833,545
8.76667,545
8.77500,546
8.78333,546
8.79167,546
8.80000,547
8.80833,547
8.81667,548
8.82500,548
8.83333,548
8.84167,549
8.85000,550
8.85833,551
8.86667,551
8.87500,552
8.88333,552
8.89167,552
8.90000,553
8.90833,553
8.91667,553
8.92500,553
8.93333,553
8.94167,554
8.95000,554
8.95833,554
8.96667,554
8.97500,555
8.98333,555
8.99167,555
9.00000,555
9.00833,555
9.01667,556
9.02500,556
9.03333,556
9.04167,556
9.05000,555
9.05833,555
9.06667,555
9.07500,555
9.08333,555
9.09167,555
9.10000,555
9.10833,554
9.11667,554
9.12500,554
9.13333,553
9.14167,553
9.15000,553
9.15833,553
9.16667,553
9.17500,552
9.18333,552
9.19167,551
9.20000,551
9.20833,550
9.21667,550
9.22500,549
9.23333,549
9.24167,548
9.25000,548
9.25833,548
9.26667,547
9.27500,546
9.28333,546
9.29167,546
9.30000,545
9.30833,545
9.31667,544
9.32500,544
9.33333,543
9.34167,543
9.35000,543
9.35833,542
9.36667,542
9.37500,541
9.38333,541
9.39167,541
9.40000,540
9.40833,540
9.41667,540
9.42500,541
9.43333,541
9.44167,541
9.45000,541
9.45833,542
9.46667,542
9.47500,542
9.48333,542
9.49167,543
9.50000,544
9.50833,544
9.51667,545
9.52500,546
9.53333,547
9.54167,547
9.55000,548
9.55833,548
9.56667,549
9.57500,549
9.58333,549
9.59167,550
9.60000,550
9.60833,551
9.61667,552
9.62500,553
9.63333,554
9.64167,555
9.65000,555
9.65833,556
9.66667,557
9.67500,557
9.68333,558
9.69167,559
9.70000,560
9.70833,561
9.71667,562
9.72500,563
9.73333,563
9.74167,564
9.75000,564
9.75833,565
9.76667,566
9.77500,567
9.78333,568
9.79167,569
9.80000,569
9.80833,570
9.81667,570
9.82500,571
9.83333,571
9.84167,571
9.85000,572
9.85833,572
9.86667,572
9.87500,573
9.88333,573
9.89167,572
9.90000,572
9.90833,572
9.91667,572
9.92500,572
9.93333,572
9.94167,572
9.95000,571
9.95833,571
9.96667,571
9.97500,570
9.98333,569
9.99167,569
10.00000,568
10.00833,567
10.01667,566
10.02500,565
10.03333,564
10.04167,563
10.05000,562
10.05833,561
10.06667,560
10.07500,559
10.08333,558
10.09167,557
10.10000,555
10.10833,554
10.11667,552
10.12500,551
10.13333,550
10.14167,548
10.15000,547
10.15833,545
10.16667,544
10.17500,542
10.18333,541
10.19167,540
10.20000,539
10.20833,538
10.21667,537
10.22500,536
10.23333,535
10.24167,533
10.25000,532
10.25833,531
10.26667,530
10.27500,529
10.28333,528
10.29167,528
10.30000,527
10.30833,526
10.31667,526
10.32500,525
10.33333,525
10.34167,524
10.35000,524
10.35833,524
10.36667,524
10.37500,524
10.38333,524
10.39167,524
10.40000,524
10.40833,523
10.41667,523
10.42500,523
10.43333,522
10.44167,520
10.45000,518
10.45833,515
10.46667,511
10.47500,506
10.48333,499
10.49167,491
10.50000,481
10.50833,468
10.51667,453
10.52500,436
10.53333,416
10.54167,395
10.55000,372
10.55833,348
10.56667,325
10.57500,303
10.58333,283
10.59167,268
10.60000,258
10.60833,256
10.61667,264
10.62500,283
10.63333,315
10.64167,362
10.65000,425
10.65833,505
10.66667,604
10.67500,721
10.68333,857
10.69167,1011
10.70000,1183
10.70833,1370
10.71667,1571
10.72500,1783
10.73333,2005
10.74167,2233
10.75000,2463
10.75833,2693
10.76667,2919
10.77500,3137
10.78333,3344
10.79167,3538
10.80000,3715
10.80833,3872
10.81667,4008
10.82500,4120
10.83333,4208
10.84167,4270
10.85000,4305
10.85833,4315
10.86667,4300
10.87500,4260
10.88333,4198
10.89167,4114
10.90000,4012
10.90833,3892
10.91667,3759
10.92500,3612
10.93333,3457
10.94167,3294
10.95000,3127
10.95833,2957
10.96667,2787
10.97500,2618
10.98333,2453
10.99167,2293
11.00000,2138
11.00833,1991
11.01667,1852
11.02500,1721
11.03333,1598
11.04167,1485
11.05000,1380
11.05833,1284
11.06667,1197
11.07500,1118
11.08333,1046
11.09167,982
11.10000,925
11.10833,875
11.11667,830
11.12500,790
11.13333,755
11.14167,725
11.15000,698
11.15833,675
11.16667,656
11.17500,639
11.18333,624
11.19167,612
11.20000,601
11.20833,592
11.21667,584
11.22500,578
11.23333,572
11.24167,568
11.25000,564
11.25833,561
11.26667,558
11.27500,556
11.28333,554
11.29167,552
11.30000,551
11.30833,549
11.31667,548
11.32500,547
11.33333,546
11.34167,545
11.35000,544
11.35833,544
11.36667,543
11.37500,542
11.38333,541
11.39167,541
11.40000,540
11.40833,539
11.41667,539
11.42500,538
11.43333,538
11.44167,538
11.45000,537
11.45833,537
11.46667,536
11.47500,536
11.48333,535
11.49167,535
11.50000,535
11.50833,534
11.51667,534
11.52500,534
11.53333,534
11.54167,534
11.55000,534
11.55833,534
11.56667,534
11.57500,534
11.58333,534
11.59167,534
11.60000,534
11.60833,535
11.61667,535
11.62500,536
11.63333,537
11.64167,537
11.65000,538
11.65833,538
11.66667,539
11.67500,540
11.68333,540
11.69167,541
11.70000,542
11.70833,542
11.71667,543
11.72500,543
11.73333,544
11.74167,545
11.75000,546
11.75833,547
11.76667,547
11.77500,548
11.78333,549
11.79167,550
11.80000,551
11.80833,551
11.81667,552
11.82500,553
11.83333,553
11.84167,553
11.85000,554
11.85833,554
11.86667,555
11.87500,556
11.88333,557
11.89167,557
11.90000,558
11.90833,559
11.91667,559
11.92500,560
11.93333,561
11.94167,561
11.95000,562
11.95833,563
11.96667,564
11.97500,565
11.98333,565
11.99167,566
12.00000,566
12.00833,566
12.01667,566
12.02500,567
12.03333,567
12.04167,568
12.05000,568
12.05833,569
12.06667,569
12.07500,570
12.08333,571
12.09167,572
12.10000,572
12.10833,573
12.11667,573
12.12500,574
12.13333,574
12.14167,575
12.15000,575
12.15833,575
12.16667,576
12.17500,576
12.18333,577
12.19167,577
12.20000,577
12.20833,578
12.21667,578
12.22500,578
12.23333,579
12.24167,579
12.25000,579
12.25833,579
12.26667,579
12.27500,579
12.28333,578
12.29167,578
12.30000,578
12.30833,578
12.31667,578
12.32500,578
12.33333,578
12.34167,577
12.35000,577
12.35833,577
12.36667,576
12.37500,576
12.38333,575
12.39167,575
12.40000,574
12.40833,574
12.41667,574
12.42500,573
12.43333,573
12.44167,572
12.45000,572
12.45833,572
12.46667,571
12.47500,571
12.48333,570
12.49167,569
12.50000,569
12.50833,569
12.51667,569
12.52500,568
12.53333,568
12.54167,568
12.55000,569
12.55833,569
12.56667,570
12.57500,571
12.58333,572
12.59167,574
12.60000,577
12.60833,580
12.61667,584
12.62500,589
12.63333,594
12.64167,601
12.65000,610
12.65833,621
12.66667,634
12.67500,649
12.68333,668
12.69167,690
12.70000,716
12.70833,746
12.71667,780
12.72500,818
12.73333,862
12.74167,910
12.75000,965
12.75833,1026
12.76667,1092
12.77500,1165
12.78333,1245
12.79167,1331
12.80000,1424
12.80833,1524
12.81667,1631
12.82500,1745
12.83333,1865
12.84167,1992
12.85000,2125
12.85833,2264
12.86667,2410
12.87500,2561
12.88333,2719
12.89167,2881
12.90000,3049
12.90833,3222
12.91667,3400
12.92500,3582
12.93333,3769
12.94167,3961
12.95000,4156
12.95833,4355
12.96667,4557
12.97500,4763
12.98333,4973
12.99167,5185
13.00000,5400
13.00833,5619
13.01667,5840
13.02500,6063
13.03333,6289
13.04167,6517
13.05000,6747
13.05833,6978
13.06667,7212
13.07500,7447
13.08333,7684
13.09167,7922
13.10000,8161
13.10833,8401
13.11667,8641
13.12500,8881
13.13333,9120
13.14167,9359
13.15000,9596
13.15833,9829
13.16667,10057
13.17500,10278
13.18333,10489
13.19167,10684
13.20000,10857
13.20833,11003
13.21667,11114
13.22500,11182
13.23333,11197
13.24167,11153
13.25000,11044
13.25833,10865
13.26667,10615
13.27500,10295
13.28333,9910
13.29167,9467
13.30000,8977
13.30833,8449
13.31667,7898
13.32500,7334
13.33333,6769
13.34167,6215
13.35000,5680
13.35833,5170
13.36667,4692
13.37500,4248
13.38333,3840
13.39167,3469
13.40000,3133
13.40833,2833
13.41667,2565
13.42500,2328
13.43333,2119
13.44167,1935
13.45000,1774
13.45833,1634
13.46667,1511
13.47500,1405
13.48333,1312
13.49167,1231
13.50000,1161
13.50833,1100
13.51667,1047
13.52500,1001
13.53333,961
13.54167,926
13.55000,896
13.55833,869
13.56667,846
13.57500,825
13.58333,806
13.59167,790
13.60000,775
13.60833,763
13.61667,751
13.62500,741
13.63333,732
13.64167,723
13.65000,716
13.65833,709
13.66667,703
13.67500,698
13.68333,693
13.69167,688
13.70000,684
13.70833,680
13.71667,677
13.72500,673
13.73333,670
13.74167,667
13.75000,664
13.75833,662
13.76667,659
13.77500,657
13.78333,655
13.79167,653
13.80000,651
13.80833,649
13.81667,647
13.82500,646
13.83333,645
13.84167,643
13.85000,642
13.85833,641
13.86667,640
13.87500,639
13.88333,638
13.89167,636
13.90000,636
13.90833,635
13.91667,634
13.92500,632
13.93333,632
13.94167,631
13.95000,630
13.95833,629
13.96667,629
13.97500,628
13.98333,627
13.99167,626
14.00000,625
14.00833,624
14.01667,624
14.02500,623
14.03333,622
14.04167,622
14.05000,621
14.05833,620
14.06667,620
14.07500,619
14.08333,618
14.09167,618
14.10000,617
14.10833,616
14.11667,615
14.12500,614
14.13333,613
14.14167,612
14.15000,611
14.15833,611
14.16667,610
14.17500,608
14.18333,607
14.19167,606
14.20000,605
14.20833,603
14.21667,602
14.22500,601
14.23333,601
14.24167,600
14.25000,599
14.25833,598
14.26667,597
14.27500,596
14.28333,595
14.29167,593
14.30000,592
14.30833,591
14.31667,590
14.32500,589
14.33333,588
14.34167,587
14.35000,586
14.35833,585
14.36667,584
14.37500,582
14.38333,581
14.39167,580
14.40000,579
14.40833,578
14.41667,577
14.42500,576
14.43333,576
14.44167,574
14.45000,573
14.45833,572
14.46667,571
14.47500,570
14.48333,570
14.49167,569
14.50000,569
14.50833,568
14.51667,568
14.52500,567
14.53333,567
14.54167,567
14.55000,567
14.55833,567
14.56667,567
14.57500,568
14.58333,568
14.59167,568
14.60000,569
14.60833,569
14.61667,569
14.62500,569
14.63333,569
14.64167,570
14.65000,571
14.65833,572
14.66667,572
14.67500,573
14.68333,574
14.69167,575
14.70000,576
14.70833,576
14.71667,577
14.72500,577
14.73333,578
14.74167,579
14.75000,580
14.75833,581
14.76667,582
14.77500,583
14.78333,583
14.79167,584
14.80000,585
14.80833,585
14.81667,586
14.82500,587
14.83333,587
14.84167,588
14.85000,589
14.85833,589
14.86667,590
14.87500,591
14.88333,591
14.89167,592
14.90000,593
14.90833,593
14.91667,593
14.92500,594
14.93333,595
14.94167,595
14.95000,595
14.95833,596
14.96667,596
14.97500,596
14.98333,596
14.99167,596
15.00000,597
15.00833,597
15.01667,598
15.02500,598
15.03333,599
15.04167,600
15.05000,601
15.05833,602
15.06667,603
15.07500,605
15.08333,606
15.09167,608
15.10000,610
15.10833,613
15.11667,617
15.12500,621
15.13333,625
15.14167,631
15.15000,638
15.15833,645
15.16667,654
15.17500,664
15.18333,676
15.19167,689
15.20000,705
15.20833,722
15.21667,742
15.22500,766
15.23333,792
15.24167,821
15.25000,854
15.25833,890
15.26667,929
15.27500,973
15.28333,1021
15.29167,1073
15.30000,1129
15.30833,1190
15.31667,1255
15.32500,1325
15.33333,1398
15.34167,1475
15.35000,1555
15.35833,1639
15.36667,1725
15.37500,1813
15.38333,1903
15.39167,1994
15.40000,2086
15.40833,2178
15.41667,2268
15.42500,2357
15.43333,2443
15.44167,2526
15.45000,2606
15.45833,2680
15.46667,2750
15.47500,2814
15.48333,2872
15.49167,2923
15.50000,2967
15.50833,3003
15.51667,3032
15.52500,3052
15.53333,3065
15.54167,3069
15.55000,3067
15.55833,3056
15.56667,3037
15.57500,3012
15.58333,2980
15.59167,2941
15.60000,2897
15.60833,2846
15.61667,2791
15.62500,2731
15.63333,2668
15.64167,2600
15.65000,2530
15.65833,2458
15.66667,2384
15.67500,2309
15.68333,2233
15.69167,2156
15.70000,2080
15.70833,2004
15.71667,1929
15.72500,1855
15.73333,1783
15.74167,1713
15.75000,1644
15.75833,1578
15.76667,1514
15.77500,1452
15.78333,1393
15.79167,1337
15.80000,1283
15.80833,1233
15.81667,1185
15.82500,1140
15.83333,1097
15.84167,1057
15.85000,1020
15.85833,985
15.86667,952
15.87500,922
15.88333,893
15.89167,867
15.90000,843
15.90833,820
15.91667,800
15.92500,782
15.93333,765
15.94167,749
15.95000,735
15.95833,722
15.96667,710
15.97500,700
15.98333,690
15.99167,681
16.00000,673
16.00833,666
16.01667,660
16.02500,654
16.03333,649
16.04167,644
16.05000,640
16.05833,636
16.06667,633
16.07500,630
16.08333,627
16.09167,625
16.10000,624
16.10833,622
16.11667,620
16.12500,619
16.13333,618
16.14167,617
16.15000,616
16.15833,615
16.16667,614
16.17500,613
16.18333,612
16.19167,611
16.20000,611
16.20833,611
16.21667,610
16.22500,609
16.23333,609
16.24167,608
16.25000,607
16.25833,607
16.26667,606
16.27500,605
16.28333,604
16.29167,603
16.30000,602
16.30833,602
16.31667,601
16.32500,600
16.33333,599
16.34167,599
16.35000,598
16.35833,597
16.36667,596
16.37500,595
16.38333,594
16.39167,593
16.40000,592
16.40833,590
16.41667,589
16.42500,587
16.43333,586
16.44167,585
16.45000,584
16.45833,583
16.46667,581
16.47500,580
16.48333,579
16.49167,577
16.50000,576
16.50833,575
16.51667,574
16.52500,572
16.53333,571
16.54167,569
16.55000,568
16.55833,567
16.56667,566
16.57500,565
16.58333,564
16.59167,564
16.60000,563
16.60833,563
16.61667,562
16.62500,561
16.63333,560
16.64167,559
16.65000,558
16.65833,558
16.66667,558
16.67500,558
16.68333,558
16.69167,557
16.70000,557
16.70833,557
16.71667,557
16.72500,558
16.73333,558
16.74167,558
16.75000,559
16.75833,559
16.76667,559
16.77500,560
16.78333,560
16.79167,560
16.80000,560
16.80833,561
16.81667,561
16.82500,562
16.83333,562
16.84167,563
16.85000,564
16.85833,565
16.86667,565
16.87500,566
16.88333,567
16.89167,568
16.90000,569
16.90833,570
16.91667,571
16.92500,571
16.93333,572
16.94167,573
16.95000,574
16.95833,575
16.96667,576
16.97500,577
16.98333,577
16.99167,578
17.00000,578
17.00833,579
17.01667,580
17.02500,581
17.03333,582
17.04167,583
17.05000,583
17.05833,584
17.06667,585
17.07500,586
17.08333,588
17.09167,589
17.10000,589
17.10833,590
17.11667,591
17.12500,592
17.13333,592
17.14167,593
17.15000,593
17.15833,594
17.16667,595
17.17500,596
17.18333,597
17.19167,598
17.20000,598
17.20833,599
17.21667,599
17.22500,599
17.23333,600
17.24167,600
17.25000,600
17.25833,601
17.26667,601
17.27500,601
17.28333,600
17.29167,600
17.30000,600
17.30833,600
17.31667,600
17.32500,600
17.33333,600
17.34167,600
17.35000,600
17.35833,599
17.36667,599
17.37500,599
17.38333,598
17.39167,597
17.40000,597
17.40833,596
17.41667,595
17.42500,594
17.43333,593
17.44167,593
17.45000,592
17.45833,591
17.46667,589
17.47500,588
17.48333,587
17.49167,586
17.50000,585
17.50833,584
17.51667,582
17.52500,580
17.53333,579
17.54167,578
17.55000,576
17.55833,575
17.56667,574
17.57500,573
17.58333,572
17.59167,571
17.60000,570
17.60833,569
17.61667,568
17.62500,567
17.63333,566
17.64167,565
17.65000,564
17.65833,563
17.66667,563
17.67500,562
17.68333,561
17.69167,560
17.70000,559
17.70833,557
17.71667,556
17.72500,555
17.73333,555
17.74167,554
17.75000,554
17.75833,554
17.76667,553
17.77500,553
17.78333,552
17.79167,552
17.80000,551
17.80833,551
17.81667,551
17.82500,551
17.83333,551
17.84167,552
17.85000,552
17.85833,552
17.86667,552
17.87500,551
17.88333,552
17.89167,552
17.90000,552
17.90833,553
17.91667,553
17.92500,554
17.93333,554
17.94167,554
17.95000,555
17.95833,555
17.96667,556
17.97500,556
17.98333,556
17.99167,556
18.00000,557
18.00833,557
18.01667,557
18.02500,557
18.03333,557
18.04167,557
18.05000,557
18.05833,557
18.06667,557
18.07500,558
18.08333,558
18.09167,558
18.10000,559
18.10833,559
18.11667,559
18.12500,559
18.13333,559
18.14167,559
18.15000,559
18.15833,559
18.16667,559
18.17500,559
18.18333,559
18.19167,558
18.20000,558
18.20833,559
18.21667,559
18.22500,559
18.23333,558
18.24167,558
18.25000,558
18.25833,558
18.26667,558
18.27500,558
18.28333,558
18.29167,558
18.30000,558
18.30833,557
18.31667,557
18.32500,557
18.33333,557
18.34167,557
18.35000,557
18.35833,557
18.36667,558
18.37500,558
18.38333,558
18.39167,558
18.40000,557
18.40833,557
18.41667,557
18.42500,557
18.43333,557
18.44167,558
18.45000,558
18.45833,558
18.46667,558
18.47500,559
18.48333,560
18.49167,560
18.50000,560
18.50833,561
18.51667,561
18.52500,562
18.53333,563
18.54167,563
18.55000,564
18.55833,564
18.56667,565
18.57500,565
18.58333,565
18.59167,566
18.60000,566
18.60833,567
18.61667,567
18.62500,568
18.63333,570
18.64167,571
18.65000,572
18.65833,573
18.66667,573
18.67500,574
18.68333,575
18.69167,576
18.70000,577
18.70833,578
18.71667,579
18.72500,580
18.73333,582
18.74167,582
18.75000,583
18.75833,583
18.76667,584
18.77500,585
18.78333,585
18.79167,586
18.80000,587
18.80833,588
18.81667,588
18.82500,589
18.83333,590
18.84167,591
18.85000,591
18.85833,592
18.86667,592
18.87500,593
18.88333,593
18.89167,593
18.90000,593
18.90833,593
18.91667,594
18.92500,594
18.93333,594
18.94167,594
18.95000,594
18.95833,594
18.96667,594
18.97500,594
18.98333,594
18.99167,594
19.00000,593
19.00833,593
19.01667,593
19.02500,593
19.03333,593
19.04167,592
19.05000,591
19.05833,591
19.06667,590
19.07500,590
19.08333,589
19.09167,589
19.10000,588
19.10833,588
19.11667,587
19.12500,587
19.13333,586
19.14167,586
19.15000,585
19.15833,585
19.16667,584
19.17500,584
19.18333,583
19.19167,582
19.20000,581
19.20833,581
19.21667,580
19.22500,580
19.23333,579
19.24167,578
19.25000,577
19.25833,576
19.26667,575
19.27500,574
19.28333,574
19.29167,572
19.30000,571
19.30833,570
19.31667,569
19.32500,568
19.33333,567
19.34167,567
19.35000,566
19.35833,565
19.36667,564
19.37500,563
19.38333,562
19.39167,561
19.40000,560
19.40833,559
19.41667,558
19.42500,557
19.43333,557
19.44167,557
19.45000,557
19.45833,557
19.46667,557
19.47500,557
19.48333,557
19.49167,557
19.50000,557
19.50833,557
19.51667,557
19.52500,557
19.53333,557
19.54167,557
19.55000,557
19.55833,557
19.56667,557
19.57500,558
19.58333,558
19.59167,558
19.60000,559
19.60833,559
19.61667,560
19.62500,561
19.63333,562
19.64167,563
19.65000,564
19.65833,564
19.66667,565
19.67500,565
19.68333,566
19.69167,566
19.70000,567
19.70833,568
19.71667,569
19.72500,569
19.73333,570
19.74167,570
19.75000,571
19.75833,572
19.76667,573
19.77500,574
19.78333,574
19.79167,575
19.80000,576
19.80833,576
19.81667,577
19.82500,578
19.83333,578
19.84167,579
19.85000,580
19.85833,580
19.86667,581
19.87500,581
19.88333,581
19.89167,582
19.90000,582
19.90833,582
19.91667,582
19.92500,581
19.93333,581
19.94167,581
19.95000,581
19.95833,582
19.96667,581
19.97500,582
19.98333,581
19.99167,581
20.00000,581
20.00833,580
20.01667,580
20.02500,579
20.03333,579
20.04167,578
20.05000,577
20.05833,576
20.06667,575
20.07500,575
20.08333,574
20.09167,573
20.10000,572
20.10833,571
20.11667,570
20.12500,569
20.13333,568
20.14167,568
20.15000,567
20.15833,566
20.16667,566
20.17500,565
20.18333,565
20.19167,564
20.20000,563
20.20833,563
20.21667,562
20.22500,561
20.23333,560
20.24167,560
20.25000,559
20.25833,559
20.26667,559
20.27500,559
20.28333,558
20.29167,558
20.30000,557
20.30833,557
20.31667,557
20.32500,557
20.33333,557
20.34167,557
20.35000,557
20.35833,557
20.36667,557
20.37500,557
20.38333,557
20.39167,557
20.40000,557
20.40833,558
20.41667,558
20.42500,559
20.43333,559
20.44167,559
20.45000,560
20.45833,560
20.46667,561
20.47500,561
20.48333,562
20.49167,562
20.50000,563
20.50833,563
20.51667,563
20.52500,563
20.53333,563
20.54167,564
20.55000,564
20.55833,565
20.56667,565
20.57500,566
20.58333,566
20.59167,567
20.60000,567
20.60833,568
20.61667,568
20.62500,569
20.63333,569
20.64167,569
20.65000,569
20.65833,570
20.66667,571
20.67500,571
20.68333,572
20.69167,572
20.70000,572
20.70833,572
20.71667,573
20.72500,573
20.73333,573
20.74167,573
20.75000,574
20.75833,574
20.76667,574
20.77500,575
20.78333,574
20.79167,574
20.80000,574
20.80833,573
20.81667,573
20.82500,573
20.83333,573
20.84167,573
20.85000,573
20.85833,574
20.86667,574
20.87500,574
20.88333,573
20.89167,573
20.90000,573
20.90833,573
20.91667,573
20.92500,573
20.93333,573
20.94167,572
20.95000,572
20.95833,571
20.96667,571
20.97500,571
20.98333,570
20.99167,569
21.00000,569
21.00833,569
21.01667,568
21.02500,567
21.03333,566
21.04167,566
21.05000,565
21.05833,565
21.06667,564
21.07500,563
21.08333,563
21.09167,562
21.10000,561
21.10833,561
21.11667,560
21.12500,559
21.13333,559
21.14167,558
21.15000,558
21.15833,558
21.16667,557
21.17500,556
21.18333,555
21.19167,555
21.20000,555
21.20833,555
21.21667,554
21.22500,554
21.23333,554
21.24167,553
21.25000,553
21.25833,552
21.26667,552
21.27500,552
21.28333,552
21.29167,553
21.30000,553
21.30833,553
21.31667,553
21.32500,553
21.33333,553
21.34167,553
21.35000,554
21.35833,554
21.36667,554
21.37500,555
21.38333,555
21.39167,555
21.40000,555
21.40833,555
21.41667,555
21.42500,555
21.43333,556
21.44167,556
21.45000,556
21.45833,557
21.46667,557
21.47500,558
21.48333,559
21.49167,560
21.50000,561
21.50833,562
21.51667,562
21.52500,563
21.53333,564
21.54167,565
21.55000,567
21.55833,568
21.56667,568
21.57500,569
21.58333,569
21.59167,570
21.60000,571
21.60833,572
21.61667,572
21.62500,573
21.63333,573
21.64167,574
21.65000,574
21.65833,575
21.66667,576
21.67500,577
21.68333,577
21.69167,578
21.70000,578
21.70833,579
21.71667,579
21.72500,579
21.73333,579
21.74167,579
21.75000,579
21.75833,579
21.76667,578
21.77500,578
21.78333,578
21.79167,578
21.80000,579
21.80833,579
21.81667,579
21.82500,579
21.83333,579
21.84167,579
21.85000,579
21.85833,579
21.86667,578
21.87500,578
21.88333,579
21.89167,579
21.90000,578
21.90833,578
21.91667,578
21.92500,578
21.93333,577
21.94167,577
21.95000,576
21.95833,576
21.96667,575
21.97500,575
21.98333,575
21.99167,575
22.00000,574
22.00833,574
22.01667,574
22.02500,574
22.03333,574
22.04167,573
22.05000,573
22.05833,572
22.06667,572
22.07500,571
22.08333,571
22.09167,570
22.10000,570
22.10833,569
22.11667,569
22.12500,568
22.13333,568
22.14167,568
22.15000,567
22.15833,567
22.16667,566
22.17500,565
22.18333,565
22.19167,564
22.20000,564
22.20833,563
22.21667,562
22.22500,562
22.23333,561
22.24167,561
22.25000,561
22.25833,560
22.26667,560
22.27500,559
22.28333,559
22.29167,559
22.30000,559
22.30833,558
22.31667,558
22.32500,557
22.33333,557
22.34167,556
22.35000,556
22.35833,556
22.36667,556
22.37500,556
22.38333,556
22.39167,556
22.40000,556
22.40833,555
22.41667,555
22.42500,555
22.43333,555
22.44167,555
22.45000,555
22.45833,555
22.46667,555
22.47500,555
22.48333,555
22.49167,555
22.50000,555
22.50833,556
22.51667,556
22.52500,556
22.53333,556
22.54167,556
22.55000,557
22.55833,556
22.56667,556
22.57500,556
22.58333,557
22.59167,557
22.60000,557
22.60833,557
22.61667,558
22.62500,558
22.63333,559
22.64167,559
22.65000,559
22.65833,559
22.66667,559
22.67500,559
22.68333,559
22.69167,559
22.70000,560
22.70833,560
22.71667,561
22.72500,562
22.73333,562
22.74167,562
22.75000,563
22.75833,563
22.76667,564
22.77500,564
22.78333,565
22.79167,565
22.80000,565
22.80833,565
22.81667,566
22.82500,566
22.83333,566
22.84167,565
22.85000,565
22.85833,565
22.86667,564
22.87500,564
22.88333,565
22.89167,565
22.90000,565
22.90833,564
22.91667,564
22.92500,563
22.93333,563
22.94167,563
22.95000,562
22.95833,562
22.96667,562
22.97500,562
22.98333,563
22.99167,563
23.00000,563
23.00833,563
23.01667,562
23.02500,562
23.03333,562
23.04167,562
23.05000,562
23.05833,562
23.06667,562
23.07500,562
23.08333,562
23.09167,562
23.10000,562
23.10833,562
23.11667,562
23.12500,563
23.13333,563
23.14167,563
23.15000,563
23.15833,562
23.16667,563
23.17500,563
23.18333,563
23.19167,564
23.20000,564
23.20833,564
23.21667,564
23.22500,565
23.23333,565
23.24167,565
23.25000,566
23.25833,566
23.26667,566
23.27500,566
23.28333,565
23.29167,565
23.30000,565
23.30833,565
23.31667,566
23.32500,566
23.33333,566
23.34167,566
23.35000,566
23.35833,566
23.36667,565
23.37500,565
23.38333,565
23.39167,564
23.40000,564
23.40833,564
23.41667,563
23.42500,563
23.43333,564
23.44167,564
23.45000,564
23.45833,563
23.46667,563
23.47500,562
23.48333,562
23.49167,561
23.50000,561
23.50833,561
23.51667,561
23.52500,561
23.53333,561
23.54167,560
23.55000,560
23.55833,560
23.56667,559
23.57500,559
23.58333,559
23.59167,559
23.60000,559
23.60833,559
23.61667,559
23.62500,559
23.63333,559
23.64167,559
23.65000,559
23.65833,559
23.66667,558
23.67500,559
23.68333,559
23.69167,559
23.70000,559
23.70833,559
23.71667,559
23.72500,559
23.73333,559
23.74167,559
23.75000,559
23.75833,560
23.76667,560
23.77500,561
23.78333,561
23.79167,561
23.80000,562
23.80833,562
23.81667,562
23.82500,562
23.83333,562
23.84167,562
23.85000,561
23.85833,561
23.86667,561
23.87500,561
23.88333,561
23.89167,561
23.90000,561
23.90833,561
23.91667,561
23.92500,561
23.93333,561
23.94167,561
23.95000,560
23.95833,560
23.96667,560
23.97500,560
23.98333,560
23.99167,560
24.00000,560
24.00833,560
24.01667,559
24.02500,559
24.03333,559
24.04167,558
24.05000,558
24.05833,559
24.06667,559
24.07500,558
24.08333,558
24.09167,558
24.10000,558
24.10833,558
24.11667,558
24.12500,558
24.13333,558
24.14167,558
24.15000,558
24.15833,558
24.16667,557
24.17500,557
24.18333,557
24.19167,558
24.20000,558
24.20833,558
24.21667,559
24.22500,559
24.23333,559
24.24167,559
24.25000,559
24.25833,559
24.26667,559
24.27500,559
24.28333,559
24.29167,559
24.30000,559
24.30833,559
24.31667,559
24.32500,560
24.33333,560
24.34167,561
24.35000,561
24.35833,561
24.36667,562
24.37500,562
24.38333,562
24.39167,562
24.40000,562
24.40833,561
24.41667,562
24.42500,562
24.43333,562
24.44167,562
24.45000,562
24.45833,562
24.46667,562
24.47500,562
24.48333,562
24.49167,562
24.50000,562
24.50833,562
24.51667,561
24.52500,561
24.53333,562
24.54167,562
24.55000,562
24.55833,562
24.56667,563
24.57500,562
24.58333,563
24.59167,563
24.60000,563
24.60833,563
24.61667,563
24.62500,563
24.63333,563
24.64167,564
24.65000,563
24.65833,563
24.66667,564
24.67500,564
24.68333,564
24.69167,564
24.70000,564
24.70833,565
24.71667,565
24.72500,565
24.73333,565
24.74167,566
24.75000,566
24.75833,567
24.76667,567
24.77500,568
24.78333,568
24.79167,569
24.80000,570
24.80833,571
24.81667,571
24.82500,572
24.83333,573
24.84167,574
24.85000,575
24.85833,576
24.86667,577
24.87500,577
24.88333,578
24.89167,579
24.90000,579
24.90833,580
24.91667,581
24.92500,582
24.93333,583
24.94167,584
24.95000,584
24.95833,585
24.96667,585
24.97500,586
24.98333,587
24.99167,588
25.00000,589
25.00833,589
25.01667,589
25.02500,590
25.03333,590
25.04167,590
25.05000,590
25.05833,590
25.06667,591
25.07500,591
25.08333,591
25.09167,591
25.10000,592
25.10833,592
25.11667,592
25.12500,592
25.13333,592
25.14167,593
25.15000,592
25.15833,592
25.16667,591
25.17500,590
25.18333,590
25.19167,589
25.20000,589
25.20833,588
25.21667,588
25.22500,587
25.23333,587
25.24167,587
25.25000,586
25.25833,586
25.26667,586
25.27500,585
25.28333,585
25.29167,585
25.30000,584
25.30833,584
25.31667,584
25.32500,583
25.33333,583
25.34167,582
25.35000,582
25.35833,582
25.36667,582
25.37500,581
25.38333,581
25.39167,581
25.40000,581
25.40833,581
25.41667,581
25.42500,581
25.43333,581
25.44167,580
25.45000,580
25.45833,579
25.46667,579
25.47500,579
25.48333,579
25.49167,578
25.50000,578
25.50833,579
25.51667,579
25.52500,579
25.53333,579
25.54167,579
25.55000,579
25.55833,579
25.56667,580
25.57500,580
25.58333,580
25.59167,579
25.60000,579
25.60833,579
25.61667,579
25.62500,578
25.63333,578
25.64167,578
25.65000,578
25.65833,578
25.66667,578
25.67500,577
25.68333,576
25.69167,576
25.70000,575
25.70833,575
25.71667,574
25.72500,574
25.73333,573
25.74167,572
25.75000,572
25.75833,571
25.76667,570
25.77500,570
25.78333,569
25.79167,569
25.80000,568
25.80833,568
25.81667,567
25.82500,567
25.83333,567
25.84167,567
25.85000,566
25.85833,565
25.86667,565
25.87500,565
25.88333,564
25.89167,564
25.90000,563
25.90833,562
25.91667,562
25.92500,561
25.93333,561
25.94167,561
25.95000,560
25.95833,560
25.96667,559
25.97500,559
25.98333,559
25.99167,559
26.00000,559
26.00833,559
26.01667,559
26.02500,559
26.03333,559
26.04167,559
26.05000,559
26.05833,559
26.06667,558
26.07500,559
26.08333,559
26.09167,559
26.10000,559
26.10833,559
26.11667,559
26.12500,559
26.13333,559
26.14167,559
26.15000,560
26.15833,560
26.16667,560
26.17500,560
26.18333,560
26.19167,561
26.20000,561
26.20833,562
26.21667,563
26.22500,563
26.23333,563
26.24167,564
26.25000,564
26.25833,564
26.26667,564
26.27500,564
26.28333,564
26.29167,564
26.30000,564
26.30833,564
26.31667,565
26.32500,565
26.33333,566
26.34167,566
26.35000,567
26.35833,567
26.36667,567
26.37500,567
26.38333,568
26.39167,568
26.40000,569
26.40833,569
26.41667,569
26.42500,569
26.43333,569
26.44167,569
26.45000,570
26.45833,570
26.46667,570
26.47500,570
26.48333,570
26.49167,570
26.50000,570
26.50833,570
26.51667,570
26.52500,570
26.53333,570
26.54167,570
26.55000,570
26.55833,570
26.56667,570
26.57500,571
26.58333,571
26.59167,571
26.60000,571
26.60833,571
26.61667,570
26.62500,570
26.63333,570
26.64167,570
26.65000,570
26.65833,570
26.66667,570
26.67500,570
26.68333,569
26.69167,569
26.70000,568
26.70833,568
26.71667,567
26.72500,567
26.73333,567
26.74167,567
26.75000,567
26.75833,567
26.76667,567
26.77500,567
26.78333,567
26.79167,567
26.80000,566
26.80833,566
26.81667,566
26.82500,565
26.83333,566
26.84167,566
26.85000,566
26.85833,566
26.86667,566
26.87500,566
26.88333,566
26.89167,566
26.90000,566
26.90833,566
26.91667,566
26.92500,566
26.93333,566
26.94167,567
26.95000,567
26.95833,567
26.96667,568
26.97500,568
26.98333,568
26.99167,569
27.00000,569
27.00833,569
27.01667,569
27.02500,569
27.03333,569
27.04167,569
27.05000,569
27.05833,569
27.06667,570
27.07500,570
27.08333,570
27.09167,570
27.10000,571
27.10833,571
27.11667,571
27.12500,571
27.13333,571
27.14167,571
27.15000,571
27.15833,570
27.16667,570
27.17500,570
27.18333,570
27.19167,570
27.20000,570
27.20833,570
27.21667,570
27.22500,570
27.23333,570
27.24167,570
27.25000,570
27.25833,570
27.26667,570
27.27500,570
27.28333,569
27.29167,569
27.30000,569
27.30833,569
27.31667,569
27.32500,569
27.33333,569
27.34167,569
27.35000,569
27.35833,569
27.36667,569
27.37500,569
27.38333,569
27.39167,569
27.40000,569
27.40833,569
27.41667,569
27.42500,569
27.43333,569
27.44167,569
27.45000,569
27.45833,569
27.46667,570
27.47500,569
27.48333,569
27.49167,569
27.50000,569
27.50833,570
27.51667,570
27.52500,570
27.53333,570
27.54167,570
27.55000,570
27.55833,570
27.56667,571
27.57500,570
27.58333,570
27.59167,570
27.60000,570
27.60833,570
27.61667,570
27.62500,570
27.63333,570
27.64167,570
27.65000,570
27.65833,570
27.66667,569
27.67500,569
27.68333,569
27.69167,569
27.70000,569
27.70833,569
27.71667,569
27.72500,569
27.73333,569
27.74167,569
27.75000,569
27.75833,569
27.76667,569
27.77500,569
27.78333,569
27.79167,569
27.80000,569
27.80833,569
27.81667,569
27.82500,569
27.83333,569
27.84167,569
27.85000,568
27.85833,568
27.86667,568
27.87500,567
27.88333,567
27.89167,566
27.90000,565
27.90833,564
27.91667,563
27.92500,562
27.93333,561
27.94167,561
27.95000,560
27.95833,559
27.96667,557
27.97500,556
27.98333,554
27.99167,552
28.00000,550
28.00833,548
28.01667,545
28.02500,543
28.03333,540
28.04167,537
28.05000,534
28.05833,530
28.06667,526
28.07500,522
28.08333,518
28.09167,514
28.10000,509
28.10833,505
28.11667,500
28.12500,494
28.13333,488
28.14167,481
28.15000,475
28.15833,468
28.16667,460
28.17500,453
28.18333,445
28.19167,437
28.20000,428
28.20833,419
28.21667,411
28.22500,402
28.23333,393
28.24167,383
28.25000,374
28.25833,364
28.26667,353
28.27500,343
28.28333,333
28.29167,322
28.30000,312
28.30833,301
28.31667,291
28.32500,280
28.33333,270
28.34167,259
28.35000,249
28.35833,238
28.36667,228
28.37500,218
28.38333,208
28.39167,199
28.40000,190
28.40833,181
28.41667,173
28.42500,165
28.43333,157
28.44167,150
28.45000,143
28.45833,136
28.46667,130
28.47500,124
28.48333,119
28.49167,115
28.50000,111
28.50833,107
28.51667,103
28.52500,100
28.53333,97
28.54167,96
28.55000,95
28.55833,94
28.56667,95
28.57500,96
28.58333,96
28.59167,98
28.60000,99
28.60833,102
28.61667,105
28.62500,107
28.63333,111
28.64167,114
28.65000,118
28.65833,123
28.66667,128
28.67500,133
28.68333,138
28.69167,144
28.70000,150
28.70833,155
28.71667,161
28.72500,167
28.73333,173
28.74167,180
28.75000,186
28.75833,193
28.76667,200
28.77500,207
28.78333,214
28.79167,222
28.80000,229
28.80833,236
28.81667,242
28.82500,249
28.83333,255
28.84167,262
28.85000,268
28.85833,274
28.86667,280
28.87500,286
28.88333,292
28.89167,298
28.90000,303
28.90833,308
28.91667,314
28.92500,319
28.93333,325
28.94167,330
28.95000,335
28.95833,339
28.96667,343
28.97500,348
28.98333,352
28.99167,356
29.00000,359
29.00833,363
29.01667,367
29.02500,370
29.03333,373
29.04167,376
29.05000,379
29.05833,382
29.06667,385
29.07500,388
29.08333,391
29.09167,394
29.10000,397
29.10833,400
29.11667,402
29.12500,405
29.13333,407
29.14167,409
29.15000,411
29.15833,414
29.16667,416
29.17500,418
29.18333,420
29.19167,422
29.20000,424
29.20833,426
29.21667,428
29.22500,430
29.23333,431
29.24167,433
29.25000,435
29.25833,436
29.26667,438
29.27500,440
29.28333,441
29.29167,443
29.30000,444
29.30833,446
29.31667,447
29.32500,448
29.33333,449
29.34167,450
29.35000,452
29.35833,453
29.36667,454
29.37500,455
29.38333,456
29.39167,457
29.40000,458
29.40833,459
29.41667,459
29.42500,460
29.43333,461
29.44167,462
29.45000,463
29.45833,464
29.46667,464
29.47500,464
29.48333,464
29.49167,465
29.50000,465
29.50833,466
29.51667,466
29.52500,466
29.53333,467
29.54167,467
29.55000,467
29.55833,467
29.56667,467
29.57500,467
29.58333,467
29.59167,467
29.60000,467
29.60833,467
29.61667,467
29.62500,466
29.63333,466
29.64167,467
29.65000,466
29.65833,466
29.66667,466
29.67500,466
29.68333,466
29.69167,465
29.70000,465
29.70833,464
29.71667,463
29.72500,462
29.73333,462
29.74167,462
29.75000,462
29.75833,462
29.76667,461
29.77500,459
29.78333,458
29.79167,457
29.80000,456
29.80833,455
29.81667,454
29.82500,453
29.83333,451
29.84167,449
29.85000,448
29.85833,447
29.86667,445
29.87500,444
29.88333,442
29.89167,440
29.90000,438
29.90833,435
29.91667,434
29.92500,432
29.93333,430
29.94167,428
29.95000,426
29.95833,423
29.96667,420
29.97500,418
29.98333,416
29.99167,414
30.00000,412

