[Header]
Application Name,LabSolutions
Version,5.97 SP1
Data File Name,C:\Users\cremerlab\Desktop\griffin\2021-02-15_NCM_diauxie_turnover\2021-02-15_NCM_acetate_glucose_diauxie_turnover_2152021_014.lcd
Output Date,2/16/2021
Output Time,9:14:13 AM

[File Information]
Type,Data File
Generated,2/16/2021 2:59:37 AM
Generated by,System Administrator
Modified,2/16/2021 3:29:55 AM
Modified by,System Administrator

[Sample Information]
Operator Name,System Administrator
Acquired,2/16/2021 2:59:54 AM
Sample Type,0:Unknown
Level,0
Sample Name,10 mM glucose medium 5 uL
Sample ID,001
ISTD Amount1,1
ISTD Amount2,1
ISTD Amount3,1
ISTD Amount4,1
ISTD Amount5,1
ISTD Amount6,1
ISTD Amount7,1
ISTD Amount8,1
ISTD Amount9,1
ISTD Amount10,1
ISTD Amount11,1
ISTD Amount12,1
ISTD Amount13,1
ISTD Amount14,1
ISTD Amount15,1
ISTD Amount16,1
ISTD Amount17,1
ISTD Amount18,1
ISTD Amount19,1
ISTD Amount20,1
ISTD Amount21,1
ISTD Amount22,1
ISTD Amount23,1
ISTD Amount24,1
ISTD Amount25,1
ISTD Amount26,1
ISTD Amount27,1
ISTD Amount28,1
ISTD Amount29,1
ISTD Amount30,1
ISTD Amount31,1
ISTD Amount32,1
Sample Amount,1
Dilution Factor,1
Vial#,10
Injection Volume,5

[Original Files]
Data File,C:\Users\cremerlab\Desktop\griffin\2021-02-15_NCM_diauxie_turnover\2021-02-15_NCM_acetate_glucose_diauxie_turnover_2152021_014.lcd
Method File,C:\LabSolutions\Data\Project1\organicacidsetc.lcm
Batch File,C:\Users\cremerlab\Desktop\griffin\2021-02-15_NCM_diauxie_turnover\2021-02-15_NCM_acetate_glucose_diauxie_turnover.lcb
Report Format File,c:\LabSolutions\System\DEFAULT.lsr

[File Description]


[Configuration]
Instrument Name,HPLC-PC-Instrument1
Instrument #,1
Line #,1
# of Detectors,2
Detector ID,Detector A,Detector B
Detector Name,Detector A,Detector B
# of Channels,1,1

[Peak Table(Detector A)]
# of Peaks,0

[Peak Table(Detector B)]
# of Peaks,4
Peak#,R.Time,I.Time,F.Time,Area,Height,A/H,Conc.,Mark,ID#,Name,k',Plate #,Plate Ht.,Tailing,Resolution,Sep.Factor,Area Ratio,Height Ratio,Conc. %,Norm Conc.
1,6.177,5.417,7.117,20117,498,40.400,0.000,   ,,,0.000,527,284.778,1.040,0.000,0.000,0,0,0.000,0.000
2,10.833,10.583,11.300,41255,2624,15.724,0.000,   ,,,0.754,10513,14.268,1.236,6.212,0.000,0,0,0.000,0.000
3,13.131,12.492,13.817,155745,7628,20.418,0.000,   ,,,1.126,8926,16.805,0.851,4.696,1.494,0,0,0.000,0.000
4,15.512,14.958,16.467,38730,1642,23.585,0.000,   ,,,1.511,10265,14.612,1.142,4.076,1.342,0,0,0.000,0.000

[Compound Results(Detector A)]
# of IDs,0

[Compound Results(Detector B)]
# of IDs,0

[LC Chromatogram(Detector B-Ch1)]
Interval(msec),500
# of Points,3601
Start Time(min),0.000
End Time(min),30.000
Intensity Units,mV
Intensity Multiplier,0.001
R.Time (min),Intensity
0.00000,-42
0.00833,-42
0.01667,-1
0.02500,-1
0.03333,-1
0.04167,-1
0.05000,-0
0.05833,-0
0.06667,0
0.07500,1
0.08333,2
0.09167,4
0.10000,6
0.10833,7
0.11667,9
0.12500,11
0.13333,13
0.14167,15
0.15000,18
0.15833,20
0.16667,23
0.17500,26
0.18333,29
0.19167,32
0.20000,35
0.20833,38
0.21667,40
0.22500,43
0.23333,47
0.24167,50
0.25000,53
0.25833,57
0.26667,60
0.27500,63
0.28333,67
0.29167,70
0.30000,74
0.30833,77
0.31667,81
0.32500,84
0.33333,87
0.34167,90
0.35000,92
0.35833,95
0.36667,99
0.37500,102
0.38333,106
0.39167,109
0.40000,113
0.40833,116
0.41667,119
0.42500,122
0.43333,125
0.44167,128
0.45000,131
0.45833,133
0.46667,136
0.47500,139
0.48333,142
0.49167,145
0.50000,148
0.50833,151
0.51667,154
0.52500,157
0.53333,159
0.54167,161
0.55000,164
0.55833,166
0.56667,169
0.57500,172
0.58333,174
0.59167,176
0.60000,179
0.60833,181
0.61667,183
0.62500,184
0.63333,186
0.64167,188
0.65000,189
0.65833,191
0.66667,192
0.67500,194
0.68333,195
0.69167,197
0.70000,198
0.70833,200
0.71667,201
0.72500,202
0.73333,204
0.74167,205
0.75000,206
0.75833,207
0.76667,208
0.77500,209
0.78333,209
0.79167,210
0.80000,210
0.80833,211
0.81667,211
0.82500,212
0.83333,212
0.84167,212
0.85000,212
0.85833,212
0.86667,212
0.87500,212
0.88333,212
0.89167,212
0.90000,212
0.90833,212
0.91667,213
0.92500,213
0.93333,213
0.94167,213
0.95000,213
0.95833,213
0.96667,213
0.97500,212
0.98333,212
0.99167,212
1.00000,212
1.00833,212
1.01667,212
1.02500,212
1.03333,211
1.04167,211
1.05000,211
1.05833,211
1.06667,210
1.07500,211
1.08333,210
1.09167,210
1.10000,210
1.10833,210
1.11667,210
1.12500,210
1.13333,209
1.14167,209
1.15000,209
1.15833,209
1.16667,209
1.17500,208
1.18333,208
1.19167,208
1.20000,207
1.20833,207
1.21667,206
1.22500,206
1.23333,205
1.24167,205
1.25000,205
1.25833,205
1.26667,204
1.27500,204
1.28333,204
1.29167,204
1.30000,203
1.30833,203
1.31667,202
1.32500,201
1.33333,201
1.34167,200
1.35000,200
1.35833,199
1.36667,198
1.37500,198
1.38333,197
1.39167,197
1.40000,197
1.40833,196
1.41667,196
1.42500,196
1.43333,196
1.44167,196
1.45000,197
1.45833,197
1.46667,197
1.47500,197
1.48333,197
1.49167,197
1.50000,197
1.50833,198
1.51667,199
1.52500,199
1.53333,200
1.54167,201
1.55000,201
1.55833,201
1.56667,202
1.57500,203
1.58333,204
1.59167,206
1.60000,206
1.60833,207
1.61667,208
1.62500,209
1.63333,210
1.64167,211
1.65000,212
1.65833,213
1.66667,214
1.67500,216
1.68333,217
1.69167,219
1.70000,221
1.70833,222
1.71667,224
1.72500,225
1.73333,227
1.74167,228
1.75000,230
1.75833,231
1.76667,233
1.77500,235
1.78333,236
1.79167,237
1.80000,239
1.80833,240
1.81667,242
1.82500,244
1.83333,246
1.84167,248
1.85000,249
1.85833,251
1.86667,253
1.87500,255
1.88333,256
1.89167,258
1.90000,260
1.90833,262
1.91667,263
1.92500,265
1.93333,266
1.94167,267
1.95000,269
1.95833,270
1.96667,271
1.97500,273
1.98333,274
1.99167,275
2.00000,277
2.00833,278
2.01667,279
2.02500,280
2.03333,281
2.04167,282
2.05000,283
2.05833,284
2.06667,285
2.07500,286
2.08333,287
2.09167,287
2.10000,288
2.10833,288
2.11667,288
2.12500,289
2.13333,289
2.14167,289
2.15000,289
2.15833,289
2.16667,289
2.17500,290
2.18333,290
2.19167,290
2.20000,290
2.20833,290
2.21667,290
2.22500,290
2.23333,290
2.24167,289
2.25000,289
2.25833,288
2.26667,288
2.27500,287
2.28333,287
2.29167,287
2.30000,287
2.30833,287
2.31667,286
2.32500,286
2.33333,286
2.34167,285
2.35000,285
2.35833,284
2.36667,283
2.37500,283
2.38333,283
2.39167,283
2.40000,283
2.40833,283
2.41667,283
2.42500,282
2.43333,281
2.44167,281
2.45000,280
2.45833,280
2.46667,279
2.47500,279
2.48333,279
2.49167,279
2.50000,279
2.50833,278
2.51667,278
2.52500,278
2.53333,278
2.54167,278
2.55000,277
2.55833,277
2.56667,277
2.57500,277
2.58333,277
2.59167,278
2.60000,278
2.60833,278
2.61667,278
2.62500,278
2.63333,278
2.64167,278
2.65000,278
2.65833,279
2.66667,279
2.67500,279
2.68333,280
2.69167,280
2.70000,280
2.70833,281
2.71667,281
2.72500,282
2.73333,282
2.74167,283
2.75000,284
2.75833,284
2.76667,285
2.77500,285
2.78333,286
2.79167,286
2.80000,287
2.80833,287
2.81667,288
2.82500,289
2.83333,290
2.84167,291
2.85000,291
2.85833,292
2.86667,292
2.87500,292
2.88333,293
2.89167,293
2.90000,293
2.90833,293
2.91667,294
2.92500,294
2.93333,294
2.94167,295
2.95000,295
2.95833,296
2.96667,296
2.97500,296
2.98333,297
2.99167,298
3.00000,298
3.00833,299
3.01667,299
3.02500,299
3.03333,299
3.04167,300
3.05000,300
3.05833,300
3.06667,301
3.07500,301
3.08333,301
3.09167,301
3.10000,301
3.10833,301
3.11667,302
3.12500,302
3.13333,302
3.14167,302
3.15000,303
3.15833,303
3.16667,303
3.17500,303
3.18333,303
3.19167,302
3.20000,302
3.20833,302
3.21667,302
3.22500,302
3.23333,302
3.24167,302
3.25000,302
3.25833,302
3.26667,302
3.27500,302
3.28333,302
3.29167,302
3.30000,301
3.30833,300
3.31667,300
3.32500,299
3.33333,298
3.34167,298
3.35000,297
3.35833,297
3.36667,296
3.37500,295
3.38333,295
3.39167,294
3.40000,293
3.40833,293
3.41667,292
3.42500,292
3.43333,291
3.44167,291
3.45000,291
3.45833,290
3.46667,289
3.47500,289
3.48333,288
3.49167,288
3.50000,288
3.50833,288
3.51667,287
3.52500,287
3.53333,287
3.54167,286
3.55000,287
3.55833,287
3.56667,287
3.57500,287
3.58333,288
3.59167,288
3.60000,288
3.60833,288
3.61667,289
3.62500,289
3.63333,290
3.64167,290
3.65000,290
3.65833,290
3.66667,291
3.67500,291
3.68333,292
3.69167,293
3.70000,293
3.70833,294
3.71667,295
3.72500,296
3.73333,297
3.74167,298
3.75000,298
3.75833,299
3.76667,301
3.77500,302
3.78333,303
3.79167,304
3.80000,304
3.80833,305
3.81667,306
3.82500,307
3.83333,307
3.84167,308
3.85000,309
3.85833,310
3.86667,310
3.87500,311
3.88333,312
3.89167,312
3.90000,313
3.90833,314
3.91667,314
3.92500,315
3.93333,315
3.94167,316
3.95000,316
3.95833,316
3.96667,317
3.97500,317
3.98333,317
3.99167,318
4.00000,318
4.00833,318
4.01667,318
4.02500,318
4.03333,318
4.04167,317
4.05000,317
4.05833,317
4.06667,317
4.07500,317
4.08333,316
4.09167,316
4.10000,315
4.10833,315
4.11667,314
4.12500,314
4.13333,314
4.14167,313
4.15000,312
4.15833,312
4.16667,311
4.17500,310
4.18333,309
4.19167,308
4.20000,307
4.20833,307
4.21667,306
4.22500,305
4.23333,304
4.24167,303
4.25000,303
4.25833,302
4.26667,301
4.27500,300
4.28333,299
4.29167,298
4.30000,297
4.30833,296
4.31667,295
4.32500,294
4.33333,293
4.34167,292
4.35000,292
4.35833,291
4.36667,290
4.37500,290
4.38333,289
4.39167,289
4.40000,288
4.40833,288
4.41667,287
4.42500,286
4.43333,285
4.44167,285
4.45000,284
4.45833,284
4.46667,283
4.47500,283
4.48333,283
4.49167,283
4.50000,283
4.50833,283
4.51667,283
4.52500,283
4.53333,283
4.54167,283
4.55000,282
4.55833,282
4.56667,282
4.57500,282
4.58333,282
4.59167,282
4.60000,281
4.60833,281
4.61667,281
4.62500,281
4.63333,281
4.64167,280
4.65000,280
4.65833,280
4.66667,281
4.67500,281
4.68333,281
4.69167,282
4.70000,282
4.70833,282
4.71667,283
4.72500,283
4.73333,283
4.74167,283
4.75000,284
4.75833,284
4.76667,284
4.77500,284
4.78333,284
4.79167,285
4.80000,285
4.80833,285
4.81667,286
4.82500,286
4.83333,287
4.84167,288
4.85000,288
4.85833,289
4.86667,290
4.87500,290
4.88333,290
4.89167,290
4.90000,290
4.90833,290
4.91667,290
4.92500,291
4.93333,291
4.94167,291
4.95000,292
4.95833,292
4.96667,292
4.97500,293
4.98333,293
4.99167,293
5.00000,293
5.00833,293
5.01667,293
5.02500,292
5.03333,292
5.04167,292
5.05000,292
5.05833,291
5.06667,291
5.07500,291
5.08333,291
5.09167,291
5.10000,291
5.10833,291
5.11667,290
5.12500,290
5.13333,289
5.14167,289
5.15000,288
5.15833,288
5.16667,288
5.17500,287
5.18333,287
5.19167,287
5.20000,287
5.20833,287
5.21667,287
5.22500,287
5.23333,287
5.24167,287
5.25000,287
5.25833,288
5.26667,288
5.27500,288
5.28333,288
5.29167,289
5.30000,289
5.30833,290
5.31667,290
5.32500,291
5.33333,292
5.34167,293
5.35000,294
5.35833,294
5.36667,295
5.37500,296
5.38333,297
5.39167,298
5.40000,300
5.40833,301
5.41667,302
5.42500,304
5.43333,305
5.44167,306
5.45000,308
5.45833,310
5.46667,312
5.47500,313
5.48333,315
5.49167,317
5.50000,319
5.50833,321
5.51667,324
5.52500,326
5.53333,329
5.54167,332
5.55000,335
5.55833,337
5.56667,340
5.57500,343
5.58333,347
5.59167,350
5.60000,354
5.60833,357
5.61667,361
5.62500,365
5.63333,369
5.64167,373
5.65000,377
5.65833,382
5.66667,387
5.67500,392
5.68333,397
5.69167,403
5.70000,408
5.70833,414
5.71667,419
5.72500,426
5.73333,432
5.74167,439
5.75000,446
5.75833,453
5.76667,460
5.77500,467
5.78333,475
5.79167,483
5.80000,490
5.80833,498
5.81667,506
5.82500,515
5.83333,523
5.84167,532
5.85000,540
5.85833,549
5.86667,558
5.87500,568
5.88333,577
5.89167,586
5.90000,596
5.90833,605
5.91667,615
5.92500,624
5.93333,634
5.94167,643
5.95000,652
5.95833,661
5.96667,670
5.97500,679
5.98333,688
5.99167,697
6.00000,705
6.00833,713
6.01667,721
6.02500,729
6.03333,737
6.04167,744
6.05000,751
6.05833,758
6.06667,764
6.07500,770
6.08333,775
6.09167,781
6.10000,786
6.10833,790
6.11667,794
6.12500,798
6.13333,801
6.14167,804
6.15000,806
6.15833,808
6.16667,809
6.17500,810
6.18333,809
6.19167,809
6.20000,808
6.20833,806
6.21667,804
6.22500,802
6.23333,799
6.24167,796
6.25000,792
6.25833,788
6.26667,783
6.27500,778
6.28333,772
6.29167,767
6.30000,761
6.30833,754
6.31667,748
6.32500,741
6.33333,734
6.34167,726
6.35000,718
6.35833,710
6.36667,701
6.37500,693
6.38333,684
6.39167,675
6.40000,666
6.40833,657
6.41667,648
6.42500,639
6.43333,630
6.44167,621
6.45000,612
6.45833,603
6.46667,594
6.47500,585
6.48333,576
6.49167,567
6.50000,558
6.50833,549
6.51667,541
6.52500,532
6.53333,524
6.54167,517
6.55000,509
6.55833,502
6.56667,494
6.57500,487
6.58333,480
6.59167,473
6.60000,466
6.60833,459
6.61667,453
6.62500,447
6.63333,442
6.64167,436
6.65000,431
6.65833,425
6.66667,420
6.67500,415
6.68333,411
6.69167,407
6.70000,402
6.70833,398
6.71667,394
6.72500,390
6.73333,386
6.74167,382
6.75000,379
6.75833,376
6.76667,373
6.77500,370
6.78333,367
6.79167,364
6.80000,362
6.80833,360
6.81667,357
6.82500,356
6.83333,354
6.84167,352
6.85000,350
6.85833,348
6.86667,347
6.87500,345
6.88333,343
6.89167,342
6.90000,341
6.90833,340
6.91667,339
6.92500,338
6.93333,337
6.94167,336
6.95000,335
6.95833,334
6.96667,333
6.97500,332
6.98333,331
6.99167,330
7.00000,330
7.00833,329
7.01667,329
7.02500,328
7.03333,328
7.04167,328
7.05000,327
7.05833,327
7.06667,326
7.07500,326
7.08333,325
7.09167,324
7.10000,324
7.10833,324
7.11667,324
7.12500,323
7.13333,323
7.14167,323
7.15000,323
7.15833,323
7.16667,323
7.17500,323
7.18333,323
7.19167,323
7.20000,323
7.20833,323
7.21667,323
7.22500,324
7.23333,324
7.24167,324
7.25000,324
7.25833,324
7.26667,325
7.27500,325
7.28333,326
7.29167,327
7.30000,327
7.30833,326
7.31667,326
7.32500,327
7.33333,327
7.34167,327
7.35000,328
7.35833,328
7.36667,328
7.37500,328
7.38333,328
7.39167,328
7.40000,327
7.40833,327
7.41667,327
7.42500,327
7.43333,327
7.44167,327
7.45000,327
7.45833,327
7.46667,327
7.47500,326
7.48333,326
7.49167,326
7.50000,325
7.50833,325
7.51667,324
7.52500,323
7.53333,323
7.54167,322
7.55000,322
7.55833,322
7.56667,321
7.57500,320
7.58333,319
7.59167,318
7.60000,318
7.60833,317
7.61667,316
7.62500,315
7.63333,315
7.64167,314
7.65000,314
7.65833,314
7.66667,314
7.67500,313
7.68333,313
7.69167,312
7.70000,312
7.70833,312
7.71667,311
7.72500,311
7.73333,310
7.74167,310
7.75000,309
7.75833,309
7.76667,309
7.77500,308
7.78333,308
7.79167,307
7.80000,306
7.80833,305
7.81667,305
7.82500,304
7.83333,304
7.84167,304
7.85000,303
7.85833,302
7.86667,302
7.87500,302
7.88333,301
7.89167,300
7.90000,300
7.90833,299
7.91667,298
7.92500,298
7.93333,298
7.94167,297
7.95000,297
7.95833,296
7.96667,295
7.97500,295
7.98333,294
7.99167,294
8.00000,294
8.00833,294
8.01667,294
8.02500,294
8.03333,293
8.04167,293
8.05000,293
8.05833,294
8.06667,294
8.07500,294
8.08333,294
8.09167,294
8.10000,294
8.10833,295
8.11667,295
8.12500,295
8.13333,295
8.14167,295
8.15000,296
8.15833,296
8.16667,297
8.17500,298
8.18333,299
8.19167,300
8.20000,301
8.20833,301
8.21667,302
8.22500,304
8.23333,305
8.24167,306
8.25000,307
8.25833,308
8.26667,309
8.27500,310
8.28333,311
8.29167,313
8.30000,314
8.30833,315
8.31667,316
8.32500,317
8.33333,318
8.34167,319
8.35000,320
8.35833,321
8.36667,322
8.37500,323
8.38333,324
8.39167,325
8.40000,325
8.40833,326
8.41667,326
8.42500,326
8.43333,327
8.44167,327
8.45000,328
8.45833,328
8.46667,328
8.47500,328
8.48333,328
8.49167,328
8.50000,328
8.50833,328
8.51667,328
8.52500,328
8.53333,328
8.54167,327
8.55000,327
8.55833,326
8.56667,326
8.57500,325
8.58333,325
8.59167,324
8.60000,323
8.60833,322
8.61667,321
8.62500,320
8.63333,319
8.64167,317
8.65000,316
8.65833,315
8.66667,314
8.67500,313
8.68333,312
8.69167,311
8.70000,311
8.70833,310
8.71667,310
8.72500,309
8.73333,308
8.74167,307
8.75000,306
8.75833,305
8.76667,304
8.77500,303
8.78333,302
8.79167,301
8.80000,301
8.80833,300
8.81667,299
8.82500,299
8.83333,299
8.84167,298
8.85000,298
8.85833,298
8.86667,298
8.87500,298
8.88333,298
8.89167,298
8.90000,298
8.90833,298
8.91667,299
8.92500,299
8.93333,299
8.94167,299
8.95000,299
8.95833,300
8.96667,300
8.97500,300
8.98333,300
8.99167,301
9.00000,301
9.00833,302
9.01667,302
9.02500,303
9.03333,303
9.04167,304
9.05000,305
9.05833,305
9.06667,306
9.07500,306
9.08333,307
9.09167,307
9.10000,308
9.10833,308
9.11667,308
9.12500,309
9.13333,310
9.14167,310
9.15000,311
9.15833,311
9.16667,311
9.17500,311
9.18333,311
9.19167,311
9.20000,312
9.20833,312
9.21667,313
9.22500,313
9.23333,313
9.24167,314
9.25000,314
9.25833,314
9.26667,314
9.27500,314
9.28333,314
9.29167,314
9.30000,314
9.30833,314
9.31667,314
9.32500,314
9.33333,313
9.34167,313
9.35000,313
9.35833,313
9.36667,312
9.37500,312
9.38333,312
9.39167,311
9.40000,311
9.40833,310
9.41667,309
9.42500,309
9.43333,308
9.44167,307
9.45000,306
9.45833,305
9.46667,305
9.47500,304
9.48333,304
9.49167,303
9.50000,303
9.50833,302
9.51667,301
9.52500,301
9.53333,300
9.54167,300
9.55000,299
9.55833,298
9.56667,297
9.57500,296
9.58333,296
9.59167,295
9.60000,295
9.60833,294
9.61667,294
9.62500,294
9.63333,293
9.64167,293
9.65000,293
9.65833,292
9.66667,292
9.67500,292
9.68333,291
9.69167,291
9.70000,291
9.70833,291
9.71667,291
9.72500,291
9.73333,291
9.74167,291
9.75000,292
9.75833,292
9.76667,293
9.77500,293
9.78333,293
9.79167,294
9.80000,295
9.80833,295
9.81667,296
9.82500,296
9.83333,297
9.84167,297
9.85000,297
9.85833,297
9.86667,298
9.87500,298
9.88333,299
9.89167,299
9.90000,300
9.90833,300
9.91667,301
9.92500,302
9.93333,303
9.94167,303
9.95000,304
9.95833,304
9.96667,305
9.97500,305
9.98333,305
9.99167,306
10.00000,306
10.00833,307
10.01667,307
10.02500,308
10.03333,308
10.04167,308
10.05000,309
10.05833,310
10.06667,310
10.07500,310
10.08333,311
10.09167,311
10.10000,311
10.10833,311
10.11667,312
10.12500,312
10.13333,312
10.14167,313
10.15000,313
10.15833,313
10.16667,313
10.17500,313
10.18333,314
10.19167,314
10.20000,314
10.20833,314
10.21667,314
10.22500,315
10.23333,315
10.24167,315
10.25000,316
10.25833,316
10.26667,317
10.27500,317
10.28333,317
10.29167,317
10.30000,318
10.30833,318
10.31667,318
10.32500,318
10.33333,318
10.34167,318
10.35000,318
10.35833,318
10.36667,318
10.37500,319
10.38333,319
10.39167,318
10.40000,318
10.40833,317
10.41667,316
10.42500,314
10.43333,312
10.44167,309
10.45000,305
10.45833,300
10.46667,294
10.47500,286
10.48333,277
10.49167,267
10.50000,256
10.50833,244
10.51667,230
10.52500,215
10.53333,200
10.54167,185
10.55000,171
10.55833,158
10.56667,149
10.57500,144
10.58333,144
10.59167,150
10.60000,164
10.60833,187
10.61667,220
10.62500,263
10.63333,318
10.64167,385
10.65000,464
10.65833,555
10.66667,657
10.67500,771
10.68333,895
10.69167,1029
10.70000,1169
10.70833,1315
10.71667,1464
10.72500,1615
10.73333,1765
10.74167,1913
10.75000,2055
10.75833,2189
10.76667,2315
10.77500,2430
10.78333,2532
10.79167,2619
10.80000,2692
10.80833,2749
10.81667,2790
10.82500,2813
10.83333,2821
10.84167,2812
10.85000,2788
10.85833,2750
10.86667,2698
10.87500,2633
10.88333,2558
10.89167,2472
10.90000,2379
10.90833,2279
10.91667,2175
10.92500,2067
10.93333,1958
10.94167,1847
10.95000,1737
10.95833,1628
10.96667,1522
10.97500,1420
10.98333,1321
10.99167,1227
11.00000,1138
11.00833,1054
11.01667,976
11.02500,904
11.03333,837
11.04167,776
11.05000,719
11.05833,668
11.06667,622
11.07500,581
11.08333,543
11.09167,510
11.10000,481
11.10833,455
11.11667,432
11.12500,412
11.13333,394
11.14167,379
11.15000,365
11.15833,354
11.16667,344
11.17500,336
11.18333,329
11.19167,323
11.20000,318
11.20833,314
11.21667,310
11.22500,307
11.23333,305
11.24167,303
11.25000,301
11.25833,300
11.26667,298
11.27500,297
11.28333,297
11.29167,297
11.30000,297
11.30833,297
11.31667,297
11.32500,297
11.33333,297
11.34167,297
11.35000,297
11.35833,298
11.36667,298
11.37500,298
11.38333,298
11.39167,298
11.40000,299
11.40833,299
11.41667,300
11.42500,300
11.43333,301
11.44167,301
11.45000,301
11.45833,301
11.46667,301
11.47500,301
11.48333,301
11.49167,301
11.50000,301
11.50833,301
11.51667,301
11.52500,301
11.53333,301
11.54167,301
11.55000,301
11.55833,301
11.56667,302
11.57500,301
11.58333,301
11.59167,301
11.60000,301
11.60833,300
11.61667,300
11.62500,300
11.63333,300
11.64167,300
11.65000,300
11.65833,300
11.66667,301
11.67500,301
11.68333,301
11.69167,302
11.70000,302
11.70833,302
11.71667,302
11.72500,303
11.73333,303
11.74167,303
11.75000,303
11.75833,304
11.76667,304
11.77500,304
11.78333,304
11.79167,304
11.80000,304
11.80833,304
11.81667,304
11.82500,305
11.83333,305
11.84167,306
11.85000,306
11.85833,307
11.86667,307
11.87500,307
11.88333,307
11.89167,307
11.90000,307
11.90833,307
11.91667,307
11.92500,307
11.93333,307
11.94167,306
11.95000,306
11.95833,306
11.96667,306
11.97500,306
11.98333,306
11.99167,306
12.00000,306
12.00833,305
12.01667,305
12.02500,305
12.03333,304
12.04167,304
12.05000,303
12.05833,303
12.06667,302
12.07500,301
12.08333,301
12.09167,300
12.10000,299
12.10833,299
12.11667,298
12.12500,298
12.13333,298
12.14167,297
12.15000,296
12.15833,295
12.16667,294
12.17500,294
12.18333,293
12.19167,292
12.20000,292
12.20833,292
12.21667,291
12.22500,291
12.23333,290
12.24167,289
12.25000,289
12.25833,288
12.26667,288
12.27500,288
12.28333,288
12.29167,287
12.30000,287
12.30833,287
12.31667,287
12.32500,286
12.33333,286
12.34167,286
12.35000,286
12.35833,286
12.36667,286
12.37500,286
12.38333,285
12.39167,285
12.40000,285
12.40833,285
12.41667,286
12.42500,286
12.43333,287
12.44167,288
12.45000,289
12.45833,289
12.46667,289
12.47500,290
12.48333,291
12.49167,293
12.50000,294
12.50833,295
12.51667,296
12.52500,297
12.53333,299
12.54167,301
12.55000,303
12.55833,306
12.56667,309
12.57500,313
12.58333,318
12.59167,323
12.60000,330
12.60833,337
12.61667,346
12.62500,357
12.63333,370
12.64167,386
12.65000,404
12.65833,425
12.66667,450
12.67500,477
12.68333,509
12.69167,546
12.70000,586
12.70833,632
12.71667,683
12.72500,739
12.73333,801
12.74167,869
12.75000,943
12.75833,1023
12.76667,1109
12.77500,1201
12.78333,1299
12.79167,1404
12.80000,1515
12.80833,1632
12.81667,1755
12.82500,1884
12.83333,2018
12.84167,2158
12.85000,2302
12.85833,2452
12.86667,2606
12.87500,2765
12.88333,2928
12.89167,3096
12.90000,3267
12.90833,3441
12.91667,3620
12.92500,3801
12.93333,3985
12.94167,4171
12.95000,4361
12.95833,4552
12.96667,4746
12.97500,4941
12.98333,5138
12.99167,5336
13.00000,5534
13.00833,5734
13.01667,5933
13.02500,6131
13.03333,6328
13.04167,6524
13.05000,6717
13.05833,6905
13.06667,7087
13.07500,7262
13.08333,7425
13.09167,7575
13.10000,7706
13.10833,7814
13.11667,7894
13.12500,7941
13.13333,7950
13.14167,7916
13.15000,7838
13.15833,7711
13.16667,7538
13.17500,7317
13.18333,7054
13.19167,6753
13.20000,6420
13.20833,6062
13.21667,5688
13.22500,5304
13.23333,4919
13.24167,4538
13.25000,4168
13.25833,3813
13.26667,3477
13.27500,3162
13.28333,2871
13.29167,2603
13.30000,2358
13.30833,2137
13.31667,1938
13.32500,1759
13.33333,1600
13.34167,1459
13.35000,1333
13.35833,1223
13.36667,1125
13.37500,1039
13.38333,964
13.39167,897
13.40000,839
13.40833,788
13.41667,742
13.42500,702
13.43333,667
13.44167,636
13.45000,608
13.45833,584
13.46667,562
13.47500,543
13.48333,526
13.49167,511
13.50000,497
13.50833,484
13.51667,473
13.52500,463
13.53333,454
13.54167,446
13.55000,438
13.55833,431
13.56667,424
13.57500,418
13.58333,413
13.59167,408
13.60000,404
13.60833,399
13.61667,395
13.62500,391
13.63333,388
13.64167,385
13.65000,382
13.65833,380
13.66667,377
13.67500,375
13.68333,373
13.69167,371
13.70000,369
13.70833,367
13.71667,365
13.72500,364
13.73333,362
13.74167,361
13.75000,359
13.75833,358
13.76667,357
13.77500,356
13.78333,355
13.79167,355
13.80000,354
13.80833,354
13.81667,354
13.82500,353
13.83333,353
13.84167,353
13.85000,353
13.85833,352
13.86667,352
13.87500,352
13.88333,352
13.89167,352
13.90000,352
13.90833,352
13.91667,352
13.92500,352
13.93333,353
13.94167,353
13.95000,353
13.95833,353
13.96667,353
13.97500,353
13.98333,353
13.99167,353
14.00000,354
14.00833,354
14.01667,354
14.02500,354
14.03333,354
14.04167,354
14.05000,354
14.05833,354
14.06667,354
14.07500,353
14.08333,353
14.09167,353
14.10000,353
14.10833,352
14.11667,352
14.12500,352
14.13333,352
14.14167,351
14.15000,351
14.15833,350
14.16667,350
14.17500,350
14.18333,349
14.19167,349
14.20000,349
14.20833,348
14.21667,348
14.22500,347
14.23333,346
14.24167,346
14.25000,346
14.25833,345
14.26667,345
14.27500,345
14.28333,344
14.29167,344
14.30000,343
14.30833,342
14.31667,342
14.32500,340
14.33333,339
14.34167,339
14.35000,338
14.35833,337
14.36667,336
14.37500,335
14.38333,335
14.39167,334
14.40000,333
14.40833,333
14.41667,332
14.42500,331
14.43333,331
14.44167,330
14.45000,329
14.45833,328
14.46667,327
14.47500,326
14.48333,325
14.49167,325
14.50000,324
14.50833,323
14.51667,323
14.52500,322
14.53333,321
14.54167,321
14.55000,320
14.55833,320
14.56667,319
14.57500,319
14.58333,318
14.59167,317
14.60000,317
14.60833,316
14.61667,316
14.62500,315
14.63333,315
14.64167,314
14.65000,314
14.65833,313
14.66667,313
14.67500,313
14.68333,313
14.69167,312
14.70000,312
14.70833,312
14.71667,312
14.72500,313
14.73333,313
14.74167,313
14.75000,313
14.75833,314
14.76667,315
14.77500,315
14.78333,316
14.79167,316
14.80000,317
14.80833,317
14.81667,318
14.82500,319
14.83333,319
14.84167,320
14.85000,321
14.85833,321
14.86667,322
14.87500,322
14.88333,323
14.89167,324
14.90000,326
14.90833,327
14.91667,327
14.92500,328
14.93333,330
14.94167,331
14.95000,332
14.95833,333
14.96667,334
14.97500,335
14.98333,336
14.99167,338
15.00000,340
15.00833,341
15.01667,343
15.02500,345
15.03333,347
15.04167,349
15.05000,351
15.05833,353
15.06667,356
15.07500,358
15.08333,361
15.09167,364
15.10000,368
15.10833,372
15.11667,377
15.12500,383
15.13333,389
15.14167,396
15.15000,403
15.15833,412
15.16667,423
15.17500,434
15.18333,448
15.19167,463
15.20000,480
15.20833,498
15.21667,519
15.22500,542
15.23333,568
15.24167,595
15.25000,626
15.25833,659
15.26667,695
15.27500,734
15.28333,775
15.29167,820
15.30000,867
15.30833,916
15.31667,968
15.32500,1021
15.33333,1077
15.34167,1134
15.35000,1192
15.35833,1251
15.36667,1310
15.37500,1369
15.38333,1428
15.39167,1486
15.40000,1542
15.40833,1596
15.41667,1648
15.42500,1698
15.43333,1745
15.44167,1788
15.45000,1827
15.45833,1861
15.46667,1892
15.47500,1917
15.48333,1938
15.49167,1953
15.50000,1964
15.50833,1969
15.51667,1968
15.52500,1963
15.53333,1953
15.54167,1939
15.55000,1920
15.55833,1896
15.56667,1869
15.57500,1838
15.58333,1803
15.59167,1765
15.60000,1725
15.60833,1682
15.61667,1637
15.62500,1590
15.63333,1542
15.64167,1494
15.65000,1444
15.65833,1395
15.66667,1345
15.67500,1295
15.68333,1245
15.69167,1197
15.70000,1149
15.70833,1102
15.71667,1057
15.72500,1013
15.73333,971
15.74167,930
15.75000,891
15.75833,854
15.76667,818
15.77500,784
15.78333,752
15.79167,722
15.80000,693
15.80833,666
15.81667,641
15.82500,617
15.83333,595
15.84167,574
15.85000,554
15.85833,537
15.86667,520
15.87500,505
15.88333,491
15.89167,477
15.90000,466
15.90833,455
15.91667,445
15.92500,436
15.93333,428
15.94167,421
15.95000,414
15.95833,408
15.96667,403
15.97500,398
15.98333,393
15.99167,389
16.00000,385
16.00833,381
16.01667,378
16.02500,376
16.03333,373
16.04167,370
16.05000,368
16.05833,366
16.06667,363
16.07500,362
16.08333,359
16.09167,357
16.10000,355
16.10833,354
16.11667,352
16.12500,350
16.13333,349
16.14167,348
16.15000,347
16.15833,346
16.16667,345
16.17500,343
16.18333,342
16.19167,341
16.20000,340
16.20833,339
16.21667,338
16.22500,337
16.23333,336
16.24167,335
16.25000,335
16.25833,334
16.26667,333
16.27500,332
16.28333,330
16.29167,329
16.30000,329
16.30833,328
16.31667,327
16.32500,326
16.33333,326
16.34167,325
16.35000,324
16.35833,323
16.36667,322
16.37500,321
16.38333,321
16.39167,320
16.40000,319
16.40833,319
16.41667,318
16.42500,318
16.43333,317
16.44167,316
16.45000,316
16.45833,316
16.46667,315
16.47500,315
16.48333,315
16.49167,315
16.50000,314
16.50833,314
16.51667,313
16.52500,313
16.53333,312
16.54167,312
16.55000,312
16.55833,312
16.56667,311
16.57500,311
16.58333,311
16.59167,311
16.60000,310
16.60833,310
16.61667,310
16.62500,309
16.63333,309
16.64167,309
16.65000,309
16.65833,309
16.66667,308
16.67500,307
16.68333,307
16.69167,307
16.70000,307
16.70833,306
16.71667,306
16.72500,306
16.73333,306
16.74167,306
16.75000,306
16.75833,306
16.76667,306
16.77500,306
16.78333,306
16.79167,305
16.80000,305
16.80833,305
16.81667,305
16.82500,305
16.83333,306
16.84167,306
16.85000,306
16.85833,307
16.86667,307
16.87500,307
16.88333,307
16.89167,307
16.90000,307
16.90833,308
16.91667,308
16.92500,308
16.93333,308
16.94167,309
16.95000,309
16.95833,310
16.96667,310
16.97500,311
16.98333,311
16.99167,312
17.00000,312
17.00833,313
17.01667,314
17.02500,315
17.03333,316
17.04167,316
17.05000,317
17.05833,318
17.06667,319
17.07500,320
17.08333,321
17.09167,322
17.10000,322
17.10833,322
17.11667,323
17.12500,324
17.13333,324
17.14167,325
17.15000,326
17.15833,327
17.16667,327
17.17500,328
17.18333,329
17.19167,329
17.20000,330
17.20833,330
17.21667,331
17.22500,331
17.23333,332
17.24167,332
17.25000,333
17.25833,333
17.26667,334
17.27500,335
17.28333,335
17.29167,335
17.30000,335
17.30833,336
17.31667,336
17.32500,336
17.33333,336
17.34167,337
17.35000,337
17.35833,337
17.36667,337
17.37500,337
17.38333,337
17.39167,337
17.40000,337
17.40833,337
17.41667,336
17.42500,336
17.43333,336
17.44167,336
17.45000,336
17.45833,336
17.46667,335
17.47500,335
17.48333,335
17.49167,334
17.50000,334
17.50833,334
17.51667,334
17.52500,333
17.53333,333
17.54167,333
17.55000,332
17.55833,332
17.56667,331
17.57500,331
17.58333,331
17.59167,330
17.60000,330
17.60833,329
17.61667,329
17.62500,328
17.63333,328
17.64167,328
17.65000,328
17.65833,328
17.66667,328
17.67500,328
17.68333,328
17.69167,328
17.70000,328
17.70833,328
17.71667,328
17.72500,329
17.73333,329
17.74167,329
17.75000,329
17.75833,329
17.76667,329
17.77500,329
17.78333,329
17.79167,329
17.80000,329
17.80833,330
17.81667,330
17.82500,330
17.83333,330
17.84167,330
17.85000,331
17.85833,331
17.86667,332
17.87500,332
17.88333,332
17.89167,332
17.90000,332
17.90833,333
17.91667,333
17.92500,333
17.93333,334
17.94167,334
17.95000,334
17.95833,333
17.96667,333
17.97500,333
17.98333,333
17.99167,333
18.00000,332
18.00833,332
18.01667,332
18.02500,332
18.03333,332
18.04167,332
18.05000,331
18.05833,330
18.06667,329
18.07500,329
18.08333,328
18.09167,328
18.10000,327
18.10833,326
18.11667,326
18.12500,325
18.13333,325
18.14167,324
18.15000,324
18.15833,323
18.16667,322
18.17500,321
18.18333,320
18.19167,319
18.20000,319
18.20833,318
18.21667,317
18.22500,316
18.23333,316
18.24167,315
18.25000,314
18.25833,313
18.26667,313
18.27500,312
18.28333,311
18.29167,311
18.30000,310
18.30833,309
18.31667,309
18.32500,309
18.33333,308
18.34167,308
18.35000,307
18.35833,306
18.36667,306
18.37500,305
18.38333,305
18.39167,305
18.40000,305
18.40833,305
18.41667,305
18.42500,305
18.43333,305
18.44167,305
18.45000,305
18.45833,305
18.46667,305
18.47500,305
18.48333,305
18.49167,304
18.50000,304
18.50833,305
18.51667,305
18.52500,305
18.53333,306
18.54167,306
18.55000,307
18.55833,308
18.56667,308
18.57500,309
18.58333,309
18.59167,309
18.60000,309
18.60833,310
18.61667,310
18.62500,311
18.63333,311
18.64167,312
18.65000,313
18.65833,314
18.66667,315
18.67500,316
18.68333,316
18.69167,317
18.70000,318
18.70833,318
18.71667,318
18.72500,319
18.73333,319
18.74167,320
18.75000,320
18.75833,321
18.76667,321
18.77500,321
18.78333,321
18.79167,321
18.80000,321
18.80833,321
18.81667,321
18.82500,322
18.83333,322
18.84167,322
18.85000,322
18.85833,322
18.86667,321
18.87500,321
18.88333,321
18.89167,321
18.90000,321
18.90833,321
18.91667,320
18.92500,320
18.93333,319
18.94167,319
18.95000,318
18.95833,318
18.96667,318
18.97500,317
18.98333,316
18.99167,316
19.00000,315
19.00833,315
19.01667,314
19.02500,314
19.03333,313
19.04167,313
19.05000,312
19.05833,312
19.06667,311
19.07500,311
19.08333,312
19.09167,312
19.10000,311
19.10833,311
19.11667,311
19.12500,311
19.13333,311
19.14167,311
19.15000,311
19.15833,312
19.16667,312
19.17500,312
19.18333,313
19.19167,313
19.20000,314
19.20833,314
19.21667,314
19.22500,315
19.23333,315
19.24167,315
19.25000,316
19.25833,316
19.26667,316
19.27500,316
19.28333,317
19.29167,317
19.30000,317
19.30833,317
19.31667,317
19.32500,317
19.33333,317
19.34167,317
19.35000,317
19.35833,317
19.36667,317
19.37500,316
19.38333,316
19.39167,316
19.40000,316
19.40833,316
19.41667,315
19.42500,314
19.43333,314
19.44167,314
19.45000,313
19.45833,313
19.46667,313
19.47500,313
19.48333,313
19.49167,312
19.50000,312
19.50833,312
19.51667,312
19.52500,312
19.53333,312
19.54167,312
19.55000,311
19.55833,311
19.56667,310
19.57500,310
19.58333,310
19.59167,311
19.60000,311
19.60833,311
19.61667,311
19.62500,312
19.63333,312
19.64167,312
19.65000,313
19.65833,313
19.66667,313
19.67500,313
19.68333,313
19.69167,313
19.70000,314
19.70833,314
19.71667,315
19.72500,315
19.73333,316
19.74167,316
19.75000,316
19.75833,317
19.76667,317
19.77500,318
19.78333,318
19.79167,318
19.80000,318
19.80833,318
19.81667,319
19.82500,319
19.83333,320
19.84167,320
19.85000,320
19.85833,320
19.86667,320
19.87500,320
19.88333,320
19.89167,320
19.90000,320
19.90833,320
19.91667,320
19.92500,320
19.93333,320
19.94167,320
19.95000,320
19.95833,320
19.96667,320
19.97500,320
19.98333,320
19.99167,319
20.00000,319
20.00833,319
20.01667,319
20.02500,319
20.03333,319
20.04167,319
20.05000,319
20.05833,319
20.06667,319
20.07500,319
20.08333,319
20.09167,319
20.10000,319
20.10833,319
20.11667,319
20.12500,318
20.13333,318
20.14167,318
20.15000,318
20.15833,319
20.16667,319
20.17500,319
20.18333,320
20.19167,320
20.20000,320
20.20833,320
20.21667,321
20.22500,321
20.23333,321
20.24167,321
20.25000,321
20.25833,322
20.26667,323
20.27500,323
20.28333,324
20.29167,325
20.30000,325
20.30833,325
20.31667,326
20.32500,326
20.33333,327
20.34167,327
20.35000,328
20.35833,328
20.36667,329
20.37500,329
20.38333,329
20.39167,330
20.40000,330
20.40833,331
20.41667,331
20.42500,332
20.43333,332
20.44167,333
20.45000,333
20.45833,333
20.46667,333
20.47500,334
20.48333,334
20.49167,334
20.50000,334
20.50833,335
20.51667,335
20.52500,336
20.53333,336
20.54167,337
20.55000,337
20.55833,338
20.56667,338
20.57500,339
20.58333,339
20.59167,339
20.60000,339
20.60833,339
20.61667,339
20.62500,339
20.63333,340
20.64167,340
20.65000,340
20.65833,340
20.66667,340
20.67500,341
20.68333,340
20.69167,340
20.70000,340
20.70833,341
20.71667,341
20.72500,341
20.73333,342
20.74167,342
20.75000,342
20.75833,342
20.76667,343
20.77500,343
20.78333,343
20.79167,343
20.80000,343
20.80833,343
20.81667,343
20.82500,343
20.83333,343
20.84167,343
20.85000,343
20.85833,343
20.86667,343
20.87500,342
20.88333,342
20.89167,342
20.90000,342
20.90833,342
20.91667,342
20.92500,341
20.93333,341
20.94167,341
20.95000,340
20.95833,340
20.96667,340
20.97500,340
20.98333,339
20.99167,339
21.00000,338
21.00833,338
21.01667,337
21.02500,337
21.03333,336
21.04167,335
21.05000,335
21.05833,334
21.06667,334
21.07500,333
21.08333,332
21.09167,332
21.10000,332
21.10833,331
21.11667,330
21.12500,330
21.13333,329
21.14167,328
21.15000,327
21.15833,326
21.16667,325
21.17500,324
21.18333,324
21.19167,323
21.20000,322
21.20833,321
21.21667,320
21.22500,319
21.23333,318
21.24167,318
21.25000,317
21.25833,316
21.26667,316
21.27500,315
21.28333,314
21.29167,313
21.30000,313
21.30833,312
21.31667,311
21.32500,311
21.33333,310
21.34167,310
21.35000,309
21.35833,308
21.36667,308
21.37500,308
21.38333,308
21.39167,308
21.40000,307
21.40833,307
21.41667,306
21.42500,306
21.43333,306
21.44167,306
21.45000,305
21.45833,305
21.46667,305
21.47500,304
21.48333,304
21.49167,304
21.50000,304
21.50833,303
21.51667,303
21.52500,303
21.53333,302
21.54167,302
21.55000,302
21.55833,302
21.56667,302
21.57500,302
21.58333,301
21.59167,301
21.60000,300
21.60833,300
21.61667,300
21.62500,300
21.63333,300
21.64167,299
21.65000,299
21.65833,299
21.66667,299
21.67500,299
21.68333,299
21.69167,299
21.70000,299
21.70833,300
21.71667,300
21.72500,300
21.73333,300
21.74167,301
21.75000,301
21.75833,302
21.76667,302
21.77500,303
21.78333,304
21.79167,304
21.80000,305
21.80833,306
21.81667,307
21.82500,308
21.83333,309
21.84167,310
21.85000,311
21.85833,312
21.86667,313
21.87500,314
21.88333,316
21.89167,317
21.90000,318
21.90833,320
21.91667,321
21.92500,323
21.93333,324
21.94167,324
21.95000,325
21.95833,326
21.96667,327
21.97500,328
21.98333,329
21.99167,330
22.00000,331
22.00833,332
22.01667,333
22.02500,334
22.03333,335
22.04167,335
22.05000,336
22.05833,336
22.06667,337
22.07500,338
22.08333,338
22.09167,339
22.10000,339
22.10833,339
22.11667,339
22.12500,339
22.13333,339
22.14167,339
22.15000,339
22.15833,339
22.16667,339
22.17500,340
22.18333,340
22.19167,340
22.20000,339
22.20833,339
22.21667,338
22.22500,338
22.23333,338
22.24167,337
22.25000,337
22.25833,337
22.26667,337
22.27500,337
22.28333,337
22.29167,337
22.30000,337
22.30833,337
22.31667,337
22.32500,337
22.33333,337
22.34167,337
22.35000,337
22.35833,337
22.36667,337
22.37500,337
22.38333,337
22.39167,337
22.40000,337
22.40833,337
22.41667,337
22.42500,337
22.43333,337
22.44167,337
22.45000,338
22.45833,338
22.46667,338
22.47500,338
22.48333,338
22.49167,339
22.50000,339
22.50833,339
22.51667,339
22.52500,339
22.53333,339
22.54167,339
22.55000,338
22.55833,338
22.56667,338
22.57500,338
22.58333,338
22.59167,338
22.60000,338
22.60833,338
22.61667,338
22.62500,337
22.63333,337
22.64167,337
22.65000,337
22.65833,337
22.66667,337
22.67500,337
22.68333,337
22.69167,337
22.70000,337
22.70833,337
22.71667,337
22.72500,337
22.73333,337
22.74167,337
22.75000,337
22.75833,336
22.76667,336
22.77500,336
22.78333,336
22.79167,336
22.80000,336
22.80833,335
22.81667,335
22.82500,334
22.83333,334
22.84167,334
22.85000,334
22.85833,334
22.86667,334
22.87500,334
22.88333,334
22.89167,334
22.90000,334
22.90833,335
22.91667,335
22.92500,335
22.93333,335
22.94167,335
22.95000,335
22.95833,335
22.96667,334
22.97500,335
22.98333,335
22.99167,335
23.00000,335
23.00833,335
23.01667,335
23.02500,335
23.03333,336
23.04167,336
23.05000,336
23.05833,336
23.06667,336
23.07500,336
23.08333,336
23.09167,337
23.10000,337
23.10833,337
23.11667,337
23.12500,337
23.13333,338
23.14167,338
23.15000,338
23.15833,338
23.16667,338
23.17500,338
23.18333,338
23.19167,339
23.20000,339
23.20833,339
23.21667,339
23.22500,339
23.23333,339
23.24167,339
23.25000,339
23.25833,339
23.26667,339
23.27500,339
23.28333,339
23.29167,340
23.30000,340
23.30833,340
23.31667,340
23.32500,339
23.33333,339
23.34167,339
23.35000,339
23.35833,339
23.36667,339
23.37500,339
23.38333,339
23.39167,339
23.40000,339
23.40833,339
23.41667,338
23.42500,339
23.43333,339
23.44167,339
23.45000,338
23.45833,338
23.46667,338
23.47500,337
23.48333,337
23.49167,337
23.50000,337
23.50833,336
23.51667,336
23.52500,336
23.53333,336
23.54167,336
23.55000,336
23.55833,336
23.56667,335
23.57500,335
23.58333,335
23.59167,335
23.60000,335
23.60833,335
23.61667,334
23.62500,334
23.63333,334
23.64167,334
23.65000,334
23.65833,334
23.66667,334
23.67500,334
23.68333,333
23.69167,333
23.70000,333
23.70833,334
23.71667,334
23.72500,333
23.73333,333
23.74167,333
23.75000,333
23.75833,333
23.76667,334
23.77500,334
23.78333,334
23.79167,334
23.80000,334
23.80833,335
23.81667,335
23.82500,335
23.83333,335
23.84167,335
23.85000,335
23.85833,335
23.86667,336
23.87500,337
23.88333,337
23.89167,337
23.90000,337
23.90833,338
23.91667,338
23.92500,338
23.93333,339
23.94167,339
23.95000,339
23.95833,340
23.96667,341
23.97500,341
23.98333,341
23.99167,341
24.00000,342
24.00833,342
24.01667,342
24.02500,343
24.03333,343
24.04167,343
24.05000,342
24.05833,343
24.06667,342
24.07500,342
24.08333,342
24.09167,342
24.10000,342
24.10833,342
24.11667,342
24.12500,341
24.13333,341
24.14167,340
24.15000,340
24.15833,340
24.16667,339
24.17500,339
24.18333,339
24.19167,338
24.20000,337
24.20833,336
24.21667,335
24.22500,335
24.23333,334
24.24167,334
24.25000,333
24.25833,333
24.26667,332
24.27500,331
24.28333,330
24.29167,329
24.30000,329
24.30833,329
24.31667,329
24.32500,328
24.33333,328
24.34167,328
24.35000,327
24.35833,327
24.36667,327
24.37500,327
24.38333,327
24.39167,327
24.40000,327
24.40833,327
24.41667,327
24.42500,327
24.43333,326
24.44167,326
24.45000,327
24.45833,327
24.46667,327
24.47500,327
24.48333,327
24.49167,327
24.50000,327
24.50833,328
24.51667,328
24.52500,327
24.53333,327
24.54167,327
24.55000,327
24.55833,327
24.56667,328
24.57500,328
24.58333,328
24.59167,329
24.60000,330
24.60833,330
24.61667,330
24.62500,330
24.63333,330
24.64167,330
24.65000,330
24.65833,330
24.66667,330
24.67500,330
24.68333,331
24.69167,331
24.70000,331
24.70833,331
24.71667,332
24.72500,332
24.73333,332
24.74167,333
24.75000,333
24.75833,333
24.76667,333
24.77500,333
24.78333,334
24.79167,334
24.80000,334
24.80833,334
24.81667,334
24.82500,334
24.83333,334
24.84167,334
24.85000,335
24.85833,335
24.86667,335
24.87500,335
24.88333,335
24.89167,336
24.90000,336
24.90833,337
24.91667,337
24.92500,337
24.93333,337
24.94167,337
24.95000,337
24.95833,338
24.96667,338
24.97500,338
24.98333,339
24.99167,339
25.00000,339
25.00833,340
25.01667,340
25.02500,340
25.03333,341
25.04167,341
25.05000,342
25.05833,342
25.06667,342
25.07500,342
25.08333,342
25.09167,342
25.10000,342
25.10833,342
25.11667,343
25.12500,343
25.13333,343
25.14167,344
25.15000,344
25.15833,344
25.16667,344
25.17500,345
25.18333,345
25.19167,345
25.20000,345
25.20833,345
25.21667,345
25.22500,345
25.23333,345
25.24167,345
25.25000,345
25.25833,345
25.26667,345
25.27500,344
25.28333,344
25.29167,343
25.30000,343
25.30833,342
25.31667,342
25.32500,341
25.33333,341
25.34167,340
25.35000,340
25.35833,339
25.36667,339
25.37500,338
25.38333,338
25.39167,337
25.40000,337
25.40833,336
25.41667,335
25.42500,334
25.43333,333
25.44167,333
25.45000,332
25.45833,330
25.46667,329
25.47500,328
25.48333,327
25.49167,325
25.50000,324
25.50833,323
25.51667,322
25.52500,322
25.53333,321
25.54167,320
25.55000,319
25.55833,318
25.56667,316
25.57500,315
25.58333,314
25.59167,313
25.60000,312
25.60833,311
25.61667,310
25.62500,309
25.63333,308
25.64167,307
25.65000,306
25.65833,305
25.66667,304
25.67500,303
25.68333,302
25.69167,301
25.70000,300
25.70833,300
25.71667,300
25.72500,299
25.73333,299
25.74167,299
25.75000,299
25.75833,299
25.76667,299
25.77500,299
25.78333,299
25.79167,299
25.80000,299
25.80833,299
25.81667,300
25.82500,300
25.83333,300
25.84167,301
25.85000,301
25.85833,302
25.86667,302
25.87500,303
25.88333,304
25.89167,305
25.90000,306
25.90833,307
25.91667,308
25.92500,309
25.93333,310
25.94167,311
25.95000,312
25.95833,313
25.96667,314
25.97500,315
25.98333,316
25.99167,317
26.00000,318
26.00833,319
26.01667,319
26.02500,320
26.03333,321
26.04167,322
26.05000,323
26.05833,323
26.06667,324
26.07500,325
26.08333,326
26.09167,326
26.10000,327
26.10833,328
26.11667,329
26.12500,329
26.13333,330
26.14167,331
26.15000,332
26.15833,332
26.16667,333
26.17500,334
26.18333,335
26.19167,335
26.20000,336
26.20833,336
26.21667,336
26.22500,337
26.23333,338
26.24167,338
26.25000,339
26.25833,339
26.26667,339
26.27500,340
26.28333,340
26.29167,341
26.30000,342
26.30833,343
26.31667,344
26.32500,344
26.33333,345
26.34167,345
26.35000,346
26.35833,346
26.36667,347
26.37500,347
26.38333,347
26.39167,348
26.40000,348
26.40833,349
26.41667,349
26.42500,350
26.43333,350
26.44167,350
26.45000,350
26.45833,350
26.46667,350
26.47500,350
26.48333,350
26.49167,351
26.50000,351
26.50833,352
26.51667,352
26.52500,353
26.53333,353
26.54167,353
26.55000,353
26.55833,353
26.56667,353
26.57500,353
26.58333,353
26.59167,352
26.60000,352
26.60833,351
26.61667,351
26.62500,350
26.63333,350
26.64167,349
26.65000,348
26.65833,348
26.66667,347
26.67500,347
26.68333,346
26.69167,346
26.70000,346
26.70833,345
26.71667,344
26.72500,343
26.73333,342
26.74167,341
26.75000,340
26.75833,339
26.76667,338
26.77500,337
26.78333,337
26.79167,336
26.80000,335
26.80833,334
26.81667,334
26.82500,333
26.83333,333
26.84167,332
26.85000,331
26.85833,331
26.86667,330
26.87500,330
26.88333,329
26.89167,329
26.90000,329
26.90833,329
26.91667,329
26.92500,329
26.93333,329
26.94167,329
26.95000,329
26.95833,329
26.96667,330
26.97500,330
26.98333,330
26.99167,331
27.00000,331
27.00833,331
27.01667,332
27.02500,332
27.03333,332
27.04167,332
27.05000,332
27.05833,333
27.06667,333
27.07500,334
27.08333,334
27.09167,335
27.10000,336
27.10833,337
27.11667,337
27.12500,338
27.13333,338
27.14167,339
27.15000,340
27.15833,340
27.16667,341
27.17500,341
27.18333,342
27.19167,342
27.20000,343
27.20833,344
27.21667,344
27.22500,345
27.23333,345
27.24167,345
27.25000,345
27.25833,346
27.26667,346
27.27500,346
27.28333,346
27.29167,346
27.30000,347
27.30833,347
27.31667,347
27.32500,347
27.33333,347
27.34167,348
27.35000,348
27.35833,348
27.36667,347
27.37500,347
27.38333,347
27.39167,347
27.40000,346
27.40833,346
27.41667,346
27.42500,345
27.43333,345
27.44167,346
27.45000,345
27.45833,345
27.46667,345
27.47500,344
27.48333,344
27.49167,343
27.50000,343
27.50833,342
27.51667,342
27.52500,342
27.53333,342
27.54167,342
27.55000,341
27.55833,341
27.56667,341
27.57500,341
27.58333,340
27.59167,340
27.60000,339
27.60833,339
27.61667,339
27.62500,339
27.63333,339
27.64167,338
27.65000,338
27.65833,338
27.66667,338
27.67500,338
27.68333,338
27.69167,338
27.70000,338
27.70833,338
27.71667,338
27.72500,337
27.73333,337
27.74167,337
27.75000,337
27.75833,336
27.76667,336
27.77500,336
27.78333,336
27.79167,335
27.80000,335
27.80833,334
27.81667,334
27.82500,333
27.83333,333
27.84167,333
27.85000,332
27.85833,332
27.86667,331
27.87500,331
27.88333,330
27.89167,329
27.90000,329
27.90833,328
27.91667,328
27.92500,327
27.93333,326
27.94167,326
27.95000,325
27.95833,324
27.96667,323
27.97500,323
27.98333,322
27.99167,321
28.00000,321
28.00833,320
28.01667,319
28.02500,319
28.03333,318
28.04167,317
28.05000,317
28.05833,316
28.06667,315
28.07500,314
28.08333,314
28.09167,313
28.10000,312
28.10833,311
28.11667,310
28.12500,309
28.13333,308
28.14167,307
28.15000,307
28.15833,306
28.16667,305
28.17500,305
28.18333,304
28.19167,304
28.20000,303
28.20833,302
28.21667,302
28.22500,301
28.23333,300
28.24167,299
28.25000,299
28.25833,298
28.26667,298
28.27500,296
28.28333,296
28.29167,295
28.30000,294
28.30833,293
28.31667,292
28.32500,292
28.33333,291
28.34167,291
28.35000,290
28.35833,289
28.36667,289
28.37500,288
28.38333,287
28.39167,287
28.40000,286
28.40833,285
28.41667,285
28.42500,285
28.43333,284
28.44167,284
28.45000,283
28.45833,283
28.46667,283
28.47500,283
28.48333,282
28.49167,282
28.50000,282
28.50833,282
28.51667,282
28.52500,282
28.53333,281
28.54167,282
28.55000,282
28.55833,283
28.56667,283
28.57500,284
28.58333,284
28.59167,285
28.60000,285
28.60833,286
28.61667,287
28.62500,287
28.63333,288
28.64167,289
28.65000,290
28.65833,291
28.66667,292
28.67500,293
28.68333,295
28.69167,296
28.70000,297
28.70833,298
28.71667,300
28.72500,302
28.73333,303
28.74167,304
28.75000,306
28.75833,307
28.76667,308
28.77500,309
28.78333,311
28.79167,312
28.80000,314
28.80833,316
28.81667,317
28.82500,319
28.83333,320
28.84167,322
28.85000,323
28.85833,325
28.86667,326
28.87500,327
28.88333,328
28.89167,330
28.90000,331
28.90833,332
28.91667,333
28.92500,335
28.93333,336
28.94167,337
28.95000,338
28.95833,339
28.96667,340
28.97500,341
28.98333,342
28.99167,342
29.00000,342
29.00833,342
29.01667,342
29.02500,343
29.03333,343
29.04167,343
29.05000,344
29.05833,344
29.06667,345
29.07500,345
29.08333,345
29.09167,345
29.10000,345
29.10833,345
29.11667,345
29.12500,345
29.13333,345
29.14167,345
29.15000,344
29.15833,344
29.16667,343
29.17500,343
29.18333,342
29.19167,342
29.20000,342
29.20833,342
29.21667,342
29.22500,342
29.23333,341
29.24167,341
29.25000,340
29.25833,340
29.26667,340
29.27500,340
29.28333,339
29.29167,339
29.30000,338
29.30833,338
29.31667,338
29.32500,338
29.33333,338
29.34167,338
29.35000,338
29.35833,338
29.36667,338
29.37500,338
29.38333,338
29.39167,338
29.40000,338
29.40833,337
29.41667,337
29.42500,337
29.43333,337
29.44167,337
29.45000,338
29.45833,338
29.46667,339
29.47500,339
29.48333,339
29.49167,340
29.50000,340
29.50833,340
29.51667,340
29.52500,340
29.53333,340
29.54167,340
29.55000,340
29.55833,340
29.56667,340
29.57500,340
29.58333,341
29.59167,341
29.60000,342
29.60833,342
29.61667,342
29.62500,342
29.63333,342
29.64167,343
29.65000,343
29.65833,343
29.66667,344
29.67500,344
29.68333,344
29.69167,345
29.70000,345
29.70833,345
29.71667,346
29.72500,346
29.73333,346
29.74167,346
29.75000,346
29.75833,347
29.76667,347
29.77500,347
29.78333,348
29.79167,348
29.80000,348
29.80833,348
29.81667,348
29.82500,348
29.83333,347
29.84167,347
29.85000,347
29.85833,347
29.86667,347
29.87500,347
29.88333,348
29.89167,348
29.90000,348
29.90833,348
29.91667,348
29.92500,348
29.93333,347
29.94167,347
29.95000,347
29.95833,347
29.96667,348
29.97500,347
29.98333,347
29.99167,346
30.00000,346

