[Header]
Application Name,LabSolutions
Version,5.97 SP1
Data File Name,C:\Users\cremerlab\Desktop\griffin\2021-02-15_NCM_diauxie_turnover\2021-02-15_NCM_acetate_glucose_diauxie_turnover_2152021_017.lcd
Output Date,2/16/2021
Output Time,9:39:06 AM

[File Information]
Type,Data File
Generated,2/16/2021 4:30:35 AM
Generated by,System Administrator
Modified,2/16/2021 5:00:54 AM
Modified by,System Administrator

[Sample Information]
Operator Name,System Administrator
Acquired,2/16/2021 4:30:53 AM
Sample Type,0:Unknown
Level,0
Sample Name,30 mM acetate medium 15 uL
Sample ID,002
ISTD Amount1,1
ISTD Amount2,1
ISTD Amount3,1
ISTD Amount4,1
ISTD Amount5,1
ISTD Amount6,1
ISTD Amount7,1
ISTD Amount8,1
ISTD Amount9,1
ISTD Amount10,1
ISTD Amount11,1
ISTD Amount12,1
ISTD Amount13,1
ISTD Amount14,1
ISTD Amount15,1
ISTD Amount16,1
ISTD Amount17,1
ISTD Amount18,1
ISTD Amount19,1
ISTD Amount20,1
ISTD Amount21,1
ISTD Amount22,1
ISTD Amount23,1
ISTD Amount24,1
ISTD Amount25,1
ISTD Amount26,1
ISTD Amount27,1
ISTD Amount28,1
ISTD Amount29,1
ISTD Amount30,1
ISTD Amount31,1
ISTD Amount32,1
Sample Amount,1
Dilution Factor,1
Vial#,11
Injection Volume,15

[Original Files]
Data File,C:\Users\cremerlab\Desktop\griffin\2021-02-15_NCM_diauxie_turnover\2021-02-15_NCM_acetate_glucose_diauxie_turnover_2152021_017.lcd
Method File,C:\LabSolutions\Data\Project1\organicacidsetc.lcm
Batch File,C:\Users\cremerlab\Desktop\griffin\2021-02-15_NCM_diauxie_turnover\2021-02-15_NCM_acetate_glucose_diauxie_turnover.lcb
Report Format File,c:\LabSolutions\System\DEFAULT.lsr

[File Description]


[Configuration]
Instrument Name,HPLC-PC-Instrument1
Instrument #,1
Line #,1
# of Detectors,2
Detector ID,Detector A,Detector B
Detector Name,Detector A,Detector B
# of Channels,1,1

[Peak Table(Detector A)]
# of Peaks,0

[Peak Table(Detector B)]
# of Peaks,4
Peak#,R.Time,I.Time,F.Time,Area,Height,A/H,Conc.,Mark,ID#,Name,k',Plate #,Plate Ht.,Tailing,Resolution,Sep.Factor,Area Ratio,Height Ratio,Conc. %,Norm Conc.
1,6.196,5.608,6.983,6090,163,37.366,0.000,   ,,,0.000,657,228.300,1.159,0.000,0.000,0,0,0.000,0.000
2,10.864,10.617,11.400,94151,5985,15.732,0.000,   ,,,0.753,10774,13.923,1.271,6.739,0.000,0,0,0.000,0.000
3,13.332,12.533,14.075,350657,14841,23.627,0.000,   ,,,1.152,6571,22.829,0.748,4.586,1.529,0,0,0.000,0.000
4,24.898,24.292,25.800,33501,1186,28.253,0.000,   ,,,3.018,17933,8.365,1.070,16.503,2.621,0,0,0.000,0.000

[Compound Results(Detector A)]
# of IDs,0

[Compound Results(Detector B)]
# of IDs,0

[LC Chromatogram(Detector B-Ch1)]
Interval(msec),500
# of Points,3601
Start Time(min),0.000
End Time(min),30.000
Intensity Units,mV
Intensity Multiplier,0.001
R.Time (min),Intensity
0.00000,-52
0.00833,-52
0.01667,0
0.02500,2
0.03333,3
0.04167,3
0.05000,2
0.05833,2
0.06667,3
0.07500,4
0.08333,6
0.09167,9
0.10000,12
0.10833,15
0.11667,19
0.12500,23
0.13333,27
0.14167,31
0.15000,35
0.15833,39
0.16667,43
0.17500,47
0.18333,51
0.19167,55
0.20000,59
0.20833,63
0.21667,68
0.22500,72
0.23333,77
0.24167,81
0.25000,85
0.25833,89
0.26667,93
0.27500,97
0.28333,101
0.29167,105
0.30000,109
0.30833,114
0.31667,118
0.32500,122
0.33333,126
0.34167,130
0.35000,134
0.35833,138
0.36667,142
0.37500,146
0.38333,150
0.39167,153
0.40000,157
0.40833,160
0.41667,163
0.42500,167
0.43333,170
0.44167,173
0.45000,176
0.45833,179
0.46667,182
0.47500,185
0.48333,188
0.49167,190
0.50000,193
0.50833,196
0.51667,199
0.52500,201
0.53333,204
0.54167,207
0.55000,209
0.55833,211
0.56667,214
0.57500,216
0.58333,218
0.59167,221
0.60000,223
0.60833,225
0.61667,226
0.62500,227
0.63333,228
0.64167,229
0.65000,229
0.65833,230
0.66667,230
0.67500,230
0.68333,230
0.69167,230
0.70000,231
0.70833,231
0.71667,232
0.72500,232
0.73333,233
0.74167,234
0.75000,235
0.75833,235
0.76667,236
0.77500,237
0.78333,238
0.79167,239
0.80000,240
0.80833,241
0.81667,242
0.82500,243
0.83333,244
0.84167,245
0.85000,246
0.85833,248
0.86667,249
0.87500,251
0.88333,252
0.89167,253
0.90000,254
0.90833,255
0.91667,256
0.92500,257
0.93333,258
0.94167,259
0.95000,261
0.95833,262
0.96667,264
0.97500,265
0.98333,267
0.99167,269
1.00000,270
1.00833,272
1.01667,274
1.02500,275
1.03333,277
1.04167,279
1.05000,280
1.05833,282
1.06667,283
1.07500,285
1.08333,286
1.09167,288
1.10000,289
1.10833,290
1.11667,291
1.12500,293
1.13333,295
1.14167,296
1.15000,298
1.15833,299
1.16667,301
1.17500,302
1.18333,303
1.19167,304
1.20000,305
1.20833,307
1.21667,307
1.22500,308
1.23333,309
1.24167,310
1.25000,311
1.25833,312
1.26667,313
1.27500,314
1.28333,315
1.29167,316
1.30000,317
1.30833,318
1.31667,318
1.32500,319
1.33333,319
1.34167,319
1.35000,319
1.35833,319
1.36667,320
1.37500,320
1.38333,320
1.39167,321
1.40000,321
1.40833,320
1.41667,320
1.42500,320
1.43333,320
1.44167,320
1.45000,320
1.45833,320
1.46667,320
1.47500,320
1.48333,319
1.49167,319
1.50000,319
1.50833,319
1.51667,319
1.52500,319
1.53333,319
1.54167,319
1.55000,319
1.55833,320
1.56667,320
1.57500,320
1.58333,320
1.59167,320
1.60000,320
1.60833,320
1.61667,320
1.62500,321
1.63333,321
1.64167,321
1.65000,321
1.65833,322
1.66667,322
1.67500,323
1.68333,323
1.69167,324
1.70000,325
1.70833,325
1.71667,326
1.72500,326
1.73333,326
1.74167,327
1.75000,328
1.75833,329
1.76667,329
1.77500,330
1.78333,331
1.79167,332
1.80000,332
1.80833,333
1.81667,334
1.82500,334
1.83333,335
1.84167,336
1.85000,337
1.85833,337
1.86667,338
1.87500,339
1.88333,340
1.89167,340
1.90000,341
1.90833,342
1.91667,343
1.92500,344
1.93333,345
1.94167,346
1.95000,346
1.95833,347
1.96667,348
1.97500,349
1.98333,350
1.99167,351
2.00000,352
2.00833,353
2.01667,354
2.02500,355
2.03333,355
2.04167,356
2.05000,357
2.05833,358
2.06667,359
2.07500,361
2.08333,362
2.09167,363
2.10000,364
2.10833,365
2.11667,365
2.12500,366
2.13333,367
2.14167,368
2.15000,369
2.15833,370
2.16667,371
2.17500,371
2.18333,372
2.19167,373
2.20000,374
2.20833,375
2.21667,376
2.22500,376
2.23333,377
2.24167,378
2.25000,379
2.25833,379
2.26667,380
2.27500,380
2.28333,381
2.29167,382
2.30000,382
2.30833,383
2.31667,383
2.32500,384
2.33333,384
2.34167,385
2.35000,386
2.35833,386
2.36667,387
2.37500,387
2.38333,387
2.39167,388
2.40000,389
2.40833,389
2.41667,389
2.42500,390
2.43333,390
2.44167,390
2.45000,391
2.45833,392
2.46667,392
2.47500,393
2.48333,393
2.49167,393
2.50000,393
2.50833,393
2.51667,394
2.52500,394
2.53333,394
2.54167,394
2.55000,394
2.55833,394
2.56667,395
2.57500,395
2.58333,395
2.59167,395
2.60000,395
2.60833,395
2.61667,394
2.62500,394
2.63333,394
2.64167,394
2.65000,394
2.65833,394
2.66667,394
2.67500,394
2.68333,394
2.69167,393
2.70000,393
2.70833,393
2.71667,393
2.72500,393
2.73333,393
2.74167,392
2.75000,391
2.75833,391
2.76667,391
2.77500,391
2.78333,391
2.79167,391
2.80000,391
2.80833,391
2.81667,390
2.82500,390
2.83333,390
2.84167,390
2.85000,389
2.85833,389
2.86667,389
2.87500,388
2.88333,389
2.89167,389
2.90000,390
2.90833,390
2.91667,390
2.92500,390
2.93333,391
2.94167,391
2.95000,391
2.95833,392
2.96667,392
2.97500,392
2.98333,392
2.99167,393
3.00000,394
3.00833,395
3.01667,395
3.02500,396
3.03333,397
3.04167,397
3.05000,398
3.05833,399
3.06667,400
3.07500,401
3.08333,401
3.09167,402
3.10000,403
3.10833,404
3.11667,405
3.12500,406
3.13333,407
3.14167,408
3.15000,409
3.15833,411
3.16667,412
3.17500,413
3.18333,414
3.19167,416
3.20000,417
3.20833,418
3.21667,419
3.22500,421
3.23333,423
3.24167,424
3.25000,425
3.25833,427
3.26667,428
3.27500,429
3.28333,430
3.29167,432
3.30000,433
3.30833,435
3.31667,436
3.32500,437
3.33333,439
3.34167,440
3.35000,441
3.35833,442
3.36667,444
3.37500,445
3.38333,445
3.39167,446
3.40000,447
3.40833,448
3.41667,449
3.42500,450
3.43333,451
3.44167,452
3.45000,453
3.45833,453
3.46667,453
3.47500,454
3.48333,455
3.49167,455
3.50000,456
3.50833,456
3.51667,457
3.52500,457
3.53333,457
3.54167,457
3.55000,457
3.55833,457
3.56667,457
3.57500,457
3.58333,458
3.59167,458
3.60000,458
3.60833,458
3.61667,458
3.62500,458
3.63333,458
3.64167,458
3.65000,458
3.65833,458
3.66667,458
3.67500,458
3.68333,458
3.69167,458
3.70000,458
3.70833,458
3.71667,458
3.72500,457
3.73333,457
3.74167,457
3.75000,456
3.75833,456
3.76667,456
3.77500,456
3.78333,455
3.79167,455
3.80000,454
3.80833,454
3.81667,453
3.82500,452
3.83333,452
3.84167,452
3.85000,452
3.85833,452
3.86667,451
3.87500,451
3.88333,450
3.89167,450
3.90000,449
3.90833,448
3.91667,447
3.92500,446
3.93333,446
3.94167,445
3.95000,445
3.95833,444
3.96667,444
3.97500,443
3.98333,443
3.99167,442
4.00000,442
4.00833,441
4.01667,441
4.02500,441
4.03333,441
4.04167,441
4.05000,441
4.05833,441
4.06667,440
4.07500,440
4.08333,440
4.09167,441
4.10000,441
4.10833,441
4.11667,441
4.12500,441
4.13333,441
4.14167,441
4.15000,441
4.15833,442
4.16667,442
4.17500,443
4.18333,443
4.19167,443
4.20000,444
4.20833,445
4.21667,445
4.22500,446
4.23333,447
4.24167,448
4.25000,448
4.25833,449
4.26667,449
4.27500,450
4.28333,450
4.29167,451
4.30000,451
4.30833,452
4.31667,452
4.32500,453
4.33333,453
4.34167,454
4.35000,454
4.35833,455
4.36667,455
4.37500,455
4.38333,456
4.39167,456
4.40000,457
4.40833,457
4.41667,458
4.42500,458
4.43333,458
4.44167,459
4.45000,460
4.45833,460
4.46667,461
4.47500,461
4.48333,461
4.49167,461
4.50000,462
4.50833,462
4.51667,463
4.52500,463
4.53333,463
4.54167,463
4.55000,463
4.55833,463
4.56667,464
4.57500,464
4.58333,464
4.59167,465
4.60000,465
4.60833,465
4.61667,465
4.62500,464
4.63333,464
4.64167,464
4.65000,464
4.65833,465
4.66667,465
4.67500,464
4.68333,464
4.69167,464
4.70000,464
4.70833,463
4.71667,463
4.72500,463
4.73333,462
4.74167,462
4.75000,463
4.75833,463
4.76667,463
4.77500,462
4.78333,462
4.79167,462
4.80000,462
4.80833,461
4.81667,461
4.82500,461
4.83333,460
4.84167,460
4.85000,459
4.85833,459
4.86667,459
4.87500,459
4.88333,458
4.89167,458
4.90000,458
4.90833,457
4.91667,457
4.92500,457
4.93333,457
4.94167,456
4.95000,456
4.95833,456
4.96667,455
4.97500,455
4.98333,455
4.99167,455
5.00000,455
5.00833,455
5.01667,455
5.02500,455
5.03333,456
5.04167,455
5.05000,455
5.05833,456
5.06667,456
5.07500,456
5.08333,456
5.09167,457
5.10000,457
5.10833,457
5.11667,458
5.12500,458
5.13333,459
5.14167,459
5.15000,459
5.15833,460
5.16667,460
5.17500,460
5.18333,461
5.19167,461
5.20000,462
5.20833,462
5.21667,462
5.22500,463
5.23333,464
5.24167,464
5.25000,465
5.25833,465
5.26667,465
5.27500,466
5.28333,467
5.29167,467
5.30000,468
5.30833,468
5.31667,469
5.32500,469
5.33333,470
5.34167,471
5.35000,471
5.35833,471
5.36667,472
5.37500,472
5.38333,473
5.39167,474
5.40000,475
5.40833,475
5.41667,476
5.42500,476
5.43333,477
5.44167,478
5.45000,478
5.45833,479
5.46667,479
5.47500,480
5.48333,480
5.49167,481
5.50000,482
5.50833,483
5.51667,483
5.52500,484
5.53333,485
5.54167,486
5.55000,487
5.55833,488
5.56667,490
5.57500,491
5.58333,491
5.59167,492
5.60000,493
5.60833,494
5.61667,495
5.62500,496
5.63333,498
5.64167,499
5.65000,501
5.65833,503
5.66667,505
5.67500,506
5.68333,508
5.69167,510
5.70000,512
5.70833,514
5.71667,516
5.72500,519
5.73333,521
5.74167,524
5.75000,526
5.75833,529
5.76667,531
5.77500,534
5.78333,537
5.79167,539
5.80000,542
5.80833,545
5.81667,548
5.82500,551
5.83333,553
5.84167,556
5.85000,560
5.85833,563
5.86667,566
5.87500,569
5.88333,573
5.89167,577
5.90000,580
5.90833,583
5.91667,586
5.92500,590
5.93333,594
5.94167,597
5.95000,601
5.95833,605
5.96667,609
5.97500,612
5.98333,616
5.99167,620
6.00000,623
6.00833,627
6.01667,630
6.02500,633
6.03333,636
6.04167,639
6.05000,642
6.05833,644
6.06667,647
6.07500,650
6.08333,652
6.09167,654
6.10000,656
6.10833,658
6.11667,659
6.12500,660
6.13333,662
6.14167,662
6.15000,663
6.15833,664
6.16667,665
6.17500,666
6.18333,666
6.19167,666
6.20000,666
6.20833,666
6.21667,665
6.22500,665
6.23333,664
6.24167,662
6.25000,661
6.25833,660
6.26667,658
6.27500,656
6.28333,655
6.29167,653
6.30000,651
6.30833,648
6.31667,645
6.32500,643
6.33333,640
6.34167,637
6.35000,634
6.35833,631
6.36667,629
6.37500,626
6.38333,623
6.39167,619
6.40000,616
6.40833,613
6.41667,610
6.42500,607
6.43333,604
6.44167,601
6.45000,598
6.45833,595
6.46667,592
6.47500,589
6.48333,586
6.49167,583
6.50000,581
6.50833,578
6.51667,576
6.52500,573
6.53333,571
6.54167,569
6.55000,566
6.55833,564
6.56667,562
6.57500,561
6.58333,559
6.59167,558
6.60000,556
6.60833,554
6.61667,553
6.62500,551
6.63333,550
6.64167,548
6.65000,547
6.65833,546
6.66667,545
6.67500,543
6.68333,542
6.69167,541
6.70000,540
6.70833,539
6.71667,538
6.72500,538
6.73333,537
6.74167,536
6.75000,535
6.75833,534
6.76667,533
6.77500,533
6.78333,532
6.79167,531
6.80000,530
6.80833,530
6.81667,529
6.82500,528
6.83333,528
6.84167,528
6.85000,527
6.85833,527
6.86667,526
6.87500,525
6.88333,525
6.89167,524
6.90000,522
6.90833,521
6.91667,521
6.92500,520
6.93333,519
6.94167,518
6.95000,517
6.95833,516
6.96667,515
6.97500,515
6.98333,515
6.99167,515
7.00000,515
7.00833,514
7.01667,514
7.02500,513
7.03333,513
7.04167,512
7.05000,512
7.05833,511
7.06667,511
7.07500,511
7.08333,510
7.09167,509
7.10000,509
7.10833,508
7.11667,507
7.12500,506
7.13333,506
7.14167,505
7.15000,505
7.15833,504
7.16667,504
7.17500,503
7.18333,503
7.19167,503
7.20000,502
7.20833,502
7.21667,502
7.22500,502
7.23333,502
7.24167,502
7.25000,501
7.25833,501
7.26667,501
7.27500,501
7.28333,500
7.29167,500
7.30000,500
7.30833,500
7.31667,500
7.32500,500
7.33333,500
7.34167,500
7.35000,500
7.35833,500
7.36667,500
7.37500,500
7.38333,500
7.39167,499
7.40000,499
7.40833,499
7.41667,499
7.42500,498
7.43333,498
7.44167,497
7.45000,497
7.45833,496
7.46667,496
7.47500,496
7.48333,495
7.49167,495
7.50000,495
7.50833,495
7.51667,495
7.52500,495
7.53333,494
7.54167,494
7.55000,494
7.55833,493
7.56667,493
7.57500,492
7.58333,492
7.59167,491
7.60000,491
7.60833,490
7.61667,490
7.62500,490
7.63333,489
7.64167,489
7.65000,488
7.65833,488
7.66667,488
7.67500,487
7.68333,486
7.69167,486
7.70000,485
7.70833,485
7.71667,485
7.72500,484
7.73333,484
7.74167,483
7.75000,483
7.75833,483
7.76667,482
7.77500,482
7.78333,482
7.79167,481
7.80000,481
7.80833,480
7.81667,479
7.82500,479
7.83333,479
7.84167,478
7.85000,478
7.85833,477
7.86667,476
7.87500,475
7.88333,475
7.89167,474
7.90000,474
7.90833,474
7.91667,474
7.92500,474
7.93333,474
7.94167,473
7.95000,473
7.95833,472
7.96667,472
7.97500,472
7.98333,472
7.99167,471
8.00000,471
8.00833,471
8.01667,470
8.02500,470
8.03333,469
8.04167,469
8.05000,468
8.05833,468
8.06667,468
8.07500,468
8.08333,468
8.09167,467
8.10000,467
8.10833,467
8.11667,466
8.12500,466
8.13333,466
8.14167,465
8.15000,465
8.15833,465
8.16667,465
8.17500,465
8.18333,465
8.19167,465
8.20000,465
8.20833,465
8.21667,465
8.22500,465
8.23333,464
8.24167,464
8.25000,465
8.25833,465
8.26667,465
8.27500,465
8.28333,465
8.29167,465
8.30000,465
8.30833,465
8.31667,465
8.32500,465
8.33333,465
8.34167,465
8.35000,465
8.35833,465
8.36667,465
8.37500,465
8.38333,465
8.39167,465
8.40000,466
8.40833,466
8.41667,467
8.42500,468
8.43333,468
8.44167,469
8.45000,470
8.45833,470
8.46667,470
8.47500,470
8.48333,470
8.49167,470
8.50000,470
8.50833,471
8.51667,471
8.52500,471
8.53333,472
8.54167,473
8.55000,473
8.55833,474
8.56667,474
8.57500,473
8.58333,473
8.59167,474
8.60000,474
8.60833,474
8.61667,474
8.62500,474
8.63333,475
8.64167,475
8.65000,474
8.65833,474
8.66667,474
8.67500,474
8.68333,474
8.69167,474
8.70000,474
8.70833,474
8.71667,474
8.72500,474
8.73333,474
8.74167,474
8.75000,474
8.75833,474
8.76667,474
8.77500,474
8.78333,475
8.79167,475
8.80000,475
8.80833,476
8.81667,476
8.82500,476
8.83333,476
8.84167,476
8.85000,476
8.85833,477
8.86667,477
8.87500,477
8.88333,478
8.89167,478
8.90000,478
8.90833,478
8.91667,478
8.92500,479
8.93333,479
8.94167,480
8.95000,480
8.95833,481
8.96667,481
8.97500,482
8.98333,482
8.99167,482
9.00000,483
9.00833,483
9.01667,483
9.02500,484
9.03333,484
9.04167,485
9.05000,485
9.05833,485
9.06667,486
9.07500,486
9.08333,487
9.09167,487
9.10000,487
9.10833,487
9.11667,487
9.12500,487
9.13333,487
9.14167,487
9.15000,487
9.15833,487
9.16667,487
9.17500,487
9.18333,487
9.19167,487
9.20000,487
9.20833,487
9.21667,487
9.22500,487
9.23333,487
9.24167,487
9.25000,487
9.25833,487
9.26667,487
9.27500,487
9.28333,487
9.29167,487
9.30000,487
9.30833,487
9.31667,487
9.32500,487
9.33333,488
9.34167,488
9.35000,488
9.35833,488
9.36667,487
9.37500,487
9.38333,487
9.39167,486
9.40000,486
9.40833,486
9.41667,486
9.42500,486
9.43333,486
9.44167,486
9.45000,485
9.45833,485
9.46667,485
9.47500,485
9.48333,484
9.49167,484
9.50000,483
9.50833,482
9.51667,482
9.52500,481
9.53333,481
9.54167,480
9.55000,480
9.55833,479
9.56667,478
9.57500,478
9.58333,477
9.59167,477
9.60000,477
9.60833,476
9.61667,475
9.62500,474
9.63333,474
9.64167,473
9.65000,472
9.65833,472
9.66667,471
9.67500,471
9.68333,470
9.69167,470
9.70000,469
9.70833,469
9.71667,469
9.72500,468
9.73333,468
9.74167,467
9.75000,467
9.75833,467
9.76667,466
9.77500,466
9.78333,466
9.79167,465
9.80000,465
9.80833,465
9.81667,465
9.82500,465
9.83333,465
9.84167,466
9.85000,466
9.85833,466
9.86667,467
9.87500,467
9.88333,468
9.89167,468
9.90000,468
9.90833,468
9.91667,469
9.92500,469
9.93333,470
9.94167,470
9.95000,471
9.95833,472
9.96667,473
9.97500,473
9.98333,474
9.99167,475
10.00000,476
10.00833,477
10.01667,477
10.02500,478
10.03333,479
10.04167,479
10.05000,480
10.05833,480
10.06667,481
10.07500,482
10.08333,483
10.09167,483
10.10000,484
10.10833,485
10.11667,486
10.12500,486
10.13333,487
10.14167,488
10.15000,489
10.15833,489
10.16667,490
10.17500,490
10.18333,490
10.19167,491
10.20000,491
10.20833,491
10.21667,491
10.22500,491
10.23333,492
10.24167,493
10.25000,493
10.25833,493
10.26667,492
10.27500,493
10.28333,493
10.29167,493
10.30000,493
10.30833,494
10.31667,494
10.32500,493
10.33333,493
10.34167,492
10.35000,492
10.35833,491
10.36667,491
10.37500,490
10.38333,488
10.39167,487
10.40000,486
10.40833,484
10.41667,482
10.42500,480
10.43333,477
10.44167,473
10.45000,469
10.45833,463
10.46667,455
10.47500,446
10.48333,434
10.49167,420
10.50000,403
10.50833,384
10.51667,361
10.52500,335
10.53333,306
10.54167,275
10.55000,241
10.55833,206
10.56667,171
10.57500,137
10.58333,106
10.59167,81
10.60000,62
10.60833,54
10.61667,58
10.62500,77
10.63333,114
10.64167,171
10.65000,251
10.65833,355
10.66667,485
10.67500,641
10.68333,825
10.69167,1036
10.70000,1273
10.70833,1534
10.71667,1818
10.72500,2122
10.73333,2442
10.74167,2774
10.75000,3115
10.75833,3459
10.76667,3802
10.77500,4138
10.78333,4463
10.79167,4772
10.80000,5059
10.80833,5320
10.81667,5552
10.82500,5750
10.83333,5913
10.84167,6037
10.85000,6123
10.85833,6169
10.86667,6176
10.87500,6146
10.88333,6079
10.89167,5977
10.90000,5845
10.90833,5684
10.91667,5499
10.92500,5294
10.93333,5071
10.94167,4835
10.95000,4589
10.95833,4338
10.96667,4084
10.97500,3831
10.98333,3581
10.99167,3337
11.00000,3100
11.00833,2873
11.01667,2656
11.02500,2451
11.03333,2258
11.04167,2078
11.05000,1911
11.05833,1757
11.06667,1616
11.07500,1486
11.08333,1369
11.09167,1263
11.10000,1167
11.10833,1082
11.11667,1007
11.12500,939
11.13333,879
11.14167,827
11.15000,781
11.15833,740
11.16667,704
11.17500,673
11.18333,646
11.19167,623
11.20000,604
11.20833,586
11.21667,571
11.22500,558
11.23333,547
11.24167,538
11.25000,529
11.25833,522
11.26667,516
11.27500,511
11.28333,507
11.29167,503
11.30000,499
11.30833,497
11.31667,495
11.32500,492
11.33333,490
11.34167,488
11.35000,486
11.35833,485
11.36667,484
11.37500,483
11.38333,483
11.39167,483
11.40000,482
11.40833,482
11.41667,482
11.42500,481
11.43333,481
11.44167,481
11.45000,480
11.45833,480
11.46667,480
11.47500,480
11.48333,481
11.49167,481
11.50000,481
11.50833,481
11.51667,481
11.52500,481
11.53333,481
11.54167,481
11.55000,481
11.55833,481
11.56667,481
11.57500,481
11.58333,481
11.59167,480
11.60000,480
11.60833,480
11.61667,480
11.62500,480
11.63333,479
11.64167,479
11.65000,478
11.65833,477
11.66667,476
11.67500,476
11.68333,475
11.69167,474
11.70000,473
11.70833,472
11.71667,472
11.72500,471
11.73333,471
11.74167,470
11.75000,469
11.75833,468
11.76667,467
11.77500,465
11.78333,464
11.79167,463
11.80000,462
11.80833,461
11.81667,459
11.82500,458
11.83333,457
11.84167,456
11.85000,456
11.85833,455
11.86667,455
11.87500,454
11.88333,454
11.89167,453
11.90000,453
11.90833,454
11.91667,454
11.92500,454
11.93333,454
11.94167,454
11.95000,454
11.95833,454
11.96667,455
11.97500,455
11.98333,455
11.99167,456
12.00000,456
12.00833,457
12.01667,458
12.02500,458
12.03333,459
12.04167,459
12.05000,460
12.05833,460
12.06667,461
12.07500,462
12.08333,463
12.09167,464
12.10000,465
12.10833,466
12.11667,466
12.12500,467
12.13333,468
12.14167,469
12.15000,469
12.15833,470
12.16667,471
12.17500,472
12.18333,473
12.19167,473
12.20000,474
12.20833,474
12.21667,475
12.22500,475
12.23333,476
12.24167,476
12.25000,477
12.25833,477
12.26667,478
12.27500,478
12.28333,479
12.29167,479
12.30000,479
12.30833,480
12.31667,480
12.32500,481
12.33333,481
12.34167,481
12.35000,481
12.35833,481
12.36667,482
12.37500,482
12.38333,482
12.39167,483
12.40000,483
12.40833,483
12.41667,483
12.42500,484
12.43333,484
12.44167,485
12.45000,485
12.45833,486
12.46667,486
12.47500,487
12.48333,488
12.49167,488
12.50000,489
12.50833,489
12.51667,489
12.52500,490
12.53333,490
12.54167,491
12.55000,492
12.55833,494
12.56667,495
12.57500,497
12.58333,499
12.59167,502
12.60000,505
12.60833,509
12.61667,513
12.62500,519
12.63333,525
12.64167,533
12.65000,542
12.65833,553
12.66667,566
12.67500,581
12.68333,599
12.69167,620
12.70000,645
12.70833,674
12.71667,707
12.72500,744
12.73333,787
12.74167,835
12.75000,889
12.75833,950
12.76667,1016
12.77500,1090
12.78333,1169
12.79167,1255
12.80000,1349
12.80833,1449
12.81667,1557
12.82500,1672
12.83333,1794
12.84167,1923
12.85000,2059
12.85833,2201
12.86667,2349
12.87500,2504
12.88333,2666
12.89167,2833
12.90000,3006
12.90833,3185
12.91667,3368
12.92500,3557
12.93333,3751
12.94167,3950
12.95000,4153
12.95833,4361
12.96667,4572
12.97500,4787
12.98333,5007
12.99167,5229
13.00000,5456
13.00833,5685
13.01667,5918
13.02500,6154
13.03333,6393
13.04167,6634
13.05000,6879
13.05833,7126
13.06667,7376
13.07500,7628
13.08333,7883
13.09167,8140
13.10000,8399
13.10833,8661
13.11667,8924
13.12500,9190
13.13333,9457
13.14167,9727
13.15000,9998
13.15833,10271
13.16667,10545
13.17500,10822
13.18333,11100
13.19167,11379
13.20000,11660
13.20833,11942
13.21667,12225
13.22500,12508
13.23333,12791
13.24167,13075
13.25000,13357
13.25833,13636
13.26667,13912
13.27500,14181
13.28333,14440
13.29167,14683
13.30000,14903
13.30833,15092
13.31667,15239
13.32500,15334
13.33333,15365
13.34167,15319
13.35000,15187
13.35833,14961
13.36667,14637
13.37500,14214
13.38333,13697
13.39167,13096
13.40000,12421
13.40833,11690
13.41667,10919
13.42500,10125
13.43333,9325
13.44167,8536
13.45000,7771
13.45833,7041
13.46667,6354
13.47500,5715
13.48333,5128
13.49167,4593
13.50000,4110
13.50833,3678
13.51667,3293
13.52500,2953
13.53333,2653
13.54167,2391
13.55000,2161
13.55833,1962
13.56667,1788
13.57500,1637
13.58333,1506
13.59167,1392
13.60000,1294
13.60833,1208
13.61667,1133
13.62500,1068
13.63333,1012
13.64167,964
13.65000,921
13.65833,884
13.66667,852
13.67500,823
13.68333,798
13.69167,776
13.70000,756
13.70833,738
13.71667,721
13.72500,707
13.73333,694
13.74167,682
13.75000,671
13.75833,662
13.76667,653
13.77500,645
13.78333,638
13.79167,631
13.80000,625
13.80833,619
13.81667,614
13.82500,609
13.83333,605
13.84167,600
13.85000,597
13.85833,593
13.86667,590
13.87500,587
13.88333,584
13.89167,581
13.90000,579
13.90833,576
13.91667,573
13.92500,571
13.93333,569
13.94167,568
13.95000,566
13.95833,564
13.96667,563
13.97500,562
13.98333,561
13.99167,559
14.00000,559
14.00833,558
14.01667,557
14.02500,557
14.03333,556
14.04167,555
14.05000,555
14.05833,554
14.06667,554
14.07500,554
14.08333,554
14.09167,553
14.10000,553
14.10833,553
14.11667,552
14.12500,552
14.13333,552
14.14167,552
14.15000,551
14.15833,551
14.16667,551
14.17500,551
14.18333,551
14.19167,551
14.20000,551
14.20833,550
14.21667,550
14.22500,550
14.23333,549
14.24167,549
14.25000,549
14.25833,549
14.26667,549
14.27500,549
14.28333,549
14.29167,548
14.30000,548
14.30833,548
14.31667,547
14.32500,547
14.33333,547
14.34167,547
14.35000,546
14.35833,546
14.36667,545
14.37500,545
14.38333,544
14.39167,543
14.40000,543
14.40833,542
14.41667,541
14.42500,540
14.43333,539
14.44167,539
14.45000,538
14.45833,537
14.46667,536
14.47500,535
14.48333,534
14.49167,534
14.50000,533
14.50833,532
14.51667,531
14.52500,530
14.53333,529
14.54167,529
14.55000,528
14.55833,528
14.56667,527
14.57500,527
14.58333,526
14.59167,526
14.60000,525
14.60833,525
14.61667,524
14.62500,524
14.63333,524
14.64167,523
14.65000,523
14.65833,522
14.66667,521
14.67500,521
14.68333,520
14.69167,520
14.70000,520
14.70833,519
14.71667,519
14.72500,519
14.73333,518
14.74167,517
14.75000,517
14.75833,517
14.76667,517
14.77500,517
14.78333,517
14.79167,516
14.80000,516
14.80833,516
14.81667,516
14.82500,516
14.83333,516
14.84167,516
14.85000,516
14.85833,516
14.86667,517
14.87500,517
14.88333,517
14.89167,517
14.90000,518
14.90833,518
14.91667,518
14.92500,518
14.93333,519
14.94167,519
14.95000,520
14.95833,520
14.96667,521
14.97500,522
14.98333,522
14.99167,522
15.00000,522
15.00833,523
15.01667,523
15.02500,523
15.03333,523
15.04167,523
15.05000,524
15.05833,524
15.06667,525
15.07500,525
15.08333,525
15.09167,525
15.10000,525
15.10833,525
15.11667,525
15.12500,525
15.13333,525
15.14167,525
15.15000,525
15.15833,524
15.16667,524
15.17500,523
15.18333,523
15.19167,523
15.20000,522
15.20833,522
15.21667,521
15.22500,521
15.23333,520
15.24167,520
15.25000,519
15.25833,519
15.26667,518
15.27500,518
15.28333,518
15.29167,517
15.30000,517
15.30833,516
15.31667,516
15.32500,515
15.33333,515
15.34167,515
15.35000,514
15.35833,513
15.36667,513
15.37500,512
15.38333,512
15.39167,511
15.40000,510
15.40833,510
15.41667,509
15.42500,508
15.43333,508
15.44167,508
15.45000,508
15.45833,508
15.46667,507
15.47500,507
15.48333,506
15.49167,506
15.50000,506
15.50833,506
15.51667,506
15.52500,506
15.53333,506
15.54167,505
15.55000,505
15.55833,505
15.56667,504
15.57500,504
15.58333,505
15.59167,505
15.60000,505
15.60833,506
15.61667,506
15.62500,506
15.63333,506
15.64167,506
15.65000,507
15.65833,507
15.66667,506
15.67500,506
15.68333,506
15.69167,506
15.70000,506
15.70833,506
15.71667,506
15.72500,506
15.73333,507
15.74167,507
15.75000,507
15.75833,508
15.76667,508
15.77500,509
15.78333,509
15.79167,509
15.80000,510
15.80833,510
15.81667,510
15.82500,510
15.83333,510
15.84167,510
15.85000,510
15.85833,511
15.86667,510
15.87500,510
15.88333,510
15.89167,510
15.90000,511
15.90833,511
15.91667,511
15.92500,511
15.93333,511
15.94167,510
15.95000,510
15.95833,510
15.96667,510
15.97500,510
15.98333,510
15.99167,510
16.00000,509
16.00833,509
16.01667,508
16.02500,508
16.03333,507
16.04167,507
16.05000,507
16.05833,506
16.06667,506
16.07500,506
16.08333,505
16.09167,505
16.10000,505
16.10833,504
16.11667,504
16.12500,503
16.13333,502
16.14167,502
16.15000,501
16.15833,500
16.16667,499
16.17500,499
16.18333,498
16.19167,497
16.20000,496
16.20833,496
16.21667,495
16.22500,494
16.23333,494
16.24167,493
16.25000,493
16.25833,492
16.26667,492
16.27500,491
16.28333,491
16.29167,491
16.30000,492
16.30833,492
16.31667,491
16.32500,491
16.33333,491
16.34167,491
16.35000,490
16.35833,490
16.36667,490
16.37500,490
16.38333,490
16.39167,490
16.40000,490
16.40833,490
16.41667,490
16.42500,490
16.43333,490
16.44167,490
16.45000,491
16.45833,492
16.46667,492
16.47500,493
16.48333,493
16.49167,494
16.50000,494
16.50833,495
16.51667,496
16.52500,496
16.53333,497
16.54167,497
16.55000,498
16.55833,499
16.56667,499
16.57500,500
16.58333,500
16.59167,501
16.60000,501
16.60833,502
16.61667,502
16.62500,503
16.63333,503
16.64167,504
16.65000,505
16.65833,506
16.66667,506
16.67500,507
16.68333,508
16.69167,508
16.70000,508
16.70833,509
16.71667,509
16.72500,509
16.73333,509
16.74167,509
16.75000,509
16.75833,509
16.76667,509
16.77500,509
16.78333,509
16.79167,509
16.80000,510
16.80833,510
16.81667,510
16.82500,510
16.83333,510
16.84167,510
16.85000,509
16.85833,509
16.86667,508
16.87500,508
16.88333,508
16.89167,507
16.90000,506
16.90833,506
16.91667,505
16.92500,505
16.93333,504
16.94167,504
16.95000,503
16.95833,503
16.96667,502
16.97500,502
16.98333,501
16.99167,500
17.00000,500
17.00833,499
17.01667,498
17.02500,498
17.03333,497
17.04167,496
17.05000,496
17.05833,496
17.06667,495
17.07500,494
17.08333,494
17.09167,493
17.10000,492
17.10833,492
17.11667,491
17.12500,491
17.13333,491
17.14167,491
17.15000,491
17.15833,491
17.16667,490
17.17500,490
17.18333,490
17.19167,490
17.20000,490
17.20833,490
17.21667,490
17.22500,490
17.23333,489
17.24167,489
17.25000,489
17.25833,489
17.26667,489
17.27500,490
17.28333,490
17.29167,490
17.30000,491
17.30833,491
17.31667,491
17.32500,491
17.33333,492
17.34167,492
17.35000,493
17.35833,493
17.36667,494
17.37500,494
17.38333,495
17.39167,495
17.40000,496
17.40833,496
17.41667,497
17.42500,497
17.43333,498
17.44167,498
17.45000,498
17.45833,498
17.46667,499
17.47500,499
17.48333,500
17.49167,500
17.50000,501
17.50833,502
17.51667,502
17.52500,503
17.53333,504
17.54167,504
17.55000,504
17.55833,505
17.56667,505
17.57500,505
17.58333,506
17.59167,506
17.60000,507
17.60833,507
17.61667,507
17.62500,507
17.63333,507
17.64167,508
17.65000,508
17.65833,508
17.66667,508
17.67500,508
17.68333,507
17.69167,507
17.70000,507
17.70833,508
17.71667,507
17.72500,507
17.73333,507
17.74167,507
17.75000,508
17.75833,508
17.76667,508
17.77500,508
17.78333,508
17.79167,508
17.80000,508
17.80833,508
17.81667,508
17.82500,508
17.83333,508
17.84167,507
17.85000,507
17.85833,507
17.86667,507
17.87500,506
17.88333,506
17.89167,506
17.90000,506
17.90833,506
17.91667,506
17.92500,506
17.93333,506
17.94167,506
17.95000,506
17.95833,506
17.96667,506
17.97500,506
17.98333,505
17.99167,505
18.00000,505
18.00833,505
18.01667,505
18.02500,505
18.03333,506
18.04167,505
18.05000,505
18.05833,506
18.06667,506
18.07500,506
18.08333,505
18.09167,505
18.10000,505
18.10833,505
18.11667,505
18.12500,506
18.13333,506
18.14167,506
18.15000,505
18.15833,505
18.16667,505
18.17500,505
18.18333,505
18.19167,505
18.20000,506
18.20833,506
18.21667,505
18.22500,505
18.23333,505
18.24167,505
18.25000,505
18.25833,504
18.26667,504
18.27500,504
18.28333,504
18.29167,504
18.30000,503
18.30833,503
18.31667,503
18.32500,503
18.33333,503
18.34167,503
18.35000,502
18.35833,502
18.36667,502
18.37500,502
18.38333,502
18.39167,502
18.40000,501
18.40833,500
18.41667,500
18.42500,499
18.43333,499
18.44167,498
18.45000,498
18.45833,498
18.46667,497
18.47500,497
18.48333,496
18.49167,495
18.50000,495
18.50833,494
18.51667,494
18.52500,493
18.53333,493
18.54167,493
18.55000,493
18.55833,493
18.56667,492
18.57500,492
18.58333,492
18.59167,491
18.60000,491
18.60833,491
18.61667,491
18.62500,491
18.63333,491
18.64167,491
18.65000,491
18.65833,491
18.66667,491
18.67500,491
18.68333,492
18.69167,492
18.70000,493
18.70833,493
18.71667,493
18.72500,493
18.73333,493
18.74167,494
18.75000,494
18.75833,494
18.76667,495
18.77500,495
18.78333,495
18.79167,495
18.80000,495
18.80833,496
18.81667,496
18.82500,496
18.83333,496
18.84167,495
18.85000,495
18.85833,496
18.86667,496
18.87500,495
18.88333,495
18.89167,495
18.90000,495
18.90833,495
18.91667,495
18.92500,494
18.93333,494
18.94167,493
18.95000,493
18.95833,493
18.96667,493
18.97500,493
18.98333,492
18.99167,492
19.00000,491
19.00833,491
19.01667,490
19.02500,490
19.03333,489
19.04167,489
19.05000,488
19.05833,488
19.06667,487
19.07500,487
19.08333,487
19.09167,487
19.10000,487
19.10833,487
19.11667,487
19.12500,487
19.13333,487
19.14167,487
19.15000,487
19.15833,487
19.16667,487
19.17500,487
19.18333,487
19.19167,487
19.20000,487
19.20833,487
19.21667,487
19.22500,487
19.23333,487
19.24167,487
19.25000,487
19.25833,487
19.26667,487
19.27500,487
19.28333,488
19.29167,488
19.30000,489
19.30833,490
19.31667,490
19.32500,490
19.33333,491
19.34167,491
19.35000,491
19.35833,492
19.36667,492
19.37500,492
19.38333,493
19.39167,494
19.40000,495
19.40833,495
19.41667,495
19.42500,494
19.43333,494
19.44167,494
19.45000,495
19.45833,495
19.46667,495
19.47500,496
19.48333,496
19.49167,496
19.50000,496
19.50833,496
19.51667,496
19.52500,496
19.53333,496
19.54167,496
19.55000,496
19.55833,496
19.56667,497
19.57500,497
19.58333,497
19.59167,497
19.60000,497
19.60833,498
19.61667,498
19.62500,498
19.63333,498
19.64167,498
19.65000,499
19.65833,499
19.66667,499
19.67500,500
19.68333,500
19.69167,500
19.70000,500
19.70833,499
19.71667,500
19.72500,500
19.73333,500
19.74167,500
19.75000,500
19.75833,500
19.76667,500
19.77500,500
19.78333,500
19.79167,500
19.80000,500
19.80833,500
19.81667,500
19.82500,501
19.83333,501
19.84167,501
19.85000,501
19.85833,501
19.86667,501
19.87500,501
19.88333,501
19.89167,501
19.90000,501
19.90833,501
19.91667,501
19.92500,501
19.93333,501
19.94167,501
19.95000,501
19.95833,501
19.96667,501
19.97500,501
19.98333,501
19.99167,501
20.00000,501
20.00833,501
20.01667,501
20.02500,501
20.03333,501
20.04167,501
20.05000,501
20.05833,501
20.06667,501
20.07500,501
20.08333,501
20.09167,501
20.10000,501
20.10833,501
20.11667,501
20.12500,501
20.13333,501
20.14167,501
20.15000,501
20.15833,501
20.16667,501
20.17500,501
20.18333,501
20.19167,501
20.20000,501
20.20833,501
20.21667,501
20.22500,500
20.23333,500
20.24167,500
20.25000,500
20.25833,500
20.26667,499
20.27500,499
20.28333,499
20.29167,499
20.30000,499
20.30833,498
20.31667,498
20.32500,498
20.33333,498
20.34167,497
20.35000,497
20.35833,497
20.36667,497
20.37500,497
20.38333,497
20.39167,497
20.40000,497
20.40833,497
20.41667,497
20.42500,497
20.43333,497
20.44167,496
20.45000,496
20.45833,496
20.46667,495
20.47500,495
20.48333,495
20.49167,495
20.50000,495
20.50833,494
20.51667,494
20.52500,494
20.53333,494
20.54167,494
20.55000,494
20.55833,494
20.56667,494
20.57500,493
20.58333,493
20.59167,493
20.60000,493
20.60833,493
20.61667,493
20.62500,493
20.63333,493
20.64167,493
20.65000,493
20.65833,493
20.66667,492
20.67500,492
20.68333,493
20.69167,493
20.70000,493
20.70833,493
20.71667,493
20.72500,494
20.73333,494
20.74167,494
20.75000,494
20.75833,494
20.76667,494
20.77500,494
20.78333,493
20.79167,493
20.80000,493
20.80833,493
20.81667,493
20.82500,492
20.83333,492
20.84167,491
20.85000,491
20.85833,490
20.86667,490
20.87500,490
20.88333,489
20.89167,489
20.90000,488
20.90833,488
20.91667,488
20.92500,487
20.93333,486
20.94167,485
20.95000,485
20.95833,484
20.96667,484
20.97500,483
20.98333,483
20.99167,482
21.00000,481
21.00833,481
21.01667,480
21.02500,479
21.03333,479
21.04167,478
21.05000,477
21.05833,477
21.06667,476
21.07500,476
21.08333,475
21.09167,475
21.10000,475
21.10833,475
21.11667,475
21.12500,474
21.13333,474
21.14167,474
21.15000,474
21.15833,473
21.16667,473
21.17500,473
21.18333,473
21.19167,473
21.20000,473
21.20833,473
21.21667,474
21.22500,474
21.23333,474
21.24167,475
21.25000,475
21.25833,476
21.26667,476
21.27500,477
21.28333,477
21.29167,477
21.30000,478
21.30833,478
21.31667,479
21.32500,480
21.33333,480
21.34167,481
21.35000,481
21.35833,481
21.36667,482
21.37500,483
21.38333,483
21.39167,484
21.40000,484
21.40833,485
21.41667,486
21.42500,486
21.43333,487
21.44167,488
21.45000,489
21.45833,489
21.46667,490
21.47500,490
21.48333,491
21.49167,492
21.50000,493
21.50833,494
21.51667,495
21.52500,496
21.53333,497
21.54167,498
21.55000,498
21.55833,499
21.56667,499
21.57500,499
21.58333,500
21.59167,500
21.60000,501
21.60833,501
21.61667,502
21.62500,502
21.63333,503
21.64167,503
21.65000,503
21.65833,503
21.66667,503
21.67500,504
21.68333,504
21.69167,504
21.70000,504
21.70833,504
21.71667,504
21.72500,504
21.73333,504
21.74167,504
21.75000,504
21.75833,504
21.76667,504
21.77500,504
21.78333,504
21.79167,504
21.80000,503
21.80833,503
21.81667,503
21.82500,503
21.83333,502
21.84167,502
21.85000,502
21.85833,502
21.86667,502
21.87500,501
21.88333,501
21.89167,501
21.90000,501
21.90833,501
21.91667,501
21.92500,500
21.93333,499
21.94167,499
21.95000,499
21.95833,498
21.96667,498
21.97500,498
21.98333,498
21.99167,498
22.00000,497
22.00833,497
22.01667,497
22.02500,496
22.03333,496
22.04167,496
22.05000,496
22.05833,495
22.06667,495
22.07500,495
22.08333,495
22.09167,495
22.10000,494
22.10833,494
22.11667,494
22.12500,494
22.13333,494
22.14167,494
22.15000,494
22.15833,494
22.16667,494
22.17500,494
22.18333,494
22.19167,495
22.20000,495
22.20833,495
22.21667,495
22.22500,495
22.23333,495
22.24167,495
22.25000,495
22.25833,494
22.26667,494
22.27500,494
22.28333,494
22.29167,493
22.30000,494
22.30833,494
22.31667,494
22.32500,494
22.33333,495
22.34167,495
22.35000,495
22.35833,495
22.36667,496
22.37500,496
22.38333,496
22.39167,496
22.40000,496
22.40833,496
22.41667,496
22.42500,496
22.43333,497
22.44167,497
22.45000,497
22.45833,497
22.46667,497
22.47500,497
22.48333,497
22.49167,497
22.50000,497
22.50833,497
22.51667,497
22.52500,497
22.53333,497
22.54167,497
22.55000,498
22.55833,498
22.56667,498
22.57500,498
22.58333,498
22.59167,498
22.60000,498
22.60833,498
22.61667,498
22.62500,498
22.63333,498
22.64167,498
22.65000,498
22.65833,498
22.66667,498
22.67500,497
22.68333,497
22.69167,497
22.70000,498
22.70833,497
22.71667,497
22.72500,497
22.73333,497
22.74167,497
22.75000,496
22.75833,496
22.76667,496
22.77500,496
22.78333,495
22.79167,495
22.80000,494
22.80833,494
22.81667,494
22.82500,494
22.83333,493
22.84167,492
22.85000,492
22.85833,491
22.86667,490
22.87500,490
22.88333,489
22.89167,489
22.90000,489
22.90833,489
22.91667,489
22.92500,489
22.93333,488
22.94167,487
22.95000,487
22.95833,487
22.96667,486
22.97500,486
22.98333,486
22.99167,486
23.00000,486
23.00833,486
23.01667,486
23.02500,486
23.03333,486
23.04167,486
23.05000,486
23.05833,486
23.06667,486
23.07500,486
23.08333,486
23.09167,485
23.10000,485
23.10833,485
23.11667,485
23.12500,485
23.13333,485
23.14167,485
23.15000,485
23.15833,485
23.16667,485
23.17500,485
23.18333,485
23.19167,485
23.20000,485
23.20833,486
23.21667,486
23.22500,486
23.23333,486
23.24167,486
23.25000,486
23.25833,486
23.26667,486
23.27500,486
23.28333,487
23.29167,487
23.30000,487
23.30833,487
23.31667,487
23.32500,487
23.33333,487
23.34167,487
23.35000,487
23.35833,487
23.36667,488
23.37500,488
23.38333,488
23.39167,488
23.40000,488
23.40833,488
23.41667,488
23.42500,488
23.43333,488
23.44167,488
23.45000,488
23.45833,488
23.46667,489
23.47500,489
23.48333,490
23.49167,490
23.50000,490
23.50833,490
23.51667,490
23.52500,490
23.53333,491
23.54167,491
23.55000,491
23.55833,491
23.56667,492
23.57500,491
23.58333,492
23.59167,492
23.60000,492
23.60833,492
23.61667,492
23.62500,492
23.63333,493
23.64167,493
23.65000,494
23.65833,494
23.66667,494
23.67500,495
23.68333,495
23.69167,495
23.70000,495
23.70833,496
23.71667,496
23.72500,496
23.73333,496
23.74167,497
23.75000,497
23.75833,497
23.76667,497
23.77500,498
23.78333,498
23.79167,498
23.80000,498
23.80833,498
23.81667,498
23.82500,499
23.83333,499
23.84167,500
23.85000,500
23.85833,500
23.86667,501
23.87500,501
23.88333,501
23.89167,501
23.90000,501
23.90833,501
23.91667,501
23.92500,501
23.93333,501
23.94167,501
23.95000,501
23.95833,500
23.96667,500
23.97500,500
23.98333,500
23.99167,500
24.00000,500
24.00833,500
24.01667,499
24.02500,499
24.03333,499
24.04167,498
24.05000,498
24.05833,497
24.06667,497
24.07500,497
24.08333,497
24.09167,497
24.10000,497
24.10833,496
24.11667,496
24.12500,496
24.13333,495
24.14167,495
24.15000,495
24.15833,495
24.16667,495
24.17500,495
24.18333,495
24.19167,495
24.20000,495
24.20833,495
24.21667,496
24.22500,496
24.23333,496
24.24167,497
24.25000,497
24.25833,498
24.26667,498
24.27500,499
24.28333,500
24.29167,501
24.30000,502
24.30833,503
24.31667,504
24.32500,505
24.33333,507
24.34167,509
24.35000,511
24.35833,513
24.36667,515
24.37500,518
24.38333,521
24.39167,524
24.40000,528
24.40833,532
24.41667,536
24.42500,541
24.43333,546
24.44167,552
24.45000,559
24.45833,566
24.46667,573
24.47500,582
24.48333,591
24.49167,601
24.50000,612
24.50833,623
24.51667,635
24.52500,649
24.53333,663
24.54167,679
24.55000,695
24.55833,712
24.56667,730
24.57500,749
24.58333,769
24.59167,790
24.60000,812
24.60833,836
24.61667,860
24.62500,886
24.63333,913
24.64167,940
24.65000,969
24.65833,999
24.66667,1029
24.67500,1060
24.68333,1092
24.69167,1124
24.70000,1157
24.70833,1190
24.71667,1223
24.72500,1256
24.73333,1289
24.74167,1321
24.75000,1354
24.75833,1386
24.76667,1417
24.77500,1447
24.78333,1475
24.79167,1503
24.80000,1529
24.80833,1554
24.81667,1576
24.82500,1597
24.83333,1616
24.84167,1633
24.85000,1648
24.85833,1661
24.86667,1671
24.87500,1679
24.88333,1684
24.89167,1687
24.90000,1687
24.90833,1686
24.91667,1681
24.92500,1674
24.93333,1665
24.94167,1654
24.95000,1640
24.95833,1624
24.96667,1606
24.97500,1586
24.98333,1564
24.99167,1540
25.00000,1515
25.00833,1489
25.01667,1462
25.02500,1433
25.03333,1404
25.04167,1374
25.05000,1344
25.05833,1314
25.06667,1283
25.07500,1252
25.08333,1221
25.09167,1190
25.10000,1159
25.10833,1127
25.11667,1097
25.12500,1067
25.13333,1038
25.14167,1010
25.15000,983
25.15833,956
25.16667,930
25.17500,905
25.18333,881
25.19167,858
25.20000,836
25.20833,815
25.21667,795
25.22500,776
25.23333,758
25.24167,741
25.25000,724
25.25833,709
25.26667,695
25.27500,681
25.28333,669
25.29167,657
25.30000,646
25.30833,636
25.31667,627
25.32500,618
25.33333,610
25.34167,603
25.35000,597
25.35833,590
25.36667,584
25.37500,579
25.38333,574
25.39167,569
25.40000,565
25.40833,561
25.41667,557
25.42500,554
25.43333,550
25.44167,547
25.45000,545
25.45833,542
25.46667,540
25.47500,538
25.48333,537
25.49167,535
25.50000,533
25.50833,531
25.51667,529
25.52500,528
25.53333,526
25.54167,525
25.55000,524
25.55833,524
25.56667,523
25.57500,523
25.58333,522
25.59167,522
25.60000,521
25.60833,520
25.61667,519
25.62500,518
25.63333,517
25.64167,517
25.65000,516
25.65833,515
25.66667,513
25.67500,512
25.68333,512
25.69167,511
25.70000,510
25.70833,509
25.71667,509
25.72500,508
25.73333,507
25.74167,507
25.75000,506
25.75833,506
25.76667,505
25.77500,505
25.78333,504
25.79167,504
25.80000,503
25.80833,503
25.81667,503
25.82500,503
25.83333,502
25.84167,502
25.85000,501
25.85833,501
25.86667,500
25.87500,500
25.88333,500
25.89167,500
25.90000,499
25.90833,499
25.91667,499
25.92500,499
25.93333,498
25.94167,498
25.95000,498
25.95833,497
25.96667,497
25.97500,497
25.98333,497
25.99167,497
26.00000,497
26.00833,497
26.01667,497
26.02500,497
26.03333,497
26.04167,497
26.05000,497
26.05833,497
26.06667,497
26.07500,497
26.08333,498
26.09167,498
26.10000,498
26.10833,498
26.11667,499
26.12500,499
26.13333,499
26.14167,500
26.15000,500
26.15833,501
26.16667,501
26.17500,501
26.18333,502
26.19167,502
26.20000,503
26.20833,503
26.21667,504
26.22500,504
26.23333,504
26.24167,505
26.25000,505
26.25833,505
26.26667,506
26.27500,506
26.28333,507
26.29167,507
26.30000,508
26.30833,508
26.31667,508
26.32500,509
26.33333,509
26.34167,509
26.35000,509
26.35833,509
26.36667,510
26.37500,510
26.38333,510
26.39167,510
26.40000,510
26.40833,510
26.41667,510
26.42500,511
26.43333,511
26.44167,511
26.45000,511
26.45833,511
26.46667,510
26.47500,510
26.48333,510
26.49167,510
26.50000,510
26.50833,510
26.51667,510
26.52500,510
26.53333,509
26.54167,509
26.55000,509
26.55833,509
26.56667,508
26.57500,508
26.58333,507
26.59167,507
26.60000,506
26.60833,506
26.61667,505
26.62500,504
26.63333,504
26.64167,503
26.65000,502
26.65833,501
26.66667,500
26.67500,500
26.68333,499
26.69167,498
26.70000,497
26.70833,497
26.71667,496
26.72500,495
26.73333,495
26.74167,494
26.75000,493
26.75833,492
26.76667,491
26.77500,491
26.78333,490
26.79167,489
26.80000,488
26.80833,488
26.81667,487
26.82500,487
26.83333,487
26.84167,487
26.85000,486
26.85833,486
26.86667,486
26.87500,486
26.88333,485
26.89167,485
26.90000,484
26.90833,484
26.91667,484
26.92500,484
26.93333,484
26.94167,484
26.95000,484
26.95833,485
26.96667,485
26.97500,485
26.98333,485
26.99167,485
27.00000,485
27.00833,485
27.01667,486
27.02500,486
27.03333,487
27.04167,487
27.05000,487
27.05833,487
27.06667,488
27.07500,488
27.08333,488
27.09167,488
27.10000,489
27.10833,489
27.11667,489
27.12500,489
27.13333,489
27.14167,489
27.15000,490
27.15833,490
27.16667,491
27.17500,491
27.18333,491
27.19167,491
27.20000,491
27.20833,491
27.21667,492
27.22500,492
27.23333,493
27.24167,493
27.25000,493
27.25833,493
27.26667,493
27.27500,493
27.28333,493
27.29167,493
27.30000,493
27.30833,494
27.31667,494
27.32500,494
27.33333,494
27.34167,495
27.35000,495
27.35833,495
27.36667,495
27.37500,495
27.38333,495
27.39167,495
27.40000,495
27.40833,496
27.41667,496
27.42500,496
27.43333,496
27.44167,496
27.45000,496
27.45833,496
27.46667,496
27.47500,496
27.48333,496
27.49167,496
27.50000,496
27.50833,496
27.51667,496
27.52500,496
27.53333,496
27.54167,496
27.55000,497
27.55833,497
27.56667,497
27.57500,497
27.58333,497
27.59167,497
27.60000,497
27.60833,497
27.61667,497
27.62500,498
27.63333,498
27.64167,499
27.65000,499
27.65833,499
27.66667,499
27.67500,499
27.68333,499
27.69167,499
27.70000,499
27.70833,499
27.71667,499
27.72500,499
27.73333,499
27.74167,499
27.75000,499
27.75833,499
27.76667,500
27.77500,499
27.78333,498
27.79167,497
27.80000,497
27.80833,496
27.81667,495
27.82500,495
27.83333,494
27.84167,493
27.85000,492
27.85833,491
27.86667,489
27.87500,487
27.88333,486
27.89167,484
27.90000,482
27.90833,481
27.91667,479
27.92500,477
27.93333,475
27.94167,472
27.95000,470
27.95833,467
27.96667,464
27.97500,461
27.98333,457
27.99167,453
28.00000,449
28.00833,445
28.01667,440
28.02500,435
28.03333,430
28.04167,424
28.05000,418
28.05833,412
28.06667,405
28.07500,398
28.08333,391
28.09167,383
28.10000,375
28.10833,367
28.11667,358
28.12500,349
28.13333,339
28.14167,329
28.15000,319
28.15833,308
28.16667,297
28.17500,285
28.18333,273
28.19167,261
28.20000,248
28.20833,235
28.21667,222
28.22500,208
28.23333,194
28.24167,180
28.25000,166
28.25833,151
28.26667,136
28.27500,121
28.28333,106
28.29167,91
28.30000,75
28.30833,60
28.31667,45
28.32500,30
28.33333,15
28.34167,0
28.35000,-15
28.35833,-29
28.36667,-44
28.37500,-58
28.38333,-72
28.39167,-86
28.40000,-99
28.40833,-112
28.41667,-124
28.42500,-135
28.43333,-146
28.44167,-157
28.45000,-168
28.45833,-178
28.46667,-187
28.47500,-195
28.48333,-203
28.49167,-210
28.50000,-216
28.50833,-222
28.51667,-226
28.52500,-230
28.53333,-233
28.54167,-236
28.55000,-238
28.55833,-239
28.56667,-239
28.57500,-239
28.58333,-238
28.59167,-237
28.60000,-235
28.60833,-232
28.61667,-229
28.62500,-225
28.63333,-220
28.64167,-215
28.65000,-209
28.65833,-203
28.66667,-197
28.67500,-190
28.68333,-183
28.69167,-176
28.70000,-168
28.70833,-160
28.71667,-151
28.72500,-143
28.73333,-134
28.74167,-125
28.75000,-116
28.75833,-107
28.76667,-98
28.77500,-89
28.78333,-80
28.79167,-70
28.80000,-61
28.80833,-51
28.81667,-42
28.82500,-33
28.83333,-25
28.84167,-16
28.85000,-8
28.85833,1
28.86667,9
28.87500,18
28.88333,25
28.89167,33
28.90000,40
28.90833,48
28.91667,55
28.92500,63
28.93333,69
28.94167,76
28.95000,82
28.95833,89
28.96667,95
28.97500,101
28.98333,107
28.99167,112
29.00000,117
29.00833,122
29.01667,127
29.02500,132
29.03333,137
29.04167,141
29.05000,145
29.05833,149
29.06667,153
29.07500,157
29.08333,160
29.09167,163
29.10000,166
29.10833,169
29.11667,172
29.12500,174
29.13333,177
29.14167,180
29.15000,182
29.15833,184
29.16667,186
29.17500,188
29.18333,190
29.19167,192
29.20000,194
29.20833,195
29.21667,197
29.22500,198
29.23333,199
29.24167,200
29.25000,201
29.25833,201
29.26667,202
29.27500,203
29.28333,203
29.29167,203
29.30000,204
29.30833,204
29.31667,205
29.32500,205
29.33333,205
29.34167,205
29.35000,205
29.35833,205
29.36667,205
29.37500,204
29.38333,204
29.39167,203
29.40000,203
29.40833,202
29.41667,202
29.42500,201
29.43333,200
29.44167,200
29.45000,199
29.45833,198
29.46667,197
29.47500,197
29.48333,197
29.49167,196
29.50000,195
29.50833,194
29.51667,193
29.52500,192
29.53333,191
29.54167,190
29.55000,189
29.55833,188
29.56667,187
29.57500,186
29.58333,184
29.59167,183
29.60000,182
29.60833,181
29.61667,180
29.62500,179
29.63333,178
29.64167,177
29.65000,176
29.65833,175
29.66667,174
29.67500,173
29.68333,172
29.69167,170
29.70000,169
29.70833,168
29.71667,166
29.72500,165
29.73333,163
29.74167,162
29.75000,160
29.75833,158
29.76667,156
29.77500,154
29.78333,151
29.79167,149
29.80000,147
29.80833,145
29.81667,142
29.82500,139
29.83333,137
29.84167,134
29.85000,131
29.85833,128
29.86667,125
29.87500,121
29.88333,118
29.89167,115
29.90000,111
29.90833,107
29.91667,104
29.92500,100
29.93333,97
29.94167,93
29.95000,89
29.95833,85
29.96667,81
29.97500,77
29.98333,72
29.99167,67
30.00000,63

