[Header]
Application Name,LabSolutions
Version,5.97 SP1
Data File Name,C:\Users\cremerlab\Desktop\griffin\2021-02-15_NCM_diauxie_turnover\2021-02-15_NCM_acetate_glucose_diauxie_turnover_2152021_009.lcd
Output Date,2/16/2021
Output Time,8:56:32 AM

[File Information]
Type,Data File
Generated,2/16/2021 12:27:58 AM
Generated by,System Administrator
Modified,2/16/2021 12:58:18 AM
Modified by,System Administrator

[Sample Information]
Operator Name,System Administrator
Acquired,2/16/2021 12:28:17 AM
Sample Type,0:Unknown
Level,0
Sample Name,NCM diauxic shift timepoint 9
Sample ID,009
ISTD Amount1,1
ISTD Amount2,1
ISTD Amount3,1
ISTD Amount4,1
ISTD Amount5,1
ISTD Amount6,1
ISTD Amount7,1
ISTD Amount8,1
ISTD Amount9,1
ISTD Amount10,1
ISTD Amount11,1
ISTD Amount12,1
ISTD Amount13,1
ISTD Amount14,1
ISTD Amount15,1
ISTD Amount16,1
ISTD Amount17,1
ISTD Amount18,1
ISTD Amount19,1
ISTD Amount20,1
ISTD Amount21,1
ISTD Amount22,1
ISTD Amount23,1
ISTD Amount24,1
ISTD Amount25,1
ISTD Amount26,1
ISTD Amount27,1
ISTD Amount28,1
ISTD Amount29,1
ISTD Amount30,1
ISTD Amount31,1
ISTD Amount32,1
Sample Amount,1
Dilution Factor,1
Vial#,9
Injection Volume,20

[Original Files]
Data File,C:\Users\cremerlab\Desktop\griffin\2021-02-15_NCM_diauxie_turnover\2021-02-15_NCM_acetate_glucose_diauxie_turnover_2152021_009.lcd
Method File,C:\LabSolutions\Data\Project1\organicacidsetc.lcm
Batch File,C:\Users\cremerlab\Desktop\griffin\2021-02-15_NCM_diauxie_turnover\2021-02-15_NCM_acetate_glucose_diauxie_turnover.lcb
Report Format File,c:\LabSolutions\System\DEFAULT.lsr

[File Description]


[Configuration]
Instrument Name,HPLC-PC-Instrument1
Instrument #,1
Line #,1
# of Detectors,2
Detector ID,Detector A,Detector B
Detector Name,Detector A,Detector B
# of Channels,1,1

[Peak Table(Detector A)]
# of Peaks,0

[Peak Table(Detector B)]
# of Peaks,4
Peak#,R.Time,I.Time,F.Time,Area,Height,A/H,Conc.,Mark,ID#,Name,k',Plate #,Plate Ht.,Tailing,Resolution,Sep.Factor,Area Ratio,Height Ratio,Conc. %,Norm Conc.
1,10.879,10.625,11.508,119972,7562,15.866,0.000,   ,,,0.000,10841,13.836,1.291,0.000,0.000,0,0,0.000,0.000
2,13.397,12.550,14.275,427344,17147,24.922,0.000,   ,,,0.232,5968,25.132,0.730,4.532,0.000,0,0,0.000,0.000
3,24.918,24.317,25.675,33793,1217,27.759,0.000,   ,,,1.291,18158,8.261,1.024,16.075,5.574,0,0,0.000,0.000
4,29.710,28.658,29.967,11911,154,77.102,0.000,   ,,,1.731,8615,17.412,0.623,4.744,1.341,0,0,0.000,0.000

[Compound Results(Detector A)]
# of IDs,0

[Compound Results(Detector B)]
# of IDs,0

[LC Chromatogram(Detector B-Ch1)]
Interval(msec),500
# of Points,3601
Start Time(min),0.000
End Time(min),30.000
Intensity Units,mV
Intensity Multiplier,0.001
R.Time (min),Intensity
0.00000,-129
0.00833,-129
0.01667,-31
0.02500,1
0.03333,1
0.04167,-0
0.05000,-3
0.05833,-5
0.06667,-7
0.07500,-7
0.08333,-6
0.09167,-5
0.10000,-2
0.10833,1
0.11667,4
0.12500,8
0.13333,11
0.14167,14
0.15000,17
0.15833,20
0.16667,24
0.17500,27
0.18333,30
0.19167,33
0.20000,37
0.20833,40
0.21667,43
0.22500,46
0.23333,50
0.24167,53
0.25000,57
0.25833,60
0.26667,64
0.27500,68
0.28333,72
0.29167,76
0.30000,79
0.30833,83
0.31667,86
0.32500,89
0.33333,92
0.34167,95
0.35000,98
0.35833,102
0.36667,105
0.37500,109
0.38333,112
0.39167,115
0.40000,119
0.40833,122
0.41667,125
0.42500,127
0.43333,130
0.44167,133
0.45000,136
0.45833,139
0.46667,141
0.47500,144
0.48333,147
0.49167,149
0.50000,152
0.50833,154
0.51667,156
0.52500,158
0.53333,160
0.54167,162
0.55000,164
0.55833,166
0.56667,169
0.57500,171
0.58333,173
0.59167,175
0.60000,177
0.60833,179
0.61667,180
0.62500,181
0.63333,182
0.64167,183
0.65000,183
0.65833,183
0.66667,183
0.67500,183
0.68333,183
0.69167,183
0.70000,183
0.70833,184
0.71667,184
0.72500,185
0.73333,186
0.74167,187
0.75000,188
0.75833,189
0.76667,191
0.77500,192
0.78333,194
0.79167,196
0.80000,197
0.80833,199
0.81667,200
0.82500,202
0.83333,203
0.84167,205
0.85000,206
0.85833,207
0.86667,209
0.87500,211
0.88333,212
0.89167,214
0.90000,215
0.90833,217
0.91667,218
0.92500,219
0.93333,221
0.94167,222
0.95000,224
0.95833,226
0.96667,228
0.97500,229
0.98333,231
0.99167,232
1.00000,234
1.00833,235
1.01667,236
1.02500,237
1.03333,239
1.04167,240
1.05000,241
1.05833,242
1.06667,244
1.07500,245
1.08333,247
1.09167,249
1.10000,250
1.10833,252
1.11667,253
1.12500,254
1.13333,255
1.14167,257
1.15000,258
1.15833,260
1.16667,261
1.17500,262
1.18333,264
1.19167,265
1.20000,267
1.20833,268
1.21667,269
1.22500,270
1.23333,271
1.24167,272
1.25000,273
1.25833,274
1.26667,274
1.27500,275
1.28333,276
1.29167,277
1.30000,278
1.30833,280
1.31667,281
1.32500,282
1.33333,283
1.34167,284
1.35000,286
1.35833,287
1.36667,287
1.37500,288
1.38333,289
1.39167,290
1.40000,290
1.40833,291
1.41667,292
1.42500,293
1.43333,294
1.44167,294
1.45000,295
1.45833,296
1.46667,297
1.47500,297
1.48333,298
1.49167,298
1.50000,299
1.50833,300
1.51667,301
1.52500,302
1.53333,303
1.54167,304
1.55000,304
1.55833,305
1.56667,306
1.57500,307
1.58333,308
1.59167,308
1.60000,309
1.60833,310
1.61667,311
1.62500,311
1.63333,312
1.64167,312
1.65000,313
1.65833,313
1.66667,314
1.67500,315
1.68333,316
1.69167,317
1.70000,317
1.70833,317
1.71667,318
1.72500,318
1.73333,319
1.74167,319
1.75000,319
1.75833,320
1.76667,321
1.77500,321
1.78333,321
1.79167,322
1.80000,322
1.80833,323
1.81667,322
1.82500,322
1.83333,322
1.84167,322
1.85000,323
1.85833,323
1.86667,323
1.87500,323
1.88333,323
1.89167,322
1.90000,322
1.90833,323
1.91667,323
1.92500,323
1.93333,323
1.94167,323
1.95000,323
1.95833,323
1.96667,323
1.97500,324
1.98333,324
1.99167,324
2.00000,324
2.00833,325
2.01667,325
2.02500,325
2.03333,324
2.04167,324
2.05000,324
2.05833,325
2.06667,325
2.07500,325
2.08333,325
2.09167,326
2.10000,326
2.10833,326
2.11667,326
2.12500,326
2.13333,326
2.14167,327
2.15000,327
2.15833,327
2.16667,327
2.17500,327
2.18333,328
2.19167,328
2.20000,329
2.20833,329
2.21667,329
2.22500,329
2.23333,330
2.24167,330
2.25000,330
2.25833,330
2.26667,331
2.27500,331
2.28333,332
2.29167,332
2.30000,332
2.30833,332
2.31667,333
2.32500,334
2.33333,334
2.34167,335
2.35000,336
2.35833,337
2.36667,337
2.37500,338
2.38333,339
2.39167,339
2.40000,340
2.40833,340
2.41667,341
2.42500,342
2.43333,343
2.44167,344
2.45000,345
2.45833,346
2.46667,347
2.47500,348
2.48333,349
2.49167,349
2.50000,350
2.50833,351
2.51667,353
2.52500,354
2.53333,355
2.54167,357
2.55000,358
2.55833,359
2.56667,360
2.57500,361
2.58333,362
2.59167,363
2.60000,365
2.60833,366
2.61667,367
2.62500,368
2.63333,369
2.64167,371
2.65000,372
2.65833,374
2.66667,375
2.67500,376
2.68333,377
2.69167,379
2.70000,380
2.70833,381
2.71667,382
2.72500,383
2.73333,384
2.74167,385
2.75000,386
2.75833,387
2.76667,388
2.77500,389
2.78333,390
2.79167,390
2.80000,391
2.80833,392
2.81667,393
2.82500,394
2.83333,395
2.84167,396
2.85000,397
2.85833,398
2.86667,399
2.87500,400
2.88333,401
2.89167,401
2.90000,402
2.90833,403
2.91667,404
2.92500,404
2.93333,405
2.94167,405
2.95000,406
2.95833,406
2.96667,407
2.97500,407
2.98333,408
2.99167,408
3.00000,409
3.00833,409
3.01667,410
3.02500,411
3.03333,411
3.04167,412
3.05000,413
3.05833,413
3.06667,414
3.07500,414
3.08333,415
3.09167,415
3.10000,416
3.10833,417
3.11667,418
3.12500,419
3.13333,421
3.14167,422
3.15000,422
3.15833,423
3.16667,423
3.17500,424
3.18333,425
3.19167,426
3.20000,427
3.20833,428
3.21667,429
3.22500,429
3.23333,430
3.24167,432
3.25000,433
3.25833,434
3.26667,435
3.27500,436
3.28333,438
3.29167,439
3.30000,440
3.30833,441
3.31667,442
3.32500,443
3.33333,445
3.34167,446
3.35000,448
3.35833,449
3.36667,450
3.37500,451
3.38333,452
3.39167,452
3.40000,453
3.40833,455
3.41667,456
3.42500,457
3.43333,459
3.44167,460
3.45000,460
3.45833,461
3.46667,462
3.47500,463
3.48333,464
3.49167,465
3.50000,466
3.50833,466
3.51667,467
3.52500,468
3.53333,469
3.54167,470
3.55000,470
3.55833,471
3.56667,472
3.57500,473
3.58333,474
3.59167,475
3.60000,476
3.60833,477
3.61667,477
3.62500,478
3.63333,479
3.64167,480
3.65000,482
3.65833,483
3.66667,484
3.67500,485
3.68333,486
3.69167,487
3.70000,488
3.70833,489
3.71667,490
3.72500,491
3.73333,492
3.74167,492
3.75000,494
3.75833,495
3.76667,495
3.77500,496
3.78333,497
3.79167,498
3.80000,499
3.80833,500
3.81667,502
3.82500,503
3.83333,504
3.84167,505
3.85000,506
3.85833,507
3.86667,508
3.87500,509
3.88333,509
3.89167,510
3.90000,511
3.90833,511
3.91667,512
3.92500,512
3.93333,513
3.94167,515
3.95000,516
3.95833,517
3.96667,518
3.97500,518
3.98333,519
3.99167,520
4.00000,521
4.00833,522
4.01667,522
4.02500,523
4.03333,524
4.04167,524
4.05000,525
4.05833,526
4.06667,527
4.07500,527
4.08333,528
4.09167,528
4.10000,529
4.10833,530
4.11667,530
4.12500,531
4.13333,532
4.14167,532
4.15000,533
4.15833,534
4.16667,535
4.17500,535
4.18333,536
4.19167,537
4.20000,538
4.20833,538
4.21667,539
4.22500,539
4.23333,539
4.24167,540
4.25000,540
4.25833,541
4.26667,542
4.27500,543
4.28333,544
4.29167,544
4.30000,545
4.30833,546
4.31667,547
4.32500,548
4.33333,548
4.34167,549
4.35000,550
4.35833,550
4.36667,551
4.37500,552
4.38333,553
4.39167,554
4.40000,555
4.40833,556
4.41667,557
4.42500,557
4.43333,558
4.44167,559
4.45000,560
4.45833,561
4.46667,562
4.47500,563
4.48333,564
4.49167,565
4.50000,566
4.50833,567
4.51667,568
4.52500,569
4.53333,570
4.54167,570
4.55000,571
4.55833,572
4.56667,572
4.57500,573
4.58333,574
4.59167,574
4.60000,575
4.60833,576
4.61667,577
4.62500,578
4.63333,579
4.64167,579
4.65000,579
4.65833,580
4.66667,581
4.67500,582
4.68333,583
4.69167,584
4.70000,585
4.70833,586
4.71667,587
4.72500,588
4.73333,589
4.74167,590
4.75000,590
4.75833,591
4.76667,592
4.77500,593
4.78333,594
4.79167,595
4.80000,596
4.80833,597
4.81667,598
4.82500,599
4.83333,600
4.84167,601
4.85000,601
4.85833,602
4.86667,603
4.87500,604
4.88333,605
4.89167,606
4.90000,607
4.90833,608
4.91667,609
4.92500,609
4.93333,610
4.94167,611
4.95000,612
4.95833,612
4.96667,613
4.97500,614
4.98333,614
4.99167,615
5.00000,616
5.00833,616
5.01667,617
5.02500,618
5.03333,618
5.04167,619
5.05000,620
5.05833,621
5.06667,621
5.07500,622
5.08333,622
5.09167,623
5.10000,624
5.10833,625
5.11667,625
5.12500,626
5.13333,627
5.14167,628
5.15000,628
5.15833,629
5.16667,630
5.17500,630
5.18333,631
5.19167,631
5.20000,632
5.20833,632
5.21667,633
5.22500,634
5.23333,635
5.24167,635
5.25000,636
5.25833,637
5.26667,637
5.27500,637
5.28333,638
5.29167,638
5.30000,639
5.30833,639
5.31667,640
5.32500,640
5.33333,641
5.34167,642
5.35000,643
5.35833,643
5.36667,644
5.37500,645
5.38333,645
5.39167,646
5.40000,647
5.40833,647
5.41667,648
5.42500,649
5.43333,649
5.44167,650
5.45000,651
5.45833,652
5.46667,652
5.47500,653
5.48333,653
5.49167,654
5.50000,654
5.50833,655
5.51667,656
5.52500,656
5.53333,657
5.54167,658
5.55000,659
5.55833,660
5.56667,661
5.57500,663
5.58333,664
5.59167,665
5.60000,666
5.60833,666
5.61667,667
5.62500,668
5.63333,669
5.64167,670
5.65000,670
5.65833,671
5.66667,672
5.67500,673
5.68333,674
5.69167,674
5.70000,674
5.70833,675
5.71667,675
5.72500,676
5.73333,677
5.74167,678
5.75000,678
5.75833,679
5.76667,680
5.77500,680
5.78333,681
5.79167,681
5.80000,682
5.80833,683
5.81667,683
5.82500,683
5.83333,684
5.84167,684
5.85000,684
5.85833,684
5.86667,684
5.87500,684
5.88333,683
5.89167,683
5.90000,683
5.90833,684
5.91667,684
5.92500,684
5.93333,684
5.94167,684
5.95000,684
5.95833,684
5.96667,684
5.97500,684
5.98333,684
5.99167,684
6.00000,683
6.00833,683
6.01667,683
6.02500,683
6.03333,683
6.04167,683
6.05000,683
6.05833,683
6.06667,682
6.07500,681
6.08333,681
6.09167,680
6.10000,680
6.10833,680
6.11667,680
6.12500,680
6.13333,680
6.14167,680
6.15000,680
6.15833,680
6.16667,680
6.17500,680
6.18333,680
6.19167,680
6.20000,680
6.20833,680
6.21667,680
6.22500,680
6.23333,681
6.24167,681
6.25000,681
6.25833,682
6.26667,683
6.27500,683
6.28333,684
6.29167,685
6.30000,685
6.30833,686
6.31667,686
6.32500,687
6.33333,687
6.34167,687
6.35000,687
6.35833,688
6.36667,688
6.37500,689
6.38333,690
6.39167,690
6.40000,691
6.40833,692
6.41667,693
6.42500,694
6.43333,694
6.44167,695
6.45000,696
6.45833,697
6.46667,698
6.47500,699
6.48333,700
6.49167,701
6.50000,702
6.50833,703
6.51667,704
6.52500,705
6.53333,706
6.54167,707
6.55000,707
6.55833,708
6.56667,709
6.57500,710
6.58333,711
6.59167,713
6.60000,715
6.60833,717
6.61667,718
6.62500,720
6.63333,721
6.64167,723
6.65000,725
6.65833,726
6.66667,728
6.67500,730
6.68333,732
6.69167,734
6.70000,736
6.70833,738
6.71667,740
6.72500,742
6.73333,743
6.74167,745
6.75000,746
6.75833,749
6.76667,751
6.77500,753
6.78333,755
6.79167,758
6.80000,760
6.80833,762
6.81667,765
6.82500,767
6.83333,769
6.84167,771
6.85000,773
6.85833,774
6.86667,776
6.87500,779
6.88333,781
6.89167,783
6.90000,785
6.90833,786
6.91667,788
6.92500,790
6.93333,791
6.94167,793
6.95000,795
6.95833,796
6.96667,798
6.97500,799
6.98333,800
6.99167,801
7.00000,802
7.00833,803
7.01667,804
7.02500,804
7.03333,805
7.04167,805
7.05000,806
7.05833,807
7.06667,807
7.07500,808
7.08333,807
7.09167,807
7.10000,808
7.10833,808
7.11667,807
7.12500,807
7.13333,807
7.14167,807
7.15000,807
7.15833,806
7.16667,806
7.17500,805
7.18333,804
7.19167,803
7.20000,801
7.20833,800
7.21667,799
7.22500,797
7.23333,796
7.24167,795
7.25000,794
7.25833,793
7.26667,791
7.27500,790
7.28333,789
7.29167,787
7.30000,786
7.30833,784
7.31667,782
7.32500,781
7.33333,780
7.34167,778
7.35000,777
7.35833,775
7.36667,773
7.37500,772
7.38333,770
7.39167,768
7.40000,767
7.40833,766
7.41667,764
7.42500,763
7.43333,761
7.44167,760
7.45000,758
7.45833,757
7.46667,755
7.47500,754
7.48333,753
7.49167,751
7.50000,749
7.50833,748
7.51667,746
7.52500,744
7.53333,743
7.54167,741
7.55000,740
7.55833,739
7.56667,738
7.57500,737
7.58333,735
7.59167,733
7.60000,732
7.60833,730
7.61667,729
7.62500,728
7.63333,727
7.64167,726
7.65000,724
7.65833,724
7.66667,723
7.67500,722
7.68333,721
7.69167,721
7.70000,720
7.70833,719
7.71667,718
7.72500,717
7.73333,716
7.74167,716
7.75000,715
7.75833,715
7.76667,715
7.77500,714
7.78333,714
7.79167,714
7.80000,714
7.80833,714
7.81667,714
7.82500,714
7.83333,713
7.84167,713
7.85000,712
7.85833,712
7.86667,711
7.87500,710
7.88333,710
7.89167,710
7.90000,710
7.90833,710
7.91667,709
7.92500,709
7.93333,708
7.94167,708
7.95000,707
7.95833,707
7.96667,706
7.97500,706
7.98333,706
7.99167,705
8.00000,705
8.00833,704
8.01667,704
8.02500,703
8.03333,703
8.04167,702
8.05000,702
8.05833,702
8.06667,701
8.07500,701
8.08333,701
8.09167,700
8.10000,700
8.10833,699
8.11667,699
8.12500,698
8.13333,698
8.14167,698
8.15000,697
8.15833,697
8.16667,697
8.17500,697
8.18333,696
8.19167,696
8.20000,697
8.20833,697
8.21667,697
8.22500,697
8.23333,697
8.24167,696
8.25000,696
8.25833,696
8.26667,695
8.27500,695
8.28333,695
8.29167,695
8.30000,696
8.30833,696
8.31667,696
8.32500,696
8.33333,696
8.34167,696
8.35000,697
8.35833,697
8.36667,696
8.37500,696
8.38333,696
8.39167,697
8.40000,697
8.40833,696
8.41667,696
8.42500,696
8.43333,696
8.44167,697
8.45000,696
8.45833,696
8.46667,696
8.47500,696
8.48333,696
8.49167,696
8.50000,696
8.50833,697
8.51667,697
8.52500,697
8.53333,697
8.54167,697
8.55000,697
8.55833,697
8.56667,697
8.57500,697
8.58333,696
8.59167,696
8.60000,695
8.60833,695
8.61667,695
8.62500,695
8.63333,695
8.64167,696
8.65000,696
8.65833,696
8.66667,696
8.67500,696
8.68333,696
8.69167,696
8.70000,696
8.70833,696
8.71667,696
8.72500,697
8.73333,697
8.74167,697
8.75000,697
8.75833,697
8.76667,697
8.77500,697
8.78333,697
8.79167,697
8.80000,697
8.80833,697
8.81667,697
8.82500,697
8.83333,697
8.84167,697
8.85000,697
8.85833,697
8.86667,697
8.87500,697
8.88333,697
8.89167,697
8.90000,697
8.90833,697
8.91667,697
8.92500,697
8.93333,697
8.94167,697
8.95000,696
8.95833,696
8.96667,697
8.97500,697
8.98333,697
8.99167,696
9.00000,696
9.00833,696
9.01667,696
9.02500,696
9.03333,696
9.04167,696
9.05000,696
9.05833,696
9.06667,697
9.07500,697
9.08333,697
9.09167,697
9.10000,697
9.10833,698
9.11667,698
9.12500,699
9.13333,699
9.14167,699
9.15000,700
9.15833,700
9.16667,701
9.17500,702
9.18333,702
9.19167,703
9.20000,703
9.20833,704
9.21667,705
9.22500,706
9.23333,707
9.24167,708
9.25000,708
9.25833,709
9.26667,710
9.27500,710
9.28333,711
9.29167,711
9.30000,712
9.30833,713
9.31667,714
9.32500,714
9.33333,714
9.34167,715
9.35000,715
9.35833,716
9.36667,716
9.37500,717
9.38333,718
9.39167,718
9.40000,719
9.40833,719
9.41667,719
9.42500,719
9.43333,719
9.44167,719
9.45000,719
9.45833,719
9.46667,719
9.47500,719
9.48333,719
9.49167,718
9.50000,718
9.50833,718
9.51667,718
9.52500,718
9.53333,718
9.54167,718
9.55000,718
9.55833,717
9.56667,717
9.57500,717
9.58333,717
9.59167,717
9.60000,716
9.60833,716
9.61667,715
9.62500,714
9.63333,714
9.64167,713
9.65000,713
9.65833,712
9.66667,712
9.67500,712
9.68333,711
9.69167,711
9.70000,710
9.70833,709
9.71667,709
9.72500,708
9.73333,708
9.74167,707
9.75000,707
9.75833,706
9.76667,706
9.77500,706
9.78333,705
9.79167,705
9.80000,704
9.80833,704
9.81667,703
9.82500,702
9.83333,702
9.84167,701
9.85000,701
9.85833,701
9.86667,700
9.87500,700
9.88333,700
9.89167,700
9.90000,700
9.90833,700
9.91667,700
9.92500,699
9.93333,699
9.94167,698
9.95000,698
9.95833,698
9.96667,697
9.97500,697
9.98333,697
9.99167,697
10.00000,697
10.00833,696
10.01667,696
10.02500,696
10.03333,696
10.04167,696
10.05000,696
10.05833,695
10.06667,695
10.07500,695
10.08333,695
10.09167,695
10.10000,695
10.10833,695
10.11667,695
10.12500,695
10.13333,695
10.14167,695
10.15000,695
10.15833,694
10.16667,695
10.17500,695
10.18333,695
10.19167,695
10.20000,695
10.20833,695
10.21667,695
10.22500,696
10.23333,696
10.24167,696
10.25000,696
10.25833,697
10.26667,697
10.27500,698
10.28333,698
10.29167,699
10.30000,699
10.30833,699
10.31667,699
10.32500,699
10.33333,699
10.34167,700
10.35000,700
10.35833,700
10.36667,700
10.37500,700
10.38333,699
10.39167,699
10.40000,698
10.40833,697
10.41667,696
10.42500,695
10.43333,692
10.44167,689
10.45000,685
10.45833,679
10.46667,672
10.47500,664
10.48333,653
10.49167,640
10.50000,624
10.50833,605
10.51667,582
10.52500,555
10.53333,525
10.54167,491
10.55000,453
10.55833,412
10.56667,370
10.57500,327
10.58333,284
10.59167,244
10.60000,210
10.60833,183
10.61667,167
10.62500,165
10.63333,180
10.64167,215
10.65000,273
10.65833,357
10.66667,469
10.67500,611
10.68333,785
10.69167,992
10.70000,1232
10.70833,1504
10.71667,1807
10.72500,2140
10.73333,2500
10.74167,2883
10.75000,3286
10.75833,3703
10.76667,4130
10.77500,4559
10.78333,4987
10.79167,5406
10.80000,5810
10.80833,6192
10.81667,6547
10.82500,6870
10.83333,7154
10.84167,7395
10.85000,7590
10.85833,7737
10.86667,7834
10.87500,7880
10.88333,7877
10.89167,7824
10.90000,7726
10.90833,7584
10.91667,7403
10.92500,7188
10.93333,6942
10.94167,6671
10.95000,6380
10.95833,6073
10.96667,5757
10.97500,5435
10.98333,5112
10.99167,4791
11.00000,4476
11.00833,4170
11.01667,3875
11.02500,3592
11.03333,3324
11.04167,3072
11.05000,2836
11.05833,2617
11.06667,2415
11.07500,2229
11.08333,2058
11.09167,1903
11.10000,1763
11.10833,1636
11.11667,1523
11.12500,1422
11.13333,1331
11.14167,1251
11.15000,1180
11.15833,1118
11.16667,1063
11.17500,1016
11.18333,975
11.19167,939
11.20000,907
11.20833,880
11.21667,857
11.22500,836
11.23333,818
11.24167,803
11.25000,790
11.25833,778
11.26667,769
11.27500,760
11.28333,753
11.29167,747
11.30000,742
11.30833,737
11.31667,733
11.32500,730
11.33333,727
11.34167,724
11.35000,721
11.35833,719
11.36667,716
11.37500,714
11.38333,713
11.39167,711
11.40000,710
11.40833,708
11.41667,707
11.42500,706
11.43333,705
11.44167,704
11.45000,704
11.45833,704
11.46667,703
11.47500,703
11.48333,702
11.49167,701
11.50000,701
11.50833,701
11.51667,700
11.52500,700
11.53333,699
11.54167,698
11.55000,698
11.55833,697
11.56667,696
11.57500,696
11.58333,695
11.59167,695
11.60000,695
11.60833,694
11.61667,693
11.62500,692
11.63333,691
11.64167,690
11.65000,689
11.65833,688
11.66667,687
11.67500,686
11.68333,685
11.69167,684
11.70000,682
11.70833,681
11.71667,680
11.72500,679
11.73333,677
11.74167,676
11.75000,674
11.75833,673
11.76667,672
11.77500,671
11.78333,670
11.79167,669
11.80000,668
11.80833,667
11.81667,666
11.82500,666
11.83333,665
11.84167,665
11.85000,664
11.85833,664
11.86667,663
11.87500,663
11.88333,663
11.89167,663
11.90000,663
11.90833,663
11.91667,663
11.92500,663
11.93333,664
11.94167,664
11.95000,665
11.95833,665
11.96667,666
11.97500,666
11.98333,667
11.99167,668
12.00000,669
12.00833,670
12.01667,671
12.02500,672
12.03333,673
12.04167,674
12.05000,675
12.05833,677
12.06667,678
12.07500,679
12.08333,680
12.09167,681
12.10000,682
12.10833,683
12.11667,685
12.12500,686
12.13333,687
12.14167,688
12.15000,690
12.15833,691
12.16667,692
12.17500,693
12.18333,695
12.19167,696
12.20000,698
12.20833,699
12.21667,701
12.22500,702
12.23333,702
12.24167,703
12.25000,704
12.25833,705
12.26667,706
12.27500,707
12.28333,707
12.29167,708
12.30000,709
12.30833,710
12.31667,711
12.32500,712
12.33333,712
12.34167,713
12.35000,713
12.35833,714
12.36667,715
12.37500,715
12.38333,715
12.39167,715
12.40000,715
12.40833,716
12.41667,716
12.42500,717
12.43333,718
12.44167,718
12.45000,719
12.45833,719
12.46667,720
12.47500,720
12.48333,721
12.49167,721
12.50000,722
12.50833,722
12.51667,723
12.52500,723
12.53333,724
12.54167,725
12.55000,726
12.55833,727
12.56667,728
12.57500,730
12.58333,731
12.59167,733
12.60000,735
12.60833,738
12.61667,741
12.62500,745
12.63333,750
12.64167,756
12.65000,764
12.65833,772
12.66667,782
12.67500,795
12.68333,809
12.69167,826
12.70000,846
12.70833,869
12.71667,896
12.72500,927
12.73333,963
12.74167,1003
12.75000,1049
12.75833,1101
12.76667,1159
12.77500,1223
12.78333,1293
12.79167,1370
12.80000,1454
12.80833,1545
12.81667,1642
12.82500,1747
12.83333,1859
12.84167,1978
12.85000,2105
12.85833,2239
12.86667,2379
12.87500,2526
12.88333,2679
12.89167,2839
12.90000,3005
12.90833,3177
12.91667,3355
12.92500,3538
12.93333,3727
12.94167,3920
12.95000,4118
12.95833,4322
12.96667,4529
12.97500,4741
12.98333,4957
12.99167,5177
13.00000,5401
13.00833,5629
13.01667,5860
13.02500,6095
13.03333,6333
13.04167,6574
13.05000,6817
13.05833,7064
13.06667,7314
13.07500,7566
13.08333,7821
13.09167,8078
13.10000,8338
13.10833,8600
13.11667,8865
13.12500,9132
13.13333,9402
13.14167,9673
13.15000,9947
13.15833,10223
13.16667,10501
13.17500,10781
13.18333,11063
13.19167,11347
13.20000,11633
13.20833,11921
13.21667,12211
13.22500,12502
13.23333,12795
13.24167,13090
13.25000,13387
13.25833,13685
13.26667,13985
13.27500,14286
13.28333,14587
13.29167,14890
13.30000,15193
13.30833,15495
13.31667,15796
13.32500,16095
13.33333,16390
13.34167,16677
13.35000,16953
13.35833,17210
13.36667,17443
13.37500,17640
13.38333,17791
13.39167,17882
13.40000,17899
13.40833,17829
13.41667,17660
13.42500,17384
13.43333,16995
13.44167,16494
13.45000,15886
13.45833,15181
13.46667,14394
13.47500,13542
13.48333,12645
13.49167,11724
13.50000,10799
13.50833,9887
13.51667,9005
13.52500,8163
13.53333,7372
13.54167,6639
13.55000,5966
13.55833,5354
13.56667,4803
13.57500,4310
13.58333,3872
13.59167,3486
13.60000,3146
13.60833,2848
13.61667,2589
13.62500,2364
13.63333,2168
13.64167,1999
13.65000,1852
13.65833,1725
13.66667,1615
13.67500,1520
13.68333,1438
13.69167,1367
13.70000,1305
13.70833,1251
13.71667,1204
13.72500,1163
13.73333,1128
13.74167,1096
13.75000,1069
13.75833,1045
13.76667,1023
13.77500,1004
13.78333,987
13.79167,972
13.80000,959
13.80833,947
13.81667,936
13.82500,926
13.83333,917
13.84167,908
13.85000,900
13.85833,893
13.86667,887
13.87500,880
13.88333,875
13.89167,870
13.90000,865
13.90833,860
13.91667,856
13.92500,851
13.93333,848
13.94167,844
13.95000,840
13.95833,837
13.96667,834
13.97500,831
13.98333,829
13.99167,826
14.00000,823
14.00833,821
14.01667,818
14.02500,816
14.03333,813
14.04167,810
14.05000,808
14.05833,806
14.06667,804
14.07500,803
14.08333,801
14.09167,800
14.10000,798
14.10833,796
14.11667,795
14.12500,793
14.13333,792
14.14167,791
14.15000,789
14.15833,788
14.16667,787
14.17500,786
14.18333,785
14.19167,784
14.20000,783
14.20833,783
14.21667,782
14.22500,781
14.23333,780
14.24167,779
14.25000,778
14.25833,778
14.26667,778
14.27500,777
14.28333,777
14.29167,777
14.30000,776
14.30833,776
14.31667,776
14.32500,776
14.33333,776
14.34167,775
14.35000,775
14.35833,775
14.36667,775
14.37500,775
14.38333,775
14.39167,775
14.40000,775
14.40833,775
14.41667,775
14.42500,775
14.43333,775
14.44167,774
14.45000,774
14.45833,775
14.46667,775
14.47500,775
14.48333,776
14.49167,775
14.50000,775
14.50833,775
14.51667,775
14.52500,775
14.53333,774
14.54167,774
14.55000,774
14.55833,775
14.56667,775
14.57500,775
14.58333,775
14.59167,775
14.60000,774
14.60833,774
14.61667,774
14.62500,774
14.63333,774
14.64167,773
14.65000,773
14.65833,772
14.66667,771
14.67500,770
14.68333,770
14.69167,770
14.70000,769
14.70833,769
14.71667,769
14.72500,769
14.73333,769
14.74167,769
14.75000,769
14.75833,769
14.76667,768
14.77500,768
14.78333,768
14.79167,767
14.80000,768
14.80833,768
14.81667,768
14.82500,769
14.83333,769
14.84167,769
14.85000,769
14.85833,769
14.86667,769
14.87500,769
14.88333,769
14.89167,769
14.90000,769
14.90833,770
14.91667,770
14.92500,770
14.93333,771
14.94167,771
14.95000,771
14.95833,771
14.96667,771
14.97500,771
14.98333,771
14.99167,771
15.00000,771
15.00833,771
15.01667,771
15.02500,771
15.03333,771
15.04167,771
15.05000,770
15.05833,769
15.06667,769
15.07500,768
15.08333,767
15.09167,767
15.10000,766
15.10833,765
15.11667,764
15.12500,764
15.13333,763
15.14167,762
15.15000,761
15.15833,760
15.16667,758
15.17500,757
15.18333,757
15.19167,755
15.20000,754
15.20833,752
15.21667,751
15.22500,750
15.23333,748
15.24167,747
15.25000,746
15.25833,745
15.26667,744
15.27500,743
15.28333,742
15.29167,740
15.30000,739
15.30833,738
15.31667,737
15.32500,736
15.33333,735
15.34167,734
15.35000,733
15.35833,732
15.36667,731
15.37500,731
15.38333,730
15.39167,730
15.40000,729
15.40833,728
15.41667,728
15.42500,727
15.43333,727
15.44167,726
15.45000,726
15.45833,725
15.46667,725
15.47500,725
15.48333,724
15.49167,724
15.50000,723
15.50833,722
15.51667,722
15.52500,721
15.53333,720
15.54167,720
15.55000,720
15.55833,719
15.56667,719
15.57500,718
15.58333,718
15.59167,718
15.60000,718
15.60833,718
15.61667,718
15.62500,718
15.63333,718
15.64167,718
15.65000,718
15.65833,718
15.66667,718
15.67500,719
15.68333,719
15.69167,719
15.70000,720
15.70833,721
15.71667,721
15.72500,722
15.73333,722
15.74167,722
15.75000,723
15.75833,723
15.76667,723
15.77500,724
15.78333,724
15.79167,725
15.80000,726
15.80833,727
15.81667,727
15.82500,728
15.83333,729
15.84167,730
15.85000,730
15.85833,731
15.86667,731
15.87500,731
15.88333,732
15.89167,732
15.90000,733
15.90833,734
15.91667,734
15.92500,735
15.93333,735
15.94167,736
15.95000,737
15.95833,738
15.96667,738
15.97500,738
15.98333,739
15.99167,739
16.00000,739
16.00833,739
16.01667,739
16.02500,739
16.03333,739
16.04167,740
16.05000,740
16.05833,740
16.06667,740
16.07500,740
16.08333,740
16.09167,740
16.10000,739
16.10833,739
16.11667,738
16.12500,738
16.13333,737
16.14167,737
16.15000,737
16.15833,736
16.16667,736
16.17500,736
16.18333,735
16.19167,735
16.20000,734
16.20833,734
16.21667,734
16.22500,733
16.23333,733
16.24167,733
16.25000,733
16.25833,733
16.26667,732
16.27500,732
16.28333,732
16.29167,731
16.30000,731
16.30833,730
16.31667,730
16.32500,730
16.33333,730
16.34167,729
16.35000,729
16.35833,728
16.36667,727
16.37500,727
16.38333,726
16.39167,726
16.40000,726
16.40833,726
16.41667,726
16.42500,725
16.43333,725
16.44167,724
16.45000,724
16.45833,723
16.46667,723
16.47500,723
16.48333,722
16.49167,722
16.50000,721
16.50833,721
16.51667,721
16.52500,720
16.53333,720
16.54167,720
16.55000,720
16.55833,720
16.56667,720
16.57500,719
16.58333,719
16.59167,718
16.60000,718
16.60833,718
16.61667,717
16.62500,717
16.63333,717
16.64167,717
16.65000,717
16.65833,717
16.66667,717
16.67500,717
16.68333,716
16.69167,716
16.70000,716
16.70833,716
16.71667,716
16.72500,716
16.73333,716
16.74167,717
16.75000,717
16.75833,717
16.76667,717
16.77500,717
16.78333,717
16.79167,717
16.80000,718
16.80833,718
16.81667,718
16.82500,718
16.83333,719
16.84167,719
16.85000,719
16.85833,719
16.86667,719
16.87500,720
16.88333,720
16.89167,721
16.90000,721
16.90833,721
16.91667,722
16.92500,722
16.93333,722
16.94167,722
16.95000,722
16.95833,722
16.96667,722
16.97500,723
16.98333,723
16.99167,723
17.00000,724
17.00833,724
17.01667,724
17.02500,724
17.03333,724
17.04167,724
17.05000,723
17.05833,723
17.06667,722
17.07500,722
17.08333,722
17.09167,722
17.10000,722
17.10833,722
17.11667,722
17.12500,722
17.13333,722
17.14167,721
17.15000,721
17.15833,720
17.16667,719
17.17500,719
17.18333,719
17.19167,718
17.20000,718
17.20833,718
17.21667,718
17.22500,718
17.23333,718
17.24167,718
17.25000,717
17.25833,716
17.26667,716
17.27500,715
17.28333,715
17.29167,715
17.30000,714
17.30833,714
17.31667,714
17.32500,714
17.33333,714
17.34167,713
17.35000,713
17.35833,712
17.36667,712
17.37500,712
17.38333,712
17.39167,712
17.40000,712
17.40833,711
17.41667,711
17.42500,711
17.43333,711
17.44167,711
17.45000,711
17.45833,711
17.46667,711
17.47500,711
17.48333,711
17.49167,711
17.50000,711
17.50833,710
17.51667,710
17.52500,710
17.53333,710
17.54167,709
17.55000,709
17.55833,709
17.56667,709
17.57500,708
17.58333,708
17.59167,708
17.60000,708
17.60833,708
17.61667,708
17.62500,707
17.63333,707
17.64167,707
17.65000,707
17.65833,707
17.66667,707
17.67500,707
17.68333,707
17.69167,707
17.70000,707
17.70833,708
17.71667,708
17.72500,709
17.73333,709
17.74167,710
17.75000,710
17.75833,710
17.76667,710
17.77500,711
17.78333,711
17.79167,712
17.80000,712
17.80833,713
17.81667,713
17.82500,714
17.83333,714
17.84167,715
17.85000,715
17.85833,715
17.86667,715
17.87500,715
17.88333,716
17.89167,716
17.90000,717
17.90833,717
17.91667,718
17.92500,718
17.93333,718
17.94167,718
17.95000,718
17.95833,719
17.96667,719
17.97500,719
17.98333,719
17.99167,719
18.00000,719
18.00833,719
18.01667,719
18.02500,719
18.03333,719
18.04167,719
18.05000,719
18.05833,718
18.06667,718
18.07500,718
18.08333,717
18.09167,717
18.10000,717
18.10833,716
18.11667,716
18.12500,716
18.13333,715
18.14167,715
18.15000,714
18.15833,714
18.16667,713
18.17500,713
18.18333,712
18.19167,711
18.20000,710
18.20833,710
18.21667,709
18.22500,709
18.23333,709
18.24167,708
18.25000,708
18.25833,707
18.26667,707
18.27500,706
18.28333,705
18.29167,705
18.30000,705
18.30833,704
18.31667,704
18.32500,704
18.33333,704
18.34167,704
18.35000,704
18.35833,704
18.36667,704
18.37500,704
18.38333,705
18.39167,705
18.40000,705
18.40833,705
18.41667,706
18.42500,706
18.43333,706
18.44167,706
18.45000,706
18.45833,707
18.46667,707
18.47500,707
18.48333,708
18.49167,708
18.50000,709
18.50833,709
18.51667,710
18.52500,710
18.53333,711
18.54167,711
18.55000,712
18.55833,712
18.56667,713
18.57500,713
18.58333,714
18.59167,714
18.60000,715
18.60833,716
18.61667,717
18.62500,718
18.63333,719
18.64167,721
18.65000,722
18.65833,723
18.66667,724
18.67500,725
18.68333,726
18.69167,727
18.70000,728
18.70833,729
18.71667,731
18.72500,732
18.73333,734
18.74167,735
18.75000,736
18.75833,738
18.76667,739
18.77500,740
18.78333,742
18.79167,743
18.80000,744
18.80833,744
18.81667,745
18.82500,747
18.83333,747
18.84167,748
18.85000,748
18.85833,749
18.86667,750
18.87500,751
18.88333,751
18.89167,751
18.90000,751
18.90833,751
18.91667,751
18.92500,751
18.93333,751
18.94167,751
18.95000,751
18.95833,750
18.96667,749
18.97500,749
18.98333,749
18.99167,748
19.00000,747
19.00833,747
19.01667,746
19.02500,745
19.03333,744
19.04167,743
19.05000,741
19.05833,740
19.06667,739
19.07500,738
19.08333,737
19.09167,735
19.10000,734
19.10833,733
19.11667,732
19.12500,732
19.13333,730
19.14167,729
19.15000,728
19.15833,727
19.16667,725
19.17500,724
19.18333,723
19.19167,722
19.20000,721
19.20833,720
19.21667,718
19.22500,717
19.23333,716
19.24167,715
19.25000,714
19.25833,713
19.26667,712
19.27500,711
19.28333,710
19.29167,710
19.30000,709
19.30833,709
19.31667,709
19.32500,709
19.33333,708
19.34167,707
19.35000,705
19.35833,704
19.36667,703
19.37500,702
19.38333,702
19.39167,701
19.40000,701
19.40833,700
19.41667,700
19.42500,700
19.43333,699
19.44167,699
19.45000,698
19.45833,698
19.46667,698
19.47500,698
19.48333,698
19.49167,698
19.50000,698
19.50833,698
19.51667,697
19.52500,697
19.53333,697
19.54167,697
19.55000,698
19.55833,698
19.56667,698
19.57500,698
19.58333,698
19.59167,699
19.60000,699
19.60833,700
19.61667,700
19.62500,700
19.63333,701
19.64167,701
19.65000,701
19.65833,702
19.66667,702
19.67500,702
19.68333,702
19.69167,702
19.70000,703
19.70833,704
19.71667,704
19.72500,705
19.73333,705
19.74167,706
19.75000,706
19.75833,706
19.76667,707
19.77500,707
19.78333,707
19.79167,707
19.80000,707
19.80833,708
19.81667,708
19.82500,709
19.83333,709
19.84167,710
19.85000,711
19.85833,711
19.86667,711
19.87500,711
19.88333,712
19.89167,712
19.90000,712
19.90833,712
19.91667,712
19.92500,712
19.93333,712
19.94167,713
19.95000,713
19.95833,713
19.96667,713
19.97500,713
19.98333,713
19.99167,712
20.00000,712
20.00833,712
20.01667,713
20.02500,713
20.03333,713
20.04167,714
20.05000,714
20.05833,714
20.06667,714
20.07500,714
20.08333,714
20.09167,714
20.10000,714
20.10833,714
20.11667,714
20.12500,714
20.13333,715
20.14167,715
20.15000,715
20.15833,715
20.16667,715
20.17500,715
20.18333,715
20.19167,715
20.20000,715
20.20833,715
20.21667,714
20.22500,714
20.23333,714
20.24167,715
20.25000,715
20.25833,715
20.26667,715
20.27500,714
20.28333,714
20.29167,714
20.30000,714
20.30833,714
20.31667,714
20.32500,714
20.33333,713
20.34167,713
20.35000,713
20.35833,713
20.36667,713
20.37500,713
20.38333,713
20.39167,713
20.40000,713
20.40833,713
20.41667,713
20.42500,713
20.43333,713
20.44167,713
20.45000,713
20.45833,713
20.46667,713
20.47500,712
20.48333,712
20.49167,712
20.50000,713
20.50833,713
20.51667,713
20.52500,714
20.53333,714
20.54167,715
20.55000,715
20.55833,715
20.56667,715
20.57500,716
20.58333,716
20.59167,717
20.60000,717
20.60833,717
20.61667,718
20.62500,718
20.63333,719
20.64167,719
20.65000,719
20.65833,719
20.66667,719
20.67500,720
20.68333,721
20.69167,721
20.70000,722
20.70833,722
20.71667,723
20.72500,724
20.73333,724
20.74167,725
20.75000,726
20.75833,726
20.76667,726
20.77500,726
20.78333,726
20.79167,727
20.80000,727
20.80833,727
20.81667,728
20.82500,728
20.83333,728
20.84167,728
20.85000,729
20.85833,729
20.86667,728
20.87500,728
20.88333,728
20.89167,728
20.90000,728
20.90833,728
20.91667,728
20.92500,728
20.93333,728
20.94167,728
20.95000,728
20.95833,728
20.96667,728
20.97500,729
20.98333,729
20.99167,729
21.00000,729
21.00833,728
21.01667,728
21.02500,728
21.03333,728
21.04167,728
21.05000,728
21.05833,728
21.06667,728
21.07500,727
21.08333,727
21.09167,726
21.10000,726
21.10833,726
21.11667,725
21.12500,725
21.13333,725
21.14167,724
21.15000,724
21.15833,724
21.16667,723
21.17500,723
21.18333,722
21.19167,722
21.20000,721
21.20833,720
21.21667,720
21.22500,719
21.23333,719
21.24167,719
21.25000,719
21.25833,718
21.26667,718
21.27500,718
21.28333,718
21.29167,718
21.30000,717
21.30833,717
21.31667,716
21.32500,716
21.33333,715
21.34167,715
21.35000,714
21.35833,714
21.36667,715
21.37500,715
21.38333,714
21.39167,714
21.40000,714
21.40833,714
21.41667,714
21.42500,713
21.43333,713
21.44167,713
21.45000,713
21.45833,712
21.46667,712
21.47500,711
21.48333,711
21.49167,710
21.50000,710
21.50833,710
21.51667,710
21.52500,710
21.53333,710
21.54167,710
21.55000,710
21.55833,709
21.56667,709
21.57500,709
21.58333,709
21.59167,710
21.60000,710
21.60833,710
21.61667,710
21.62500,710
21.63333,710
21.64167,711
21.65000,711
21.65833,711
21.66667,712
21.67500,712
21.68333,713
21.69167,713
21.70000,713
21.70833,713
21.71667,714
21.72500,715
21.73333,715
21.74167,715
21.75000,715
21.75833,716
21.76667,716
21.77500,716
21.78333,717
21.79167,717
21.80000,718
21.80833,719
21.81667,719
21.82500,720
21.83333,720
21.84167,721
21.85000,721
21.85833,722
21.86667,723
21.87500,724
21.88333,724
21.89167,725
21.90000,725
21.90833,726
21.91667,727
21.92500,727
21.93333,728
21.94167,728
21.95000,729
21.95833,729
21.96667,730
21.97500,730
21.98333,731
21.99167,731
22.00000,731
22.00833,732
22.01667,732
22.02500,732
22.03333,732
22.04167,732
22.05000,732
22.05833,732
22.06667,732
22.07500,731
22.08333,731
22.09167,731
22.10000,731
22.10833,731
22.11667,730
22.12500,730
22.13333,730
22.14167,730
22.15000,729
22.15833,729
22.16667,728
22.17500,728
22.18333,727
22.19167,726
22.20000,726
22.20833,725
22.21667,724
22.22500,724
22.23333,723
22.24167,723
22.25000,722
22.25833,722
22.26667,721
22.27500,721
22.28333,721
22.29167,721
22.30000,720
22.30833,720
22.31667,719
22.32500,718
22.33333,717
22.34167,717
22.35000,716
22.35833,716
22.36667,715
22.37500,715
22.38333,715
22.39167,715
22.40000,715
22.40833,714
22.41667,714
22.42500,714
22.43333,714
22.44167,714
22.45000,714
22.45833,714
22.46667,714
22.47500,713
22.48333,713
22.49167,713
22.50000,713
22.50833,714
22.51667,714
22.52500,714
22.53333,714
22.54167,713
22.55000,713
22.55833,713
22.56667,713
22.57500,714
22.58333,714
22.59167,715
22.60000,716
22.60833,716
22.61667,716
22.62500,716
22.63333,716
22.64167,715
22.65000,715
22.65833,715
22.66667,715
22.67500,715
22.68333,715
22.69167,715
22.70000,716
22.70833,716
22.71667,716
22.72500,716
22.73333,716
22.74167,716
22.75000,715
22.75833,715
22.76667,715
22.77500,715
22.78333,714
22.79167,714
22.80000,714
22.80833,714
22.81667,714
22.82500,713
22.83333,713
22.84167,713
22.85000,713
22.85833,713
22.86667,713
22.87500,712
22.88333,712
22.89167,711
22.90000,711
22.90833,711
22.91667,711
22.92500,710
22.93333,710
22.94167,709
22.95000,709
22.95833,708
22.96667,708
22.97500,708
22.98333,707
22.99167,707
23.00000,706
23.00833,706
23.01667,706
23.02500,705
23.03333,705
23.04167,705
23.05000,705
23.05833,704
23.06667,704
23.07500,703
23.08333,702
23.09167,702
23.10000,701
23.10833,701
23.11667,700
23.12500,700
23.13333,700
23.14167,700
23.15000,699
23.15833,699
23.16667,699
23.17500,699
23.18333,700
23.19167,700
23.20000,699
23.20833,699
23.21667,699
23.22500,699
23.23333,699
23.24167,700
23.25000,700
23.25833,700
23.26667,700
23.27500,700
23.28333,700
23.29167,700
23.30000,700
23.30833,700
23.31667,700
23.32500,700
23.33333,700
23.34167,700
23.35000,701
23.35833,701
23.36667,701
23.37500,702
23.38333,702
23.39167,702
23.40000,702
23.40833,702
23.41667,702
23.42500,702
23.43333,702
23.44167,702
23.45000,702
23.45833,703
23.46667,703
23.47500,704
23.48333,705
23.49167,706
23.50000,706
23.50833,706
23.51667,707
23.52500,707
23.53333,707
23.54167,707
23.55000,708
23.55833,708
23.56667,708
23.57500,708
23.58333,708
23.59167,708
23.60000,708
23.60833,708
23.61667,708
23.62500,708
23.63333,708
23.64167,708
23.65000,708
23.65833,708
23.66667,708
23.67500,708
23.68333,708
23.69167,708
23.70000,708
23.70833,708
23.71667,708
23.72500,708
23.73333,708
23.74167,708
23.75000,708
23.75833,708
23.76667,708
23.77500,708
23.78333,708
23.79167,707
23.80000,707
23.80833,707
23.81667,707
23.82500,707
23.83333,707
23.84167,707
23.85000,708
23.85833,708
23.86667,708
23.87500,708
23.88333,707
23.89167,707
23.90000,707
23.90833,708
23.91667,708
23.92500,707
23.93333,707
23.94167,708
23.95000,708
23.95833,707
23.96667,708
23.97500,708
23.98333,708
23.99167,709
24.00000,709
24.00833,709
24.01667,709
24.02500,709
24.03333,709
24.04167,709
24.05000,709
24.05833,709
24.06667,710
24.07500,710
24.08333,710
24.09167,711
24.10000,711
24.10833,711
24.11667,711
24.12500,711
24.13333,712
24.14167,712
24.15000,712
24.15833,712
24.16667,713
24.17500,713
24.18333,714
24.19167,714
24.20000,714
24.20833,715
24.21667,716
24.22500,716
24.23333,717
24.24167,718
24.25000,718
24.25833,719
24.26667,720
24.27500,721
24.28333,721
24.29167,722
24.30000,723
24.30833,724
24.31667,726
24.32500,727
24.33333,729
24.34167,730
24.35000,732
24.35833,734
24.36667,736
24.37500,738
24.38333,740
24.39167,743
24.40000,746
24.40833,749
24.41667,753
24.42500,757
24.43333,761
24.44167,766
24.45000,771
24.45833,777
24.46667,783
24.47500,790
24.48333,798
24.49167,806
24.50000,815
24.50833,825
24.51667,836
24.52500,848
24.53333,860
24.54167,873
24.55000,887
24.55833,902
24.56667,918
24.57500,934
24.58333,952
24.59167,972
24.60000,992
24.60833,1013
24.61667,1036
24.62500,1060
24.63333,1085
24.64167,1111
24.65000,1139
24.65833,1167
24.66667,1196
24.67500,1226
24.68333,1257
24.69167,1289
24.70000,1321
24.70833,1353
24.71667,1387
24.72500,1420
24.73333,1454
24.74167,1488
24.75000,1523
24.75833,1556
24.76667,1589
24.77500,1622
24.78333,1654
24.79167,1685
24.80000,1716
24.80833,1744
24.81667,1771
24.82500,1797
24.83333,1822
24.84167,1844
24.85000,1865
24.85833,1883
24.86667,1900
24.87500,1913
24.88333,1925
24.89167,1934
24.90000,1941
24.90833,1944
24.91667,1946
24.92500,1945
24.93333,1942
24.94167,1936
24.95000,1928
24.95833,1917
24.96667,1903
24.97500,1888
24.98333,1870
24.99167,1850
25.00000,1829
25.00833,1805
25.01667,1781
25.02500,1755
25.03333,1727
25.04167,1698
25.05000,1668
25.05833,1637
25.06667,1606
25.07500,1574
25.08333,1542
25.09167,1509
25.10000,1476
25.10833,1444
25.11667,1412
25.12500,1380
25.13333,1349
25.14167,1317
25.15000,1287
25.15833,1257
25.16667,1227
25.17500,1199
25.18333,1171
25.19167,1145
25.20000,1119
25.20833,1094
25.21667,1070
25.22500,1047
25.23333,1025
25.24167,1005
25.25000,985
25.25833,966
25.26667,948
25.27500,932
25.28333,916
25.29167,902
25.30000,888
25.30833,875
25.31667,863
25.32500,852
25.33333,841
25.34167,832
25.35000,822
25.35833,814
25.36667,807
25.37500,800
25.38333,793
25.39167,787
25.40000,782
25.40833,777
25.41667,772
25.42500,769
25.43333,765
25.44167,762
25.45000,759
25.45833,756
25.46667,754
25.47500,751
25.48333,749
25.49167,747
25.50000,746
25.50833,744
25.51667,743
25.52500,742
25.53333,741
25.54167,741
25.55000,740
25.55833,739
25.56667,739
25.57500,738
25.58333,737
25.59167,737
25.60000,736
25.60833,736
25.61667,735
25.62500,734
25.63333,734
25.64167,733
25.65000,733
25.65833,732
25.66667,732
25.67500,732
25.68333,731
25.69167,731
25.70000,730
25.70833,730
25.71667,729
25.72500,729
25.73333,729
25.74167,728
25.75000,728
25.75833,727
25.76667,727
25.77500,727
25.78333,727
25.79167,727
25.80000,726
25.80833,726
25.81667,725
25.82500,725
25.83333,724
25.84167,724
25.85000,724
25.85833,723
25.86667,722
25.87500,722
25.88333,722
25.89167,721
25.90000,721
25.90833,720
25.91667,720
25.92500,719
25.93333,719
25.94167,719
25.95000,719
25.95833,718
25.96667,718
25.97500,718
25.98333,717
25.99167,717
26.00000,717
26.00833,717
26.01667,717
26.02500,717
26.03333,717
26.04167,717
26.05000,717
26.05833,718
26.06667,718
26.07500,718
26.08333,718
26.09167,718
26.10000,718
26.10833,718
26.11667,718
26.12500,718
26.13333,719
26.14167,719
26.15000,719
26.15833,719
26.16667,719
26.17500,719
26.18333,720
26.19167,720
26.20000,720
26.20833,720
26.21667,720
26.22500,721
26.23333,721
26.24167,721
26.25000,721
26.25833,722
26.26667,722
26.27500,722
26.28333,722
26.29167,722
26.30000,722
26.30833,723
26.31667,722
26.32500,722
26.33333,722
26.34167,722
26.35000,722
26.35833,722
26.36667,723
26.37500,723
26.38333,723
26.39167,723
26.40000,723
26.40833,723
26.41667,723
26.42500,723
26.43333,723
26.44167,723
26.45000,723
26.45833,723
26.46667,723
26.47500,723
26.48333,724
26.49167,724
26.50000,723
26.50833,723
26.51667,723
26.52500,723
26.53333,723
26.54167,723
26.55000,723
26.55833,723
26.56667,723
26.57500,723
26.58333,724
26.59167,724
26.60000,724
26.60833,724
26.61667,724
26.62500,724
26.63333,724
26.64167,724
26.65000,724
26.65833,724
26.66667,724
26.67500,724
26.68333,725
26.69167,725
26.70000,725
26.70833,725
26.71667,725
26.72500,725
26.73333,725
26.74167,725
26.75000,725
26.75833,725
26.76667,725
26.77500,726
26.78333,726
26.79167,726
26.80000,726
26.80833,726
26.81667,726
26.82500,726
26.83333,726
26.84167,726
26.85000,726
26.85833,726
26.86667,726
26.87500,726
26.88333,726
26.89167,726
26.90000,726
26.90833,726
26.91667,726
26.92500,726
26.93333,725
26.94167,725
26.95000,725
26.95833,725
26.96667,725
26.97500,726
26.98333,726
26.99167,726
27.00000,726
27.00833,726
27.01667,725
27.02500,725
27.03333,725
27.04167,724
27.05000,724
27.05833,724
27.06667,724
27.07500,724
27.08333,724
27.09167,724
27.10000,724
27.10833,724
27.11667,724
27.12500,724
27.13333,724
27.14167,724
27.15000,724
27.15833,724
27.16667,725
27.17500,725
27.18333,725
27.19167,725
27.20000,726
27.20833,726
27.21667,726
27.22500,726
27.23333,726
27.24167,726
27.25000,727
27.25833,727
27.26667,727
27.27500,728
27.28333,728
27.29167,728
27.30000,728
27.30833,728
27.31667,728
27.32500,728
27.33333,728
27.34167,729
27.35000,729
27.35833,730
27.36667,730
27.37500,730
27.38333,731
27.39167,731
27.40000,731
27.40833,731
27.41667,731
27.42500,731
27.43333,731
27.44167,731
27.45000,731
27.45833,731
27.46667,731
27.47500,732
27.48333,732
27.49167,732
27.50000,732
27.50833,732
27.51667,732
27.52500,732
27.53333,732
27.54167,732
27.55000,732
27.55833,732
27.56667,732
27.57500,733
27.58333,733
27.59167,733
27.60000,733
27.60833,733
27.61667,733
27.62500,733
27.63333,733
27.64167,733
27.65000,733
27.65833,733
27.66667,733
27.67500,732
27.68333,732
27.69167,732
27.70000,732
27.70833,731
27.71667,731
27.72500,731
27.73333,731
27.74167,731
27.75000,730
27.75833,730
27.76667,729
27.77500,729
27.78333,728
27.79167,728
27.80000,726
27.80833,725
27.81667,724
27.82500,723
27.83333,722
27.84167,720
27.85000,719
27.85833,717
27.86667,716
27.87500,714
27.88333,712
27.89167,710
27.90000,708
27.90833,706
27.91667,704
27.92500,701
27.93333,698
27.94167,695
27.95000,692
27.95833,688
27.96667,685
27.97500,680
27.98333,676
27.99167,671
28.00000,666
28.00833,661
28.01667,656
28.02500,650
28.03333,644
28.04167,638
28.05000,632
28.05833,625
28.06667,618
28.07500,610
28.08333,601
28.09167,592
28.10000,583
28.10833,574
28.11667,564
28.12500,553
28.13333,543
28.14167,532
28.15000,520
28.15833,508
28.16667,496
28.17500,483
28.18333,470
28.19167,456
28.20000,442
28.20833,427
28.21667,413
28.22500,397
28.23333,382
28.24167,365
28.25000,349
28.25833,332
28.26667,315
28.27500,297
28.28333,280
28.29167,262
28.30000,244
28.30833,226
28.31667,208
28.32500,190
28.33333,172
28.34167,154
28.35000,136
28.35833,118
28.36667,100
28.37500,82
28.38333,64
28.39167,47
28.40000,30
28.40833,13
28.41667,-3
28.42500,-19
28.43333,-35
28.44167,-50
28.45000,-64
28.45833,-78
28.46667,-91
28.47500,-104
28.48333,-117
28.49167,-128
28.50000,-139
28.50833,-150
28.51667,-159
28.52500,-168
28.53333,-176
28.54167,-183
28.55000,-189
28.55833,-195
28.56667,-200
28.57500,-204
28.58333,-207
28.59167,-209
28.60000,-211
28.60833,-213
28.61667,-214
28.62500,-214
28.63333,-213
28.64167,-212
28.65000,-209
28.65833,-207
28.66667,-203
28.67500,-199
28.68333,-195
28.69167,-191
28.70000,-185
28.70833,-180
28.71667,-174
28.72500,-168
28.73333,-161
28.74167,-154
28.75000,-147
28.75833,-139
28.76667,-132
28.77500,-123
28.78333,-115
28.79167,-107
28.80000,-98
28.80833,-90
28.81667,-81
28.82500,-72
28.83333,-64
28.84167,-55
28.85000,-47
28.85833,-38
28.86667,-29
28.87500,-21
28.88333,-12
28.89167,-3
28.90000,5
28.90833,13
28.91667,21
28.92500,30
28.93333,38
28.94167,46
28.95000,53
28.95833,60
28.96667,68
28.97500,75
28.98333,82
28.99167,89
29.00000,96
29.00833,103
29.01667,109
29.02500,116
29.03333,122
29.04167,129
29.05000,135
29.05833,141
29.06667,147
29.07500,152
29.08333,158
29.09167,163
29.10000,169
29.10833,174
29.11667,178
29.12500,183
29.13333,188
29.14167,192
29.15000,197
29.15833,201
29.16667,205
29.17500,209
29.18333,213
29.19167,217
29.20000,221
29.20833,224
29.21667,228
29.22500,231
29.23333,234
29.24167,237
29.25000,240
29.25833,243
29.26667,246
29.27500,249
29.28333,252
29.29167,254
29.30000,257
29.30833,260
29.31667,262
29.32500,265
29.33333,267
29.34167,270
29.35000,272
29.35833,274
29.36667,277
29.37500,279
29.38333,282
29.39167,283
29.40000,285
29.40833,287
29.41667,289
29.42500,291
29.43333,292
29.44167,294
29.45000,296
29.45833,298
29.46667,300
29.47500,301
29.48333,303
29.49167,305
29.50000,306
29.50833,308
29.51667,310
29.52500,311
29.53333,313
29.54167,315
29.55000,316
29.55833,317
29.56667,319
29.57500,320
29.58333,321
29.59167,322
29.60000,323
29.60833,324
29.61667,325
29.62500,326
29.63333,327
29.64167,329
29.65000,330
29.65833,331
29.66667,332
29.67500,332
29.68333,333
29.69167,333
29.70000,334
29.70833,334
29.71667,334
29.72500,334
29.73333,333
29.74167,333
29.75000,333
29.75833,332
29.76667,332
29.77500,331
29.78333,331
29.79167,330
29.80000,329
29.80833,327
29.81667,325
29.82500,324
29.83333,322
29.84167,320
29.85000,318
29.85833,316
29.86667,314
29.87500,312
29.88333,309
29.89167,306
29.90000,303
29.90833,300
29.91667,297
29.92500,293
29.93333,289
29.94167,285
29.95000,281
29.95833,278
29.96667,274
29.97500,269
29.98333,265
29.99167,260
30.00000,255

