[Header]
Application Name,LabSolutions
Version,5.97 SP1
Data File Name,C:\Users\cremerlab\Desktop\griffin\2021-02-15_NCM_diauxie_turnover\2021-02-15_NCM_acetate_glucose_diauxie_turnover_2152021_002.lcd
Output Date,2/16/2021
Output Time,8:45:38 AM

[File Information]
Type,Data File
Generated,2/15/2021 8:55:40 PM
Generated by,System Administrator
Modified,2/15/2021 9:25:59 PM
Modified by,System Administrator

[Sample Information]
Operator Name,System Administrator
Acquired,2/15/2021 8:55:58 PM
Sample Type,0:Unknown
Level,0
Sample Name,NCM diauxic shift timepoint 2
Sample ID,002
ISTD Amount1,1
ISTD Amount2,1
ISTD Amount3,1
ISTD Amount4,1
ISTD Amount5,1
ISTD Amount6,1
ISTD Amount7,1
ISTD Amount8,1
ISTD Amount9,1
ISTD Amount10,1
ISTD Amount11,1
ISTD Amount12,1
ISTD Amount13,1
ISTD Amount14,1
ISTD Amount15,1
ISTD Amount16,1
ISTD Amount17,1
ISTD Amount18,1
ISTD Amount19,1
ISTD Amount20,1
ISTD Amount21,1
ISTD Amount22,1
ISTD Amount23,1
ISTD Amount24,1
ISTD Amount25,1
ISTD Amount26,1
ISTD Amount27,1
ISTD Amount28,1
ISTD Amount29,1
ISTD Amount30,1
ISTD Amount31,1
ISTD Amount32,1
Sample Amount,1
Dilution Factor,1
Vial#,2
Injection Volume,20

[Original Files]
Data File,C:\Users\cremerlab\Desktop\griffin\2021-02-15_NCM_diauxie_turnover\2021-02-15_NCM_acetate_glucose_diauxie_turnover_2152021_002.lcd
Method File,C:\LabSolutions\Data\Project1\organicacidsetc.lcm
Batch File,C:\Users\cremerlab\Desktop\griffin\2021-02-15_NCM_diauxie_turnover\2021-02-15_NCM_acetate_glucose_diauxie_turnover.lcb
Report Format File,c:\LabSolutions\System\DEFAULT.lsr

[File Description]


[Configuration]
Instrument Name,HPLC-PC-Instrument1
Instrument #,1
Line #,1
# of Detectors,2
Detector ID,Detector A,Detector B
Detector Name,Detector A,Detector B
# of Channels,1,1

[Peak Table(Detector A)]
# of Peaks,0

[Peak Table(Detector B)]
# of Peaks,5
Peak#,R.Time,I.Time,F.Time,Area,Height,A/H,Conc.,Mark,ID#,Name,k',Plate #,Plate Ht.,Tailing,Resolution,Sep.Factor,Area Ratio,Height Ratio,Conc. %,Norm Conc.
1,10.877,10.625,11.517,135435,8646,15.665,0.000,   ,,,0.000,11125,13.483,1.290,0.000,0.000,0,0,0.000,0.000
2,13.428,12.558,14.442,479316,18648,25.703,0.000,   ,,,0.234,5634,26.625,0.723,4.522,0.000,0,0,0.000,0.000
3,15.562,15.183,16.183,6208,265,23.384,0.000,   ,,,0.431,10116,14.828,1.223,3.199,1.837,0,0,0.000,0.000
4,24.909,24.283,25.608,40513,1451,27.930,0.000,   ,,,1.290,17971,8.347,1.022,13.724,2.995,0,0,0.000,0.000
5,29.653,28.625,29.967,14865,201,73.798,0.000,   ,,,1.726,7966,18.830,0.655,4.579,1.338,0,0,0.000,0.000

[Compound Results(Detector A)]
# of IDs,0

[Compound Results(Detector B)]
# of IDs,0

[LC Chromatogram(Detector B-Ch1)]
Interval(msec),500
# of Points,3601
Start Time(min),0.000
End Time(min),30.000
Intensity Units,mV
Intensity Multiplier,0.001
R.Time (min),Intensity
0.00000,-104
0.00833,-104
0.01667,-33
0.02500,1
0.03333,1
0.04167,1
0.05000,-0
0.05833,-2
0.06667,-4
0.07500,-4
0.08333,-3
0.09167,-2
0.10000,-0
0.10833,2
0.11667,4
0.12500,7
0.13333,10
0.14167,13
0.15000,16
0.15833,20
0.16667,23
0.17500,26
0.18333,29
0.19167,32
0.20000,35
0.20833,39
0.21667,42
0.22500,46
0.23333,49
0.24167,53
0.25000,56
0.25833,59
0.26667,62
0.27500,65
0.28333,68
0.29167,71
0.30000,74
0.30833,78
0.31667,81
0.32500,84
0.33333,87
0.34167,90
0.35000,94
0.35833,97
0.36667,100
0.37500,103
0.38333,105
0.39167,108
0.40000,111
0.40833,114
0.41667,116
0.42500,119
0.43333,122
0.44167,124
0.45000,127
0.45833,129
0.46667,132
0.47500,134
0.48333,137
0.49167,139
0.50000,141
0.50833,144
0.51667,146
0.52500,149
0.53333,151
0.54167,154
0.55000,156
0.55833,158
0.56667,161
0.57500,163
0.58333,165
0.59167,168
0.60000,170
0.60833,172
0.61667,174
0.62500,176
0.63333,177
0.64167,179
0.65000,180
0.65833,181
0.66667,181
0.67500,182
0.68333,183
0.69167,184
0.70000,184
0.70833,185
0.71667,186
0.72500,187
0.73333,188
0.74167,189
0.75000,191
0.75833,192
0.76667,194
0.77500,195
0.78333,197
0.79167,199
0.80000,201
0.80833,203
0.81667,205
0.82500,206
0.83333,208
0.84167,210
0.85000,212
0.85833,213
0.86667,215
0.87500,216
0.88333,218
0.89167,220
0.90000,222
0.90833,223
0.91667,225
0.92500,227
0.93333,228
0.94167,230
0.95000,231
0.95833,233
0.96667,235
0.97500,236
0.98333,238
0.99167,239
1.00000,241
1.00833,242
1.01667,244
1.02500,246
1.03333,247
1.04167,249
1.05000,250
1.05833,251
1.06667,252
1.07500,253
1.08333,254
1.09167,255
1.10000,256
1.10833,257
1.11667,259
1.12500,260
1.13333,262
1.14167,263
1.15000,264
1.15833,265
1.16667,266
1.17500,268
1.18333,269
1.19167,270
1.20000,271
1.20833,272
1.21667,273
1.22500,274
1.23333,275
1.24167,276
1.25000,277
1.25833,278
1.26667,279
1.27500,280
1.28333,281
1.29167,282
1.30000,283
1.30833,284
1.31667,285
1.32500,286
1.33333,286
1.34167,287
1.35000,288
1.35833,289
1.36667,289
1.37500,290
1.38333,291
1.39167,292
1.40000,293
1.40833,294
1.41667,294
1.42500,295
1.43333,296
1.44167,297
1.45000,297
1.45833,298
1.46667,298
1.47500,299
1.48333,299
1.49167,300
1.50000,301
1.50833,302
1.51667,303
1.52500,304
1.53333,305
1.54167,306
1.55000,306
1.55833,307
1.56667,307
1.57500,308
1.58333,309
1.59167,310
1.60000,311
1.60833,312
1.61667,313
1.62500,313
1.63333,314
1.64167,314
1.65000,315
1.65833,316
1.66667,317
1.67500,318
1.68333,319
1.69167,320
1.70000,320
1.70833,321
1.71667,321
1.72500,322
1.73333,322
1.74167,323
1.75000,323
1.75833,324
1.76667,325
1.77500,326
1.78333,327
1.79167,328
1.80000,328
1.80833,328
1.81667,328
1.82500,328
1.83333,329
1.84167,330
1.85000,330
1.85833,331
1.86667,332
1.87500,332
1.88333,332
1.89167,332
1.90000,333
1.90833,334
1.91667,334
1.92500,335
1.93333,335
1.94167,336
1.95000,336
1.95833,337
1.96667,337
1.97500,338
1.98333,339
1.99167,340
2.00000,341
2.00833,341
2.01667,342
2.02500,343
2.03333,344
2.04167,344
2.05000,345
2.05833,346
2.06667,347
2.07500,347
2.08333,348
2.09167,349
2.10000,350
2.10833,351
2.11667,352
2.12500,353
2.13333,354
2.14167,355
2.15000,356
2.15833,357
2.16667,358
2.17500,359
2.18333,360
2.19167,360
2.20000,361
2.20833,362
2.21667,363
2.22500,364
2.23333,365
2.24167,366
2.25000,367
2.25833,368
2.26667,369
2.27500,370
2.28333,370
2.29167,372
2.30000,373
2.30833,374
2.31667,374
2.32500,375
2.33333,376
2.34167,376
2.35000,377
2.35833,378
2.36667,379
2.37500,379
2.38333,380
2.39167,381
2.40000,382
2.40833,383
2.41667,384
2.42500,386
2.43333,387
2.44167,387
2.45000,388
2.45833,388
2.46667,389
2.47500,390
2.48333,390
2.49167,391
2.50000,392
2.50833,393
2.51667,393
2.52500,394
2.53333,394
2.54167,395
2.55000,396
2.55833,397
2.56667,397
2.57500,398
2.58333,398
2.59167,399
2.60000,400
2.60833,401
2.61667,402
2.62500,403
2.63333,403
2.64167,404
2.65000,405
2.65833,406
2.66667,407
2.67500,407
2.68333,408
2.69167,408
2.70000,409
2.70833,409
2.71667,410
2.72500,411
2.73333,411
2.74167,411
2.75000,412
2.75833,413
2.76667,414
2.77500,414
2.78333,415
2.79167,416
2.80000,417
2.80833,417
2.81667,418
2.82500,419
2.83333,420
2.84167,421
2.85000,421
2.85833,422
2.86667,422
2.87500,423
2.88333,423
2.89167,424
2.90000,424
2.90833,425
2.91667,426
2.92500,426
2.93333,426
2.94167,426
2.95000,427
2.95833,427
2.96667,427
2.97500,428
2.98333,428
2.99167,428
3.00000,428
3.00833,429
3.01667,429
3.02500,430
3.03333,431
3.04167,431
3.05000,431
3.05833,431
3.06667,431
3.07500,431
3.08333,431
3.09167,432
3.10000,432
3.10833,431
3.11667,432
3.12500,431
3.13333,431
3.14167,431
3.15000,431
3.15833,431
3.16667,432
3.17500,432
3.18333,433
3.19167,433
3.20000,433
3.20833,434
3.21667,434
3.22500,434
3.23333,434
3.24167,435
3.25000,435
3.25833,436
3.26667,436
3.27500,437
3.28333,438
3.29167,438
3.30000,439
3.30833,440
3.31667,441
3.32500,442
3.33333,443
3.34167,444
3.35000,445
3.35833,446
3.36667,446
3.37500,447
3.38333,448
3.39167,449
3.40000,450
3.40833,450
3.41667,451
3.42500,453
3.43333,454
3.44167,455
3.45000,456
3.45833,457
3.46667,458
3.47500,459
3.48333,460
3.49167,462
3.50000,463
3.50833,465
3.51667,466
3.52500,467
3.53333,468
3.54167,469
3.55000,470
3.55833,470
3.56667,471
3.57500,472
3.58333,473
3.59167,474
3.60000,475
3.60833,476
3.61667,476
3.62500,477
3.63333,477
3.64167,478
3.65000,479
3.65833,480
3.66667,481
3.67500,482
3.68333,482
3.69167,482
3.70000,483
3.70833,483
3.71667,484
3.72500,484
3.73333,485
3.74167,486
3.75000,486
3.75833,487
3.76667,487
3.77500,488
3.78333,488
3.79167,489
3.80000,489
3.80833,490
3.81667,490
3.82500,490
3.83333,490
3.84167,491
3.85000,491
3.85833,492
3.86667,492
3.87500,492
3.88333,492
3.89167,492
3.90000,492
3.90833,492
3.91667,492
3.92500,492
3.93333,491
3.94167,491
3.95000,491
3.95833,491
3.96667,492
3.97500,492
3.98333,492
3.99167,492
4.00000,492
4.00833,492
4.01667,492
4.02500,493
4.03333,493
4.04167,493
4.05000,493
4.05833,492
4.06667,493
4.07500,493
4.08333,493
4.09167,494
4.10000,495
4.10833,496
4.11667,497
4.12500,497
4.13333,498
4.14167,498
4.15000,499
4.15833,500
4.16667,500
4.17500,501
4.18333,501
4.19167,502
4.20000,503
4.20833,504
4.21667,505
4.22500,506
4.23333,508
4.24167,509
4.25000,510
4.25833,510
4.26667,512
4.27500,513
4.28333,514
4.29167,515
4.30000,516
4.30833,517
4.31667,518
4.32500,520
4.33333,521
4.34167,522
4.35000,523
4.35833,524
4.36667,525
4.37500,526
4.38333,527
4.39167,529
4.40000,529
4.40833,530
4.41667,531
4.42500,532
4.43333,533
4.44167,533
4.45000,534
4.45833,535
4.46667,535
4.47500,536
4.48333,536
4.49167,536
4.50000,536
4.50833,536
4.51667,537
4.52500,537
4.53333,536
4.54167,536
4.55000,536
4.55833,535
4.56667,535
4.57500,535
4.58333,535
4.59167,535
4.60000,535
4.60833,535
4.61667,535
4.62500,535
4.63333,534
4.64167,534
4.65000,534
4.65833,533
4.66667,532
4.67500,532
4.68333,531
4.69167,530
4.70000,530
4.70833,530
4.71667,529
4.72500,529
4.73333,529
4.74167,529
4.75000,529
4.75833,528
4.76667,528
4.77500,528
4.78333,528
4.79167,528
4.80000,527
4.80833,527
4.81667,527
4.82500,527
4.83333,527
4.84167,527
4.85000,528
4.85833,528
4.86667,528
4.87500,528
4.88333,528
4.89167,528
4.90000,528
4.90833,528
4.91667,528
4.92500,529
4.93333,529
4.94167,529
4.95000,530
4.95833,530
4.96667,530
4.97500,531
4.98333,531
4.99167,531
5.00000,532
5.00833,532
5.01667,533
5.02500,534
5.03333,534
5.04167,535
5.05000,536
5.05833,536
5.06667,537
5.07500,537
5.08333,537
5.09167,538
5.10000,539
5.10833,540
5.11667,541
5.12500,542
5.13333,543
5.14167,543
5.15000,544
5.15833,545
5.16667,545
5.17500,545
5.18333,546
5.19167,546
5.20000,547
5.20833,548
5.21667,549
5.22500,550
5.23333,551
5.24167,552
5.25000,552
5.25833,553
5.26667,554
5.27500,554
5.28333,555
5.29167,555
5.30000,556
5.30833,556
5.31667,557
5.32500,557
5.33333,557
5.34167,557
5.35000,557
5.35833,557
5.36667,558
5.37500,558
5.38333,558
5.39167,559
5.40000,559
5.40833,560
5.41667,560
5.42500,561
5.43333,561
5.44167,561
5.45000,561
5.45833,561
5.46667,561
5.47500,561
5.48333,561
5.49167,561
5.50000,561
5.50833,561
5.51667,561
5.52500,561
5.53333,562
5.54167,562
5.55000,561
5.55833,561
5.56667,561
5.57500,561
5.58333,561
5.59167,561
5.60000,561
5.60833,561
5.61667,561
5.62500,561
5.63333,561
5.64167,561
5.65000,561
5.65833,561
5.66667,561
5.67500,560
5.68333,560
5.69167,560
5.70000,560
5.70833,560
5.71667,560
5.72500,560
5.73333,560
5.74167,560
5.75000,560
5.75833,559
5.76667,560
5.77500,560
5.78333,560
5.79167,560
5.80000,560
5.80833,560
5.81667,560
5.82500,560
5.83333,560
5.84167,560
5.85000,560
5.85833,559
5.86667,558
5.87500,558
5.88333,558
5.89167,558
5.90000,558
5.90833,558
5.91667,558
5.92500,558
5.93333,558
5.94167,557
5.95000,557
5.95833,557
5.96667,557
5.97500,557
5.98333,557
5.99167,557
6.00000,557
6.00833,556
6.01667,556
6.02500,556
6.03333,556
6.04167,556
6.05000,556
6.05833,556
6.06667,556
6.07500,557
6.08333,557
6.09167,557
6.10000,557
6.10833,557
6.11667,557
6.12500,558
6.13333,558
6.14167,558
6.15000,558
6.15833,559
6.16667,559
6.17500,559
6.18333,560
6.19167,560
6.20000,560
6.20833,560
6.21667,561
6.22500,561
6.23333,561
6.24167,562
6.25000,562
6.25833,563
6.26667,563
6.27500,563
6.28333,564
6.29167,565
6.30000,565
6.30833,565
6.31667,565
6.32500,566
6.33333,566
6.34167,567
6.35000,567
6.35833,567
6.36667,567
6.37500,568
6.38333,568
6.39167,568
6.40000,568
6.40833,568
6.41667,569
6.42500,569
6.43333,570
6.44167,571
6.45000,571
6.45833,571
6.46667,571
6.47500,571
6.48333,571
6.49167,572
6.50000,572
6.50833,573
6.51667,573
6.52500,574
6.53333,574
6.54167,575
6.55000,575
6.55833,576
6.56667,576
6.57500,577
6.58333,577
6.59167,578
6.60000,578
6.60833,579
6.61667,579
6.62500,580
6.63333,581
6.64167,581
6.65000,582
6.65833,583
6.66667,584
6.67500,585
6.68333,586
6.69167,587
6.70000,588
6.70833,589
6.71667,590
6.72500,591
6.73333,592
6.74167,593
6.75000,594
6.75833,595
6.76667,596
6.77500,597
6.78333,598
6.79167,599
6.80000,600
6.80833,601
6.81667,602
6.82500,603
6.83333,604
6.84167,605
6.85000,606
6.85833,607
6.86667,608
6.87500,609
6.88333,610
6.89167,611
6.90000,611
6.90833,612
6.91667,613
6.92500,614
6.93333,615
6.94167,616
6.95000,617
6.95833,618
6.96667,618
6.97500,619
6.98333,619
6.99167,620
7.00000,621
7.00833,622
7.01667,623
7.02500,623
7.03333,624
7.04167,625
7.05000,625
7.05833,626
7.06667,626
7.07500,627
7.08333,627
7.09167,628
7.10000,628
7.10833,629
7.11667,629
7.12500,630
7.13333,630
7.14167,630
7.15000,630
7.15833,630
7.16667,630
7.17500,630
7.18333,630
7.19167,630
7.20000,630
7.20833,630
7.21667,630
7.22500,631
7.23333,630
7.24167,630
7.25000,630
7.25833,630
7.26667,630
7.27500,630
7.28333,630
7.29167,629
7.30000,629
7.30833,629
7.31667,628
7.32500,628
7.33333,627
7.34167,627
7.35000,626
7.35833,625
7.36667,625
7.37500,624
7.38333,623
7.39167,622
7.40000,621
7.40833,620
7.41667,620
7.42500,619
7.43333,618
7.44167,617
7.45000,616
7.45833,615
7.46667,615
7.47500,614
7.48333,613
7.49167,612
7.50000,611
7.50833,610
7.51667,609
7.52500,608
7.53333,607
7.54167,606
7.55000,604
7.55833,603
7.56667,602
7.57500,601
7.58333,600
7.59167,600
7.60000,599
7.60833,598
7.61667,597
7.62500,596
7.63333,595
7.64167,594
7.65000,594
7.65833,593
7.66667,593
7.67500,592
7.68333,591
7.69167,590
7.70000,589
7.70833,588
7.71667,586
7.72500,585
7.73333,584
7.74167,583
7.75000,582
7.75833,581
7.76667,580
7.77500,579
7.78333,579
7.79167,578
7.80000,577
7.80833,576
7.81667,576
7.82500,575
7.83333,574
7.84167,573
7.85000,572
7.85833,572
7.86667,571
7.87500,571
7.88333,570
7.89167,570
7.90000,569
7.90833,568
7.91667,568
7.92500,567
7.93333,567
7.94167,566
7.95000,566
7.95833,565
7.96667,565
7.97500,564
7.98333,564
7.99167,563
8.00000,563
8.00833,563
8.01667,563
8.02500,563
8.03333,563
8.04167,563
8.05000,563
8.05833,563
8.06667,563
8.07500,564
8.08333,563
8.09167,563
8.10000,563
8.10833,563
8.11667,564
8.12500,564
8.13333,564
8.14167,564
8.15000,564
8.15833,565
8.16667,565
8.17500,565
8.18333,566
8.19167,566
8.20000,567
8.20833,568
8.21667,568
8.22500,569
8.23333,570
8.24167,571
8.25000,572
8.25833,572
8.26667,573
8.27500,574
8.28333,574
8.29167,575
8.30000,575
8.30833,576
8.31667,577
8.32500,578
8.33333,579
8.34167,580
8.35000,581
8.35833,582
8.36667,582
8.37500,583
8.38333,584
8.39167,585
8.40000,585
8.40833,586
8.41667,587
8.42500,587
8.43333,588
8.44167,588
8.45000,589
8.45833,589
8.46667,589
8.47500,589
8.48333,590
8.49167,590
8.50000,591
8.50833,591
8.51667,591
8.52500,591
8.53333,590
8.54167,590
8.55000,590
8.55833,590
8.56667,590
8.57500,589
8.58333,589
8.59167,588
8.60000,588
8.60833,588
8.61667,587
8.62500,587
8.63333,586
8.64167,586
8.65000,586
8.65833,586
8.66667,586
8.67500,586
8.68333,586
8.69167,586
8.70000,586
8.70833,585
8.71667,584
8.72500,583
8.73333,583
8.74167,582
8.75000,581
8.75833,581
8.76667,581
8.77500,580
8.78333,579
8.79167,579
8.80000,578
8.80833,578
8.81667,578
8.82500,578
8.83333,577
8.84167,577
8.85000,576
8.85833,576
8.86667,576
8.87500,575
8.88333,574
8.89167,574
8.90000,573
8.90833,573
8.91667,573
8.92500,572
8.93333,572
8.94167,572
8.95000,571
8.95833,571
8.96667,570
8.97500,570
8.98333,570
8.99167,569
9.00000,569
9.00833,569
9.01667,568
9.02500,567
9.03333,567
9.04167,566
9.05000,565
9.05833,564
9.06667,564
9.07500,564
9.08333,563
9.09167,563
9.10000,562
9.10833,562
9.11667,562
9.12500,562
9.13333,561
9.14167,560
9.15000,560
9.15833,559
9.16667,559
9.17500,558
9.18333,557
9.19167,557
9.20000,556
9.20833,555
9.21667,555
9.22500,555
9.23333,555
9.24167,554
9.25000,554
9.25833,553
9.26667,553
9.27500,552
9.28333,552
9.29167,552
9.30000,552
9.30833,552
9.31667,552
9.32500,552
9.33333,552
9.34167,552
9.35000,551
9.35833,551
9.36667,551
9.37500,551
9.38333,551
9.39167,550
9.40000,550
9.40833,550
9.41667,549
9.42500,549
9.43333,549
9.44167,550
9.45000,550
9.45833,550
9.46667,550
9.47500,550
9.48333,550
9.49167,550
9.50000,550
9.50833,550
9.51667,550
9.52500,550
9.53333,550
9.54167,550
9.55000,550
9.55833,550
9.56667,551
9.57500,550
9.58333,550
9.59167,550
9.60000,550
9.60833,550
9.61667,549
9.62500,549
9.63333,550
9.64167,549
9.65000,549
9.65833,549
9.66667,549
9.67500,549
9.68333,549
9.69167,549
9.70000,550
9.70833,550
9.71667,550
9.72500,551
9.73333,551
9.74167,551
9.75000,552
9.75833,552
9.76667,552
9.77500,552
9.78333,552
9.79167,551
9.80000,551
9.80833,551
9.81667,551
9.82500,551
9.83333,552
9.84167,552
9.85000,552
9.85833,552
9.86667,553
9.87500,553
9.88333,552
9.89167,551
9.90000,551
9.90833,550
9.91667,550
9.92500,550
9.93333,550
9.94167,550
9.95000,549
9.95833,549
9.96667,549
9.97500,549
9.98333,548
9.99167,548
10.00000,548
10.00833,548
10.01667,549
10.02500,549
10.03333,549
10.04167,549
10.05000,550
10.05833,550
10.06667,550
10.07500,551
10.08333,551
10.09167,551
10.10000,552
10.10833,552
10.11667,552
10.12500,552
10.13333,552
10.14167,553
10.15000,553
10.15833,554
10.16667,554
10.17500,555
10.18333,555
10.19167,556
10.20000,557
10.20833,558
10.21667,559
10.22500,559
10.23333,560
10.24167,561
10.25000,561
10.25833,562
10.26667,563
10.27500,563
10.28333,564
10.29167,565
10.30000,566
10.30833,567
10.31667,567
10.32500,568
10.33333,568
10.34167,569
10.35000,569
10.35833,569
10.36667,569
10.37500,569
10.38333,569
10.39167,568
10.40000,567
10.40833,566
10.41667,565
10.42500,563
10.43333,561
10.44167,558
10.45000,554
10.45833,549
10.46667,541
10.47500,532
10.48333,520
10.49167,505
10.50000,487
10.50833,465
10.51667,438
10.52500,408
10.53333,372
10.54167,333
10.55000,289
10.55833,242
10.56667,194
10.57500,145
10.58333,97
10.59167,52
10.60000,13
10.60833,-17
10.61667,-36
10.62500,-38
10.63333,-21
10.64167,19
10.65000,85
10.65833,181
10.66667,308
10.67500,470
10.68333,668
10.69167,903
10.70000,1175
10.70833,1485
10.71667,1830
10.72500,2209
10.73333,2619
10.74167,3056
10.75000,3515
10.75833,3992
10.76667,4481
10.77500,4974
10.78333,5466
10.79167,5948
10.80000,6413
10.80833,6854
10.81667,7263
10.82500,7634
10.83333,7960
10.84167,8236
10.85000,8458
10.85833,8624
10.86667,8730
10.87500,8775
10.88333,8761
10.89167,8690
10.90000,8565
10.90833,8389
10.91667,8167
10.92500,7906
10.93333,7609
10.94167,7285
10.95000,6939
10.95833,6578
10.96667,6207
10.97500,5831
10.98333,5455
10.99167,5085
11.00000,4722
11.00833,4372
11.01667,4036
11.02500,3717
11.03333,3415
11.04167,3133
11.05000,2870
11.05833,2627
11.06667,2402
11.07500,2197
11.08333,2011
11.09167,1842
11.10000,1690
11.10833,1553
11.11667,1431
11.12500,1322
11.13333,1226
11.14167,1140
11.15000,1065
11.15833,1000
11.16667,942
11.17500,892
11.18333,848
11.19167,810
11.20000,777
11.20833,748
11.21667,724
11.22500,702
11.23333,684
11.24167,668
11.25000,654
11.25833,642
11.26667,632
11.27500,623
11.28333,615
11.29167,608
11.30000,602
11.30833,597
11.31667,593
11.32500,589
11.33333,585
11.34167,582
11.35000,579
11.35833,576
11.36667,574
11.37500,572
11.38333,570
11.39167,568
11.40000,566
11.40833,565
11.41667,564
11.42500,563
11.43333,562
11.44167,561
11.45000,560
11.45833,558
11.46667,557
11.47500,557
11.48333,556
11.49167,555
11.50000,554
11.50833,554
11.51667,554
11.52500,554
11.53333,553
11.54167,553
11.55000,552
11.55833,552
11.56667,551
11.57500,551
11.58333,551
11.59167,550
11.60000,549
11.60833,548
11.61667,547
11.62500,547
11.63333,546
11.64167,545
11.65000,544
11.65833,543
11.66667,542
11.67500,541
11.68333,539
11.69167,538
11.70000,536
11.70833,535
11.71667,533
11.72500,532
11.73333,531
11.74167,531
11.75000,530
11.75833,529
11.76667,528
11.77500,526
11.78333,525
11.79167,525
11.80000,524
11.80833,523
11.81667,522
11.82500,521
11.83333,521
11.84167,520
11.85000,520
11.85833,520
11.86667,520
11.87500,520
11.88333,520
11.89167,520
11.90000,520
11.90833,521
11.91667,522
11.92500,522
11.93333,523
11.94167,524
11.95000,525
11.95833,526
11.96667,527
11.97500,528
11.98333,529
11.99167,530
12.00000,532
12.00833,534
12.01667,536
12.02500,537
12.03333,539
12.04167,541
12.05000,542
12.05833,544
12.06667,546
12.07500,547
12.08333,549
12.09167,551
12.10000,553
12.10833,555
12.11667,557
12.12500,559
12.13333,561
12.14167,562
12.15000,564
12.15833,566
12.16667,567
12.17500,569
12.18333,570
12.19167,571
12.20000,572
12.20833,573
12.21667,575
12.22500,575
12.23333,576
12.24167,577
12.25000,577
12.25833,578
12.26667,578
12.27500,579
12.28333,579
12.29167,580
12.30000,580
12.30833,581
12.31667,582
12.32500,582
12.33333,582
12.34167,582
12.35000,582
12.35833,582
12.36667,582
12.37500,583
12.38333,583
12.39167,582
12.40000,582
12.40833,582
12.41667,581
12.42500,581
12.43333,581
12.44167,581
12.45000,581
12.45833,580
12.46667,580
12.47500,580
12.48333,579
12.49167,579
12.50000,579
12.50833,579
12.51667,579
12.52500,579
12.53333,579
12.54167,579
12.55000,579
12.55833,579
12.56667,580
12.57500,581
12.58333,582
12.59167,584
12.60000,586
12.60833,588
12.61667,591
12.62500,595
12.63333,599
12.64167,604
12.65000,611
12.65833,619
12.66667,630
12.67500,642
12.68333,656
12.69167,673
12.70000,692
12.70833,715
12.71667,742
12.72500,773
12.73333,808
12.74167,848
12.75000,894
12.75833,945
12.76667,1003
12.77500,1067
12.78333,1137
12.79167,1214
12.80000,1299
12.80833,1390
12.81667,1489
12.82500,1595
12.83333,1708
12.84167,1829
12.85000,1957
12.85833,2091
12.86667,2233
12.87500,2381
12.88333,2536
12.89167,2698
12.90000,2867
12.90833,3041
12.91667,3221
12.92500,3406
12.93333,3597
12.94167,3793
12.95000,3994
12.95833,4200
12.96667,4411
12.97500,4626
12.98333,4846
12.99167,5069
13.00000,5297
13.00833,5528
13.01667,5762
13.02500,6000
13.03333,6241
13.04167,6486
13.05000,6734
13.05833,6985
13.06667,7239
13.07500,7495
13.08333,7755
13.09167,8017
13.10000,8281
13.10833,8548
13.11667,8817
13.12500,9089
13.13333,9363
13.14167,9639
13.15000,9918
13.15833,10199
13.16667,10483
13.17500,10769
13.18333,11057
13.19167,11346
13.20000,11638
13.20833,11932
13.21667,12228
13.22500,12526
13.23333,12826
13.24167,13128
13.25000,13431
13.25833,13737
13.26667,14044
13.27500,14353
13.28333,14663
13.29167,14975
13.30000,15288
13.30833,15602
13.31667,15917
13.32500,16232
13.33333,16548
13.34167,16863
13.35000,17176
13.35833,17487
13.36667,17792
13.37500,18087
13.38333,18369
13.39167,18629
13.40000,18859
13.40833,19048
13.41667,19183
13.42500,19251
13.43333,19235
13.44167,19123
13.45000,18903
13.45833,18566
13.46667,18109
13.47500,17533
13.48333,16845
13.49167,16057
13.50000,15186
13.50833,14251
13.51667,13273
13.52500,12275
13.53333,11276
13.54167,10296
13.55000,9351
13.55833,8452
13.56667,7611
13.57500,6831
13.58333,6117
13.59167,5470
13.60000,4888
13.60833,4368
13.61667,3907
13.62500,3500
13.63333,3142
13.64167,2829
13.65000,2557
13.65833,2319
13.66667,2113
13.67500,1935
13.68333,1780
13.69167,1646
13.70000,1530
13.70833,1430
13.71667,1343
13.72500,1268
13.73333,1202
13.74167,1145
13.75000,1096
13.75833,1052
13.76667,1014
13.77500,980
13.78333,951
13.79167,924
13.80000,901
13.80833,881
13.81667,862
13.82500,845
13.83333,831
13.84167,817
13.85000,806
13.85833,795
13.86667,785
13.87500,776
13.88333,768
13.89167,760
13.90000,752
13.90833,746
13.91667,739
13.92500,733
13.93333,728
13.94167,723
13.95000,719
13.95833,715
13.96667,711
13.97500,708
13.98333,704
13.99167,701
14.00000,698
14.00833,694
14.01667,691
14.02500,689
14.03333,686
14.04167,684
14.05000,682
14.05833,680
14.06667,677
14.07500,675
14.08333,673
14.09167,671
14.10000,669
14.10833,667
14.11667,666
14.12500,664
14.13333,663
14.14167,661
14.15000,659
14.15833,657
14.16667,656
14.17500,655
14.18333,653
14.19167,652
14.20000,651
14.20833,650
14.21667,649
14.22500,648
14.23333,647
14.24167,646
14.25000,645
14.25833,644
14.26667,643
14.27500,642
14.28333,641
14.29167,640
14.30000,639
14.30833,638
14.31667,637
14.32500,637
14.33333,636
14.34167,635
14.35000,634
14.35833,634
14.36667,633
14.37500,633
14.38333,632
14.39167,632
14.40000,631
14.40833,630
14.41667,629
14.42500,629
14.43333,629
14.44167,629
14.45000,629
14.45833,629
14.46667,628
14.47500,628
14.48333,628
14.49167,627
14.50000,627
14.50833,627
14.51667,627
14.52500,628
14.53333,628
14.54167,628
14.55000,628
14.55833,628
14.56667,628
14.57500,628
14.58333,628
14.59167,628
14.60000,628
14.60833,627
14.61667,627
14.62500,627
14.63333,626
14.64167,626
14.65000,626
14.65833,625
14.66667,625
14.67500,625
14.68333,625
14.69167,625
14.70000,625
14.70833,625
14.71667,625
14.72500,624
14.73333,624
14.74167,624
14.75000,624
14.75833,624
14.76667,623
14.77500,622
14.78333,622
14.79167,621
14.80000,621
14.80833,620
14.81667,620
14.82500,619
14.83333,619
14.84167,619
14.85000,618
14.85833,618
14.86667,618
14.87500,618
14.88333,617
14.89167,616
14.90000,616
14.90833,615
14.91667,615
14.92500,614
14.93333,613
14.94167,613
14.95000,613
14.95833,612
14.96667,612
14.97500,611
14.98333,611
14.99167,610
15.00000,610
15.00833,609
15.01667,609
15.02500,608
15.03333,607
15.04167,607
15.05000,606
15.05833,605
15.06667,605
15.07500,605
15.08333,604
15.09167,604
15.10000,603
15.10833,603
15.11667,603
15.12500,602
15.13333,601
15.14167,601
15.15000,602
15.15833,602
15.16667,602
15.17500,602
15.18333,603
15.19167,604
15.20000,605
15.20833,606
15.21667,607
15.22500,609
15.23333,611
15.24167,613
15.25000,616
15.25833,619
15.26667,622
15.27500,626
15.28333,630
15.29167,635
15.30000,640
15.30833,645
15.31667,651
15.32500,658
15.33333,665
15.34167,673
15.35000,680
15.35833,689
15.36667,697
15.37500,705
15.38333,714
15.39167,723
15.40000,733
15.40833,742
15.41667,752
15.42500,762
15.43333,772
15.44167,781
15.45000,790
15.45833,798
15.46667,806
15.47500,814
15.48333,821
15.49167,828
15.50000,834
15.50833,839
15.51667,843
15.52500,847
15.53333,850
15.54167,853
15.55000,854
15.55833,855
15.56667,855
15.57500,854
15.58333,852
15.59167,850
15.60000,847
15.60833,843
15.61667,839
15.62500,834
15.63333,828
15.64167,822
15.65000,815
15.65833,808
15.66667,801
15.67500,794
15.68333,786
15.69167,778
15.70000,770
15.70833,762
15.71667,754
15.72500,746
15.73333,738
15.74167,731
15.75000,723
15.75833,716
15.76667,708
15.77500,701
15.78333,695
15.79167,688
15.80000,682
15.80833,676
15.81667,670
15.82500,665
15.83333,659
15.84167,654
15.85000,649
15.85833,644
15.86667,640
15.87500,636
15.88333,632
15.89167,628
15.90000,624
15.90833,621
15.91667,618
15.92500,615
15.93333,611
15.94167,608
15.95000,605
15.95833,602
15.96667,600
15.97500,598
15.98333,596
15.99167,594
16.00000,592
16.00833,590
16.01667,588
16.02500,586
16.03333,585
16.04167,584
16.05000,582
16.05833,581
16.06667,580
16.07500,578
16.08333,577
16.09167,576
16.10000,575
16.10833,574
16.11667,573
16.12500,572
16.13333,571
16.14167,571
16.15000,570
16.15833,569
16.16667,569
16.17500,568
16.18333,568
16.19167,568
16.20000,568
16.20833,568
16.21667,567
16.22500,567
16.23333,566
16.24167,566
16.25000,566
16.25833,566
16.26667,566
16.27500,566
16.28333,566
16.29167,566
16.30000,567
16.30833,567
16.31667,567
16.32500,567
16.33333,567
16.34167,568
16.35000,568
16.35833,568
16.36667,568
16.37500,569
16.38333,569
16.39167,570
16.40000,570
16.40833,570
16.41667,571
16.42500,571
16.43333,572
16.44167,573
16.45000,573
16.45833,574
16.46667,574
16.47500,574
16.48333,574
16.49167,575
16.50000,575
16.50833,576
16.51667,576
16.52500,577
16.53333,577
16.54167,578
16.55000,579
16.55833,579
16.56667,579
16.57500,579
16.58333,579
16.59167,580
16.60000,580
16.60833,580
16.61667,580
16.62500,580
16.63333,580
16.64167,579
16.65000,580
16.65833,580
16.66667,580
16.67500,580
16.68333,580
16.69167,580
16.70000,580
16.70833,580
16.71667,580
16.72500,580
16.73333,580
16.74167,580
16.75000,579
16.75833,579
16.76667,579
16.77500,578
16.78333,578
16.79167,578
16.80000,578
16.80833,578
16.81667,578
16.82500,578
16.83333,578
16.84167,579
16.85000,579
16.85833,578
16.86667,578
16.87500,577
16.88333,577
16.89167,577
16.90000,577
16.90833,577
16.91667,577
16.92500,577
16.93333,576
16.94167,576
16.95000,576
16.95833,576
16.96667,575
16.97500,575
16.98333,575
16.99167,574
17.00000,574
17.00833,573
17.01667,573
17.02500,572
17.03333,572
17.04167,571
17.05000,571
17.05833,570
17.06667,570
17.07500,570
17.08333,569
17.09167,569
17.10000,569
17.10833,569
17.11667,569
17.12500,569
17.13333,568
17.14167,568
17.15000,567
17.15833,567
17.16667,566
17.17500,566
17.18333,566
17.19167,566
17.20000,566
17.20833,565
17.21667,565
17.22500,564
17.23333,564
17.24167,564
17.25000,563
17.25833,562
17.26667,562
17.27500,562
17.28333,561
17.29167,561
17.30000,561
17.30833,561
17.31667,561
17.32500,560
17.33333,560
17.34167,560
17.35000,560
17.35833,559
17.36667,559
17.37500,559
17.38333,558
17.39167,558
17.40000,558
17.40833,558
17.41667,558
17.42500,558
17.43333,558
17.44167,558
17.45000,558
17.45833,558
17.46667,558
17.47500,558
17.48333,558
17.49167,558
17.50000,558
17.50833,558
17.51667,558
17.52500,558
17.53333,558
17.54167,558
17.55000,559
17.55833,559
17.56667,559
17.57500,559
17.58333,560
17.59167,560
17.60000,561
17.60833,561
17.61667,561
17.62500,562
17.63333,562
17.64167,562
17.65000,563
17.65833,563
17.66667,564
17.67500,564
17.68333,565
17.69167,565
17.70000,565
17.70833,566
17.71667,566
17.72500,567
17.73333,567
17.74167,568
17.75000,569
17.75833,570
17.76667,570
17.77500,570
17.78333,570
17.79167,570
17.80000,570
17.80833,570
17.81667,571
17.82500,571
17.83333,572
17.84167,572
17.85000,573
17.85833,573
17.86667,573
17.87500,573
17.88333,573
17.89167,573
17.90000,573
17.90833,573
17.91667,573
17.92500,573
17.93333,573
17.94167,573
17.95000,573
17.95833,573
17.96667,573
17.97500,573
17.98333,573
17.99167,573
18.00000,572
18.00833,572
18.01667,571
18.02500,571
18.03333,571
18.04167,571
18.05000,571
18.05833,571
18.06667,571
18.07500,571
18.08333,571
18.09167,570
18.10000,570
18.10833,570
18.11667,570
18.12500,570
18.13333,570
18.14167,570
18.15000,569
18.15833,569
18.16667,569
18.17500,569
18.18333,569
18.19167,569
18.20000,570
18.20833,570
18.21667,570
18.22500,570
18.23333,570
18.24167,570
18.25000,571
18.25833,571
18.26667,571
18.27500,572
18.28333,572
18.29167,573
18.30000,573
18.30833,574
18.31667,574
18.32500,574
18.33333,575
18.34167,575
18.35000,575
18.35833,575
18.36667,576
18.37500,576
18.38333,576
18.39167,577
18.40000,577
18.40833,577
18.41667,577
18.42500,578
18.43333,579
18.44167,579
18.45000,580
18.45833,580
18.46667,581
18.47500,581
18.48333,581
18.49167,582
18.50000,582
18.50833,582
18.51667,582
18.52500,582
18.53333,583
18.54167,583
18.55000,583
18.55833,583
18.56667,583
18.57500,583
18.58333,584
18.59167,584
18.60000,584
18.60833,584
18.61667,584
18.62500,585
18.63333,584
18.64167,584
18.65000,585
18.65833,585
18.66667,585
18.67500,585
18.68333,585
18.69167,585
18.70000,585
18.70833,585
18.71667,585
18.72500,585
18.73333,585
18.74167,585
18.75000,585
18.75833,585
18.76667,585
18.77500,585
18.78333,585
18.79167,585
18.80000,584
18.80833,584
18.81667,584
18.82500,584
18.83333,584
18.84167,584
18.85000,583
18.85833,583
18.86667,582
18.87500,582
18.88333,581
18.89167,581
18.90000,580
18.90833,579
18.91667,578
18.92500,578
18.93333,577
18.94167,576
18.95000,575
18.95833,575
18.96667,574
18.97500,573
18.98333,573
18.99167,572
19.00000,572
19.00833,571
19.01667,571
19.02500,570
19.03333,569
19.04167,569
19.05000,569
19.05833,568
19.06667,568
19.07500,568
19.08333,568
19.09167,568
19.10000,568
19.10833,568
19.11667,568
19.12500,568
19.13333,568
19.14167,568
19.15000,568
19.15833,568
19.16667,568
19.17500,568
19.18333,569
19.19167,569
19.20000,569
19.20833,569
19.21667,569
19.22500,570
19.23333,570
19.24167,570
19.25000,571
19.25833,571
19.26667,572
19.27500,572
19.28333,572
19.29167,573
19.30000,573
19.30833,574
19.31667,575
19.32500,575
19.33333,576
19.34167,576
19.35000,577
19.35833,577
19.36667,577
19.37500,576
19.38333,576
19.39167,576
19.40000,576
19.40833,577
19.41667,577
19.42500,577
19.43333,577
19.44167,577
19.45000,577
19.45833,577
19.46667,577
19.47500,578
19.48333,578
19.49167,578
19.50000,577
19.50833,577
19.51667,576
19.52500,576
19.53333,576
19.54167,576
19.55000,576
19.55833,576
19.56667,576
19.57500,576
19.58333,576
19.59167,575
19.60000,575
19.60833,575
19.61667,575
19.62500,575
19.63333,575
19.64167,575
19.65000,574
19.65833,574
19.66667,574
19.67500,574
19.68333,574
19.69167,574
19.70000,573
19.70833,573
19.71667,573
19.72500,573
19.73333,574
19.74167,574
19.75000,573
19.75833,573
19.76667,573
19.77500,573
19.78333,573
19.79167,573
19.80000,573
19.80833,573
19.81667,573
19.82500,573
19.83333,573
19.84167,573
19.85000,573
19.85833,572
19.86667,573
19.87500,573
19.88333,573
19.89167,573
19.90000,574
19.90833,574
19.91667,574
19.92500,574
19.93333,574
19.94167,574
19.95000,574
19.95833,574
19.96667,574
19.97500,574
19.98333,574
19.99167,574
20.00000,574
20.00833,574
20.01667,574
20.02500,574
20.03333,575
20.04167,575
20.05000,576
20.05833,576
20.06667,576
20.07500,576
20.08333,576
20.09167,576
20.10000,575
20.10833,575
20.11667,574
20.12500,574
20.13333,574
20.14167,574
20.15000,574
20.15833,574
20.16667,574
20.17500,574
20.18333,573
20.19167,573
20.20000,573
20.20833,573
20.21667,573
20.22500,572
20.23333,572
20.24167,572
20.25000,572
20.25833,571
20.26667,571
20.27500,571
20.28333,571
20.29167,571
20.30000,570
20.30833,570
20.31667,570
20.32500,569
20.33333,569
20.34167,568
20.35000,568
20.35833,568
20.36667,568
20.37500,568
20.38333,568
20.39167,567
20.40000,567
20.40833,566
20.41667,566
20.42500,566
20.43333,565
20.44167,565
20.45000,564
20.45833,564
20.46667,564
20.47500,564
20.48333,564
20.49167,564
20.50000,563
20.50833,563
20.51667,563
20.52500,563
20.53333,563
20.54167,563
20.55000,563
20.55833,563
20.56667,563
20.57500,563
20.58333,563
20.59167,563
20.60000,563
20.60833,563
20.61667,563
20.62500,563
20.63333,564
20.64167,564
20.65000,564
20.65833,564
20.66667,564
20.67500,565
20.68333,565
20.69167,566
20.70000,566
20.70833,566
20.71667,566
20.72500,567
20.73333,567
20.74167,568
20.75000,568
20.75833,569
20.76667,569
20.77500,569
20.78333,570
20.79167,570
20.80000,571
20.80833,571
20.81667,571
20.82500,572
20.83333,572
20.84167,572
20.85000,572
20.85833,572
20.86667,572
20.87500,572
20.88333,572
20.89167,573
20.90000,573
20.90833,574
20.91667,574
20.92500,573
20.93333,573
20.94167,572
20.95000,572
20.95833,572
20.96667,572
20.97500,572
20.98333,572
20.99167,571
21.00000,571
21.00833,570
21.01667,570
21.02500,570
21.03333,570
21.04167,569
21.05000,568
21.05833,568
21.06667,568
21.07500,568
21.08333,567
21.09167,567
21.10000,567
21.10833,566
21.11667,566
21.12500,566
21.13333,566
21.14167,565
21.15000,565
21.15833,565
21.16667,565
21.17500,564
21.18333,564
21.19167,564
21.20000,564
21.20833,564
21.21667,564
21.22500,563
21.23333,563
21.24167,562
21.25000,562
21.25833,562
21.26667,561
21.27500,561
21.28333,561
21.29167,561
21.30000,562
21.30833,562
21.31667,562
21.32500,562
21.33333,562
21.34167,562
21.35000,562
21.35833,562
21.36667,562
21.37500,562
21.38333,562
21.39167,562
21.40000,562
21.40833,562
21.41667,563
21.42500,563
21.43333,563
21.44167,564
21.45000,564
21.45833,564
21.46667,564
21.47500,564
21.48333,564
21.49167,563
21.50000,563
21.50833,563
21.51667,563
21.52500,564
21.53333,564
21.54167,564
21.55000,564
21.55833,564
21.56667,564
21.57500,564
21.58333,564
21.59167,564
21.60000,564
21.60833,564
21.61667,565
21.62500,565
21.63333,564
21.64167,564
21.65000,565
21.65833,565
21.66667,565
21.67500,565
21.68333,565
21.69167,564
21.70000,564
21.70833,564
21.71667,564
21.72500,564
21.73333,564
21.74167,564
21.75000,565
21.75833,565
21.76667,565
21.77500,565
21.78333,565
21.79167,565
21.80000,565
21.80833,565
21.81667,565
21.82500,566
21.83333,566
21.84167,566
21.85000,566
21.85833,566
21.86667,566
21.87500,566
21.88333,566
21.89167,566
21.90000,566
21.90833,566
21.91667,566
21.92500,567
21.93333,567
21.94167,567
21.95000,567
21.95833,567
21.96667,567
21.97500,567
21.98333,568
21.99167,568
22.00000,568
22.00833,568
22.01667,568
22.02500,569
22.03333,569
22.04167,569
22.05000,569
22.05833,569
22.06667,570
22.07500,570
22.08333,570
22.09167,570
22.10000,570
22.10833,570
22.11667,570
22.12500,570
22.13333,570
22.14167,571
22.15000,571
22.15833,571
22.16667,571
22.17500,571
22.18333,571
22.19167,571
22.20000,571
22.20833,571
22.21667,571
22.22500,571
22.23333,571
22.24167,572
22.25000,572
22.25833,572
22.26667,572
22.27500,572
22.28333,572
22.29167,572
22.30000,571
22.30833,572
22.31667,572
22.32500,571
22.33333,571
22.34167,571
22.35000,571
22.35833,570
22.36667,570
22.37500,570
22.38333,570
22.39167,570
22.40000,570
22.40833,570
22.41667,569
22.42500,569
22.43333,569
22.44167,568
22.45000,568
22.45833,567
22.46667,567
22.47500,566
22.48333,566
22.49167,565
22.50000,565
22.50833,565
22.51667,564
22.52500,564
22.53333,564
22.54167,564
22.55000,564
22.55833,564
22.56667,564
22.57500,564
22.58333,564
22.59167,564
22.60000,564
22.60833,563
22.61667,563
22.62500,563
22.63333,563
22.64167,563
22.65000,563
22.65833,562
22.66667,563
22.67500,563
22.68333,563
22.69167,563
22.70000,563
22.70833,563
22.71667,563
22.72500,563
22.73333,563
22.74167,563
22.75000,563
22.75833,563
22.76667,563
22.77500,562
22.78333,563
22.79167,563
22.80000,562
22.80833,562
22.81667,562
22.82500,562
22.83333,563
22.84167,563
22.85000,563
22.85833,563
22.86667,563
22.87500,564
22.88333,564
22.89167,564
22.90000,565
22.90833,565
22.91667,565
22.92500,565
22.93333,565
22.94167,565
22.95000,566
22.95833,566
22.96667,566
22.97500,567
22.98333,567
22.99167,567
23.00000,568
23.00833,568
23.01667,568
23.02500,569
23.03333,569
23.04167,569
23.05000,570
23.05833,570
23.06667,570
23.07500,570
23.08333,570
23.09167,570
23.10000,570
23.10833,571
23.11667,571
23.12500,571
23.13333,572
23.14167,572
23.15000,572
23.15833,572
23.16667,572
23.17500,572
23.18333,572
23.19167,573
23.20000,573
23.20833,574
23.21667,574
23.22500,575
23.23333,575
23.24167,575
23.25000,575
23.25833,576
23.26667,576
23.27500,576
23.28333,576
23.29167,576
23.30000,576
23.30833,576
23.31667,577
23.32500,576
23.33333,576
23.34167,576
23.35000,576
23.35833,576
23.36667,576
23.37500,576
23.38333,576
23.39167,576
23.40000,575
23.40833,575
23.41667,575
23.42500,575
23.43333,576
23.44167,576
23.45000,576
23.45833,576
23.46667,576
23.47500,576
23.48333,576
23.49167,576
23.50000,576
23.50833,576
23.51667,576
23.52500,575
23.53333,575
23.54167,575
23.55000,575
23.55833,574
23.56667,574
23.57500,574
23.58333,574
23.59167,573
23.60000,573
23.60833,574
23.61667,574
23.62500,573
23.63333,573
23.64167,573
23.65000,573
23.65833,573
23.66667,573
23.67500,572
23.68333,572
23.69167,572
23.70000,572
23.70833,572
23.71667,572
23.72500,572
23.73333,572
23.74167,572
23.75000,572
23.75833,572
23.76667,572
23.77500,572
23.78333,571
23.79167,571
23.80000,570
23.80833,570
23.81667,571
23.82500,571
23.83333,571
23.84167,570
23.85000,570
23.85833,571
23.86667,571
23.87500,571
23.88333,571
23.89167,570
23.90000,570
23.90833,571
23.91667,571
23.92500,571
23.93333,570
23.94167,570
23.95000,570
23.95833,570
23.96667,570
23.97500,571
23.98333,571
23.99167,571
24.00000,571
24.00833,571
24.01667,571
24.02500,572
24.03333,572
24.04167,572
24.05000,573
24.05833,573
24.06667,573
24.07500,573
24.08333,573
24.09167,573
24.10000,574
24.10833,574
24.11667,575
24.12500,576
24.13333,576
24.14167,577
24.15000,577
24.15833,577
24.16667,578
24.17500,578
24.18333,579
24.19167,579
24.20000,580
24.20833,581
24.21667,581
24.22500,582
24.23333,582
24.24167,583
24.25000,584
24.25833,585
24.26667,586
24.27500,587
24.28333,588
24.29167,590
24.30000,591
24.30833,593
24.31667,594
24.32500,596
24.33333,598
24.34167,600
24.35000,603
24.35833,605
24.36667,608
24.37500,610
24.38333,614
24.39167,618
24.40000,621
24.40833,626
24.41667,631
24.42500,636
24.43333,642
24.44167,648
24.45000,655
24.45833,663
24.46667,672
24.47500,681
24.48333,691
24.49167,701
24.50000,712
24.50833,724
24.51667,737
24.52500,751
24.53333,766
24.54167,782
24.55000,800
24.55833,818
24.56667,838
24.57500,860
24.58333,883
24.59167,907
24.60000,932
24.60833,958
24.61667,986
24.62500,1015
24.63333,1046
24.64167,1077
24.65000,1110
24.65833,1144
24.66667,1179
24.67500,1216
24.68333,1253
24.69167,1291
24.70000,1330
24.70833,1369
24.71667,1409
24.72500,1449
24.73333,1490
24.74167,1530
24.75000,1570
24.75833,1609
24.76667,1648
24.77500,1686
24.78333,1723
24.79167,1758
24.80000,1793
24.80833,1825
24.81667,1856
24.82500,1885
24.83333,1911
24.84167,1936
24.85000,1958
24.85833,1978
24.86667,1995
24.87500,2009
24.88333,2020
24.89167,2028
24.90000,2033
24.90833,2035
24.91667,2033
24.92500,2029
24.93333,2022
24.94167,2012
24.95000,1999
24.95833,1984
24.96667,1966
24.97500,1946
24.98333,1923
24.99167,1898
25.00000,1871
25.00833,1841
25.01667,1810
25.02500,1777
25.03333,1743
25.04167,1708
25.05000,1671
25.05833,1634
25.06667,1596
25.07500,1558
25.08333,1520
25.09167,1481
25.10000,1443
25.10833,1404
25.11667,1366
25.12500,1328
25.13333,1291
25.14167,1255
25.15000,1220
25.15833,1185
25.16667,1151
25.17500,1119
25.18333,1087
25.19167,1056
25.20000,1027
25.20833,998
25.21667,971
25.22500,945
25.23333,920
25.24167,896
25.25000,873
25.25833,852
25.26667,832
25.27500,813
25.28333,795
25.29167,779
25.30000,763
25.30833,748
25.31667,734
25.32500,721
25.33333,709
25.34167,698
25.35000,687
25.35833,678
25.36667,669
25.37500,661
25.38333,653
25.39167,646
25.40000,639
25.40833,633
25.41667,628
25.42500,623
25.43333,618
25.44167,614
25.45000,610
25.45833,606
25.46667,603
25.47500,600
25.48333,597
25.49167,595
25.50000,593
25.50833,591
25.51667,589
25.52500,587
25.53333,586
25.54167,584
25.55000,583
25.55833,582
25.56667,581
25.57500,581
25.58333,580
25.59167,580
25.60000,580
25.60833,579
25.61667,579
25.62500,579
25.63333,579
25.64167,579
25.65000,579
25.65833,579
25.66667,579
25.67500,579
25.68333,579
25.69167,580
25.70000,580
25.70833,581
25.71667,582
25.72500,582
25.73333,582
25.74167,582
25.75000,583
25.75833,583
25.76667,583
25.77500,584
25.78333,584
25.79167,585
25.80000,585
25.80833,585
25.81667,585
25.82500,586
25.83333,586
25.84167,587
25.85000,587
25.85833,587
25.86667,587
25.87500,587
25.88333,587
25.89167,587
25.90000,587
25.90833,588
25.91667,588
25.92500,588
25.93333,588
25.94167,588
25.95000,588
25.95833,588
25.96667,588
25.97500,588
25.98333,588
25.99167,587
26.00000,587
26.00833,587
26.01667,586
26.02500,586
26.03333,585
26.04167,585
26.05000,584
26.05833,584
26.06667,583
26.07500,583
26.08333,583
26.09167,583
26.10000,582
26.10833,581
26.11667,580
26.12500,579
26.13333,579
26.14167,577
26.15000,576
26.15833,576
26.16667,575
26.17500,574
26.18333,574
26.19167,573
26.20000,572
26.20833,571
26.21667,571
26.22500,570
26.23333,569
26.24167,568
26.25000,568
26.25833,567
26.26667,567
26.27500,566
26.28333,566
26.29167,565
26.30000,565
26.30833,565
26.31667,565
26.32500,565
26.33333,564
26.34167,564
26.35000,564
26.35833,564
26.36667,564
26.37500,564
26.38333,564
26.39167,564
26.40000,564
26.40833,564
26.41667,564
26.42500,564
26.43333,564
26.44167,565
26.45000,565
26.45833,565
26.46667,566
26.47500,566
26.48333,567
26.49167,567
26.50000,568
26.50833,568
26.51667,569
26.52500,569
26.53333,570
26.54167,570
26.55000,570
26.55833,570
26.56667,570
26.57500,571
26.58333,571
26.59167,571
26.60000,572
26.60833,572
26.61667,573
26.62500,573
26.63333,573
26.64167,574
26.65000,574
26.65833,574
26.66667,575
26.67500,575
26.68333,575
26.69167,575
26.70000,575
26.70833,575
26.71667,575
26.72500,576
26.73333,576
26.74167,577
26.75000,577
26.75833,577
26.76667,578
26.77500,578
26.78333,578
26.79167,578
26.80000,578
26.80833,578
26.81667,578
26.82500,578
26.83333,578
26.84167,578
26.85000,578
26.85833,578
26.86667,578
26.87500,578
26.88333,578
26.89167,578
26.90000,578
26.90833,578
26.91667,578
26.92500,578
26.93333,578
26.94167,579
26.95000,579
26.95833,579
26.96667,579
26.97500,579
26.98333,579
26.99167,579
27.00000,579
27.00833,580
27.01667,580
27.02500,580
27.03333,580
27.04167,580
27.05000,579
27.05833,579
27.06667,579
27.07500,579
27.08333,579
27.09167,579
27.10000,579
27.10833,579
27.11667,579
27.12500,579
27.13333,579
27.14167,579
27.15000,579
27.15833,579
27.16667,579
27.17500,579
27.18333,579
27.19167,579
27.20000,579
27.20833,578
27.21667,578
27.22500,577
27.23333,577
27.24167,577
27.25000,576
27.25833,576
27.26667,576
27.27500,575
27.28333,575
27.29167,575
27.30000,575
27.30833,574
27.31667,574
27.32500,574
27.33333,574
27.34167,574
27.35000,574
27.35833,574
27.36667,574
27.37500,574
27.38333,574
27.39167,573
27.40000,573
27.40833,572
27.41667,572
27.42500,571
27.43333,571
27.44167,571
27.45000,571
27.45833,571
27.46667,571
27.47500,571
27.48333,571
27.49167,571
27.50000,571
27.50833,571
27.51667,572
27.52500,572
27.53333,572
27.54167,572
27.55000,571
27.55833,571
27.56667,571
27.57500,571
27.58333,571
27.59167,572
27.60000,572
27.60833,572
27.61667,572
27.62500,572
27.63333,572
27.64167,572
27.65000,572
27.65833,572
27.66667,572
27.67500,572
27.68333,572
27.69167,572
27.70000,572
27.70833,572
27.71667,572
27.72500,572
27.73333,572
27.74167,572
27.75000,572
27.75833,572
27.76667,572
27.77500,571
27.78333,571
27.79167,570
27.80000,570
27.80833,569
27.81667,568
27.82500,568
27.83333,567
27.84167,566
27.85000,565
27.85833,563
27.86667,562
27.87500,560
27.88333,559
27.89167,557
27.90000,555
27.90833,553
27.91667,550
27.92500,547
27.93333,545
27.94167,542
27.95000,539
27.95833,536
27.96667,532
27.97500,528
27.98333,524
27.99167,520
28.00000,515
28.00833,510
28.01667,505
28.02500,499
28.03333,493
28.04167,486
28.05000,480
28.05833,473
28.06667,466
28.07500,458
28.08333,450
28.09167,441
28.10000,432
28.10833,423
28.11667,412
28.12500,402
28.13333,391
28.14167,379
28.15000,367
28.15833,354
28.16667,341
28.17500,328
28.18333,314
28.19167,300
28.20000,286
28.20833,271
28.21667,255
28.22500,239
28.23333,223
28.24167,206
28.25000,190
28.25833,172
28.26667,155
28.27500,137
28.28333,120
28.29167,102
28.30000,84
28.30833,66
28.31667,48
28.32500,30
28.33333,13
28.34167,-5
28.35000,-24
28.35833,-42
28.36667,-59
28.37500,-77
28.38333,-94
28.39167,-110
28.40000,-126
28.40833,-142
28.41667,-157
28.42500,-172
28.43333,-187
28.44167,-200
28.45000,-214
28.45833,-227
28.46667,-239
28.47500,-251
28.48333,-261
28.49167,-272
28.50000,-282
28.50833,-290
28.51667,-298
28.52500,-304
28.53333,-310
28.54167,-315
28.55000,-319
28.55833,-322
28.56667,-325
28.57500,-327
28.58333,-328
28.59167,-328
28.60000,-328
28.60833,-326
28.61667,-324
28.62500,-321
28.63333,-318
28.64167,-314
28.65000,-310
28.65833,-304
28.66667,-299
28.67500,-292
28.68333,-286
28.69167,-279
28.70000,-271
28.70833,-263
28.71667,-255
28.72500,-246
28.73333,-236
28.74167,-227
28.75000,-217
28.75833,-208
28.76667,-198
28.77500,-187
28.78333,-177
28.79167,-167
28.80000,-157
28.80833,-147
28.81667,-136
28.82500,-126
28.83333,-116
28.84167,-106
28.85000,-96
28.85833,-86
28.86667,-77
28.87500,-68
28.88333,-58
28.89167,-49
28.90000,-40
28.90833,-31
28.91667,-23
28.92500,-14
28.93333,-6
28.94167,3
28.95000,10
28.95833,18
28.96667,26
28.97500,34
28.98333,41
28.99167,47
29.00000,53
29.00833,59
29.01667,65
29.02500,71
29.03333,77
29.04167,82
29.05000,88
29.05833,93
29.06667,98
29.07500,103
29.08333,107
29.09167,112
29.10000,116
29.10833,120
29.11667,124
29.12500,128
29.13333,132
29.14167,136
29.15000,139
29.15833,143
29.16667,146
29.17500,150
29.18333,153
29.19167,156
29.20000,159
29.20833,162
29.21667,164
29.22500,167
29.23333,170
29.24167,173
29.25000,175
29.25833,178
29.26667,180
29.27500,183
29.28333,185
29.29167,187
29.30000,189
29.30833,192
29.31667,194
29.32500,196
29.33333,197
29.34167,199
29.35000,201
29.35833,203
29.36667,205
29.37500,206
29.38333,208
29.39167,210
29.40000,212
29.40833,214
29.41667,216
29.42500,217
29.43333,219
29.44167,220
29.45000,222
29.45833,223
29.46667,225
29.47500,227
29.48333,228
29.49167,229
29.50000,231
29.50833,232
29.51667,234
29.52500,235
29.53333,236
29.54167,237
29.55000,238
29.55833,239
29.56667,240
29.57500,241
29.58333,242
29.59167,243
29.60000,243
29.60833,244
29.61667,244
29.62500,244
29.63333,245
29.64167,245
29.65000,246
29.65833,245
29.66667,245
29.67500,245
29.68333,245
29.69167,244
29.70000,244
29.70833,243
29.71667,243
29.72500,242
29.73333,242
29.74167,241
29.75000,240
29.75833,239
29.76667,237
29.77500,236
29.78333,235
29.79167,233
29.80000,231
29.80833,229
29.81667,227
29.82500,224
29.83333,221
29.84167,219
29.85000,216
29.85833,213
29.86667,209
29.87500,206
29.88333,202
29.89167,198
29.90000,194
29.90833,189
29.91667,185
29.92500,180
29.93333,176
29.94167,171
29.95000,166
29.95833,161
29.96667,156
29.97500,150
29.98333,145
29.99167,140
30.00000,133

