[Header]
Application Name,LabSolutions
Version,5.97 SP1
Data File Name,C:\Users\cremerlab\Desktop\griffin\2021-02-15_NCM_diauxie_turnover\2021-02-15_NCM_acetate_glucose_diauxie_turnover_2152021_019.lcd
Output Date,2/16/2021
Output Time,9:42:55 AM

[File Information]
Type,Data File
Generated,2/16/2021 5:31:14 AM
Generated by,System Administrator
Modified,2/16/2021 6:01:32 AM
Modified by,System Administrator

[Sample Information]
Operator Name,System Administrator
Acquired,2/16/2021 5:31:31 AM
Sample Type,0:Unknown
Level,0
Sample Name,30 mM acetate medium 2.5 uL
Sample ID,002
ISTD Amount1,1
ISTD Amount2,1
ISTD Amount3,1
ISTD Amount4,1
ISTD Amount5,1
ISTD Amount6,1
ISTD Amount7,1
ISTD Amount8,1
ISTD Amount9,1
ISTD Amount10,1
ISTD Amount11,1
ISTD Amount12,1
ISTD Amount13,1
ISTD Amount14,1
ISTD Amount15,1
ISTD Amount16,1
ISTD Amount17,1
ISTD Amount18,1
ISTD Amount19,1
ISTD Amount20,1
ISTD Amount21,1
ISTD Amount22,1
ISTD Amount23,1
ISTD Amount24,1
ISTD Amount25,1
ISTD Amount26,1
ISTD Amount27,1
ISTD Amount28,1
ISTD Amount29,1
ISTD Amount30,1
ISTD Amount31,1
ISTD Amount32,1
Sample Amount,1
Dilution Factor,1
Vial#,11
Injection Volume,2.5

[Original Files]
Data File,C:\Users\cremerlab\Desktop\griffin\2021-02-15_NCM_diauxie_turnover\2021-02-15_NCM_acetate_glucose_diauxie_turnover_2152021_019.lcd
Method File,C:\LabSolutions\Data\Project1\organicacidsetc.lcm
Batch File,C:\Users\cremerlab\Desktop\griffin\2021-02-15_NCM_diauxie_turnover\2021-02-15_NCM_acetate_glucose_diauxie_turnover.lcb
Report Format File,c:\LabSolutions\System\DEFAULT.lsr

[File Description]


[Configuration]
Instrument Name,HPLC-PC-Instrument1
Instrument #,1
Line #,1
# of Detectors,2
Detector ID,Detector A,Detector B
Detector Name,Detector A,Detector B
# of Channels,1,1

[Peak Table(Detector A)]
# of Peaks,0

[Peak Table(Detector B)]
# of Peaks,3
Peak#,R.Time,I.Time,F.Time,Area,Height,A/H,Conc.,Mark,ID#,Name,k',Plate #,Plate Ht.,Tailing,Resolution,Sep.Factor,Area Ratio,Height Ratio,Conc. %,Norm Conc.
1,10.832,10.575,11.533,24800,1457,17.022,0.000,   ,,,0.000,9612,15.605,1.389,0.000,0.000,0,0,0.000,0.000
2,13.053,12.467,14.000,89688,4499,19.934,0.000,   ,,,0.205,9833,15.255,0.949,4.586,0.000,0,0,0.000,0.000
3,24.870,24.417,25.417,7350,285,25.817,0.000,   ,,,1.296,20220,7.418,1.032,19.275,6.321,0,0,0.000,0.000

[Compound Results(Detector A)]
# of IDs,0

[Compound Results(Detector B)]
# of IDs,0

[LC Chromatogram(Detector B-Ch1)]
Interval(msec),500
# of Points,3601
Start Time(min),0.000
End Time(min),30.000
Intensity Units,mV
Intensity Multiplier,0.001
R.Time (min),Intensity
0.00000,0
0.00833,0
0.01667,0
0.02500,1
0.03333,1
0.04167,2
0.05000,2
0.05833,3
0.06667,3
0.07500,4
0.08333,5
0.09167,5
0.10000,6
0.10833,7
0.11667,7
0.12500,8
0.13333,9
0.14167,10
0.15000,10
0.15833,11
0.16667,12
0.17500,13
0.18333,13
0.19167,14
0.20000,15
0.20833,15
0.21667,16
0.22500,16
0.23333,17
0.24167,17
0.25000,17
0.25833,18
0.26667,19
0.27500,19
0.28333,20
0.29167,20
0.30000,21
0.30833,21
0.31667,22
0.32500,22
0.33333,23
0.34167,24
0.35000,24
0.35833,24
0.36667,25
0.37500,26
0.38333,26
0.39167,27
0.40000,28
0.40833,28
0.41667,29
0.42500,29
0.43333,30
0.44167,30
0.45000,31
0.45833,31
0.46667,32
0.47500,33
0.48333,34
0.49167,35
0.50000,36
0.50833,37
0.51667,38
0.52500,39
0.53333,39
0.54167,40
0.55000,42
0.55833,42
0.56667,43
0.57500,44
0.58333,45
0.59167,45
0.60000,46
0.60833,47
0.61667,48
0.62500,49
0.63333,50
0.64167,51
0.65000,51
0.65833,52
0.66667,53
0.67500,53
0.68333,54
0.69167,54
0.70000,55
0.70833,55
0.71667,56
0.72500,57
0.73333,57
0.74167,58
0.75000,58
0.75833,58
0.76667,58
0.77500,59
0.78333,59
0.79167,59
0.80000,59
0.80833,58
0.81667,58
0.82500,58
0.83333,58
0.84167,57
0.85000,57
0.85833,56
0.86667,55
0.87500,54
0.88333,53
0.89167,52
0.90000,51
0.90833,50
0.91667,49
0.92500,48
0.93333,47
0.94167,45
0.95000,44
0.95833,42
0.96667,41
0.97500,40
0.98333,39
0.99167,37
1.00000,36
1.00833,34
1.01667,33
1.02500,31
1.03333,30
1.04167,29
1.05000,27
1.05833,27
1.06667,26
1.07500,24
1.08333,23
1.09167,22
1.10000,20
1.10833,19
1.11667,18
1.12500,17
1.13333,16
1.14167,15
1.15000,15
1.15833,14
1.16667,13
1.17500,13
1.18333,12
1.19167,12
1.20000,12
1.20833,11
1.21667,10
1.22500,10
1.23333,10
1.24167,9
1.25000,9
1.25833,9
1.26667,9
1.27500,9
1.28333,9
1.29167,9
1.30000,9
1.30833,9
1.31667,9
1.32500,9
1.33333,9
1.34167,9
1.35000,9
1.35833,9
1.36667,10
1.37500,10
1.38333,10
1.39167,11
1.40000,12
1.40833,12
1.41667,13
1.42500,13
1.43333,14
1.44167,15
1.45000,15
1.45833,16
1.46667,16
1.47500,17
1.48333,17
1.49167,18
1.50000,19
1.50833,20
1.51667,21
1.52500,22
1.53333,23
1.54167,23
1.55000,24
1.55833,24
1.56667,25
1.57500,25
1.58333,25
1.59167,26
1.60000,26
1.60833,27
1.61667,28
1.62500,29
1.63333,30
1.64167,31
1.65000,31
1.65833,31
1.66667,32
1.67500,32
1.68333,33
1.69167,33
1.70000,34
1.70833,34
1.71667,35
1.72500,36
1.73333,36
1.74167,37
1.75000,38
1.75833,38
1.76667,38
1.77500,39
1.78333,39
1.79167,40
1.80000,40
1.80833,41
1.81667,41
1.82500,41
1.83333,41
1.84167,41
1.85000,41
1.85833,41
1.86667,42
1.87500,42
1.88333,41
1.89167,41
1.90000,41
1.90833,41
1.91667,41
1.92500,40
1.93333,40
1.94167,40
1.95000,39
1.95833,38
1.96667,38
1.97500,37
1.98333,36
1.99167,36
2.00000,36
2.00833,36
2.01667,35
2.02500,35
2.03333,34
2.04167,33
2.05000,33
2.05833,32
2.06667,32
2.07500,31
2.08333,30
2.09167,29
2.10000,28
2.10833,27
2.11667,26
2.12500,25
2.13333,24
2.14167,24
2.15000,23
2.15833,23
2.16667,22
2.17500,22
2.18333,22
2.19167,21
2.20000,21
2.20833,21
2.21667,21
2.22500,21
2.23333,21
2.24167,21
2.25000,21
2.25833,21
2.26667,21
2.27500,21
2.28333,21
2.29167,22
2.30000,22
2.30833,22
2.31667,22
2.32500,22
2.33333,23
2.34167,23
2.35000,24
2.35833,24
2.36667,25
2.37500,26
2.38333,26
2.39167,27
2.40000,27
2.40833,28
2.41667,29
2.42500,29
2.43333,29
2.44167,30
2.45000,30
2.45833,30
2.46667,31
2.47500,31
2.48333,32
2.49167,32
2.50000,32
2.50833,32
2.51667,33
2.52500,33
2.53333,34
2.54167,34
2.55000,34
2.55833,35
2.56667,35
2.57500,35
2.58333,35
2.59167,35
2.60000,35
2.60833,35
2.61667,34
2.62500,34
2.63333,33
2.64167,33
2.65000,33
2.65833,32
2.66667,32
2.67500,32
2.68333,31
2.69167,31
2.70000,30
2.70833,29
2.71667,29
2.72500,28
2.73333,28
2.74167,27
2.75000,27
2.75833,26
2.76667,26
2.77500,25
2.78333,24
2.79167,24
2.80000,24
2.80833,23
2.81667,23
2.82500,22
2.83333,22
2.84167,22
2.85000,21
2.85833,21
2.86667,20
2.87500,19
2.88333,19
2.89167,18
2.90000,17
2.90833,17
2.91667,17
2.92500,17
2.93333,16
2.94167,16
2.95000,15
2.95833,15
2.96667,15
2.97500,14
2.98333,14
2.99167,14
3.00000,13
3.00833,13
3.01667,12
3.02500,12
3.03333,11
3.04167,11
3.05000,11
3.05833,10
3.06667,10
3.07500,10
3.08333,10
3.09167,11
3.10000,11
3.10833,11
3.11667,11
3.12500,11
3.13333,12
3.14167,12
3.15000,13
3.15833,13
3.16667,13
3.17500,13
3.18333,14
3.19167,14
3.20000,15
3.20833,15
3.21667,16
3.22500,16
3.23333,17
3.24167,18
3.25000,18
3.25833,20
3.26667,21
3.27500,21
3.28333,22
3.29167,23
3.30000,24
3.30833,25
3.31667,27
3.32500,27
3.33333,28
3.34167,29
3.35000,30
3.35833,31
3.36667,32
3.37500,33
3.38333,34
3.39167,35
3.40000,36
3.40833,37
3.41667,38
3.42500,39
3.43333,40
3.44167,41
3.45000,42
3.45833,43
3.46667,44
3.47500,45
3.48333,46
3.49167,46
3.50000,47
3.50833,48
3.51667,49
3.52500,50
3.53333,51
3.54167,52
3.55000,52
3.55833,53
3.56667,54
3.57500,54
3.58333,55
3.59167,55
3.60000,56
3.60833,56
3.61667,56
3.62500,56
3.63333,56
3.64167,55
3.65000,55
3.65833,55
3.66667,55
3.67500,55
3.68333,55
3.69167,55
3.70000,55
3.70833,55
3.71667,55
3.72500,55
3.73333,56
3.74167,56
3.75000,56
3.75833,56
3.76667,56
3.77500,56
3.78333,56
3.79167,55
3.80000,55
3.80833,55
3.81667,54
3.82500,54
3.83333,54
3.84167,54
3.85000,54
3.85833,54
3.86667,54
3.87500,53
3.88333,53
3.89167,52
3.90000,52
3.90833,52
3.91667,52
3.92500,51
3.93333,51
3.94167,51
3.95000,51
3.95833,50
3.96667,50
3.97500,50
3.98333,50
3.99167,49
4.00000,49
4.00833,49
4.01667,49
4.02500,48
4.03333,48
4.04167,47
4.05000,47
4.05833,47
4.06667,46
4.07500,45
4.08333,45
4.09167,45
4.10000,44
4.10833,44
4.11667,43
4.12500,43
4.13333,43
4.14167,42
4.15000,42
4.15833,42
4.16667,42
4.17500,41
4.18333,41
4.19167,41
4.20000,41
4.20833,40
4.21667,40
4.22500,40
4.23333,40
4.24167,39
4.25000,39
4.25833,39
4.26667,39
4.27500,39
4.28333,39
4.29167,38
4.30000,38
4.30833,38
4.31667,38
4.32500,38
4.33333,38
4.34167,38
4.35000,38
4.35833,38
4.36667,38
4.37500,39
4.38333,39
4.39167,39
4.40000,39
4.40833,40
4.41667,40
4.42500,40
4.43333,40
4.44167,40
4.45000,40
4.45833,41
4.46667,41
4.47500,42
4.48333,42
4.49167,43
4.50000,43
4.50833,44
4.51667,44
4.52500,44
4.53333,45
4.54167,45
4.55000,45
4.55833,45
4.56667,45
4.57500,46
4.58333,46
4.59167,46
4.60000,46
4.60833,47
4.61667,47
4.62500,47
4.63333,47
4.64167,46
4.65000,46
4.65833,46
4.66667,46
4.67500,46
4.68333,45
4.69167,45
4.70000,45
4.70833,45
4.71667,45
4.72500,44
4.73333,44
4.74167,44
4.75000,43
4.75833,42
4.76667,42
4.77500,41
4.78333,40
4.79167,39
4.80000,38
4.80833,38
4.81667,37
4.82500,36
4.83333,35
4.84167,35
4.85000,34
4.85833,34
4.86667,33
4.87500,32
4.88333,31
4.89167,31
4.90000,30
4.90833,30
4.91667,30
4.92500,29
4.93333,29
4.94167,28
4.95000,28
4.95833,28
4.96667,28
4.97500,28
4.98333,28
4.99167,27
5.00000,26
5.00833,26
5.01667,25
5.02500,25
5.03333,25
5.04167,25
5.05000,25
5.05833,25
5.06667,25
5.07500,26
5.08333,26
5.09167,27
5.10000,27
5.10833,27
5.11667,28
5.12500,28
5.13333,28
5.14167,28
5.15000,28
5.15833,29
5.16667,29
5.17500,29
5.18333,30
5.19167,30
5.20000,31
5.20833,31
5.21667,31
5.22500,31
5.23333,32
5.24167,32
5.25000,32
5.25833,33
5.26667,33
5.27500,33
5.28333,34
5.29167,34
5.30000,34
5.30833,35
5.31667,35
5.32500,35
5.33333,36
5.34167,36
5.35000,35
5.35833,35
5.36667,35
5.37500,35
5.38333,35
5.39167,35
5.40000,35
5.40833,36
5.41667,36
5.42500,36
5.43333,36
5.44167,36
5.45000,36
5.45833,36
5.46667,36
5.47500,36
5.48333,36
5.49167,36
5.50000,36
5.50833,36
5.51667,36
5.52500,36
5.53333,36
5.54167,36
5.55000,36
5.55833,36
5.56667,37
5.57500,37
5.58333,37
5.59167,37
5.60000,37
5.60833,37
5.61667,36
5.62500,36
5.63333,36
5.64167,36
5.65000,36
5.65833,36
5.66667,36
5.67500,36
5.68333,36
5.69167,35
5.70000,34
5.70833,34
5.71667,34
5.72500,34
5.73333,34
5.74167,34
5.75000,33
5.75833,33
5.76667,33
5.77500,33
5.78333,33
5.79167,33
5.80000,33
5.80833,32
5.81667,32
5.82500,32
5.83333,32
5.84167,32
5.85000,31
5.85833,31
5.86667,31
5.87500,31
5.88333,31
5.89167,31
5.90000,31
5.90833,31
5.91667,31
5.92500,31
5.93333,32
5.94167,32
5.95000,33
5.95833,33
5.96667,33
5.97500,33
5.98333,34
5.99167,34
6.00000,35
6.00833,36
6.01667,37
6.02500,37
6.03333,38
6.04167,39
6.05000,40
6.05833,41
6.06667,42
6.07500,43
6.08333,44
6.09167,45
6.10000,46
6.10833,47
6.11667,48
6.12500,48
6.13333,49
6.14167,50
6.15000,51
6.15833,51
6.16667,52
6.17500,53
6.18333,54
6.19167,54
6.20000,55
6.20833,55
6.21667,56
6.22500,56
6.23333,57
6.24167,57
6.25000,57
6.25833,57
6.26667,57
6.27500,57
6.28333,57
6.29167,57
6.30000,57
6.30833,57
6.31667,57
6.32500,57
6.33333,56
6.34167,56
6.35000,56
6.35833,55
6.36667,55
6.37500,54
6.38333,54
6.39167,53
6.40000,52
6.40833,51
6.41667,50
6.42500,49
6.43333,49
6.44167,48
6.45000,47
6.45833,47
6.46667,46
6.47500,45
6.48333,44
6.49167,43
6.50000,42
6.50833,40
6.51667,39
6.52500,38
6.53333,38
6.54167,37
6.55000,37
6.55833,36
6.56667,35
6.57500,34
6.58333,34
6.59167,33
6.60000,32
6.60833,31
6.61667,30
6.62500,29
6.63333,28
6.64167,28
6.65000,27
6.65833,26
6.66667,25
6.67500,25
6.68333,24
6.69167,23
6.70000,23
6.70833,22
6.71667,22
6.72500,21
6.73333,20
6.74167,20
6.75000,19
6.75833,18
6.76667,17
6.77500,16
6.78333,16
6.79167,15
6.80000,15
6.80833,15
6.81667,15
6.82500,15
6.83333,14
6.84167,14
6.85000,14
6.85833,14
6.86667,13
6.87500,13
6.88333,13
6.89167,13
6.90000,13
6.90833,13
6.91667,14
6.92500,14
6.93333,15
6.94167,15
6.95000,15
6.95833,16
6.96667,16
6.97500,17
6.98333,18
6.99167,19
7.00000,20
7.00833,20
7.01667,21
7.02500,22
7.03333,23
7.04167,24
7.05000,25
7.05833,26
7.06667,26
7.07500,27
7.08333,28
7.09167,29
7.10000,29
7.10833,30
7.11667,31
7.12500,31
7.13333,32
7.14167,32
7.15000,33
7.15833,32
7.16667,33
7.17500,33
7.18333,33
7.19167,34
7.20000,34
7.20833,34
7.21667,33
7.22500,33
7.23333,33
7.24167,33
7.25000,32
7.25833,32
7.26667,32
7.27500,31
7.28333,31
7.29167,31
7.30000,30
7.30833,30
7.31667,29
7.32500,29
7.33333,28
7.34167,28
7.35000,27
7.35833,27
7.36667,26
7.37500,26
7.38333,26
7.39167,25
7.40000,24
7.40833,24
7.41667,23
7.42500,23
7.43333,23
7.44167,23
7.45000,22
7.45833,22
7.46667,22
7.47500,22
7.48333,23
7.49167,23
7.50000,23
7.50833,23
7.51667,24
7.52500,24
7.53333,25
7.54167,25
7.55000,25
7.55833,26
7.56667,27
7.57500,27
7.58333,28
7.59167,28
7.60000,29
7.60833,30
7.61667,30
7.62500,30
7.63333,31
7.64167,31
7.65000,32
7.65833,32
7.66667,34
7.67500,34
7.68333,35
7.69167,35
7.70000,36
7.70833,36
7.71667,36
7.72500,36
7.73333,36
7.74167,36
7.75000,36
7.75833,36
7.76667,36
7.77500,36
7.78333,36
7.79167,36
7.80000,36
7.80833,36
7.81667,35
7.82500,35
7.83333,35
7.84167,35
7.85000,34
7.85833,34
7.86667,33
7.87500,33
7.88333,33
7.89167,32
7.90000,32
7.90833,32
7.91667,31
7.92500,30
7.93333,30
7.94167,29
7.95000,28
7.95833,28
7.96667,28
7.97500,27
7.98333,27
7.99167,26
8.00000,25
8.00833,25
8.01667,25
8.02500,25
8.03333,25
8.04167,25
8.05000,25
8.05833,25
8.06667,25
8.07500,25
8.08333,25
8.09167,25
8.10000,25
8.10833,25
8.11667,25
8.12500,25
8.13333,26
8.14167,26
8.15000,26
8.15833,27
8.16667,27
8.17500,27
8.18333,28
8.19167,28
8.20000,29
8.20833,29
8.21667,30
8.22500,30
8.23333,31
8.24167,31
8.25000,31
8.25833,32
8.26667,32
8.27500,32
8.28333,32
8.29167,32
8.30000,33
8.30833,33
8.31667,33
8.32500,33
8.33333,33
8.34167,33
8.35000,33
8.35833,33
8.36667,33
8.37500,33
8.38333,33
8.39167,33
8.40000,33
8.40833,33
8.41667,33
8.42500,33
8.43333,33
8.44167,34
8.45000,34
8.45833,34
8.46667,35
8.47500,35
8.48333,35
8.49167,35
8.50000,35
8.50833,35
8.51667,34
8.52500,34
8.53333,34
8.54167,35
8.55000,35
8.55833,34
8.56667,34
8.57500,34
8.58333,34
8.59167,34
8.60000,33
8.60833,34
8.61667,34
8.62500,34
8.63333,34
8.64167,34
8.65000,34
8.65833,34
8.66667,34
8.67500,34
8.68333,34
8.69167,34
8.70000,33
8.70833,33
8.71667,33
8.72500,33
8.73333,34
8.74167,34
8.75000,33
8.75833,33
8.76667,33
8.77500,33
8.78333,32
8.79167,32
8.80000,32
8.80833,33
8.81667,32
8.82500,32
8.83333,32
8.84167,32
8.85000,33
8.85833,33
8.86667,33
8.87500,33
8.88333,33
8.89167,33
8.90000,33
8.90833,33
8.91667,33
8.92500,33
8.93333,33
8.94167,33
8.95000,33
8.95833,33
8.96667,33
8.97500,33
8.98333,33
8.99167,33
9.00000,33
9.00833,33
9.01667,34
9.02500,34
9.03333,35
9.04167,36
9.05000,36
9.05833,37
9.06667,37
9.07500,38
9.08333,38
9.09167,39
9.10000,40
9.10833,40
9.11667,40
9.12500,41
9.13333,41
9.14167,42
9.15000,42
9.15833,43
9.16667,43
9.17500,43
9.18333,43
9.19167,43
9.20000,43
9.20833,43
9.21667,44
9.22500,44
9.23333,44
9.24167,44
9.25000,43
9.25833,43
9.26667,43
9.27500,43
9.28333,43
9.29167,43
9.30000,43
9.30833,43
9.31667,43
9.32500,42
9.33333,42
9.34167,42
9.35000,41
9.35833,41
9.36667,41
9.37500,41
9.38333,40
9.39167,40
9.40000,40
9.40833,39
9.41667,39
9.42500,38
9.43333,38
9.44167,37
9.45000,37
9.45833,37
9.46667,37
9.47500,37
9.48333,36
9.49167,36
9.50000,35
9.50833,35
9.51667,35
9.52500,35
9.53333,35
9.54167,35
9.55000,34
9.55833,34
9.56667,33
9.57500,33
9.58333,32
9.59167,32
9.60000,31
9.60833,31
9.61667,31
9.62500,31
9.63333,31
9.64167,30
9.65000,30
9.65833,30
9.66667,30
9.67500,30
9.68333,30
9.69167,30
9.70000,30
9.70833,30
9.71667,30
9.72500,30
9.73333,30
9.74167,29
9.75000,29
9.75833,29
9.76667,29
9.77500,29
9.78333,28
9.79167,28
9.80000,28
9.80833,27
9.81667,28
9.82500,28
9.83333,28
9.84167,28
9.85000,28
9.85833,28
9.86667,28
9.87500,28
9.88333,27
9.89167,28
9.90000,28
9.90833,28
9.91667,27
9.92500,27
9.93333,27
9.94167,27
9.95000,27
9.95833,27
9.96667,27
9.97500,28
9.98333,28
9.99167,28
10.00000,27
10.00833,27
10.01667,27
10.02500,27
10.03333,27
10.04167,27
10.05000,27
10.05833,27
10.06667,27
10.07500,27
10.08333,28
10.09167,28
10.10000,28
10.10833,28
10.11667,28
10.12500,28
10.13333,28
10.14167,28
10.15000,28
10.15833,28
10.16667,29
10.17500,29
10.18333,30
10.19167,30
10.20000,30
10.20833,30
10.21667,30
10.22500,31
10.23333,31
10.24167,31
10.25000,32
10.25833,32
10.26667,32
10.27500,32
10.28333,33
10.29167,33
10.30000,34
10.30833,34
10.31667,35
10.32500,35
10.33333,35
10.34167,36
10.35000,36
10.35833,36
10.36667,36
10.37500,36
10.38333,35
10.39167,35
10.40000,34
10.40833,33
10.41667,32
10.42500,31
10.43333,30
10.44167,28
10.45000,25
10.45833,22
10.46667,18
10.47500,13
10.48333,7
10.49167,2
10.50000,-5
10.50833,-12
10.51667,-20
10.52500,-27
10.53333,-34
10.54167,-41
10.55000,-47
10.55833,-52
10.56667,-54
10.57500,-54
10.58333,-51
10.59167,-44
10.60000,-32
10.60833,-16
10.61667,7
10.62500,35
10.63333,70
10.64167,112
10.65000,160
10.65833,214
10.66667,275
10.67500,340
10.68333,411
10.69167,486
10.70000,563
10.70833,643
10.71667,724
10.72500,804
10.73333,884
10.74167,961
10.75000,1035
10.75833,1105
10.76667,1169
10.77500,1228
10.78333,1280
10.79167,1324
10.80000,1360
10.80833,1389
10.81667,1408
10.82500,1419
10.83333,1422
10.84167,1417
10.85000,1404
10.85833,1383
10.86667,1356
10.87500,1322
10.88333,1284
10.89167,1240
10.90000,1192
10.90833,1141
10.91667,1086
10.92500,1029
10.93333,971
10.94167,913
10.95000,854
10.95833,797
10.96667,740
10.97500,685
10.98333,631
10.99167,581
11.00000,533
11.00833,487
11.01667,444
11.02500,404
11.03333,367
11.04167,334
11.05000,303
11.05833,275
11.06667,249
11.07500,226
11.08333,204
11.09167,185
11.10000,168
11.10833,153
11.11667,140
11.12500,128
11.13333,118
11.14167,109
11.15000,101
11.15833,94
11.16667,88
11.17500,82
11.18333,77
11.19167,73
11.20000,69
11.20833,65
11.21667,62
11.22500,60
11.23333,57
11.24167,55
11.25000,52
11.25833,50
11.26667,48
11.27500,47
11.28333,45
11.29167,43
11.30000,42
11.30833,40
11.31667,38
11.32500,37
11.33333,36
11.34167,35
11.35000,34
11.35833,33
11.36667,32
11.37500,30
11.38333,29
11.39167,28
11.40000,27
11.40833,26
11.41667,25
11.42500,24
11.43333,24
11.44167,23
11.45000,23
11.45833,22
11.46667,21
11.47500,21
11.48333,21
11.49167,20
11.50000,19
11.50833,19
11.51667,18
11.52500,18
11.53333,17
11.54167,17
11.55000,18
11.55833,18
11.56667,18
11.57500,19
11.58333,19
11.59167,19
11.60000,20
11.60833,20
11.61667,21
11.62500,21
11.63333,22
11.64167,22
11.65000,23
11.65833,23
11.66667,23
11.67500,24
11.68333,24
11.69167,25
11.70000,25
11.70833,25
11.71667,26
11.72500,27
11.73333,28
11.74167,28
11.75000,29
11.75833,29
11.76667,29
11.77500,30
11.78333,30
11.79167,31
11.80000,31
11.80833,31
11.81667,31
11.82500,31
11.83333,31
11.84167,31
11.85000,31
11.85833,32
11.86667,32
11.87500,32
11.88333,33
11.89167,33
11.90000,33
11.90833,33
11.91667,32
11.92500,32
11.93333,32
11.94167,32
11.95000,32
11.95833,32
11.96667,32
11.97500,33
11.98333,32
11.99167,32
12.00000,32
12.00833,32
12.01667,31
12.02500,31
12.03333,30
12.04167,30
12.05000,30
12.05833,29
12.06667,29
12.07500,28
12.08333,28
12.09167,27
12.10000,27
12.10833,26
12.11667,26
12.12500,25
12.13333,25
12.14167,24
12.15000,24
12.15833,24
12.16667,24
12.17500,23
12.18333,23
12.19167,23
12.20000,22
12.20833,22
12.21667,21
12.22500,21
12.23333,20
12.24167,20
12.25000,19
12.25833,18
12.26667,18
12.27500,18
12.28333,18
12.29167,18
12.30000,18
12.30833,18
12.31667,18
12.32500,18
12.33333,19
12.34167,19
12.35000,19
12.35833,20
12.36667,20
12.37500,20
12.38333,20
12.39167,21
12.40000,21
12.40833,22
12.41667,22
12.42500,23
12.43333,24
12.44167,25
12.45000,26
12.45833,27
12.46667,29
12.47500,30
12.48333,32
12.49167,33
12.50000,35
12.50833,37
12.51667,39
12.52500,40
12.53333,43
12.54167,45
12.55000,47
12.55833,50
12.56667,54
12.57500,57
12.58333,62
12.59167,67
12.60000,73
12.60833,80
12.61667,88
12.62500,98
12.63333,110
12.64167,123
12.65000,138
12.65833,156
12.66667,176
12.67500,200
12.68333,226
12.69167,257
12.70000,291
12.70833,330
12.71667,373
12.72500,420
12.73333,473
12.74167,531
12.75000,594
12.75833,662
12.76667,735
12.77500,814
12.78333,897
12.79167,986
12.80000,1081
12.80833,1180
12.81667,1284
12.82500,1393
12.83333,1506
12.84167,1623
12.85000,1745
12.85833,1870
12.86667,1999
12.87500,2131
12.88333,2266
12.89167,2403
12.90000,2542
12.90833,2683
12.91667,2825
12.92500,2967
12.93333,3109
12.94167,3251
12.95000,3391
12.95833,3530
12.96667,3666
12.97500,3798
12.98333,3924
12.99167,4044
13.00000,4155
13.00833,4256
13.01667,4344
13.02500,4419
13.03333,4477
13.04167,4516
13.05000,4535
13.05833,4532
13.06667,4505
13.07500,4455
13.08333,4380
13.09167,4282
13.10000,4161
13.10833,4020
13.11667,3860
13.12500,3686
13.13333,3499
13.14167,3303
13.15000,3102
13.15833,2898
13.16667,2694
13.17500,2494
13.18333,2300
13.19167,2113
13.20000,1935
13.20833,1767
13.21667,1609
13.22500,1462
13.23333,1327
13.24167,1202
13.25000,1088
13.25833,985
13.26667,891
13.27500,806
13.28333,729
13.29167,660
13.30000,598
13.30833,543
13.31667,493
13.32500,449
13.33333,410
13.34167,375
13.35000,344
13.35833,317
13.36667,293
13.37500,271
13.38333,252
13.39167,235
13.40000,219
13.40833,205
13.41667,193
13.42500,183
13.43333,174
13.44167,165
13.45000,157
13.45833,150
13.46667,144
13.47500,138
13.48333,133
13.49167,128
13.50000,124
13.50833,121
13.51667,117
13.52500,114
13.53333,111
13.54167,109
13.55000,107
13.55833,104
13.56667,102
13.57500,100
13.58333,98
13.59167,97
13.60000,95
13.60833,94
13.61667,93
13.62500,92
13.63333,90
13.64167,89
13.65000,87
13.65833,86
13.66667,85
13.67500,83
13.68333,82
13.69167,81
13.70000,79
13.70833,78
13.71667,77
13.72500,76
13.73333,75
13.74167,74
13.75000,73
13.75833,71
13.76667,70
13.77500,69
13.78333,68
13.79167,67
13.80000,66
13.80833,65
13.81667,64
13.82500,63
13.83333,62
13.84167,61
13.85000,60
13.85833,59
13.86667,58
13.87500,57
13.88333,56
13.89167,55
13.90000,54
13.90833,54
13.91667,53
13.92500,52
13.93333,52
13.94167,51
13.95000,50
13.95833,49
13.96667,49
13.97500,48
13.98333,48
13.99167,48
14.00000,47
14.00833,47
14.01667,46
14.02500,46
14.03333,46
14.04167,45
14.05000,45
14.05833,45
14.06667,45
14.07500,45
14.08333,44
14.09167,44
14.10000,44
14.10833,44
14.11667,44
14.12500,44
14.13333,44
14.14167,44
14.15000,44
14.15833,44
14.16667,44
14.17500,44
14.18333,45
14.19167,45
14.20000,45
14.20833,45
14.21667,46
14.22500,46
14.23333,46
14.24167,46
14.25000,46
14.25833,47
14.26667,47
14.27500,47
14.28333,48
14.29167,48
14.30000,49
14.30833,49
14.31667,50
14.32500,50
14.33333,50
14.34167,51
14.35000,51
14.35833,52
14.36667,52
14.37500,52
14.38333,52
14.39167,53
14.40000,53
14.40833,54
14.41667,54
14.42500,55
14.43333,55
14.44167,55
14.45000,56
14.45833,56
14.46667,56
14.47500,57
14.48333,57
14.49167,58
14.50000,58
14.50833,59
14.51667,59
14.52500,59
14.53333,59
14.54167,59
14.55000,59
14.55833,60
14.56667,60
14.57500,60
14.58333,60
14.59167,61
14.60000,61
14.60833,61
14.61667,61
14.62500,61
14.63333,61
14.64167,61
14.65000,61
14.65833,60
14.66667,60
14.67500,60
14.68333,60
14.69167,59
14.70000,59
14.70833,59
14.71667,59
14.72500,59
14.73333,59
14.74167,59
14.75000,59
14.75833,58
14.76667,58
14.77500,58
14.78333,58
14.79167,58
14.80000,57
14.80833,57
14.81667,57
14.82500,56
14.83333,56
14.84167,56
14.85000,56
14.85833,55
14.86667,55
14.87500,55
14.88333,54
14.89167,54
14.90000,54
14.90833,53
14.91667,53
14.92500,53
14.93333,53
14.94167,53
14.95000,53
14.95833,53
14.96667,53
14.97500,53
14.98333,52
14.99167,52
15.00000,52
15.00833,52
15.01667,52
15.02500,53
15.03333,53
15.04167,53
15.05000,53
15.05833,53
15.06667,54
15.07500,55
15.08333,55
15.09167,56
15.10000,56
15.10833,56
15.11667,57
15.12500,57
15.13333,57
15.14167,57
15.15000,58
15.15833,58
15.16667,58
15.17500,58
15.18333,59
15.19167,59
15.20000,60
15.20833,60
15.21667,60
15.22500,60
15.23333,60
15.24167,61
15.25000,61
15.25833,61
15.26667,62
15.27500,62
15.28333,62
15.29167,62
15.30000,62
15.30833,62
15.31667,62
15.32500,62
15.33333,62
15.34167,61
15.35000,61
15.35833,61
15.36667,62
15.37500,62
15.38333,62
15.39167,62
15.40000,62
15.40833,61
15.41667,61
15.42500,61
15.43333,61
15.44167,61
15.45000,60
15.45833,60
15.46667,60
15.47500,60
15.48333,60
15.49167,60
15.50000,60
15.50833,60
15.51667,60
15.52500,60
15.53333,60
15.54167,60
15.55000,59
15.55833,59
15.56667,59
15.57500,58
15.58333,58
15.59167,57
15.60000,57
15.60833,57
15.61667,56
15.62500,56
15.63333,56
15.64167,55
15.65000,55
15.65833,54
15.66667,54
15.67500,54
15.68333,54
15.69167,54
15.70000,54
15.70833,54
15.71667,54
15.72500,54
15.73333,54
15.74167,54
15.75000,54
15.75833,54
15.76667,55
15.77500,55
15.78333,55
15.79167,55
15.80000,54
15.80833,54
15.81667,54
15.82500,54
15.83333,54
15.84167,54
15.85000,54
15.85833,54
15.86667,54
15.87500,53
15.88333,53
15.89167,53
15.90000,52
15.90833,52
15.91667,52
15.92500,52
15.93333,51
15.94167,51
15.95000,51
15.95833,51
15.96667,50
15.97500,50
15.98333,49
15.99167,49
16.00000,49
16.00833,49
16.01667,49
16.02500,48
16.03333,48
16.04167,48
16.05000,48
16.05833,48
16.06667,47
16.07500,47
16.08333,47
16.09167,46
16.10000,46
16.10833,45
16.11667,45
16.12500,44
16.13333,44
16.14167,44
16.15000,43
16.15833,43
16.16667,43
16.17500,42
16.18333,42
16.19167,42
16.20000,42
16.20833,42
16.21667,41
16.22500,40
16.23333,40
16.24167,39
16.25000,39
16.25833,39
16.26667,39
16.27500,38
16.28333,38
16.29167,38
16.30000,38
16.30833,38
16.31667,38
16.32500,38
16.33333,38
16.34167,37
16.35000,37
16.35833,36
16.36667,36
16.37500,35
16.38333,35
16.39167,35
16.40000,34
16.40833,34
16.41667,33
16.42500,33
16.43333,32
16.44167,32
16.45000,32
16.45833,31
16.46667,31
16.47500,31
16.48333,31
16.49167,31
16.50000,31
16.50833,30
16.51667,30
16.52500,30
16.53333,30
16.54167,30
16.55000,30
16.55833,29
16.56667,29
16.57500,29
16.58333,28
16.59167,28
16.60000,28
16.60833,27
16.61667,27
16.62500,27
16.63333,27
16.64167,27
16.65000,27
16.65833,27
16.66667,26
16.67500,26
16.68333,26
16.69167,26
16.70000,26
16.70833,26
16.71667,26
16.72500,26
16.73333,26
16.74167,26
16.75000,26
16.75833,26
16.76667,26
16.77500,27
16.78333,27
16.79167,27
16.80000,28
16.80833,28
16.81667,28
16.82500,28
16.83333,28
16.84167,28
16.85000,28
16.85833,29
16.86667,29
16.87500,29
16.88333,29
16.89167,29
16.90000,29
16.90833,29
16.91667,30
16.92500,30
16.93333,30
16.94167,30
16.95000,30
16.95833,31
16.96667,31
16.97500,31
16.98333,31
16.99167,31
17.00000,31
17.00833,31
17.01667,31
17.02500,31
17.03333,31
17.04167,31
17.05000,31
17.05833,32
17.06667,32
17.07500,32
17.08333,33
17.09167,33
17.10000,33
17.10833,34
17.11667,34
17.12500,34
17.13333,34
17.14167,34
17.15000,35
17.15833,35
17.16667,35
17.17500,36
17.18333,36
17.19167,37
17.20000,37
17.20833,37
17.21667,37
17.22500,38
17.23333,38
17.24167,39
17.25000,39
17.25833,39
17.26667,39
17.27500,39
17.28333,40
17.29167,40
17.30000,40
17.30833,41
17.31667,42
17.32500,42
17.33333,43
17.34167,43
17.35000,43
17.35833,43
17.36667,43
17.37500,43
17.38333,43
17.39167,44
17.40000,44
17.40833,44
17.41667,44
17.42500,44
17.43333,44
17.44167,45
17.45000,45
17.45833,46
17.46667,46
17.47500,46
17.48333,46
17.49167,45
17.50000,45
17.50833,45
17.51667,45
17.52500,45
17.53333,46
17.54167,46
17.55000,45
17.55833,45
17.56667,45
17.57500,44
17.58333,44
17.59167,44
17.60000,43
17.60833,43
17.61667,43
17.62500,42
17.63333,42
17.64167,42
17.65000,41
17.65833,41
17.66667,41
17.67500,41
17.68333,41
17.69167,40
17.70000,40
17.70833,40
17.71667,39
17.72500,39
17.73333,39
17.74167,38
17.75000,38
17.75833,38
17.76667,38
17.77500,38
17.78333,38
17.79167,37
17.80000,37
17.80833,36
17.81667,36
17.82500,36
17.83333,35
17.84167,35
17.85000,34
17.85833,34
17.86667,34
17.87500,35
17.88333,35
17.89167,35
17.90000,35
17.90833,34
17.91667,34
17.92500,34
17.93333,34
17.94167,34
17.95000,34
17.95833,34
17.96667,34
17.97500,33
17.98333,33
17.99167,33
18.00000,32
18.00833,32
18.01667,32
18.02500,32
18.03333,31
18.04167,31
18.05000,31
18.05833,31
18.06667,31
18.07500,31
18.08333,30
18.09167,30
18.10000,31
18.10833,31
18.11667,30
18.12500,30
18.13333,30
18.14167,30
18.15000,30
18.15833,30
18.16667,30
18.17500,30
18.18333,30
18.19167,30
18.20000,30
18.20833,30
18.21667,31
18.22500,31
18.23333,32
18.24167,32
18.25000,32
18.25833,32
18.26667,32
18.27500,32
18.28333,32
18.29167,32
18.30000,33
18.30833,33
18.31667,33
18.32500,34
18.33333,34
18.34167,34
18.35000,34
18.35833,35
18.36667,35
18.37500,35
18.38333,35
18.39167,35
18.40000,35
18.40833,35
18.41667,35
18.42500,35
18.43333,35
18.44167,36
18.45000,36
18.45833,37
18.46667,37
18.47500,37
18.48333,37
18.49167,37
18.50000,37
18.50833,38
18.51667,38
18.52500,38
18.53333,38
18.54167,38
18.55000,37
18.55833,37
18.56667,37
18.57500,37
18.58333,37
18.59167,37
18.60000,37
18.60833,37
18.61667,37
18.62500,37
18.63333,37
18.64167,37
18.65000,37
18.65833,37
18.66667,37
18.67500,37
18.68333,37
18.69167,36
18.70000,36
18.70833,35
18.71667,35
18.72500,35
18.73333,35
18.74167,35
18.75000,35
18.75833,34
18.76667,34
18.77500,34
18.78333,33
18.79167,33
18.80000,32
18.80833,32
18.81667,32
18.82500,33
18.83333,33
18.84167,33
18.85000,33
18.85833,32
18.86667,32
18.87500,32
18.88333,32
18.89167,32
18.90000,32
18.90833,32
18.91667,32
18.92500,33
18.93333,33
18.94167,33
18.95000,33
18.95833,33
18.96667,33
18.97500,33
18.98333,33
18.99167,33
19.00000,34
19.00833,34
19.01667,35
19.02500,35
19.03333,35
19.04167,35
19.05000,36
19.05833,37
19.06667,37
19.07500,38
19.08333,39
19.09167,39
19.10000,39
19.10833,40
19.11667,41
19.12500,41
19.13333,42
19.14167,43
19.15000,44
19.15833,45
19.16667,45
19.17500,46
19.18333,47
19.19167,48
19.20000,49
19.20833,50
19.21667,51
19.22500,52
19.23333,53
19.24167,53
19.25000,54
19.25833,54
19.26667,55
19.27500,56
19.28333,56
19.29167,57
19.30000,57
19.30833,57
19.31667,58
19.32500,59
19.33333,59
19.34167,60
19.35000,60
19.35833,59
19.36667,59
19.37500,60
19.38333,60
19.39167,60
19.40000,60
19.40833,60
19.41667,60
19.42500,60
19.43333,60
19.44167,60
19.45000,59
19.45833,59
19.46667,59
19.47500,59
19.48333,58
19.49167,58
19.50000,57
19.50833,57
19.51667,56
19.52500,55
19.53333,54
19.54167,54
19.55000,53
19.55833,52
19.56667,51
19.57500,50
19.58333,50
19.59167,49
19.60000,48
19.60833,48
19.61667,47
19.62500,46
19.63333,45
19.64167,44
19.65000,44
19.65833,43
19.66667,42
19.67500,42
19.68333,41
19.69167,41
19.70000,40
19.70833,39
19.71667,38
19.72500,38
19.73333,38
19.74167,37
19.75000,37
19.75833,36
19.76667,36
19.77500,36
19.78333,35
19.79167,35
19.80000,34
19.80833,34
19.81667,34
19.82500,33
19.83333,33
19.84167,34
19.85000,33
19.85833,33
19.86667,33
19.87500,33
19.88333,34
19.89167,34
19.90000,34
19.90833,35
19.91667,35
19.92500,35
19.93333,35
19.94167,35
19.95000,35
19.95833,35
19.96667,36
19.97500,37
19.98333,38
19.99167,39
20.00000,40
20.00833,40
20.01667,41
20.02500,41
20.03333,42
20.04167,42
20.05000,43
20.05833,44
20.06667,45
20.07500,46
20.08333,46
20.09167,46
20.10000,47
20.10833,47
20.11667,48
20.12500,49
20.13333,50
20.14167,51
20.15000,53
20.15833,54
20.16667,54
20.17500,55
20.18333,56
20.19167,56
20.20000,57
20.20833,58
20.21667,58
20.22500,58
20.23333,59
20.24167,59
20.25000,59
20.25833,59
20.26667,59
20.27500,60
20.28333,60
20.29167,61
20.30000,61
20.30833,61
20.31667,61
20.32500,61
20.33333,61
20.34167,61
20.35000,61
20.35833,61
20.36667,61
20.37500,61
20.38333,61
20.39167,61
20.40000,61
20.40833,61
20.41667,61
20.42500,60
20.43333,59
20.44167,59
20.45000,59
20.45833,59
20.46667,59
20.47500,58
20.48333,58
20.49167,57
20.50000,57
20.50833,56
20.51667,56
20.52500,55
20.53333,55
20.54167,54
20.55000,54
20.55833,53
20.56667,53
20.57500,52
20.58333,52
20.59167,52
20.60000,52
20.60833,51
20.61667,51
20.62500,50
20.63333,49
20.64167,49
20.65000,48
20.65833,48
20.66667,48
20.67500,47
20.68333,47
20.69167,46
20.70000,46
20.70833,46
20.71667,46
20.72500,46
20.73333,45
20.74167,45
20.75000,45
20.75833,45
20.76667,45
20.77500,45
20.78333,45
20.79167,45
20.80000,45
20.80833,45
20.81667,46
20.82500,46
20.83333,46
20.84167,47
20.85000,47
20.85833,47
20.86667,47
20.87500,48
20.88333,48
20.89167,48
20.90000,49
20.90833,49
20.91667,50
20.92500,51
20.93333,52
20.94167,52
20.95000,53
20.95833,53
20.96667,54
20.97500,55
20.98333,55
20.99167,56
21.00000,57
21.00833,57
21.01667,58
21.02500,58
21.03333,59
21.04167,60
21.05000,60
21.05833,61
21.06667,62
21.07500,62
21.08333,63
21.09167,64
21.10000,64
21.10833,65
21.11667,65
21.12500,66
21.13333,67
21.14167,67
21.15000,68
21.15833,68
21.16667,69
21.17500,69
21.18333,68
21.19167,68
21.20000,69
21.20833,69
21.21667,69
21.22500,69
21.23333,69
21.24167,69
21.25000,69
21.25833,70
21.26667,69
21.27500,69
21.28333,69
21.29167,69
21.30000,69
21.30833,68
21.31667,68
21.32500,68
21.33333,67
21.34167,67
21.35000,66
21.35833,66
21.36667,65
21.37500,65
21.38333,64
21.39167,64
21.40000,63
21.40833,63
21.41667,62
21.42500,62
21.43333,61
21.44167,60
21.45000,59
21.45833,58
21.46667,57
21.47500,56
21.48333,55
21.49167,55
21.50000,54
21.50833,53
21.51667,52
21.52500,51
21.53333,51
21.54167,49
21.55000,49
21.55833,48
21.56667,47
21.57500,47
21.58333,46
21.59167,45
21.60000,45
21.60833,45
21.61667,44
21.62500,44
21.63333,44
21.64167,43
21.65000,43
21.65833,42
21.66667,42
21.67500,42
21.68333,41
21.69167,41
21.70000,41
21.70833,40
21.71667,40
21.72500,39
21.73333,39
21.74167,39
21.75000,39
21.75833,39
21.76667,39
21.77500,39
21.78333,40
21.79167,40
21.80000,40
21.80833,40
21.81667,40
21.82500,41
21.83333,41
21.84167,40
21.85000,40
21.85833,41
21.86667,41
21.87500,41
21.88333,41
21.89167,41
21.90000,41
21.90833,41
21.91667,41
21.92500,41
21.93333,41
21.94167,41
21.95000,41
21.95833,41
21.96667,40
21.97500,40
21.98333,40
21.99167,40
22.00000,39
22.00833,39
22.01667,40
22.02500,40
22.03333,40
22.04167,40
22.05000,41
22.05833,41
22.06667,41
22.07500,41
22.08333,41
22.09167,41
22.10000,42
22.10833,42
22.11667,42
22.12500,41
22.13333,42
22.14167,42
22.15000,41
22.15833,41
22.16667,41
22.17500,42
22.18333,42
22.19167,43
22.20000,43
22.20833,43
22.21667,44
22.22500,45
22.23333,45
22.24167,45
22.25000,45
22.25833,45
22.26667,46
22.27500,46
22.28333,47
22.29167,47
22.30000,48
22.30833,48
22.31667,48
22.32500,49
22.33333,49
22.34167,50
22.35000,50
22.35833,51
22.36667,51
22.37500,52
22.38333,52
22.39167,52
22.40000,53
22.40833,53
22.41667,54
22.42500,54
22.43333,54
22.44167,54
22.45000,55
22.45833,54
22.46667,54
22.47500,54
22.48333,54
22.49167,54
22.50000,54
22.50833,54
22.51667,54
22.52500,54
22.53333,53
22.54167,53
22.55000,53
22.55833,53
22.56667,52
22.57500,52
22.58333,52
22.59167,51
22.60000,51
22.60833,51
22.61667,51
22.62500,51
22.63333,51
22.64167,51
22.65000,51
22.65833,50
22.66667,50
22.67500,49
22.68333,49
22.69167,48
22.70000,48
22.70833,48
22.71667,48
22.72500,48
22.73333,48
22.74167,48
22.75000,48
22.75833,47
22.76667,47
22.77500,47
22.78333,47
22.79167,47
22.80000,47
22.80833,47
22.81667,47
22.82500,47
22.83333,47
22.84167,46
22.85000,46
22.85833,46
22.86667,46
22.87500,46
22.88333,47
22.89167,47
22.90000,48
22.90833,48
22.91667,49
22.92500,49
22.93333,50
22.94167,50
22.95000,50
22.95833,50
22.96667,50
22.97500,51
22.98333,51
22.99167,52
23.00000,53
23.00833,54
23.01667,54
23.02500,55
23.03333,55
23.04167,55
23.05000,55
23.05833,55
23.06667,56
23.07500,56
23.08333,57
23.09167,58
23.10000,58
23.10833,59
23.11667,59
23.12500,59
23.13333,59
23.14167,60
23.15000,59
23.15833,59
23.16667,60
23.17500,60
23.18333,61
23.19167,61
23.20000,61
23.20833,61
23.21667,61
23.22500,61
23.23333,61
23.24167,61
23.25000,61
23.25833,61
23.26667,61
23.27500,60
23.28333,60
23.29167,60
23.30000,59
23.30833,59
23.31667,59
23.32500,59
23.33333,58
23.34167,57
23.35000,57
23.35833,57
23.36667,57
23.37500,57
23.38333,56
23.39167,55
23.40000,55
23.40833,54
23.41667,53
23.42500,52
23.43333,52
23.44167,51
23.45000,50
23.45833,49
23.46667,49
23.47500,48
23.48333,47
23.49167,47
23.50000,46
23.50833,45
23.51667,45
23.52500,44
23.53333,43
23.54167,42
23.55000,41
23.55833,41
23.56667,40
23.57500,40
23.58333,39
23.59167,38
23.60000,37
23.60833,36
23.61667,36
23.62500,35
23.63333,34
23.64167,34
23.65000,33
23.65833,33
23.66667,34
23.67500,33
23.68333,33
23.69167,33
23.70000,32
23.70833,32
23.71667,33
23.72500,33
23.73333,33
23.74167,33
23.75000,34
23.75833,34
23.76667,34
23.77500,34
23.78333,34
23.79167,35
23.80000,35
23.80833,36
23.81667,36
23.82500,36
23.83333,36
23.84167,37
23.85000,37
23.85833,38
23.86667,38
23.87500,39
23.88333,39
23.89167,40
23.90000,40
23.90833,41
23.91667,42
23.92500,43
23.93333,43
23.94167,43
23.95000,44
23.95833,44
23.96667,44
23.97500,45
23.98333,46
23.99167,46
24.00000,47
24.00833,48
24.01667,48
24.02500,49
24.03333,49
24.04167,49
24.05000,50
24.05833,51
24.06667,51
24.07500,51
24.08333,52
24.09167,52
24.10000,52
24.10833,53
24.11667,53
24.12500,53
24.13333,54
24.14167,54
24.15000,54
24.15833,54
24.16667,54
24.17500,55
24.18333,55
24.19167,55
24.20000,55
24.20833,55
24.21667,56
24.22500,56
24.23333,56
24.24167,56
24.25000,56
24.25833,57
24.26667,58
24.27500,58
24.28333,58
24.29167,58
24.30000,58
24.30833,58
24.31667,58
24.32500,59
24.33333,59
24.34167,59
24.35000,60
24.35833,60
24.36667,61
24.37500,61
24.38333,62
24.39167,63
24.40000,64
24.40833,65
24.41667,66
24.42500,68
24.43333,69
24.44167,71
24.45000,72
24.45833,74
24.46667,76
24.47500,78
24.48333,81
24.49167,84
24.50000,88
24.50833,91
24.51667,95
24.52500,99
24.53333,103
24.54167,107
24.55000,112
24.55833,116
24.56667,121
24.57500,127
24.58333,133
24.59167,139
24.60000,146
24.60833,153
24.61667,160
24.62500,167
24.63333,174
24.64167,182
24.65000,190
24.65833,198
24.66667,206
24.67500,214
24.68333,223
24.69167,231
24.70000,239
24.70833,247
24.71667,255
24.72500,263
24.73333,271
24.74167,279
24.75000,286
24.75833,293
24.76667,300
24.77500,306
24.78333,312
24.79167,318
24.80000,323
24.80833,327
24.81667,331
24.82500,334
24.83333,337
24.84167,339
24.85000,340
24.85833,341
24.86667,342
24.87500,342
24.88333,341
24.89167,340
24.90000,338
24.90833,335
24.91667,331
24.92500,327
24.93333,322
24.94167,317
24.95000,312
24.95833,306
24.96667,300
24.97500,293
24.98333,286
24.99167,279
25.00000,272
25.00833,264
25.01667,256
25.02500,247
25.03333,239
25.04167,230
25.05000,222
25.05833,214
25.06667,206
25.07500,198
25.08333,190
25.09167,182
25.10000,174
25.10833,166
25.11667,159
25.12500,152
25.13333,146
25.14167,139
25.15000,132
25.15833,125
25.16667,120
25.17500,114
25.18333,109
25.19167,104
25.20000,99
25.20833,94
25.21667,90
25.22500,86
25.23333,82
25.24167,78
25.25000,75
25.25833,72
25.26667,70
25.27500,67
25.28333,65
25.29167,63
25.30000,61
25.30833,59
25.31667,57
25.32500,55
25.33333,54
25.34167,53
25.35000,52
25.35833,51
25.36667,51
25.37500,50
25.38333,49
25.39167,48
25.40000,48
25.40833,47
25.41667,47
25.42500,47
25.43333,48
25.44167,49
25.45000,49
25.45833,50
25.46667,50
25.47500,51
25.48333,52
25.49167,53
25.50000,53
25.50833,54
25.51667,54
25.52500,55
25.53333,56
25.54167,57
25.55000,58
25.55833,59
25.56667,60
25.57500,61
25.58333,62
25.59167,62
25.60000,62
25.60833,63
25.61667,64
25.62500,64
25.63333,64
25.64167,65
25.65000,65
25.65833,65
25.66667,65
25.67500,66
25.68333,66
25.69167,66
25.70000,66
25.70833,66
25.71667,67
25.72500,67
25.73333,67
25.74167,67
25.75000,67
25.75833,67
25.76667,67
25.77500,66
25.78333,66
25.79167,66
25.80000,65
25.80833,65
25.81667,65
25.82500,64
25.83333,64
25.84167,64
25.85000,63
25.85833,63
25.86667,62
25.87500,61
25.88333,60
25.89167,59
25.90000,58
25.90833,57
25.91667,56
25.92500,55
25.93333,54
25.94167,53
25.95000,53
25.95833,53
25.96667,52
25.97500,51
25.98333,51
25.99167,50
26.00000,50
26.00833,49
26.01667,48
26.02500,48
26.03333,47
26.04167,47
26.05000,47
26.05833,46
26.06667,46
26.07500,45
26.08333,45
26.09167,45
26.10000,45
26.10833,44
26.11667,44
26.12500,44
26.13333,43
26.14167,43
26.15000,42
26.15833,42
26.16667,42
26.17500,42
26.18333,42
26.19167,42
26.20000,42
26.20833,42
26.21667,42
26.22500,42
26.23333,42
26.24167,42
26.25000,42
26.25833,42
26.26667,42
26.27500,42
26.28333,43
26.29167,43
26.30000,43
26.30833,43
26.31667,42
26.32500,42
26.33333,42
26.34167,42
26.35000,42
26.35833,42
26.36667,42
26.37500,43
26.38333,43
26.39167,43
26.40000,43
26.40833,43
26.41667,44
26.42500,44
26.43333,44
26.44167,44
26.45000,44
26.45833,44
26.46667,44
26.47500,44
26.48333,44
26.49167,44
26.50000,44
26.50833,44
26.51667,44
26.52500,44
26.53333,45
26.54167,45
26.55000,44
26.55833,44
26.56667,44
26.57500,43
26.58333,43
26.59167,42
26.60000,41
26.60833,41
26.61667,41
26.62500,40
26.63333,40
26.64167,39
26.65000,39
26.65833,38
26.66667,37
26.67500,37
26.68333,37
26.69167,36
26.70000,36
26.70833,36
26.71667,35
26.72500,36
26.73333,35
26.74167,35
26.75000,35
26.75833,35
26.76667,35
26.77500,34
26.78333,34
26.79167,34
26.80000,34
26.80833,34
26.81667,34
26.82500,33
26.83333,33
26.84167,33
26.85000,34
26.85833,34
26.86667,34
26.87500,34
26.88333,34
26.89167,34
26.90000,35
26.90833,35
26.91667,35
26.92500,35
26.93333,35
26.94167,36
26.95000,36
26.95833,37
26.96667,37
26.97500,38
26.98333,38
26.99167,39
27.00000,39
27.00833,40
27.01667,40
27.02500,41
27.03333,41
27.04167,42
27.05000,42
27.05833,43
27.06667,44
27.07500,45
27.08333,46
27.09167,46
27.10000,47
27.10833,47
27.11667,47
27.12500,47
27.13333,48
27.14167,48
27.15000,48
27.15833,48
27.16667,49
27.17500,49
27.18333,50
27.19167,50
27.20000,50
27.20833,51
27.21667,51
27.22500,51
27.23333,51
27.24167,52
27.25000,52
27.25833,52
27.26667,53
27.27500,53
27.28333,54
27.29167,55
27.30000,56
27.30833,56
27.31667,57
27.32500,57
27.33333,57
27.34167,58
27.35000,58
27.35833,58
27.36667,58
27.37500,58
27.38333,59
27.39167,59
27.40000,59
27.40833,58
27.41667,58
27.42500,58
27.43333,58
27.44167,58
27.45000,58
27.45833,58
27.46667,58
27.47500,58
27.48333,58
27.49167,58
27.50000,57
27.50833,57
27.51667,57
27.52500,56
27.53333,56
27.54167,55
27.55000,55
27.55833,55
27.56667,54
27.57500,53
27.58333,53
27.59167,52
27.60000,52
27.60833,51
27.61667,51
27.62500,50
27.63333,49
27.64167,49
27.65000,48
27.65833,47
27.66667,47
27.67500,46
27.68333,45
27.69167,44
27.70000,43
27.70833,43
27.71667,42
27.72500,42
27.73333,41
27.74167,40
27.75000,40
27.75833,39
27.76667,38
27.77500,38
27.78333,37
27.79167,36
27.80000,35
27.80833,34
27.81667,33
27.82500,32
27.83333,32
27.84167,31
27.85000,31
27.85833,30
27.86667,30
27.87500,29
27.88333,28
27.89167,27
27.90000,27
27.90833,26
27.91667,26
27.92500,26
27.93333,25
27.94167,24
27.95000,23
27.95833,23
27.96667,23
27.97500,22
27.98333,22
27.99167,22
28.00000,21
28.00833,21
28.01667,21
28.02500,21
28.03333,21
28.04167,20
28.05000,20
28.05833,19
28.06667,19
28.07500,18
28.08333,18
28.09167,18
28.10000,18
28.10833,17
28.11667,17
28.12500,17
28.13333,17
28.14167,17
28.15000,17
28.15833,17
28.16667,16
28.17500,16
28.18333,16
28.19167,16
28.20000,15
28.20833,15
28.21667,15
28.22500,15
28.23333,14
28.24167,14
28.25000,13
28.25833,13
28.26667,13
28.27500,13
28.28333,13
28.29167,13
28.30000,13
28.30833,13
28.31667,13
28.32500,13
28.33333,12
28.34167,12
28.35000,12
28.35833,12
28.36667,12
28.37500,12
28.38333,12
28.39167,12
28.40000,12
28.40833,11
28.41667,11
28.42500,11
28.43333,11
28.44167,11
28.45000,11
28.45833,11
28.46667,11
28.47500,11
28.48333,11
28.49167,11
28.50000,11
28.50833,11
28.51667,10
28.52500,10
28.53333,11
28.54167,10
28.55000,10
28.55833,10
28.56667,10
28.57500,10
28.58333,10
28.59167,10
28.60000,10
28.60833,10
28.61667,11
28.62500,11
28.63333,12
28.64167,12
28.65000,12
28.65833,12
28.66667,12
28.67500,13
28.68333,13
28.69167,13
28.70000,13
28.70833,14
28.71667,14
28.72500,14
28.73333,15
28.74167,15
28.75000,15
28.75833,15
28.76667,16
28.77500,16
28.78333,17
28.79167,18
28.80000,18
28.80833,19
28.81667,19
28.82500,19
28.83333,19
28.84167,20
28.85000,20
28.85833,20
28.86667,21
28.87500,21
28.88333,22
28.89167,22
28.90000,23
28.90833,23
28.91667,24
28.92500,24
28.93333,25
28.94167,26
28.95000,26
28.95833,27
28.96667,28
28.97500,28
28.98333,29
28.99167,29
29.00000,30
29.00833,31
29.01667,31
29.02500,32
29.03333,32
29.04167,33
29.05000,33
29.05833,34
29.06667,34
29.07500,35
29.08333,35
29.09167,35
29.10000,36
29.10833,36
29.11667,36
29.12500,36
29.13333,37
29.14167,37
29.15000,38
29.15833,38
29.16667,38
29.17500,38
29.18333,38
29.19167,38
29.20000,39
29.20833,39
29.21667,40
29.22500,40
29.23333,40
29.24167,40
29.25000,40
29.25833,40
29.26667,41
29.27500,41
29.28333,41
29.29167,41
29.30000,41
29.30833,41
29.31667,41
29.32500,40
29.33333,41
29.34167,41
29.35000,42
29.35833,42
29.36667,42
29.37500,43
29.38333,43
29.39167,43
29.40000,44
29.40833,44
29.41667,44
29.42500,45
29.43333,45
29.44167,45
29.45000,45
29.45833,45
29.46667,45
29.47500,45
29.48333,45
29.49167,46
29.50000,46
29.50833,46
29.51667,46
29.52500,46
29.53333,46
29.54167,46
29.55000,46
29.55833,47
29.56667,47
29.57500,46
29.58333,47
29.59167,47
29.60000,47
29.60833,47
29.61667,47
29.62500,47
29.63333,46
29.64167,46
29.65000,46
29.65833,46
29.66667,45
29.67500,45
29.68333,45
29.69167,45
29.70000,45
29.70833,45
29.71667,44
29.72500,44
29.73333,44
29.74167,44
29.75000,44
29.75833,43
29.76667,44
29.77500,44
29.78333,44
29.79167,44
29.80000,44
29.80833,43
29.81667,43
29.82500,42
29.83333,41
29.84167,41
29.85000,41
29.85833,41
29.86667,40
29.87500,40
29.88333,40
29.89167,39
29.90000,39
29.90833,39
29.91667,38
29.92500,38
29.93333,38
29.94167,38
29.95000,37
29.95833,37
29.96667,37
29.97500,36
29.98333,36
29.99167,36
30.00000,36

