[Header]
Application Name,LabSolutions
Version,5.97 SP1
Data File Name,C:\Users\cremerlab\Desktop\griffin\2021-02-15_NCM_diauxie_turnover\2021-02-15_NCM_acetate_glucose_diauxie_turnover_2152021_013.lcd
Output Date,2/16/2021
Output Time,9:11:48 AM

[File Information]
Type,Data File
Generated,2/16/2021 2:29:19 AM
Generated by,System Administrator
Modified,2/16/2021 2:59:37 AM
Modified by,System Administrator

[Sample Information]
Operator Name,System Administrator
Acquired,2/16/2021 2:29:36 AM
Sample Type,0:Unknown
Level,0
Sample Name,30 mM acetate medium 10 uL
Sample ID,002
ISTD Amount1,1
ISTD Amount2,1
ISTD Amount3,1
ISTD Amount4,1
ISTD Amount5,1
ISTD Amount6,1
ISTD Amount7,1
ISTD Amount8,1
ISTD Amount9,1
ISTD Amount10,1
ISTD Amount11,1
ISTD Amount12,1
ISTD Amount13,1
ISTD Amount14,1
ISTD Amount15,1
ISTD Amount16,1
ISTD Amount17,1
ISTD Amount18,1
ISTD Amount19,1
ISTD Amount20,1
ISTD Amount21,1
ISTD Amount22,1
ISTD Amount23,1
ISTD Amount24,1
ISTD Amount25,1
ISTD Amount26,1
ISTD Amount27,1
ISTD Amount28,1
ISTD Amount29,1
ISTD Amount30,1
ISTD Amount31,1
ISTD Amount32,1
Sample Amount,1
Dilution Factor,1
Vial#,11
Injection Volume,10

[Original Files]
Data File,C:\Users\cremerlab\Desktop\griffin\2021-02-15_NCM_diauxie_turnover\2021-02-15_NCM_acetate_glucose_diauxie_turnover_2152021_013.lcd
Method File,C:\LabSolutions\Data\Project1\organicacidsetc.lcm
Batch File,C:\Users\cremerlab\Desktop\griffin\2021-02-15_NCM_diauxie_turnover\2021-02-15_NCM_acetate_glucose_diauxie_turnover.lcb
Report Format File,c:\LabSolutions\System\DEFAULT.lsr

[File Description]


[Configuration]
Instrument Name,HPLC-PC-Instrument1
Instrument #,1
Line #,1
# of Detectors,2
Detector ID,Detector A,Detector B
Detector Name,Detector A,Detector B
# of Channels,1,1

[Peak Table(Detector A)]
# of Peaks,0

[Peak Table(Detector B)]
# of Peaks,4
Peak#,R.Time,I.Time,F.Time,Area,Height,A/H,Conc.,Mark,ID#,Name,k',Plate #,Plate Ht.,Tailing,Resolution,Sep.Factor,Area Ratio,Height Ratio,Conc. %,Norm Conc.
1,6.205,5.633,7.008,7880,225,34.992,0.000,   ,,,0.000,728,206.173,1.098,0.000,0.000,0,0,0.000,0.000
2,10.857,10.600,11.383,58216,3638,16.004,0.000,   ,,,0.750,10375,14.458,1.263,6.911,0.000,0,0,0.000,0.000
3,13.218,12.542,13.967,214113,10080,21.240,0.000,   ,,,1.130,8170,18.361,0.805,4.669,1.507,0,0,0.000,0.000
4,24.891,24.267,25.550,21628,758,28.519,0.000,   ,,,3.012,17208,8.717,0.989,17.371,2.664,0,0,0.000,0.000

[Compound Results(Detector A)]
# of IDs,0

[Compound Results(Detector B)]
# of IDs,0

[LC Chromatogram(Detector B-Ch1)]
Interval(msec),500
# of Points,3601
Start Time(min),0.000
End Time(min),30.000
Intensity Units,mV
Intensity Multiplier,0.001
R.Time (min),Intensity
0.00000,-49
0.00833,-49
0.01667,-13
0.02500,1
0.03333,2
0.04167,2
0.05000,2
0.05833,2
0.06667,3
0.07500,4
0.08333,6
0.09167,8
0.10000,10
0.10833,12
0.11667,15
0.12500,17
0.13333,19
0.14167,22
0.15000,24
0.15833,26
0.16667,29
0.17500,31
0.18333,33
0.19167,36
0.20000,39
0.20833,42
0.21667,44
0.22500,47
0.23333,50
0.24167,53
0.25000,55
0.25833,58
0.26667,60
0.27500,63
0.28333,65
0.29167,67
0.30000,70
0.30833,73
0.31667,76
0.32500,79
0.33333,81
0.34167,83
0.35000,86
0.35833,88
0.36667,90
0.37500,92
0.38333,94
0.39167,97
0.40000,99
0.40833,101
0.41667,103
0.42500,105
0.43333,107
0.44167,108
0.45000,110
0.45833,112
0.46667,113
0.47500,115
0.48333,116
0.49167,118
0.50000,119
0.50833,121
0.51667,122
0.52500,122
0.53333,123
0.54167,124
0.55000,125
0.55833,126
0.56667,128
0.57500,129
0.58333,130
0.59167,131
0.60000,132
0.60833,133
0.61667,134
0.62500,135
0.63333,135
0.64167,136
0.65000,136
0.65833,137
0.66667,137
0.67500,138
0.68333,139
0.69167,140
0.70000,140
0.70833,141
0.71667,142
0.72500,143
0.73333,144
0.74167,145
0.75000,146
0.75833,147
0.76667,148
0.77500,149
0.78333,150
0.79167,151
0.80000,153
0.80833,154
0.81667,155
0.82500,156
0.83333,157
0.84167,158
0.85000,160
0.85833,161
0.86667,162
0.87500,163
0.88333,164
0.89167,165
0.90000,166
0.90833,167
0.91667,168
0.92500,169
0.93333,170
0.94167,172
0.95000,173
0.95833,173
0.96667,174
0.97500,174
0.98333,175
0.99167,176
1.00000,177
1.00833,178
1.01667,179
1.02500,180
1.03333,181
1.04167,182
1.05000,183
1.05833,184
1.06667,185
1.07500,186
1.08333,187
1.09167,188
1.10000,189
1.10833,190
1.11667,190
1.12500,191
1.13333,192
1.14167,193
1.15000,193
1.15833,194
1.16667,195
1.17500,195
1.18333,196
1.19167,197
1.20000,197
1.20833,198
1.21667,198
1.22500,199
1.23333,199
1.24167,200
1.25000,200
1.25833,201
1.26667,201
1.27500,201
1.28333,202
1.29167,202
1.30000,202
1.30833,202
1.31667,202
1.32500,202
1.33333,203
1.34167,203
1.35000,203
1.35833,203
1.36667,204
1.37500,204
1.38333,203
1.39167,203
1.40000,203
1.40833,203
1.41667,203
1.42500,203
1.43333,203
1.44167,203
1.45000,203
1.45833,203
1.46667,202
1.47500,202
1.48333,202
1.49167,201
1.50000,201
1.50833,201
1.51667,200
1.52500,199
1.53333,199
1.54167,199
1.55000,198
1.55833,198
1.56667,197
1.57500,197
1.58333,196
1.59167,196
1.60000,195
1.60833,195
1.61667,195
1.62500,194
1.63333,194
1.64167,194
1.65000,193
1.65833,193
1.66667,192
1.67500,192
1.68333,192
1.69167,192
1.70000,192
1.70833,192
1.71667,192
1.72500,192
1.73333,192
1.74167,193
1.75000,193
1.75833,193
1.76667,193
1.77500,193
1.78333,193
1.79167,194
1.80000,194
1.80833,194
1.81667,195
1.82500,196
1.83333,196
1.84167,197
1.85000,197
1.85833,198
1.86667,198
1.87500,199
1.88333,200
1.89167,201
1.90000,202
1.90833,202
1.91667,202
1.92500,203
1.93333,204
1.94167,205
1.95000,205
1.95833,206
1.96667,207
1.97500,208
1.98333,209
1.99167,210
2.00000,210
2.00833,211
2.01667,212
2.02500,212
2.03333,213
2.04167,213
2.05000,214
2.05833,214
2.06667,215
2.07500,216
2.08333,216
2.09167,216
2.10000,216
2.10833,217
2.11667,217
2.12500,217
2.13333,218
2.14167,218
2.15000,218
2.15833,218
2.16667,218
2.17500,217
2.18333,217
2.19167,217
2.20000,217
2.20833,217
2.21667,217
2.22500,217
2.23333,217
2.24167,217
2.25000,216
2.25833,216
2.26667,216
2.27500,216
2.28333,216
2.29167,215
2.30000,215
2.30833,215
2.31667,215
2.32500,215
2.33333,215
2.34167,215
2.35000,215
2.35833,214
2.36667,214
2.37500,214
2.38333,214
2.39167,214
2.40000,214
2.40833,214
2.41667,214
2.42500,214
2.43333,214
2.44167,214
2.45000,214
2.45833,214
2.46667,214
2.47500,214
2.48333,214
2.49167,215
2.50000,215
2.50833,216
2.51667,216
2.52500,217
2.53333,217
2.54167,217
2.55000,218
2.55833,218
2.56667,218
2.57500,219
2.58333,219
2.59167,220
2.60000,220
2.60833,221
2.61667,221
2.62500,221
2.63333,222
2.64167,222
2.65000,223
2.65833,223
2.66667,223
2.67500,223
2.68333,223
2.69167,223
2.70000,223
2.70833,223
2.71667,223
2.72500,223
2.73333,223
2.74167,223
2.75000,223
2.75833,223
2.76667,223
2.77500,223
2.78333,223
2.79167,223
2.80000,223
2.80833,223
2.81667,223
2.82500,223
2.83333,223
2.84167,223
2.85000,222
2.85833,222
2.86667,222
2.87500,222
2.88333,222
2.89167,222
2.90000,222
2.90833,221
2.91667,221
2.92500,221
2.93333,221
2.94167,221
2.95000,221
2.95833,221
2.96667,221
2.97500,221
2.98333,221
2.99167,221
3.00000,221
3.00833,221
3.01667,221
3.02500,221
3.03333,221
3.04167,221
3.05000,221
3.05833,221
3.06667,221
3.07500,220
3.08333,220
3.09167,220
3.10000,220
3.10833,220
3.11667,220
3.12500,220
3.13333,220
3.14167,220
3.15000,221
3.15833,221
3.16667,221
3.17500,221
3.18333,221
3.19167,221
3.20000,221
3.20833,221
3.21667,221
3.22500,221
3.23333,222
3.24167,222
3.25000,222
3.25833,223
3.26667,223
3.27500,223
3.28333,223
3.29167,223
3.30000,223
3.30833,223
3.31667,223
3.32500,223
3.33333,223
3.34167,223
3.35000,224
3.35833,224
3.36667,224
3.37500,224
3.38333,224
3.39167,224
3.40000,224
3.40833,224
3.41667,224
3.42500,224
3.43333,224
3.44167,224
3.45000,224
3.45833,225
3.46667,225
3.47500,225
3.48333,225
3.49167,225
3.50000,225
3.50833,225
3.51667,225
3.52500,225
3.53333,225
3.54167,225
3.55000,225
3.55833,225
3.56667,225
3.57500,225
3.58333,225
3.59167,225
3.60000,226
3.60833,226
3.61667,226
3.62500,226
3.63333,226
3.64167,226
3.65000,226
3.65833,227
3.66667,227
3.67500,227
3.68333,227
3.69167,227
3.70000,227
3.70833,227
3.71667,227
3.72500,227
3.73333,227
3.74167,226
3.75000,226
3.75833,226
3.76667,225
3.77500,225
3.78333,225
3.79167,225
3.80000,225
3.80833,225
3.81667,224
3.82500,224
3.83333,224
3.84167,224
3.85000,223
3.85833,223
3.86667,223
3.87500,223
3.88333,223
3.89167,223
3.90000,222
3.90833,222
3.91667,222
3.92500,222
3.93333,222
3.94167,222
3.95000,222
3.95833,223
3.96667,223
3.97500,224
3.98333,224
3.99167,225
4.00000,225
4.00833,226
4.01667,226
4.02500,227
4.03333,228
4.04167,228
4.05000,229
4.05833,230
4.06667,231
4.07500,232
4.08333,233
4.09167,233
4.10000,233
4.10833,234
4.11667,235
4.12500,236
4.13333,238
4.14167,239
4.15000,240
4.15833,241
4.16667,242
4.17500,244
4.18333,244
4.19167,245
4.20000,246
4.20833,247
4.21667,249
4.22500,250
4.23333,250
4.24167,251
4.25000,252
4.25833,253
4.26667,254
4.27500,254
4.28333,254
4.29167,255
4.30000,255
4.30833,256
4.31667,257
4.32500,258
4.33333,259
4.34167,260
4.35000,260
4.35833,260
4.36667,260
4.37500,260
4.38333,260
4.39167,260
4.40000,260
4.40833,260
4.41667,260
4.42500,260
4.43333,260
4.44167,260
4.45000,259
4.45833,259
4.46667,258
4.47500,258
4.48333,258
4.49167,258
4.50000,258
4.50833,258
4.51667,257
4.52500,257
4.53333,257
4.54167,257
4.55000,257
4.55833,256
4.56667,255
4.57500,255
4.58333,255
4.59167,254
4.60000,254
4.60833,253
4.61667,252
4.62500,252
4.63333,251
4.64167,250
4.65000,250
4.65833,249
4.66667,249
4.67500,248
4.68333,247
4.69167,247
4.70000,246
4.70833,246
4.71667,245
4.72500,245
4.73333,245
4.74167,244
4.75000,244
4.75833,243
4.76667,243
4.77500,243
4.78333,243
4.79167,242
4.80000,242
4.80833,242
4.81667,241
4.82500,241
4.83333,241
4.84167,240
4.85000,240
4.85833,240
4.86667,240
4.87500,240
4.88333,240
4.89167,240
4.90000,240
4.90833,239
4.91667,239
4.92500,239
4.93333,239
4.94167,239
4.95000,239
4.95833,239
4.96667,239
4.97500,239
4.98333,239
4.99167,238
5.00000,238
5.00833,238
5.01667,238
5.02500,237
5.03333,237
5.04167,237
5.05000,237
5.05833,237
5.06667,237
5.07500,237
5.08333,237
5.09167,237
5.10000,237
5.10833,237
5.11667,237
5.12500,237
5.13333,237
5.14167,237
5.15000,237
5.15833,237
5.16667,238
5.17500,238
5.18333,239
5.19167,239
5.20000,240
5.20833,240
5.21667,240
5.22500,240
5.23333,240
5.24167,240
5.25000,240
5.25833,241
5.26667,241
5.27500,241
5.28333,242
5.29167,242
5.30000,243
5.30833,243
5.31667,244
5.32500,244
5.33333,245
5.34167,246
5.35000,247
5.35833,248
5.36667,249
5.37500,249
5.38333,250
5.39167,251
5.40000,251
5.40833,252
5.41667,253
5.42500,253
5.43333,254
5.44167,255
5.45000,256
5.45833,257
5.46667,257
5.47500,258
5.48333,258
5.49167,259
5.50000,260
5.50833,261
5.51667,262
5.52500,262
5.53333,264
5.54167,265
5.55000,266
5.55833,266
5.56667,267
5.57500,268
5.58333,269
5.59167,270
5.60000,271
5.60833,273
5.61667,274
5.62500,275
5.63333,276
5.64167,278
5.65000,279
5.65833,280
5.66667,282
5.67500,284
5.68333,286
5.69167,287
5.70000,289
5.70833,291
5.71667,292
5.72500,294
5.73333,296
5.74167,298
5.75000,300
5.75833,303
5.76667,305
5.77500,308
5.78333,311
5.79167,314
5.80000,317
5.80833,321
5.81667,324
5.82500,327
5.83333,331
5.84167,334
5.85000,338
5.85833,342
5.86667,347
5.87500,351
5.88333,355
5.89167,359
5.90000,364
5.90833,368
5.91667,373
5.92500,378
5.93333,383
5.94167,387
5.95000,392
5.95833,397
5.96667,402
5.97500,407
5.98333,412
5.99167,417
6.00000,422
6.00833,427
6.01667,431
6.02500,436
6.03333,440
6.04167,444
6.05000,448
6.05833,452
6.06667,457
6.07500,460
6.08333,464
6.09167,468
6.10000,471
6.10833,474
6.11667,477
6.12500,480
6.13333,483
6.14167,486
6.15000,488
6.15833,490
6.16667,491
6.17500,492
6.18333,492
6.19167,493
6.20000,493
6.20833,493
6.21667,493
6.22500,492
6.23333,492
6.24167,491
6.25000,489
6.25833,487
6.26667,485
6.27500,483
6.28333,480
6.29167,477
6.30000,474
6.30833,470
6.31667,467
6.32500,463
6.33333,460
6.34167,456
6.35000,452
6.35833,448
6.36667,444
6.37500,440
6.38333,436
6.39167,432
6.40000,427
6.40833,422
6.41667,417
6.42500,412
6.43333,406
6.44167,401
6.45000,396
6.45833,392
6.46667,387
6.47500,383
6.48333,379
6.49167,374
6.50000,370
6.50833,365
6.51667,361
6.52500,357
6.53333,353
6.54167,349
6.55000,345
6.55833,341
6.56667,337
6.57500,334
6.58333,331
6.59167,327
6.60000,324
6.60833,321
6.61667,318
6.62500,315
6.63333,312
6.64167,309
6.65000,307
6.65833,304
6.66667,301
6.67500,299
6.68333,297
6.69167,295
6.70000,293
6.70833,291
6.71667,289
6.72500,287
6.73333,285
6.74167,284
6.75000,283
6.75833,281
6.76667,280
6.77500,278
6.78333,277
6.79167,275
6.80000,274
6.80833,272
6.81667,271
6.82500,270
6.83333,269
6.84167,268
6.85000,267
6.85833,266
6.86667,266
6.87500,265
6.88333,265
6.89167,264
6.90000,263
6.90833,263
6.91667,262
6.92500,261
6.93333,260
6.94167,260
6.95000,259
6.95833,259
6.96667,258
6.97500,258
6.98333,257
6.99167,257
7.00000,256
7.00833,256
7.01667,256
7.02500,256
7.03333,256
7.04167,256
7.05000,256
7.05833,255
7.06667,255
7.07500,255
7.08333,255
7.09167,254
7.10000,254
7.10833,254
7.11667,254
7.12500,253
7.13333,253
7.14167,253
7.15000,253
7.15833,253
7.16667,253
7.17500,252
7.18333,252
7.19167,252
7.20000,252
7.20833,253
7.21667,253
7.22500,252
7.23333,252
7.24167,252
7.25000,252
7.25833,252
7.26667,252
7.27500,253
7.28333,253
7.29167,253
7.30000,254
7.30833,254
7.31667,253
7.32500,253
7.33333,253
7.34167,253
7.35000,253
7.35833,253
7.36667,254
7.37500,253
7.38333,253
7.39167,253
7.40000,253
7.40833,253
7.41667,252
7.42500,252
7.43333,251
7.44167,251
7.45000,250
7.45833,250
7.46667,249
7.47500,248
7.48333,248
7.49167,248
7.50000,247
7.50833,247
7.51667,246
7.52500,246
7.53333,245
7.54167,244
7.55000,244
7.55833,243
7.56667,243
7.57500,243
7.58333,242
7.59167,241
7.60000,241
7.60833,241
7.61667,241
7.62500,241
7.63333,241
7.64167,240
7.65000,240
7.65833,239
7.66667,239
7.67500,239
7.68333,239
7.69167,239
7.70000,239
7.70833,240
7.71667,240
7.72500,240
7.73333,241
7.74167,241
7.75000,241
7.75833,242
7.76667,242
7.77500,242
7.78333,242
7.79167,242
7.80000,243
7.80833,243
7.81667,244
7.82500,244
7.83333,245
7.84167,246
7.85000,246
7.85833,247
7.86667,247
7.87500,248
7.88333,248
7.89167,249
7.90000,249
7.90833,250
7.91667,250
7.92500,251
7.93333,251
7.94167,252
7.95000,252
7.95833,252
7.96667,253
7.97500,253
7.98333,253
7.99167,253
8.00000,254
8.00833,254
8.01667,254
8.02500,254
8.03333,254
8.04167,254
8.05000,255
8.05833,254
8.06667,254
8.07500,254
8.08333,255
8.09167,255
8.10000,254
8.10833,254
8.11667,254
8.12500,253
8.13333,253
8.14167,252
8.15000,251
8.15833,251
8.16667,250
8.17500,250
8.18333,249
8.19167,249
8.20000,248
8.20833,247
8.21667,246
8.22500,246
8.23333,245
8.24167,245
8.25000,244
8.25833,244
8.26667,243
8.27500,243
8.28333,242
8.29167,241
8.30000,241
8.30833,241
8.31667,240
8.32500,240
8.33333,240
8.34167,239
8.35000,238
8.35833,237
8.36667,237
8.37500,236
8.38333,236
8.39167,236
8.40000,235
8.40833,235
8.41667,235
8.42500,234
8.43333,234
8.44167,233
8.45000,233
8.45833,233
8.46667,233
8.47500,233
8.48333,233
8.49167,234
8.50000,234
8.50833,234
8.51667,234
8.52500,234
8.53333,234
8.54167,234
8.55000,234
8.55833,234
8.56667,235
8.57500,236
8.58333,236
8.59167,237
8.60000,237
8.60833,238
8.61667,239
8.62500,240
8.63333,241
8.64167,241
8.65000,242
8.65833,244
8.66667,245
8.67500,246
8.68333,247
8.69167,248
8.70000,249
8.70833,250
8.71667,251
8.72500,252
8.73333,254
8.74167,255
8.75000,256
8.75833,257
8.76667,258
8.77500,259
8.78333,260
8.79167,261
8.80000,263
8.80833,264
8.81667,265
8.82500,266
8.83333,267
8.84167,268
8.85000,269
8.85833,270
8.86667,270
8.87500,271
8.88333,272
8.89167,273
8.90000,273
8.90833,274
8.91667,275
8.92500,275
8.93333,276
8.94167,276
8.95000,277
8.95833,277
8.96667,276
8.97500,276
8.98333,276
8.99167,276
9.00000,276
9.00833,275
9.01667,275
9.02500,274
9.03333,273
9.04167,272
9.05000,271
9.05833,271
9.06667,270
9.07500,269
9.08333,268
9.09167,267
9.10000,266
9.10833,265
9.11667,265
9.12500,264
9.13333,264
9.14167,263
9.15000,262
9.15833,262
9.16667,261
9.17500,260
9.18333,259
9.19167,258
9.20000,257
9.20833,256
9.21667,256
9.22500,255
9.23333,254
9.24167,253
9.25000,253
9.25833,252
9.26667,251
9.27500,250
9.28333,250
9.29167,249
9.30000,248
9.30833,247
9.31667,246
9.32500,245
9.33333,244
9.34167,243
9.35000,242
9.35833,242
9.36667,241
9.37500,241
9.38333,241
9.39167,241
9.40000,241
9.40833,241
9.41667,240
9.42500,240
9.43333,239
9.44167,238
9.45000,237
9.45833,237
9.46667,236
9.47500,236
9.48333,235
9.49167,235
9.50000,234
9.50833,234
9.51667,233
9.52500,232
9.53333,232
9.54167,232
9.55000,231
9.55833,231
9.56667,231
9.57500,231
9.58333,231
9.59167,230
9.60000,230
9.60833,230
9.61667,230
9.62500,231
9.63333,231
9.64167,231
9.65000,231
9.65833,231
9.66667,230
9.67500,230
9.68333,230
9.69167,229
9.70000,229
9.70833,230
9.71667,230
9.72500,231
9.73333,231
9.74167,231
9.75000,232
9.75833,232
9.76667,232
9.77500,232
9.78333,233
9.79167,233
9.80000,234
9.80833,235
9.81667,235
9.82500,235
9.83333,236
9.84167,236
9.85000,236
9.85833,236
9.86667,236
9.87500,237
9.88333,237
9.89167,237
9.90000,238
9.90833,238
9.91667,238
9.92500,239
9.93333,239
9.94167,239
9.95000,239
9.95833,238
9.96667,238
9.97500,238
9.98333,238
9.99167,238
10.00000,238
10.00833,238
10.01667,238
10.02500,238
10.03333,238
10.04167,238
10.05000,238
10.05833,238
10.06667,237
10.07500,237
10.08333,236
10.09167,236
10.10000,236
10.10833,236
10.11667,235
10.12500,234
10.13333,234
10.14167,234
10.15000,234
10.15833,234
10.16667,234
10.17500,233
10.18333,233
10.19167,233
10.20000,232
10.20833,232
10.21667,231
10.22500,231
10.23333,231
10.24167,232
10.25000,232
10.25833,232
10.26667,232
10.27500,232
10.28333,232
10.29167,232
10.30000,231
10.30833,231
10.31667,231
10.32500,231
10.33333,231
10.34167,231
10.35000,231
10.35833,232
10.36667,232
10.37500,232
10.38333,232
10.39167,232
10.40000,231
10.40833,231
10.41667,230
10.42500,229
10.43333,227
10.44167,225
10.45000,222
10.45833,218
10.46667,214
10.47500,208
10.48333,200
10.49167,191
10.50000,180
10.50833,167
10.51667,153
10.52500,137
10.53333,119
10.54167,99
10.55000,79
10.55833,59
10.56667,40
10.57500,22
10.58333,8
10.59167,-1
10.60000,-5
10.60833,-1
10.61667,12
10.62500,36
10.63333,73
10.64167,123
10.65000,188
10.65833,270
10.66667,367
10.67500,482
10.68333,612
10.69167,758
10.70000,919
10.70833,1093
10.71667,1279
10.72500,1474
10.73333,1675
10.74167,1881
10.75000,2088
10.75833,2294
10.76667,2494
10.77500,2688
10.78333,2871
10.79167,3041
10.80000,3196
10.80833,3333
10.81667,3451
10.82500,3549
10.83333,3625
10.84167,3679
10.85000,3709
10.85833,3718
10.86667,3704
10.87500,3670
10.88333,3616
10.89167,3544
10.90000,3454
10.90833,3350
10.91667,3233
10.92500,3104
10.93333,2967
10.94167,2823
10.95000,2675
10.95833,2523
10.96667,2371
10.97500,2220
10.98333,2072
10.99167,1927
11.00000,1787
11.00833,1652
11.01667,1524
11.02500,1402
11.03333,1288
11.04167,1182
11.05000,1084
11.05833,993
11.06667,910
11.07500,834
11.08333,766
11.09167,704
11.10000,648
11.10833,598
11.11667,554
11.12500,514
11.13333,479
11.14167,449
11.15000,422
11.15833,399
11.16667,379
11.17500,362
11.18333,346
11.19167,333
11.20000,321
11.20833,311
11.21667,302
11.22500,295
11.23333,289
11.24167,284
11.25000,279
11.25833,276
11.26667,272
11.27500,270
11.28333,267
11.29167,265
11.30000,263
11.30833,261
11.31667,260
11.32500,258
11.33333,257
11.34167,256
11.35000,255
11.35833,254
11.36667,254
11.37500,253
11.38333,253
11.39167,253
11.40000,253
11.40833,253
11.41667,253
11.42500,253
11.43333,253
11.44167,253
11.45000,253
11.45833,253
11.46667,253
11.47500,254
11.48333,254
11.49167,253
11.50000,253
11.50833,253
11.51667,254
11.52500,254
11.53333,255
11.54167,255
11.55000,255
11.55833,255
11.56667,255
11.57500,255
11.58333,255
11.59167,255
11.60000,255
11.60833,255
11.61667,255
11.62500,256
11.63333,256
11.64167,256
11.65000,256
11.65833,256
11.66667,256
11.67500,256
11.68333,255
11.69167,255
11.70000,255
11.70833,254
11.71667,254
11.72500,254
11.73333,253
11.74167,253
11.75000,253
11.75833,252
11.76667,252
11.77500,251
11.78333,250
11.79167,250
11.80000,249
11.80833,248
11.81667,248
11.82500,248
11.83333,248
11.84167,247
11.85000,247
11.85833,246
11.86667,246
11.87500,245
11.88333,244
11.89167,244
11.90000,243
11.90833,243
11.91667,243
11.92500,242
11.93333,241
11.94167,240
11.95000,240
11.95833,239
11.96667,239
11.97500,239
11.98333,238
11.99167,238
12.00000,238
12.00833,237
12.01667,237
12.02500,237
12.03333,237
12.04167,237
12.05000,237
12.05833,237
12.06667,237
12.07500,237
12.08333,237
12.09167,237
12.10000,237
12.10833,236
12.11667,236
12.12500,236
12.13333,237
12.14167,237
12.15000,237
12.15833,237
12.16667,237
12.17500,237
12.18333,237
12.19167,238
12.20000,238
12.20833,239
12.21667,239
12.22500,239
12.23333,240
12.24167,240
12.25000,240
12.25833,240
12.26667,240
12.27500,240
12.28333,241
12.29167,241
12.30000,242
12.30833,242
12.31667,242
12.32500,242
12.33333,242
12.34167,242
12.35000,242
12.35833,243
12.36667,243
12.37500,244
12.38333,244
12.39167,245
12.40000,245
12.40833,245
12.41667,246
12.42500,247
12.43333,247
12.44167,248
12.45000,248
12.45833,249
12.46667,249
12.47500,249
12.48333,249
12.49167,249
12.50000,250
12.50833,250
12.51667,251
12.52500,251
12.53333,251
12.54167,251
12.55000,252
12.55833,253
12.56667,254
12.57500,256
12.58333,258
12.59167,260
12.60000,263
12.60833,266
12.61667,270
12.62500,276
12.63333,282
12.64167,290
12.65000,299
12.65833,311
12.66667,324
12.67500,340
12.68333,359
12.69167,380
12.70000,406
12.70833,435
12.71667,468
12.72500,506
12.73333,550
12.74167,598
12.75000,653
12.75833,713
12.76667,779
12.77500,852
12.78333,931
12.79167,1017
12.80000,1110
12.80833,1209
12.81667,1315
12.82500,1428
12.83333,1547
12.84167,1672
12.85000,1804
12.85833,1943
12.86667,2087
12.87500,2238
12.88333,2394
12.89167,2555
12.90000,2722
12.90833,2894
12.91667,3070
12.92500,3251
12.93333,3437
12.94167,3626
12.95000,3820
12.95833,4018
12.96667,4219
12.97500,4423
12.98333,4631
12.99167,4842
13.00000,5055
13.00833,5271
13.01667,5490
13.02500,5710
13.03333,5933
13.04167,6158
13.05000,6385
13.05833,6614
13.06667,6844
13.07500,7075
13.08333,7307
13.09167,7541
13.10000,7774
13.10833,8008
13.11667,8242
13.12500,8474
13.13333,8705
13.14167,8934
13.15000,9158
13.15833,9376
13.16667,9584
13.17500,9778
13.18333,9955
13.19167,10107
13.20000,10229
13.20833,10312
13.21667,10349
13.22500,10332
13.23333,10256
13.24167,10115
13.25000,9908
13.25833,9634
13.26667,9297
13.27500,8902
13.28333,8458
13.29167,7975
13.30000,7464
13.30833,6937
13.31667,6404
13.32500,5876
13.33333,5362
13.34167,4869
13.35000,4403
13.35833,3968
13.36667,3566
13.37500,3197
13.38333,2864
13.39167,2563
13.40000,2294
13.40833,2055
13.41667,1843
13.42500,1657
13.43333,1493
13.44167,1350
13.45000,1224
13.45833,1115
13.46667,1019
13.47500,936
13.48333,863
13.49167,800
13.50000,745
13.50833,697
13.51667,655
13.52500,618
13.53333,586
13.54167,558
13.55000,533
13.55833,511
13.56667,492
13.57500,474
13.58333,459
13.59167,445
13.60000,432
13.60833,421
13.61667,411
13.62500,401
13.63333,393
13.64167,385
13.65000,378
13.65833,371
13.66667,365
13.67500,360
13.68333,355
13.69167,351
13.70000,347
13.70833,343
13.71667,339
13.72500,335
13.73333,332
13.74167,329
13.75000,326
13.75833,323
13.76667,320
13.77500,318
13.78333,315
13.79167,313
13.80000,311
13.80833,309
13.81667,307
13.82500,306
13.83333,304
13.84167,303
13.85000,301
13.85833,300
13.86667,299
13.87500,297
13.88333,295
13.89167,294
13.90000,293
13.90833,291
13.91667,290
13.92500,289
13.93333,289
13.94167,289
13.95000,288
13.95833,288
13.96667,287
13.97500,287
13.98333,287
13.99167,287
14.00000,286
14.00833,286
14.01667,285
14.02500,285
14.03333,285
14.04167,284
14.05000,284
14.05833,284
14.06667,284
14.07500,284
14.08333,284
14.09167,284
14.10000,285
14.10833,285
14.11667,285
14.12500,285
14.13333,285
14.14167,285
14.15000,285
14.15833,285
14.16667,285
14.17500,285
14.18333,285
14.19167,285
14.20000,285
14.20833,286
14.21667,285
14.22500,285
14.23333,285
14.24167,284
14.25000,284
14.25833,284
14.26667,283
14.27500,283
14.28333,283
14.29167,282
14.30000,281
14.30833,280
14.31667,280
14.32500,279
14.33333,278
14.34167,278
14.35000,277
14.35833,276
14.36667,276
14.37500,275
14.38333,275
14.39167,274
14.40000,274
14.40833,273
14.41667,272
14.42500,272
14.43333,271
14.44167,270
14.45000,270
14.45833,269
14.46667,269
14.47500,268
14.48333,268
14.49167,268
14.50000,267
14.50833,267
14.51667,267
14.52500,267
14.53333,266
14.54167,266
14.55000,266
14.55833,267
14.56667,267
14.57500,267
14.58333,267
14.59167,267
14.60000,268
14.60833,268
14.61667,268
14.62500,269
14.63333,270
14.64167,270
14.65000,271
14.65833,273
14.66667,274
14.67500,275
14.68333,276
14.69167,277
14.70000,278
14.70833,278
14.71667,279
14.72500,280
14.73333,281
14.74167,282
14.75000,283
14.75833,284
14.76667,285
14.77500,286
14.78333,286
14.79167,287
14.80000,287
14.80833,288
14.81667,289
14.82500,290
14.83333,291
14.84167,291
14.85000,292
14.85833,293
14.86667,294
14.87500,294
14.88333,294
14.89167,295
14.90000,295
14.90833,295
14.91667,296
14.92500,296
14.93333,295
14.94167,296
14.95000,296
14.95833,296
14.96667,295
14.97500,295
14.98333,295
14.99167,295
15.00000,294
15.00833,294
15.01667,293
15.02500,293
15.03333,292
15.04167,291
15.05000,291
15.05833,290
15.06667,289
15.07500,288
15.08333,287
15.09167,287
15.10000,286
15.10833,285
15.11667,284
15.12500,282
15.13333,281
15.14167,280
15.15000,279
15.15833,278
15.16667,277
15.17500,276
15.18333,275
15.19167,274
15.20000,273
15.20833,272
15.21667,272
15.22500,272
15.23333,272
15.24167,272
15.25000,272
15.25833,272
15.26667,273
15.27500,273
15.28333,274
15.29167,274
15.30000,275
15.30833,276
15.31667,278
15.32500,279
15.33333,280
15.34167,281
15.35000,282
15.35833,283
15.36667,285
15.37500,286
15.38333,287
15.39167,289
15.40000,291
15.40833,292
15.41667,294
15.42500,295
15.43333,297
15.44167,298
15.45000,299
15.45833,300
15.46667,301
15.47500,301
15.48333,302
15.49167,302
15.50000,302
15.50833,303
15.51667,303
15.52500,303
15.53333,303
15.54167,302
15.55000,302
15.55833,301
15.56667,300
15.57500,300
15.58333,299
15.59167,298
15.60000,296
15.60833,295
15.61667,294
15.62500,292
15.63333,291
15.64167,290
15.65000,288
15.65833,287
15.66667,285
15.67500,284
15.68333,283
15.69167,282
15.70000,281
15.70833,279
15.71667,278
15.72500,277
15.73333,275
15.74167,274
15.75000,273
15.75833,271
15.76667,270
15.77500,269
15.78333,268
15.79167,267
15.80000,267
15.80833,267
15.81667,266
15.82500,266
15.83333,265
15.84167,265
15.85000,264
15.85833,264
15.86667,264
15.87500,264
15.88333,263
15.89167,263
15.90000,263
15.90833,263
15.91667,262
15.92500,262
15.93333,262
15.94167,263
15.95000,263
15.95833,264
15.96667,264
15.97500,264
15.98333,264
15.99167,264
16.00000,264
16.00833,265
16.01667,265
16.02500,265
16.03333,266
16.04167,266
16.05000,266
16.05833,267
16.06667,267
16.07500,268
16.08333,268
16.09167,268
16.10000,269
16.10833,269
16.11667,270
16.12500,270
16.13333,270
16.14167,270
16.15000,270
16.15833,270
16.16667,270
16.17500,270
16.18333,270
16.19167,270
16.20000,270
16.20833,270
16.21667,271
16.22500,271
16.23333,271
16.24167,271
16.25000,271
16.25833,270
16.26667,270
16.27500,270
16.28333,269
16.29167,269
16.30000,269
16.30833,269
16.31667,268
16.32500,268
16.33333,267
16.34167,267
16.35000,266
16.35833,266
16.36667,265
16.37500,264
16.38333,264
16.39167,263
16.40000,263
16.40833,263
16.41667,262
16.42500,262
16.43333,261
16.44167,261
16.45000,260
16.45833,260
16.46667,259
16.47500,258
16.48333,257
16.49167,256
16.50000,256
16.50833,256
16.51667,255
16.52500,255
16.53333,254
16.54167,254
16.55000,253
16.55833,253
16.56667,252
16.57500,252
16.58333,251
16.59167,251
16.60000,251
16.60833,251
16.61667,251
16.62500,250
16.63333,250
16.64167,249
16.65000,249
16.65833,249
16.66667,249
16.67500,248
16.68333,248
16.69167,248
16.70000,247
16.70833,247
16.71667,247
16.72500,247
16.73333,247
16.74167,247
16.75000,247
16.75833,248
16.76667,248
16.77500,248
16.78333,248
16.79167,248
16.80000,248
16.80833,248
16.81667,248
16.82500,248
16.83333,248
16.84167,248
16.85000,248
16.85833,248
16.86667,248
16.87500,248
16.88333,247
16.89167,247
16.90000,247
16.90833,247
16.91667,247
16.92500,247
16.93333,247
16.94167,247
16.95000,247
16.95833,247
16.96667,247
16.97500,247
16.98333,247
16.99167,248
17.00000,248
17.00833,248
17.01667,248
17.02500,248
17.03333,247
17.04167,247
17.05000,247
17.05833,247
17.06667,247
17.07500,247
17.08333,246
17.09167,246
17.10000,247
17.10833,247
17.11667,247
17.12500,247
17.13333,247
17.14167,247
17.15000,248
17.15833,248
17.16667,248
17.17500,248
17.18333,248
17.19167,248
17.20000,248
17.20833,249
17.21667,249
17.22500,248
17.23333,248
17.24167,248
17.25000,248
17.25833,247
17.26667,247
17.27500,247
17.28333,247
17.29167,246
17.30000,246
17.30833,246
17.31667,246
17.32500,246
17.33333,246
17.34167,245
17.35000,244
17.35833,244
17.36667,245
17.37500,245
17.38333,245
17.39167,245
17.40000,245
17.40833,245
17.41667,245
17.42500,245
17.43333,245
17.44167,245
17.45000,246
17.45833,246
17.46667,246
17.47500,246
17.48333,246
17.49167,246
17.50000,246
17.50833,246
17.51667,246
17.52500,246
17.53333,246
17.54167,246
17.55000,247
17.55833,247
17.56667,247
17.57500,247
17.58333,247
17.59167,247
17.60000,247
17.60833,246
17.61667,246
17.62500,246
17.63333,246
17.64167,246
17.65000,246
17.65833,246
17.66667,246
17.67500,246
17.68333,246
17.69167,246
17.70000,246
17.70833,246
17.71667,246
17.72500,246
17.73333,246
17.74167,246
17.75000,246
17.75833,246
17.76667,246
17.77500,246
17.78333,246
17.79167,246
17.80000,246
17.80833,246
17.81667,246
17.82500,246
17.83333,246
17.84167,246
17.85000,246
17.85833,246
17.86667,247
17.87500,247
17.88333,247
17.89167,247
17.90000,248
17.90833,248
17.91667,249
17.92500,249
17.93333,249
17.94167,250
17.95000,250
17.95833,250
17.96667,251
17.97500,251
17.98333,250
17.99167,250
18.00000,250
18.00833,250
18.01667,250
18.02500,250
18.03333,250
18.04167,250
18.05000,250
18.05833,251
18.06667,251
18.07500,251
18.08333,251
18.09167,251
18.10000,250
18.10833,250
18.11667,250
18.12500,250
18.13333,250
18.14167,250
18.15000,250
18.15833,250
18.16667,251
18.17500,251
18.18333,251
18.19167,251
18.20000,251
18.20833,251
18.21667,251
18.22500,251
18.23333,251
18.24167,251
18.25000,251
18.25833,251
18.26667,251
18.27500,251
18.28333,251
18.29167,252
18.30000,252
18.30833,252
18.31667,252
18.32500,253
18.33333,253
18.34167,253
18.35000,253
18.35833,253
18.36667,253
18.37500,254
18.38333,254
18.39167,254
18.40000,254
18.40833,254
18.41667,254
18.42500,254
18.43333,254
18.44167,254
18.45000,254
18.45833,254
18.46667,254
18.47500,255
18.48333,255
18.49167,255
18.50000,255
18.50833,255
18.51667,255
18.52500,255
18.53333,254
18.54167,254
18.55000,254
18.55833,254
18.56667,254
18.57500,254
18.58333,254
18.59167,253
18.60000,253
18.60833,253
18.61667,253
18.62500,253
18.63333,253
18.64167,252
18.65000,252
18.65833,252
18.66667,251
18.67500,251
18.68333,251
18.69167,250
18.70000,250
18.70833,250
18.71667,250
18.72500,250
18.73333,250
18.74167,250
18.75000,250
18.75833,249
18.76667,249
18.77500,249
18.78333,249
18.79167,249
18.80000,249
18.80833,249
18.81667,249
18.82500,250
18.83333,250
18.84167,250
18.85000,250
18.85833,249
18.86667,249
18.87500,249
18.88333,249
18.89167,250
18.90000,250
18.90833,250
18.91667,250
18.92500,250
18.93333,251
18.94167,251
18.95000,251
18.95833,251
18.96667,251
18.97500,251
18.98333,251
18.99167,251
19.00000,251
19.00833,251
19.01667,252
19.02500,252
19.03333,252
19.04167,252
19.05000,252
19.05833,252
19.06667,252
19.07500,252
19.08333,252
19.09167,252
19.10000,252
19.10833,252
19.11667,253
19.12500,253
19.13333,253
19.14167,253
19.15000,253
19.15833,253
19.16667,253
19.17500,253
19.18333,253
19.19167,252
19.20000,253
19.20833,253
19.21667,253
19.22500,253
19.23333,253
19.24167,253
19.25000,253
19.25833,253
19.26667,253
19.27500,253
19.28333,252
19.29167,252
19.30000,252
19.30833,251
19.31667,250
19.32500,250
19.33333,250
19.34167,250
19.35000,250
19.35833,250
19.36667,250
19.37500,250
19.38333,249
19.39167,249
19.40000,250
19.40833,250
19.41667,250
19.42500,250
19.43333,250
19.44167,250
19.45000,250
19.45833,250
19.46667,250
19.47500,250
19.48333,250
19.49167,250
19.50000,250
19.50833,249
19.51667,249
19.52500,249
19.53333,249
19.54167,250
19.55000,250
19.55833,250
19.56667,250
19.57500,250
19.58333,250
19.59167,249
19.60000,249
19.60833,249
19.61667,249
19.62500,249
19.63333,249
19.64167,249
19.65000,249
19.65833,249
19.66667,249
19.67500,249
19.68333,249
19.69167,249
19.70000,249
19.70833,250
19.71667,250
19.72500,250
19.73333,250
19.74167,250
19.75000,250
19.75833,250
19.76667,250
19.77500,250
19.78333,250
19.79167,250
19.80000,250
19.80833,249
19.81667,249
19.82500,249
19.83333,249
19.84167,249
19.85000,249
19.85833,249
19.86667,250
19.87500,250
19.88333,251
19.89167,251
19.90000,251
19.90833,252
19.91667,252
19.92500,252
19.93333,252
19.94167,253
19.95000,253
19.95833,253
19.96667,253
19.97500,253
19.98333,253
19.99167,253
20.00000,253
20.00833,254
20.01667,254
20.02500,254
20.03333,255
20.04167,255
20.05000,256
20.05833,257
20.06667,257
20.07500,258
20.08333,258
20.09167,259
20.10000,260
20.10833,260
20.11667,261
20.12500,261
20.13333,261
20.14167,262
20.15000,262
20.15833,262
20.16667,263
20.17500,263
20.18333,263
20.19167,263
20.20000,264
20.20833,264
20.21667,264
20.22500,263
20.23333,263
20.24167,263
20.25000,264
20.25833,264
20.26667,264
20.27500,264
20.28333,264
20.29167,264
20.30000,264
20.30833,264
20.31667,264
20.32500,264
20.33333,263
20.34167,263
20.35000,263
20.35833,263
20.36667,263
20.37500,262
20.38333,262
20.39167,262
20.40000,262
20.40833,262
20.41667,262
20.42500,262
20.43333,262
20.44167,262
20.45000,262
20.45833,262
20.46667,263
20.47500,263
20.48333,262
20.49167,262
20.50000,261
20.50833,261
20.51667,260
20.52500,260
20.53333,260
20.54167,260
20.55000,260
20.55833,260
20.56667,261
20.57500,261
20.58333,261
20.59167,261
20.60000,262
20.60833,262
20.61667,262
20.62500,262
20.63333,262
20.64167,262
20.65000,262
20.65833,263
20.66667,263
20.67500,263
20.68333,263
20.69167,263
20.70000,263
20.70833,264
20.71667,264
20.72500,263
20.73333,263
20.74167,263
20.75000,263
20.75833,263
20.76667,264
20.77500,264
20.78333,264
20.79167,263
20.80000,263
20.80833,263
20.81667,263
20.82500,263
20.83333,263
20.84167,263
20.85000,263
20.85833,263
20.86667,262
20.87500,261
20.88333,261
20.89167,260
20.90000,260
20.90833,260
20.91667,259
20.92500,259
20.93333,259
20.94167,259
20.95000,258
20.95833,258
20.96667,258
20.97500,257
20.98333,257
20.99167,256
21.00000,255
21.00833,255
21.01667,254
21.02500,254
21.03333,253
21.04167,253
21.05000,253
21.05833,252
21.06667,252
21.07500,251
21.08333,250
21.09167,249
21.10000,249
21.10833,248
21.11667,248
21.12500,248
21.13333,247
21.14167,246
21.15000,246
21.15833,245
21.16667,245
21.17500,245
21.18333,245
21.19167,244
21.20000,243
21.20833,243
21.21667,242
21.22500,242
21.23333,242
21.24167,242
21.25000,242
21.25833,241
21.26667,241
21.27500,240
21.28333,240
21.29167,239
21.30000,239
21.30833,239
21.31667,239
21.32500,238
21.33333,238
21.34167,238
21.35000,238
21.35833,238
21.36667,238
21.37500,238
21.38333,238
21.39167,238
21.40000,238
21.40833,238
21.41667,238
21.42500,238
21.43333,238
21.44167,238
21.45000,238
21.45833,238
21.46667,239
21.47500,239
21.48333,239
21.49167,240
21.50000,240
21.50833,241
21.51667,241
21.52500,241
21.53333,242
21.54167,242
21.55000,243
21.55833,243
21.56667,244
21.57500,244
21.58333,244
21.59167,244
21.60000,244
21.60833,245
21.61667,245
21.62500,246
21.63333,247
21.64167,248
21.65000,249
21.65833,250
21.66667,251
21.67500,252
21.68333,253
21.69167,254
21.70000,255
21.70833,255
21.71667,256
21.72500,257
21.73333,258
21.74167,259
21.75000,260
21.75833,261
21.76667,262
21.77500,262
21.78333,263
21.79167,264
21.80000,265
21.80833,266
21.81667,267
21.82500,267
21.83333,268
21.84167,269
21.85000,270
21.85833,270
21.86667,270
21.87500,271
21.88333,271
21.89167,271
21.90000,271
21.90833,271
21.91667,272
21.92500,272
21.93333,271
21.94167,272
21.95000,272
21.95833,272
21.96667,271
21.97500,271
21.98333,271
21.99167,271
22.00000,271
22.00833,271
22.01667,271
22.02500,271
22.03333,270
22.04167,270
22.05000,269
22.05833,269
22.06667,268
22.07500,268
22.08333,268
22.09167,267
22.10000,267
22.10833,266
22.11667,265
22.12500,264
22.13333,263
22.14167,263
22.15000,262
22.15833,262
22.16667,261
22.17500,260
22.18333,260
22.19167,259
22.20000,259
22.20833,259
22.21667,259
22.22500,258
22.23333,258
22.24167,258
22.25000,258
22.25833,258
22.26667,257
22.27500,257
22.28333,257
22.29167,257
22.30000,257
22.30833,257
22.31667,257
22.32500,257
22.33333,257
22.34167,257
22.35000,257
22.35833,257
22.36667,257
22.37500,257
22.38333,256
22.39167,256
22.40000,257
22.40833,257
22.41667,257
22.42500,258
22.43333,258
22.44167,259
22.45000,259
22.45833,259
22.46667,259
22.47500,259
22.48333,259
22.49167,259
22.50000,259
22.50833,260
22.51667,260
22.52500,261
22.53333,261
22.54167,261
22.55000,262
22.55833,262
22.56667,263
22.57500,263
22.58333,263
22.59167,263
22.60000,263
22.60833,263
22.61667,263
22.62500,263
22.63333,263
22.64167,264
22.65000,264
22.65833,265
22.66667,265
22.67500,265
22.68333,265
22.69167,265
22.70000,265
22.70833,264
22.71667,264
22.72500,264
22.73333,264
22.74167,264
22.75000,264
22.75833,264
22.76667,264
22.77500,264
22.78333,263
22.79167,263
22.80000,263
22.80833,263
22.81667,263
22.82500,263
22.83333,262
22.84167,262
22.85000,262
22.85833,262
22.86667,261
22.87500,261
22.88333,260
22.89167,260
22.90000,260
22.90833,259
22.91667,259
22.92500,258
22.93333,258
22.94167,258
22.95000,258
22.95833,258
22.96667,257
22.97500,257
22.98333,257
22.99167,257
23.00000,257
23.00833,257
23.01667,256
23.02500,256
23.03333,255
23.04167,255
23.05000,254
23.05833,254
23.06667,254
23.07500,254
23.08333,254
23.09167,254
23.10000,254
23.10833,254
23.11667,254
23.12500,255
23.13333,255
23.14167,255
23.15000,254
23.15833,254
23.16667,254
23.17500,254
23.18333,255
23.19167,255
23.20000,255
23.20833,256
23.21667,256
23.22500,256
23.23333,256
23.24167,257
23.25000,257
23.25833,258
23.26667,259
23.27500,259
23.28333,260
23.29167,260
23.30000,260
23.30833,261
23.31667,261
23.32500,261
23.33333,262
23.34167,262
23.35000,263
23.35833,264
23.36667,264
23.37500,264
23.38333,264
23.39167,264
23.40000,264
23.40833,265
23.41667,265
23.42500,265
23.43333,266
23.44167,266
23.45000,266
23.45833,266
23.46667,266
23.47500,266
23.48333,267
23.49167,267
23.50000,267
23.50833,267
23.51667,267
23.52500,267
23.53333,267
23.54167,267
23.55000,267
23.55833,267
23.56667,266
23.57500,266
23.58333,265
23.59167,265
23.60000,264
23.60833,264
23.61667,264
23.62500,263
23.63333,262
23.64167,262
23.65000,261
23.65833,261
23.66667,260
23.67500,260
23.68333,259
23.69167,259
23.70000,258
23.70833,257
23.71667,257
23.72500,256
23.73333,256
23.74167,255
23.75000,254
23.75833,254
23.76667,254
23.77500,253
23.78333,253
23.79167,253
23.80000,252
23.80833,252
23.81667,251
23.82500,250
23.83333,249
23.84167,248
23.85000,247
23.85833,246
23.86667,246
23.87500,246
23.88333,245
23.89167,245
23.90000,245
23.90833,244
23.91667,244
23.92500,243
23.93333,243
23.94167,242
23.95000,242
23.95833,242
23.96667,241
23.97500,241
23.98333,241
23.99167,241
24.00000,241
24.00833,241
24.01667,242
24.02500,242
24.03333,242
24.04167,242
24.05000,242
24.05833,242
24.06667,242
24.07500,243
24.08333,243
24.09167,243
24.10000,243
24.10833,243
24.11667,243
24.12500,244
24.13333,244
24.14167,245
24.15000,245
24.15833,246
24.16667,247
24.17500,248
24.18333,248
24.19167,249
24.20000,250
24.20833,251
24.21667,252
24.22500,253
24.23333,254
24.24167,255
24.25000,256
24.25833,257
24.26667,257
24.27500,259
24.28333,260
24.29167,262
24.30000,263
24.30833,265
24.31667,267
24.32500,269
24.33333,272
24.34167,274
24.35000,276
24.35833,278
24.36667,280
24.37500,283
24.38333,286
24.39167,289
24.40000,292
24.40833,295
24.41667,299
24.42500,303
24.43333,308
24.44167,313
24.45000,318
24.45833,324
24.46667,330
24.47500,336
24.48333,343
24.49167,350
24.50000,358
24.50833,366
24.51667,374
24.52500,383
24.53333,393
24.54167,403
24.55000,414
24.55833,426
24.56667,438
24.57500,450
24.58333,463
24.59167,477
24.60000,491
24.60833,506
24.61667,521
24.62500,537
24.63333,554
24.64167,571
24.65000,589
24.65833,608
24.66667,627
24.67500,647
24.68333,666
24.69167,686
24.70000,707
24.70833,727
24.71667,747
24.72500,767
24.73333,787
24.74167,807
24.75000,827
24.75833,846
24.76667,865
24.77500,882
24.78333,900
24.79167,916
24.80000,931
24.80833,946
24.81667,959
24.82500,971
24.83333,983
24.84167,992
24.85000,1000
24.85833,1007
24.86667,1012
24.87500,1016
24.88333,1018
24.89167,1019
24.90000,1018
24.90833,1016
24.91667,1012
24.92500,1007
24.93333,1000
24.94167,992
24.95000,983
24.95833,972
24.96667,960
24.97500,947
24.98333,932
24.99167,917
25.00000,901
25.00833,884
25.01667,866
25.02500,848
25.03333,830
25.04167,810
25.05000,791
25.05833,771
25.06667,751
25.07500,731
25.08333,712
25.09167,692
25.10000,673
25.10833,653
25.11667,634
25.12500,616
25.13333,597
25.14167,579
25.15000,561
25.15833,544
25.16667,527
25.17500,511
25.18333,495
25.19167,481
25.20000,467
25.20833,453
25.21667,440
25.22500,428
25.23333,416
25.24167,405
25.25000,395
25.25833,384
25.26667,375
25.27500,366
25.28333,358
25.29167,350
25.30000,342
25.30833,335
25.31667,329
25.32500,323
25.33333,318
25.34167,312
25.35000,307
25.35833,303
25.36667,299
25.37500,295
25.38333,292
25.39167,289
25.40000,286
25.40833,284
25.41667,281
25.42500,279
25.43333,277
25.44167,275
25.45000,273
25.45833,272
25.46667,271
25.47500,270
25.48333,269
25.49167,268
25.50000,267
25.50833,267
25.51667,266
25.52500,266
25.53333,265
25.54167,265
25.55000,264
25.55833,264
25.56667,264
25.57500,265
25.58333,265
25.59167,266
25.60000,267
25.60833,267
25.61667,268
25.62500,268
25.63333,269
25.64167,269
25.65000,269
25.65833,270
25.66667,270
25.67500,271
25.68333,271
25.69167,272
25.70000,272
25.70833,272
25.71667,272
25.72500,273
25.73333,273
25.74167,273
25.75000,274
25.75833,274
25.76667,274
25.77500,274
25.78333,274
25.79167,275
25.80000,275
25.80833,275
25.81667,275
25.82500,275
25.83333,274
25.84167,274
25.85000,274
25.85833,274
25.86667,274
25.87500,274
25.88333,274
25.89167,273
25.90000,273
25.90833,273
25.91667,272
25.92500,272
25.93333,272
25.94167,272
25.95000,271
25.95833,271
25.96667,271
25.97500,270
25.98333,270
25.99167,270
26.00000,270
26.00833,269
26.01667,269
26.02500,269
26.03333,269
26.04167,268
26.05000,269
26.05833,269
26.06667,269
26.07500,269
26.08333,269
26.09167,269
26.10000,270
26.10833,270
26.11667,270
26.12500,271
26.13333,271
26.14167,272
26.15000,272
26.15833,272
26.16667,273
26.17500,273
26.18333,273
26.19167,274
26.20000,274
26.20833,275
26.21667,276
26.22500,276
26.23333,276
26.24167,277
26.25000,277
26.25833,278
26.26667,278
26.27500,279
26.28333,279
26.29167,280
26.30000,280
26.30833,281
26.31667,281
26.32500,282
26.33333,282
26.34167,281
26.35000,281
26.35833,281
26.36667,281
26.37500,280
26.38333,280
26.39167,280
26.40000,280
26.40833,280
26.41667,280
26.42500,280
26.43333,279
26.44167,279
26.45000,278
26.45833,278
26.46667,277
26.47500,277
26.48333,277
26.49167,276
26.50000,275
26.50833,274
26.51667,274
26.52500,273
26.53333,273
26.54167,272
26.55000,271
26.55833,270
26.56667,269
26.57500,268
26.58333,267
26.59167,266
26.60000,266
26.60833,265
26.61667,264
26.62500,264
26.63333,263
26.64167,262
26.65000,262
26.65833,261
26.66667,261
26.67500,260
26.68333,259
26.69167,259
26.70000,258
26.70833,258
26.71667,257
26.72500,257
26.73333,257
26.74167,257
26.75000,256
26.75833,256
26.76667,257
26.77500,257
26.78333,257
26.79167,257
26.80000,258
26.80833,258
26.81667,259
26.82500,259
26.83333,260
26.84167,260
26.85000,261
26.85833,262
26.86667,262
26.87500,263
26.88333,264
26.89167,264
26.90000,265
26.90833,266
26.91667,266
26.92500,267
26.93333,268
26.94167,270
26.95000,271
26.95833,271
26.96667,272
26.97500,272
26.98333,273
26.99167,273
27.00000,274
27.00833,274
27.01667,275
27.02500,276
27.03333,276
27.04167,277
27.05000,277
27.05833,277
27.06667,277
27.07500,278
27.08333,278
27.09167,278
27.10000,279
27.10833,279
27.11667,279
27.12500,280
27.13333,280
27.14167,281
27.15000,281
27.15833,281
27.16667,281
27.17500,281
27.18333,281
27.19167,281
27.20000,282
27.20833,282
27.21667,282
27.22500,282
27.23333,283
27.24167,283
27.25000,283
27.25833,283
27.26667,283
27.27500,284
27.28333,284
27.29167,284
27.30000,285
27.30833,285
27.31667,285
27.32500,285
27.33333,285
27.34167,285
27.35000,285
27.35833,286
27.36667,286
27.37500,286
27.38333,286
27.39167,287
27.40000,287
27.40833,287
27.41667,287
27.42500,286
27.43333,286
27.44167,286
27.45000,285
27.45833,285
27.46667,285
27.47500,285
27.48333,285
27.49167,284
27.50000,284
27.50833,284
27.51667,284
27.52500,283
27.53333,283
27.54167,282
27.55000,282
27.55833,282
27.56667,282
27.57500,281
27.58333,281
27.59167,280
27.60000,279
27.60833,279
27.61667,278
27.62500,277
27.63333,276
27.64167,275
27.65000,275
27.65833,274
27.66667,273
27.67500,272
27.68333,271
27.69167,270
27.70000,269
27.70833,268
27.71667,267
27.72500,266
27.73333,265
27.74167,263
27.75000,263
27.75833,262
27.76667,261
27.77500,259
27.78333,258
27.79167,257
27.80000,255
27.80833,253
27.81667,251
27.82500,250
27.83333,248
27.84167,246
27.85000,244
27.85833,242
27.86667,240
27.87500,238
27.88333,236
27.89167,234
27.90000,231
27.90833,229
27.91667,226
27.92500,223
27.93333,220
27.94167,217
27.95000,214
27.95833,210
27.96667,207
27.97500,203
27.98333,200
27.99167,197
28.00000,193
28.00833,189
28.01667,184
28.02500,180
28.03333,176
28.04167,171
28.05000,166
28.05833,160
28.06667,155
28.07500,150
28.08333,144
28.09167,138
28.10000,132
28.10833,125
28.11667,119
28.12500,112
28.13333,105
28.14167,97
28.15000,89
28.15833,81
28.16667,73
28.17500,65
28.18333,56
28.19167,47
28.20000,38
28.20833,29
28.21667,20
28.22500,10
28.23333,1
28.24167,-9
28.25000,-20
28.25833,-30
28.26667,-40
28.27500,-50
28.28333,-60
28.29167,-70
28.30000,-81
28.30833,-91
28.31667,-101
28.32500,-111
28.33333,-121
28.34167,-131
28.35000,-141
28.35833,-150
28.36667,-159
28.37500,-168
28.38333,-177
28.39167,-186
28.40000,-194
28.40833,-203
28.41667,-211
28.42500,-218
28.43333,-225
28.44167,-231
28.45000,-238
28.45833,-244
28.46667,-249
28.47500,-254
28.48333,-258
28.49167,-262
28.50000,-265
28.50833,-269
28.51667,-271
28.52500,-274
28.53333,-275
28.54167,-275
28.55000,-275
28.55833,-275
28.56667,-275
28.57500,-274
28.58333,-273
28.59167,-271
28.60000,-269
28.60833,-266
28.61667,-263
28.62500,-259
28.63333,-256
28.64167,-252
28.65000,-247
28.65833,-242
28.66667,-237
28.67500,-232
28.68333,-226
28.69167,-220
28.70000,-215
28.70833,-209
28.71667,-202
28.72500,-196
28.73333,-189
28.74167,-182
28.75000,-175
28.75833,-168
28.76667,-161
28.77500,-154
28.78333,-147
28.79167,-140
28.80000,-134
28.80833,-127
28.81667,-120
28.82500,-113
28.83333,-107
28.84167,-100
28.85000,-93
28.85833,-87
28.86667,-80
28.87500,-74
28.88333,-68
28.89167,-62
28.90000,-57
28.90833,-51
28.91667,-46
28.92500,-40
28.93333,-35
28.94167,-30
28.95000,-25
28.95833,-20
28.96667,-16
28.97500,-12
28.98333,-8
28.99167,-3
29.00000,0
29.00833,4
29.01667,8
29.02500,12
29.03333,15
29.04167,18
29.05000,22
29.05833,25
29.06667,28
29.07500,31
29.08333,33
29.09167,36
29.10000,39
29.10833,41
29.11667,44
29.12500,46
29.13333,49
29.14167,52
29.15000,54
29.15833,57
29.16667,59
29.17500,61
29.18333,63
29.19167,65
29.20000,67
29.20833,69
29.21667,71
29.22500,73
29.23333,74
29.24167,76
29.25000,78
29.25833,80
29.26667,82
29.27500,84
29.28333,85
29.29167,86
29.30000,88
29.30833,89
29.31667,91
29.32500,93
29.33333,94
29.34167,96
29.35000,97
29.35833,98
29.36667,100
29.37500,102
29.38333,103
29.39167,104
29.40000,105
29.40833,106
29.41667,108
29.42500,109
29.43333,110
29.44167,112
29.45000,113
29.45833,114
29.46667,115
29.47500,116
29.48333,118
29.49167,119
29.50000,119
29.50833,120
29.51667,121
29.52500,122
29.53333,122
29.54167,123
29.55000,123
29.55833,124
29.56667,124
29.57500,125
29.58333,125
29.59167,125
29.60000,125
29.60833,125
29.61667,126
29.62500,125
29.63333,125
29.64167,125
29.65000,125
29.65833,125
29.66667,125
29.67500,125
29.68333,125
29.69167,125
29.70000,125
29.70833,124
29.71667,124
29.72500,123
29.73333,122
29.74167,122
29.75000,122
29.75833,121
29.76667,121
29.77500,120
29.78333,120
29.79167,119
29.80000,118
29.80833,117
29.81667,116
29.82500,115
29.83333,113
29.84167,112
29.85000,111
29.85833,110
29.86667,108
29.87500,107
29.88333,105
29.89167,104
29.90000,102
29.90833,101
29.91667,98
29.92500,96
29.93333,93
29.94167,90
29.95000,87
29.95833,84
29.96667,81
29.97500,79
29.98333,76
29.99167,73
30.00000,69

