[Header]
Application Name,LabSolutions
Version,5.97 SP1
Data File Name,C:\Users\cremerlab\Desktop\griffin\2021-02-15_NCM_diauxie_turnover\2021-02-15_NCM_acetate_glucose_diauxie_turnover_2152021_015.lcd
Output Date,2/16/2021
Output Time,9:37:23 AM

[File Information]
Type,Data File
Generated,2/16/2021 3:29:56 AM
Generated by,System Administrator
Modified,2/16/2021 4:00:14 AM
Modified by,System Administrator

[Sample Information]
Operator Name,System Administrator
Acquired,2/16/2021 3:30:13 AM
Sample Type,0:Unknown
Level,0
Sample Name,30 mM acetate medium 5 uL
Sample ID,001
ISTD Amount1,1
ISTD Amount2,1
ISTD Amount3,1
ISTD Amount4,1
ISTD Amount5,1
ISTD Amount6,1
ISTD Amount7,1
ISTD Amount8,1
ISTD Amount9,1
ISTD Amount10,1
ISTD Amount11,1
ISTD Amount12,1
ISTD Amount13,1
ISTD Amount14,1
ISTD Amount15,1
ISTD Amount16,1
ISTD Amount17,1
ISTD Amount18,1
ISTD Amount19,1
ISTD Amount20,1
ISTD Amount21,1
ISTD Amount22,1
ISTD Amount23,1
ISTD Amount24,1
ISTD Amount25,1
ISTD Amount26,1
ISTD Amount27,1
ISTD Amount28,1
ISTD Amount29,1
ISTD Amount30,1
ISTD Amount31,1
ISTD Amount32,1
Sample Amount,1
Dilution Factor,1
Vial#,11
Injection Volume,5

[Original Files]
Data File,C:\Users\cremerlab\Desktop\griffin\2021-02-15_NCM_diauxie_turnover\2021-02-15_NCM_acetate_glucose_diauxie_turnover_2152021_015.lcd
Method File,C:\LabSolutions\Data\Project1\organicacidsetc.lcm
Batch File,C:\Users\cremerlab\Desktop\griffin\2021-02-15_NCM_diauxie_turnover\2021-02-15_NCM_acetate_glucose_diauxie_turnover.lcb
Report Format File,c:\LabSolutions\System\DEFAULT.lsr

[File Description]


[Configuration]
Instrument Name,HPLC-PC-Instrument1
Instrument #,1
Line #,1
# of Detectors,2
Detector ID,Detector A,Detector B
Detector Name,Detector A,Detector B
# of Channels,1,1

[Peak Table(Detector A)]
# of Peaks,0

[Peak Table(Detector B)]
# of Peaks,3
Peak#,R.Time,I.Time,F.Time,Area,Height,A/H,Conc.,Mark,ID#,Name,k',Plate #,Plate Ht.,Tailing,Resolution,Sep.Factor,Area Ratio,Height Ratio,Conc. %,Norm Conc.
1,10.835,10.575,11.425,40007,2438,16.408,0.000,   ,,,0.000,9906,15.142,1.269,0.000,0.000,0,0,0.000,0.000
2,13.127,12.508,13.900,149049,7353,20.272,0.000,   ,,,0.211,9064,16.549,0.853,4.644,0.000,0,0,0.000,0.000
3,24.873,24.375,25.483,13299,494,26.900,0.000,   ,,,1.296,18886,7.942,1.061,18.420,6.126,0,0,0.000,0.000

[Compound Results(Detector A)]
# of IDs,0

[Compound Results(Detector B)]
# of IDs,0

[LC Chromatogram(Detector B-Ch1)]
Interval(msec),500
# of Points,3601
Start Time(min),0.000
End Time(min),30.000
Intensity Units,mV
Intensity Multiplier,0.001
R.Time (min),Intensity
0.00000,-10
0.00833,-10
0.01667,-0
0.02500,-0
0.03333,-1
0.04167,-1
0.05000,-2
0.05833,-2
0.06667,-1
0.07500,-1
0.08333,-1
0.09167,-1
0.10000,-1
0.10833,-1
0.11667,-1
0.12500,-1
0.13333,-1
0.14167,-1
0.15000,-0
0.15833,-0
0.16667,-0
0.17500,-0
0.18333,-0
0.19167,-0
0.20000,-1
0.20833,-1
0.21667,-1
0.22500,-1
0.23333,-1
0.24167,-1
0.25000,-1
0.25833,-1
0.26667,-1
0.27500,-2
0.28333,-2
0.29167,-2
0.30000,-2
0.30833,-2
0.31667,-2
0.32500,-2
0.33333,-2
0.34167,-3
0.35000,-3
0.35833,-2
0.36667,-2
0.37500,-2
0.38333,-2
0.39167,-2
0.40000,-2
0.40833,-2
0.41667,-2
0.42500,-2
0.43333,-1
0.44167,-1
0.45000,-1
0.45833,-1
0.46667,-1
0.47500,-1
0.48333,-0
0.49167,0
0.50000,0
0.50833,1
0.51667,1
0.52500,1
0.53333,1
0.54167,2
0.55000,2
0.55833,3
0.56667,4
0.57500,4
0.58333,5
0.59167,5
0.60000,6
0.60833,6
0.61667,7
0.62500,8
0.63333,8
0.64167,9
0.65000,9
0.65833,10
0.66667,10
0.67500,11
0.68333,11
0.69167,11
0.70000,12
0.70833,12
0.71667,13
0.72500,13
0.73333,14
0.74167,14
0.75000,14
0.75833,14
0.76667,14
0.77500,15
0.78333,15
0.79167,15
0.80000,16
0.80833,16
0.81667,17
0.82500,17
0.83333,17
0.84167,18
0.85000,17
0.85833,17
0.86667,17
0.87500,18
0.88333,18
0.89167,18
0.90000,18
0.90833,18
0.91667,19
0.92500,19
0.93333,19
0.94167,19
0.95000,19
0.95833,19
0.96667,19
0.97500,19
0.98333,19
0.99167,19
1.00000,19
1.00833,19
1.01667,18
1.02500,18
1.03333,18
1.04167,18
1.05000,18
1.05833,18
1.06667,18
1.07500,18
1.08333,18
1.09167,18
1.10000,18
1.10833,18
1.11667,18
1.12500,18
1.13333,19
1.14167,19
1.15000,19
1.15833,19
1.16667,19
1.17500,19
1.18333,19
1.19167,19
1.20000,18
1.20833,19
1.21667,19
1.22500,19
1.23333,18
1.24167,18
1.25000,17
1.25833,17
1.26667,16
1.27500,15
1.28333,15
1.29167,14
1.30000,14
1.30833,14
1.31667,14
1.32500,13
1.33333,13
1.34167,12
1.35000,12
1.35833,11
1.36667,11
1.37500,10
1.38333,10
1.39167,9
1.40000,8
1.40833,8
1.41667,7
1.42500,6
1.43333,5
1.44167,4
1.45000,3
1.45833,2
1.46667,2
1.47500,1
1.48333,0
1.49167,-0
1.50000,-1
1.50833,-2
1.51667,-2
1.52500,-3
1.53333,-4
1.54167,-4
1.55000,-5
1.55833,-5
1.56667,-6
1.57500,-6
1.58333,-7
1.59167,-7
1.60000,-7
1.60833,-8
1.61667,-8
1.62500,-9
1.63333,-9
1.64167,-9
1.65000,-9
1.65833,-9
1.66667,-9
1.67500,-9
1.68333,-9
1.69167,-9
1.70000,-9
1.70833,-9
1.71667,-9
1.72500,-8
1.73333,-8
1.74167,-8
1.75000,-7
1.75833,-6
1.76667,-6
1.77500,-6
1.78333,-5
1.79167,-5
1.80000,-5
1.80833,-5
1.81667,-4
1.82500,-4
1.83333,-3
1.84167,-3
1.85000,-3
1.85833,-3
1.86667,-3
1.87500,-2
1.88333,-2
1.89167,-1
1.90000,-1
1.90833,-0
1.91667,-0
1.92500,0
1.93333,0
1.94167,0
1.95000,0
1.95833,1
1.96667,1
1.97500,1
1.98333,2
1.99167,2
2.00000,3
2.00833,3
2.01667,4
2.02500,4
2.03333,4
2.04167,4
2.05000,5
2.05833,5
2.06667,6
2.07500,6
2.08333,7
2.09167,7
2.10000,8
2.10833,9
2.11667,9
2.12500,10
2.13333,10
2.14167,11
2.15000,11
2.15833,11
2.16667,12
2.17500,12
2.18333,12
2.19167,13
2.20000,13
2.20833,14
2.21667,14
2.22500,15
2.23333,15
2.24167,16
2.25000,16
2.25833,17
2.26667,17
2.27500,18
2.28333,18
2.29167,19
2.30000,19
2.30833,19
2.31667,19
2.32500,20
2.33333,20
2.34167,20
2.35000,19
2.35833,19
2.36667,20
2.37500,20
2.38333,20
2.39167,20
2.40000,20
2.40833,20
2.41667,20
2.42500,19
2.43333,19
2.44167,19
2.45000,19
2.45833,18
2.46667,18
2.47500,18
2.48333,18
2.49167,17
2.50000,16
2.50833,16
2.51667,16
2.52500,16
2.53333,15
2.54167,14
2.55000,14
2.55833,13
2.56667,13
2.57500,13
2.58333,12
2.59167,12
2.60000,12
2.60833,11
2.61667,11
2.62500,11
2.63333,10
2.64167,9
2.65000,9
2.65833,9
2.66667,8
2.67500,7
2.68333,7
2.69167,6
2.70000,5
2.70833,5
2.71667,5
2.72500,4
2.73333,4
2.74167,3
2.75000,3
2.75833,2
2.76667,2
2.77500,2
2.78333,1
2.79167,1
2.80000,1
2.80833,1
2.81667,1
2.82500,1
2.83333,1
2.84167,0
2.85000,-0
2.85833,-0
2.86667,-1
2.87500,-1
2.88333,-1
2.89167,-1
2.90000,-1
2.90833,-2
2.91667,-2
2.92500,-1
2.93333,-1
2.94167,-1
2.95000,-1
2.95833,-1
2.96667,-0
2.97500,-0
2.98333,-0
2.99167,-0
3.00000,-0
3.00833,0
3.01667,1
3.02500,1
3.03333,1
3.04167,2
3.05000,3
3.05833,3
3.06667,4
3.07500,5
3.08333,6
3.09167,6
3.10000,7
3.10833,8
3.11667,9
3.12500,10
3.13333,11
3.14167,12
3.15000,13
3.15833,14
3.16667,15
3.17500,15
3.18333,16
3.19167,16
3.20000,17
3.20833,18
3.21667,19
3.22500,20
3.23333,20
3.24167,21
3.25000,22
3.25833,23
3.26667,24
3.27500,24
3.28333,25
3.29167,25
3.30000,26
3.30833,27
3.31667,28
3.32500,28
3.33333,29
3.34167,29
3.35000,29
3.35833,29
3.36667,29
3.37500,29
3.38333,29
3.39167,29
3.40000,28
3.40833,28
3.41667,28
3.42500,27
3.43333,27
3.44167,26
3.45000,26
3.45833,26
3.46667,25
3.47500,24
3.48333,23
3.49167,23
3.50000,22
3.50833,22
3.51667,21
3.52500,20
3.53333,19
3.54167,18
3.55000,17
3.55833,17
3.56667,16
3.57500,15
3.58333,13
3.59167,12
3.60000,11
3.60833,10
3.61667,10
3.62500,9
3.63333,8
3.64167,7
3.65000,6
3.65833,5
3.66667,5
3.67500,4
3.68333,3
3.69167,2
3.70000,1
3.70833,-0
3.71667,-0
3.72500,-1
3.73333,-1
3.74167,-2
3.75000,-2
3.75833,-3
3.76667,-3
3.77500,-4
3.78333,-4
3.79167,-4
3.80000,-5
3.80833,-5
3.81667,-5
3.82500,-5
3.83333,-5
3.84167,-6
3.85000,-6
3.85833,-6
3.86667,-6
3.87500,-6
3.88333,-6
3.89167,-6
3.90000,-5
3.90833,-5
3.91667,-5
3.92500,-5
3.93333,-5
3.94167,-4
3.95000,-4
3.95833,-4
3.96667,-3
3.97500,-3
3.98333,-2
3.99167,-2
4.00000,-2
4.00833,-1
4.01667,-0
4.02500,0
4.03333,1
4.04167,2
4.05000,3
4.05833,3
4.06667,4
4.07500,4
4.08333,5
4.09167,5
4.10000,6
4.10833,6
4.11667,7
4.12500,8
4.13333,8
4.14167,9
4.15000,10
4.15833,10
4.16667,11
4.17500,11
4.18333,12
4.19167,12
4.20000,12
4.20833,13
4.21667,13
4.22500,13
4.23333,14
4.24167,14
4.25000,15
4.25833,16
4.26667,16
4.27500,16
4.28333,17
4.29167,17
4.30000,18
4.30833,18
4.31667,18
4.32500,19
4.33333,19
4.34167,19
4.35000,20
4.35833,20
4.36667,20
4.37500,20
4.38333,20
4.39167,19
4.40000,19
4.40833,19
4.41667,19
4.42500,19
4.43333,19
4.44167,19
4.45000,19
4.45833,18
4.46667,18
4.47500,17
4.48333,16
4.49167,16
4.50000,15
4.50833,14
4.51667,14
4.52500,13
4.53333,12
4.54167,11
4.55000,10
4.55833,10
4.56667,9
4.57500,9
4.58333,8
4.59167,8
4.60000,7
4.60833,6
4.61667,6
4.62500,6
4.63333,5
4.64167,5
4.65000,4
4.65833,4
4.66667,4
4.67500,3
4.68333,2
4.69167,2
4.70000,1
4.70833,1
4.71667,0
4.72500,-0
4.73333,-0
4.74167,-1
4.75000,-0
4.75833,-1
4.76667,-1
4.77500,-1
4.78333,-1
4.79167,-0
4.80000,-0
4.80833,0
4.81667,0
4.82500,1
4.83333,1
4.84167,0
4.85000,0
4.85833,1
4.86667,1
4.87500,1
4.88333,1
4.89167,1
4.90000,1
4.90833,1
4.91667,2
4.92500,2
4.93333,3
4.94167,3
4.95000,4
4.95833,4
4.96667,4
4.97500,3
4.98333,3
4.99167,4
5.00000,4
5.00833,4
5.01667,4
5.02500,4
5.03333,5
5.04167,5
5.05000,4
5.05833,4
5.06667,4
5.07500,4
5.08333,4
5.09167,4
5.10000,4
5.10833,3
5.11667,3
5.12500,3
5.13333,3
5.14167,3
5.15000,3
5.15833,3
5.16667,2
5.17500,2
5.18333,2
5.19167,2
5.20000,1
5.20833,1
5.21667,1
5.22500,1
5.23333,1
5.24167,1
5.25000,0
5.25833,-0
5.26667,-0
5.27500,-1
5.28333,-1
5.29167,-1
5.30000,-0
5.30833,-0
5.31667,-0
5.32500,-0
5.33333,-0
5.34167,-0
5.35000,-0
5.35833,-0
5.36667,-0
5.37500,-0
5.38333,-0
5.39167,0
5.40000,0
5.40833,1
5.41667,1
5.42500,1
5.43333,2
5.44167,2
5.45000,3
5.45833,3
5.46667,4
5.47500,4
5.48333,5
5.49167,5
5.50000,5
5.50833,5
5.51667,6
5.52500,6
5.53333,7
5.54167,7
5.55000,7
5.55833,8
5.56667,8
5.57500,9
5.58333,10
5.59167,10
5.60000,11
5.60833,11
5.61667,11
5.62500,11
5.63333,11
5.64167,11
5.65000,11
5.65833,12
5.66667,12
5.67500,12
5.68333,12
5.69167,12
5.70000,12
5.70833,12
5.71667,12
5.72500,12
5.73333,12
5.74167,11
5.75000,11
5.75833,11
5.76667,11
5.77500,11
5.78333,11
5.79167,10
5.80000,10
5.80833,10
5.81667,10
5.82500,10
5.83333,9
5.84167,9
5.85000,9
5.85833,9
5.86667,8
5.87500,8
5.88333,8
5.89167,8
5.90000,7
5.90833,7
5.91667,7
5.92500,8
5.93333,8
5.94167,8
5.95000,8
5.95833,9
5.96667,9
5.97500,9
5.98333,10
5.99167,10
6.00000,11
6.00833,11
6.01667,12
6.02500,13
6.03333,14
6.04167,14
6.05000,15
6.05833,15
6.06667,16
6.07500,16
6.08333,17
6.09167,18
6.10000,18
6.10833,19
6.11667,20
6.12500,20
6.13333,21
6.14167,22
6.15000,22
6.15833,23
6.16667,23
6.17500,24
6.18333,25
6.19167,25
6.20000,26
6.20833,26
6.21667,27
6.22500,27
6.23333,28
6.24167,29
6.25000,29
6.25833,30
6.26667,31
6.27500,31
6.28333,32
6.29167,32
6.30000,32
6.30833,32
6.31667,33
6.32500,33
6.33333,32
6.34167,32
6.35000,32
6.35833,32
6.36667,31
6.37500,31
6.38333,31
6.39167,31
6.40000,30
6.40833,30
6.41667,29
6.42500,29
6.43333,28
6.44167,28
6.45000,27
6.45833,27
6.46667,27
6.47500,27
6.48333,27
6.49167,27
6.50000,27
6.50833,27
6.51667,26
6.52500,26
6.53333,26
6.54167,25
6.55000,24
6.55833,24
6.56667,23
6.57500,23
6.58333,22
6.59167,22
6.60000,21
6.60833,21
6.61667,21
6.62500,20
6.63333,20
6.64167,20
6.65000,20
6.65833,20
6.66667,20
6.67500,20
6.68333,20
6.69167,20
6.70000,20
6.70833,20
6.71667,19
6.72500,19
6.73333,18
6.74167,18
6.75000,18
6.75833,18
6.76667,17
6.77500,17
6.78333,17
6.79167,17
6.80000,17
6.80833,17
6.81667,17
6.82500,17
6.83333,17
6.84167,17
6.85000,18
6.85833,18
6.86667,18
6.87500,19
6.88333,19
6.89167,20
6.90000,20
6.90833,20
6.91667,20
6.92500,20
6.93333,20
6.94167,20
6.95000,20
6.95833,20
6.96667,20
6.97500,21
6.98333,21
6.99167,21
7.00000,21
7.00833,21
7.01667,21
7.02500,21
7.03333,21
7.04167,21
7.05000,21
7.05833,20
7.06667,20
7.07500,19
7.08333,19
7.09167,19
7.10000,18
7.10833,18
7.11667,18
7.12500,18
7.13333,18
7.14167,17
7.15000,17
7.15833,16
7.16667,16
7.17500,15
7.18333,14
7.19167,14
7.20000,14
7.20833,14
7.21667,13
7.22500,12
7.23333,11
7.24167,10
7.25000,9
7.25833,8
7.26667,7
7.27500,6
7.28333,5
7.29167,4
7.30000,3
7.30833,2
7.31667,2
7.32500,1
7.33333,1
7.34167,1
7.35000,0
7.35833,-0
7.36667,-1
7.37500,-1
7.38333,-2
7.39167,-2
7.40000,-3
7.40833,-3
7.41667,-4
7.42500,-5
7.43333,-5
7.44167,-5
7.45000,-5
7.45833,-5
7.46667,-4
7.47500,-4
7.48333,-4
7.49167,-4
7.50000,-4
7.50833,-3
7.51667,-3
7.52500,-2
7.53333,-2
7.54167,-2
7.55000,-2
7.55833,-2
7.56667,-2
7.57500,-1
7.58333,-1
7.59167,-1
7.60000,-1
7.60833,-1
7.61667,-1
7.62500,-0
7.63333,1
7.64167,1
7.65000,2
7.65833,2
7.66667,3
7.67500,3
7.68333,3
7.69167,3
7.70000,4
7.70833,4
7.71667,4
7.72500,4
7.73333,5
7.74167,6
7.75000,6
7.75833,6
7.76667,7
7.77500,8
7.78333,8
7.79167,9
7.80000,9
7.80833,10
7.81667,10
7.82500,10
7.83333,11
7.84167,11
7.85000,12
7.85833,13
7.86667,13
7.87500,14
7.88333,14
7.89167,15
7.90000,15
7.90833,16
7.91667,16
7.92500,17
7.93333,17
7.94167,18
7.95000,18
7.95833,19
7.96667,19
7.97500,19
7.98333,20
7.99167,20
8.00000,21
8.00833,21
8.01667,22
8.02500,22
8.03333,22
8.04167,22
8.05000,22
8.05833,22
8.06667,22
8.07500,22
8.08333,22
8.09167,22
8.10000,23
8.10833,23
8.11667,23
8.12500,24
8.13333,24
8.14167,24
8.15000,24
8.15833,24
8.16667,23
8.17500,23
8.18333,23
8.19167,23
8.20000,24
8.20833,24
8.21667,24
8.22500,24
8.23333,24
8.24167,24
8.25000,24
8.25833,24
8.26667,24
8.27500,24
8.28333,24
8.29167,24
8.30000,24
8.30833,24
8.31667,25
8.32500,25
8.33333,25
8.34167,25
8.35000,25
8.35833,25
8.36667,25
8.37500,25
8.38333,24
8.39167,24
8.40000,24
8.40833,24
8.41667,24
8.42500,24
8.43333,24
8.44167,24
8.45000,24
8.45833,25
8.46667,25
8.47500,26
8.48333,26
8.49167,27
8.50000,27
8.50833,27
8.51667,27
8.52500,28
8.53333,28
8.54167,29
8.55000,29
8.55833,29
8.56667,29
8.57500,29
8.58333,30
8.59167,30
8.60000,30
8.60833,30
8.61667,30
8.62500,30
8.63333,29
8.64167,29
8.65000,29
8.65833,29
8.66667,29
8.67500,29
8.68333,29
8.69167,29
8.70000,30
8.70833,30
8.71667,29
8.72500,29
8.73333,29
8.74167,28
8.75000,27
8.75833,26
8.76667,26
8.77500,26
8.78333,25
8.79167,24
8.80000,23
8.80833,23
8.81667,22
8.82500,21
8.83333,20
8.84167,19
8.85000,19
8.85833,18
8.86667,17
8.87500,16
8.88333,15
8.89167,14
8.90000,14
8.90833,13
8.91667,12
8.92500,11
8.93333,11
8.94167,10
8.95000,10
8.95833,9
8.96667,8
8.97500,8
8.98333,8
8.99167,7
9.00000,7
9.00833,6
9.01667,6
9.02500,6
9.03333,5
9.04167,5
9.05000,4
9.05833,3
9.06667,3
9.07500,3
9.08333,3
9.09167,3
9.10000,3
9.10833,3
9.11667,3
9.12500,3
9.13333,2
9.14167,2
9.15000,2
9.15833,2
9.16667,2
9.17500,2
9.18333,3
9.19167,3
9.20000,4
9.20833,4
9.21667,4
9.22500,4
9.23333,4
9.24167,4
9.25000,4
9.25833,3
9.26667,3
9.27500,4
9.28333,4
9.29167,4
9.30000,5
9.30833,5
9.31667,5
9.32500,5
9.33333,6
9.34167,6
9.35000,6
9.35833,7
9.36667,7
9.37500,7
9.38333,7
9.39167,8
9.40000,8
9.40833,8
9.41667,9
9.42500,9
9.43333,9
9.44167,9
9.45000,9
9.45833,10
9.46667,10
9.47500,10
9.48333,10
9.49167,10
9.50000,10
9.50833,10
9.51667,11
9.52500,11
9.53333,11
9.54167,12
9.55000,12
9.55833,13
9.56667,13
9.57500,14
9.58333,13
9.59167,13
9.60000,13
9.60833,14
9.61667,14
9.62500,14
9.63333,14
9.64167,14
9.65000,14
9.65833,14
9.66667,14
9.67500,14
9.68333,14
9.69167,14
9.70000,14
9.70833,14
9.71667,14
9.72500,13
9.73333,13
9.74167,12
9.75000,12
9.75833,11
9.76667,11
9.77500,11
9.78333,11
9.79167,10
9.80000,9
9.80833,9
9.81667,8
9.82500,8
9.83333,8
9.84167,7
9.85000,7
9.85833,7
9.86667,7
9.87500,7
9.88333,7
9.89167,8
9.90000,8
9.90833,8
9.91667,8
9.92500,8
9.93333,8
9.94167,8
9.95000,7
9.95833,7
9.96667,8
9.97500,8
9.98333,8
9.99167,8
10.00000,9
10.00833,9
10.01667,10
10.02500,10
10.03333,10
10.04167,11
10.05000,11
10.05833,12
10.06667,13
10.07500,14
10.08333,15
10.09167,15
10.10000,16
10.10833,16
10.11667,16
10.12500,17
10.13333,17
10.14167,18
10.15000,18
10.15833,19
10.16667,20
10.17500,20
10.18333,21
10.19167,21
10.20000,21
10.20833,21
10.21667,21
10.22500,22
10.23333,23
10.24167,23
10.25000,24
10.25833,24
10.26667,24
10.27500,24
10.28333,24
10.29167,24
10.30000,24
10.30833,24
10.31667,23
10.32500,22
10.33333,22
10.34167,22
10.35000,21
10.35833,20
10.36667,20
10.37500,19
10.38333,18
10.39167,16
10.40000,15
10.40833,13
10.41667,10
10.42500,8
10.43333,5
10.44167,0
10.45000,-5
10.45833,-10
10.46667,-17
10.47500,-25
10.48333,-34
10.49167,-44
10.50000,-55
10.50833,-67
10.51667,-80
10.52500,-94
10.53333,-107
10.54167,-119
10.55000,-130
10.55833,-139
10.56667,-145
10.57500,-147
10.58333,-144
10.59167,-134
10.60000,-117
10.60833,-91
10.61667,-57
10.62500,-12
10.63333,42
10.64167,108
10.65000,184
10.65833,271
10.66667,369
10.67500,476
10.68333,592
10.69167,715
10.70000,844
10.70833,977
10.71667,1113
10.72500,1249
10.73333,1384
10.74167,1516
10.75000,1643
10.75833,1763
10.76667,1875
10.77500,1978
10.78333,2069
10.79167,2148
10.80000,2214
10.80833,2267
10.81667,2305
10.82500,2329
10.83333,2339
10.84167,2335
10.85000,2317
10.85833,2286
10.86667,2243
10.87500,2189
10.88333,2124
10.89167,2051
10.90000,1970
10.90833,1883
10.91667,1791
10.92500,1695
10.93333,1596
10.94167,1497
10.95000,1397
10.95833,1298
10.96667,1200
10.97500,1105
10.98333,1014
10.99167,926
11.00000,842
11.00833,763
11.01667,688
11.02500,619
11.03333,555
11.04167,496
11.05000,442
11.05833,393
11.06667,348
11.07500,308
11.08333,272
11.09167,240
11.10000,210
11.10833,184
11.11667,161
11.12500,141
11.13333,124
11.14167,109
11.15000,95
11.15833,84
11.16667,74
11.17500,65
11.18333,58
11.19167,52
11.20000,46
11.20833,42
11.21667,38
11.22500,35
11.23333,31
11.24167,29
11.25000,26
11.25833,25
11.26667,24
11.27500,23
11.28333,22
11.29167,21
11.30000,20
11.30833,19
11.31667,18
11.32500,17
11.33333,16
11.34167,15
11.35000,15
11.35833,14
11.36667,14
11.37500,13
11.38333,13
11.39167,12
11.40000,12
11.40833,11
11.41667,11
11.42500,11
11.43333,10
11.44167,10
11.45000,10
11.45833,10
11.46667,10
11.47500,9
11.48333,9
11.49167,9
11.50000,8
11.50833,8
11.51667,8
11.52500,7
11.53333,7
11.54167,7
11.55000,6
11.55833,6
11.56667,6
11.57500,6
11.58333,6
11.59167,6
11.60000,6
11.60833,7
11.61667,7
11.62500,7
11.63333,7
11.64167,7
11.65000,7
11.65833,7
11.66667,7
11.67500,7
11.68333,7
11.69167,7
11.70000,7
11.70833,7
11.71667,7
11.72500,8
11.73333,8
11.74167,8
11.75000,8
11.75833,8
11.76667,9
11.77500,9
11.78333,9
11.79167,10
11.80000,10
11.80833,10
11.81667,10
11.82500,10
11.83333,11
11.84167,12
11.85000,12
11.85833,12
11.86667,12
11.87500,12
11.88333,12
11.89167,12
11.90000,13
11.90833,13
11.91667,14
11.92500,14
11.93333,15
11.94167,15
11.95000,15
11.95833,16
11.96667,16
11.97500,17
11.98333,17
11.99167,18
12.00000,18
12.00833,19
12.01667,19
12.02500,20
12.03333,20
12.04167,20
12.05000,21
12.05833,20
12.06667,21
12.07500,21
12.08333,21
12.09167,21
12.10000,21
12.10833,21
12.11667,21
12.12500,21
12.13333,22
12.14167,22
12.15000,22
12.15833,23
12.16667,23
12.17500,24
12.18333,24
12.19167,25
12.20000,25
12.20833,26
12.21667,26
12.22500,26
12.23333,26
12.24167,27
12.25000,27
12.25833,27
12.26667,28
12.27500,28
12.28333,29
12.29167,29
12.30000,29
12.30833,30
12.31667,30
12.32500,31
12.33333,31
12.34167,32
12.35000,32
12.35833,32
12.36667,32
12.37500,33
12.38333,33
12.39167,34
12.40000,34
12.40833,34
12.41667,35
12.42500,35
12.43333,36
12.44167,37
12.45000,37
12.45833,37
12.46667,38
12.47500,38
12.48333,38
12.49167,39
12.50000,39
12.50833,40
12.51667,41
12.52500,42
12.53333,43
12.54167,45
12.55000,47
12.55833,49
12.56667,51
12.57500,54
12.58333,58
12.59167,62
12.60000,68
12.60833,75
12.61667,83
12.62500,92
12.63333,104
12.64167,119
12.65000,136
12.65833,155
12.66667,178
12.67500,205
12.68333,235
12.69167,270
12.70000,309
12.70833,353
12.71667,402
12.72500,456
12.73333,516
12.74167,581
12.75000,652
12.75833,730
12.76667,813
12.77500,903
12.78333,998
12.79167,1100
12.80000,1208
12.80833,1322
12.81667,1442
12.82500,1567
12.83333,1699
12.84167,1835
12.85000,1976
12.85833,2123
12.86667,2274
12.87500,2430
12.88333,2590
12.89167,2754
12.90000,2922
12.90833,3094
12.91667,3268
12.92500,3446
12.93333,3626
12.94167,3810
12.95000,3995
12.95833,4183
12.96667,4373
12.97500,4565
12.98333,4758
12.99167,4952
13.00000,5146
13.00833,5341
13.01667,5535
13.02500,5729
13.03333,5920
13.04167,6110
13.05000,6296
13.05833,6477
13.06667,6651
13.07500,6815
13.08333,6967
13.09167,7103
13.10000,7218
13.10833,7309
13.11667,7369
13.12500,7396
13.13333,7384
13.14167,7329
13.15000,7229
13.15833,7083
13.16667,6893
13.17500,6659
13.18333,6386
13.19167,6081
13.20000,5748
13.20833,5395
13.21667,5029
13.22500,4658
13.23333,4288
13.24167,3925
13.25000,3575
13.25833,3241
13.26667,2926
13.27500,2633
13.28333,2363
13.29167,2115
13.30000,1889
13.30833,1686
13.31667,1502
13.32500,1338
13.33333,1192
13.34167,1062
13.35000,947
13.35833,846
13.36667,756
13.37500,678
13.38333,608
13.39167,547
13.40000,494
13.40833,447
13.41667,406
13.42500,369
13.43333,338
13.44167,310
13.45000,284
13.45833,262
13.46667,243
13.47500,225
13.48333,210
13.49167,196
13.50000,183
13.50833,172
13.51667,162
13.52500,153
13.53333,145
13.54167,137
13.55000,131
13.55833,124
13.56667,118
13.57500,113
13.58333,108
13.59167,103
13.60000,99
13.60833,95
13.61667,92
13.62500,89
13.63333,86
13.64167,83
13.65000,81
13.65833,79
13.66667,76
13.67500,74
13.68333,72
13.69167,70
13.70000,68
13.70833,67
13.71667,65
13.72500,64
13.73333,63
13.74167,61
13.75000,60
13.75833,59
13.76667,59
13.77500,58
13.78333,57
13.79167,56
13.80000,55
13.80833,54
13.81667,54
13.82500,53
13.83333,52
13.84167,52
13.85000,51
13.85833,51
13.86667,50
13.87500,49
13.88333,48
13.89167,48
13.90000,48
13.90833,48
13.91667,47
13.92500,47
13.93333,47
13.94167,46
13.95000,45
13.95833,45
13.96667,45
13.97500,45
13.98333,45
13.99167,45
14.00000,45
14.00833,45
14.01667,45
14.02500,45
14.03333,45
14.04167,45
14.05000,46
14.05833,46
14.06667,45
14.07500,45
14.08333,45
14.09167,46
14.10000,46
14.10833,46
14.11667,46
14.12500,46
14.13333,47
14.14167,47
14.15000,47
14.15833,47
14.16667,47
14.17500,47
14.18333,47
14.19167,46
14.20000,46
14.20833,46
14.21667,46
14.22500,46
14.23333,46
14.24167,46
14.25000,46
14.25833,46
14.26667,46
14.27500,46
14.28333,46
14.29167,46
14.30000,46
14.30833,46
14.31667,45
14.32500,45
14.33333,45
14.34167,45
14.35000,45
14.35833,44
14.36667,44
14.37500,43
14.38333,43
14.39167,43
14.40000,43
14.40833,43
14.41667,43
14.42500,42
14.43333,42
14.44167,41
14.45000,40
14.45833,40
14.46667,39
14.47500,38
14.48333,37
14.49167,36
14.50000,35
14.50833,34
14.51667,33
14.52500,32
14.53333,31
14.54167,30
14.55000,29
14.55833,28
14.56667,27
14.57500,26
14.58333,25
14.59167,24
14.60000,23
14.60833,22
14.61667,22
14.62500,21
14.63333,20
14.64167,18
14.65000,17
14.65833,16
14.66667,15
14.67500,14
14.68333,12
14.69167,11
14.70000,10
14.70833,8
14.71667,7
14.72500,5
14.73333,4
14.74167,4
14.75000,3
14.75833,2
14.76667,1
14.77500,1
14.78333,0
14.79167,-0
14.80000,-1
14.80833,-1
14.81667,-1
14.82500,-1
14.83333,-1
14.84167,-1
14.85000,-1
14.85833,-2
14.86667,-2
14.87500,-2
14.88333,-2
14.89167,-2
14.90000,-2
14.90833,-2
14.91667,-2
14.92500,-1
14.93333,-1
14.94167,0
14.95000,1
14.95833,2
14.96667,3
14.97500,4
14.98333,4
14.99167,5
15.00000,6
15.00833,7
15.01667,7
15.02500,8
15.03333,8
15.04167,8
15.05000,8
15.05833,9
15.06667,9
15.07500,10
15.08333,11
15.09167,11
15.10000,12
15.10833,13
15.11667,13
15.12500,14
15.13333,14
15.14167,15
15.15000,15
15.15833,15
15.16667,16
15.17500,16
15.18333,17
15.19167,18
15.20000,19
15.20833,19
15.21667,20
15.22500,21
15.23333,22
15.24167,23
15.25000,23
15.25833,24
15.26667,26
15.27500,27
15.28333,28
15.29167,29
15.30000,30
15.30833,31
15.31667,32
15.32500,32
15.33333,33
15.34167,34
15.35000,35
15.35833,36
15.36667,37
15.37500,38
15.38333,39
15.39167,40
15.40000,41
15.40833,42
15.41667,43
15.42500,43
15.43333,44
15.44167,45
15.45000,45
15.45833,45
15.46667,46
15.47500,46
15.48333,46
15.49167,47
15.50000,47
15.50833,47
15.51667,46
15.52500,46
15.53333,46
15.54167,45
15.55000,45
15.55833,45
15.56667,44
15.57500,44
15.58333,43
15.59167,42
15.60000,41
15.60833,40
15.61667,39
15.62500,39
15.63333,38
15.64167,38
15.65000,37
15.65833,36
15.66667,35
15.67500,35
15.68333,34
15.69167,33
15.70000,32
15.70833,31
15.71667,30
15.72500,29
15.73333,29
15.74167,29
15.75000,28
15.75833,27
15.76667,26
15.77500,26
15.78333,25
15.79167,25
15.80000,24
15.80833,24
15.81667,24
15.82500,25
15.83333,25
15.84167,25
15.85000,25
15.85833,25
15.86667,26
15.87500,27
15.88333,27
15.89167,28
15.90000,29
15.90833,29
15.91667,30
15.92500,31
15.93333,31
15.94167,31
15.95000,32
15.95833,33
15.96667,35
15.97500,36
15.98333,37
15.99167,38
16.00000,39
16.00833,39
16.01667,40
16.02500,41
16.03333,42
16.04167,43
16.05000,44
16.05833,45
16.06667,45
16.07500,46
16.08333,47
16.09167,48
16.10000,48
16.10833,49
16.11667,49
16.12500,50
16.13333,51
16.14167,51
16.15000,52
16.15833,52
16.16667,52
16.17500,53
16.18333,53
16.19167,53
16.20000,53
16.20833,53
16.21667,53
16.22500,53
16.23333,52
16.24167,52
16.25000,51
16.25833,51
16.26667,50
16.27500,49
16.28333,48
16.29167,48
16.30000,47
16.30833,47
16.31667,46
16.32500,46
16.33333,45
16.34167,44
16.35000,43
16.35833,43
16.36667,41
16.37500,40
16.38333,39
16.39167,38
16.40000,37
16.40833,36
16.41667,35
16.42500,34
16.43333,33
16.44167,32
16.45000,31
16.45833,30
16.46667,28
16.47500,27
16.48333,26
16.49167,25
16.50000,24
16.50833,23
16.51667,23
16.52500,22
16.53333,21
16.54167,20
16.55000,19
16.55833,18
16.56667,18
16.57500,17
16.58333,16
16.59167,15
16.60000,15
16.60833,14
16.61667,13
16.62500,12
16.63333,12
16.64167,11
16.65000,10
16.65833,10
16.66667,9
16.67500,8
16.68333,8
16.69167,7
16.70000,6
16.70833,6
16.71667,5
16.72500,5
16.73333,4
16.74167,4
16.75000,4
16.75833,4
16.76667,4
16.77500,3
16.78333,3
16.79167,3
16.80000,3
16.80833,3
16.81667,3
16.82500,2
16.83333,2
16.84167,2
16.85000,1
16.85833,1
16.86667,1
16.87500,1
16.88333,1
16.89167,1
16.90000,0
16.90833,-0
16.91667,-0
16.92500,-1
16.93333,-1
16.94167,-1
16.95000,-1
16.95833,-2
16.96667,-2
16.97500,-1
16.98333,-1
16.99167,-1
17.00000,-1
17.00833,-1
17.01667,-1
17.02500,-1
17.03333,-1
17.04167,-2
17.05000,-1
17.05833,-1
17.06667,-1
17.07500,-1
17.08333,-1
17.09167,-1
17.10000,-1
17.10833,-1
17.11667,-0
17.12500,-0
17.13333,0
17.14167,0
17.15000,0
17.15833,1
17.16667,1
17.17500,2
17.18333,2
17.19167,3
17.20000,3
17.20833,3
17.21667,4
17.22500,4
17.23333,5
17.24167,5
17.25000,6
17.25833,6
17.26667,7
17.27500,7
17.28333,8
17.29167,8
17.30000,9
17.30833,10
17.31667,10
17.32500,11
17.33333,12
17.34167,12
17.35000,13
17.35833,14
17.36667,14
17.37500,15
17.38333,15
17.39167,16
17.40000,16
17.40833,17
17.41667,18
17.42500,19
17.43333,20
17.44167,21
17.45000,21
17.45833,22
17.46667,22
17.47500,23
17.48333,23
17.49167,24
17.50000,25
17.50833,25
17.51667,26
17.52500,26
17.53333,26
17.54167,26
17.55000,26
17.55833,27
17.56667,27
17.57500,27
17.58333,28
17.59167,28
17.60000,28
17.60833,29
17.61667,29
17.62500,29
17.63333,29
17.64167,29
17.65000,30
17.65833,30
17.66667,30
17.67500,30
17.68333,30
17.69167,30
17.70000,30
17.70833,30
17.71667,30
17.72500,30
17.73333,30
17.74167,31
17.75000,31
17.75833,31
17.76667,32
17.77500,32
17.78333,33
17.79167,33
17.80000,33
17.80833,34
17.81667,34
17.82500,35
17.83333,36
17.84167,36
17.85000,37
17.85833,37
17.86667,38
17.87500,39
17.88333,40
17.89167,40
17.90000,41
17.90833,42
17.91667,43
17.92500,44
17.93333,45
17.94167,45
17.95000,46
17.95833,46
17.96667,47
17.97500,48
17.98333,49
17.99167,49
18.00000,50
18.00833,51
18.01667,51
18.02500,52
18.03333,52
18.04167,53
18.05000,53
18.05833,54
18.06667,54
18.07500,55
18.08333,55
18.09167,55
18.10000,55
18.10833,55
18.11667,55
18.12500,55
18.13333,54
18.14167,54
18.15000,53
18.15833,53
18.16667,52
18.17500,51
18.18333,50
18.19167,49
18.20000,48
18.20833,48
18.21667,47
18.22500,46
18.23333,45
18.24167,44
18.25000,43
18.25833,42
18.26667,41
18.27500,39
18.28333,37
18.29167,36
18.30000,34
18.30833,33
18.31667,32
18.32500,30
18.33333,29
18.34167,28
18.35000,26
18.35833,25
18.36667,23
18.37500,22
18.38333,20
18.39167,19
18.40000,18
18.40833,17
18.41667,16
18.42500,14
18.43333,13
18.44167,12
18.45000,11
18.45833,10
18.46667,9
18.47500,8
18.48333,6
18.49167,6
18.50000,5
18.50833,4
18.51667,3
18.52500,2
18.53333,2
18.54167,1
18.55000,1
18.55833,1
18.56667,0
18.57500,0
18.58333,-0
18.59167,-1
18.60000,-1
18.60833,-1
18.61667,-1
18.62500,-1
18.63333,-1
18.64167,-1
18.65000,-0
18.65833,0
18.66667,1
18.67500,1
18.68333,1
18.69167,2
18.70000,2
18.70833,3
18.71667,3
18.72500,3
18.73333,3
18.74167,4
18.75000,4
18.75833,5
18.76667,5
18.77500,6
18.78333,7
18.79167,7
18.80000,8
18.80833,9
18.81667,9
18.82500,10
18.83333,10
18.84167,11
18.85000,12
18.85833,12
18.86667,13
18.87500,13
18.88333,14
18.89167,14
18.90000,15
18.90833,15
18.91667,16
18.92500,16
18.93333,17
18.94167,17
18.95000,17
18.95833,17
18.96667,18
18.97500,18
18.98333,19
18.99167,19
19.00000,20
19.00833,20
19.01667,20
19.02500,20
19.03333,21
19.04167,21
19.05000,21
19.05833,21
19.06667,21
19.07500,21
19.08333,22
19.09167,22
19.10000,22
19.10833,22
19.11667,22
19.12500,22
19.13333,22
19.14167,23
19.15000,23
19.15833,23
19.16667,23
19.17500,23
19.18333,24
19.19167,25
19.20000,26
19.20833,26
19.21667,26
19.22500,27
19.23333,27
19.24167,27
19.25000,28
19.25833,28
19.26667,29
19.27500,30
19.28333,30
19.29167,31
19.30000,32
19.30833,33
19.31667,33
19.32500,34
19.33333,34
19.34167,35
19.35000,35
19.35833,36
19.36667,37
19.37500,37
19.38333,38
19.39167,39
19.40000,40
19.40833,40
19.41667,41
19.42500,42
19.43333,42
19.44167,43
19.45000,43
19.45833,44
19.46667,44
19.47500,45
19.48333,45
19.49167,46
19.50000,46
19.50833,47
19.51667,48
19.52500,48
19.53333,49
19.54167,49
19.55000,49
19.55833,49
19.56667,49
19.57500,49
19.58333,50
19.59167,50
19.60000,50
19.60833,50
19.61667,50
19.62500,50
19.63333,50
19.64167,50
19.65000,50
19.65833,50
19.66667,50
19.67500,50
19.68333,50
19.69167,50
19.70000,50
19.70833,50
19.71667,50
19.72500,50
19.73333,50
19.74167,49
19.75000,49
19.75833,48
19.76667,48
19.77500,47
19.78333,47
19.79167,47
19.80000,46
19.80833,46
19.81667,46
19.82500,46
19.83333,45
19.84167,45
19.85000,45
19.85833,45
19.86667,45
19.87500,45
19.88333,44
19.89167,44
19.90000,43
19.90833,41
19.91667,41
19.92500,40
19.93333,39
19.94167,38
19.95000,37
19.95833,36
19.96667,35
19.97500,35
19.98333,34
19.99167,33
20.00000,32
20.00833,31
20.01667,30
20.02500,29
20.03333,28
20.04167,27
20.05000,26
20.05833,25
20.06667,24
20.07500,23
20.08333,22
20.09167,22
20.10000,21
20.10833,20
20.11667,19
20.12500,18
20.13333,17
20.14167,17
20.15000,16
20.15833,16
20.16667,15
20.17500,15
20.18333,14
20.19167,14
20.20000,13
20.20833,13
20.21667,13
20.22500,13
20.23333,12
20.24167,12
20.25000,12
20.25833,12
20.26667,12
20.27500,12
20.28333,13
20.29167,13
20.30000,13
20.30833,13
20.31667,14
20.32500,14
20.33333,14
20.34167,15
20.35000,15
20.35833,16
20.36667,16
20.37500,17
20.38333,17
20.39167,18
20.40000,18
20.40833,19
20.41667,20
20.42500,21
20.43333,22
20.44167,23
20.45000,23
20.45833,24
20.46667,24
20.47500,25
20.48333,25
20.49167,26
20.50000,26
20.50833,26
20.51667,27
20.52500,27
20.53333,27
20.54167,28
20.55000,29
20.55833,29
20.56667,29
20.57500,30
20.58333,30
20.59167,30
20.60000,30
20.60833,30
20.61667,30
20.62500,30
20.63333,30
20.64167,30
20.65000,30
20.65833,30
20.66667,30
20.67500,31
20.68333,30
20.69167,30
20.70000,30
20.70833,30
20.71667,30
20.72500,30
20.73333,30
20.74167,31
20.75000,30
20.75833,30
20.76667,29
20.77500,29
20.78333,28
20.79167,28
20.80000,27
20.80833,27
20.81667,27
20.82500,26
20.83333,26
20.84167,25
20.85000,25
20.85833,24
20.86667,24
20.87500,24
20.88333,24
20.89167,23
20.90000,23
20.90833,22
20.91667,21
20.92500,21
20.93333,20
20.94167,19
20.95000,18
20.95833,17
20.96667,17
20.97500,17
20.98333,16
20.99167,16
21.00000,15
21.00833,14
21.01667,13
21.02500,12
21.03333,12
21.04167,11
21.05000,10
21.05833,9
21.06667,9
21.07500,9
21.08333,8
21.09167,8
21.10000,7
21.10833,7
21.11667,6
21.12500,6
21.13333,6
21.14167,6
21.15000,6
21.15833,5
21.16667,5
21.17500,4
21.18333,3
21.19167,3
21.20000,3
21.20833,3
21.21667,3
21.22500,3
21.23333,3
21.24167,3
21.25000,3
21.25833,3
21.26667,2
21.27500,2
21.28333,2
21.29167,2
21.30000,2
21.30833,2
21.31667,2
21.32500,1
21.33333,1
21.34167,1
21.35000,2
21.35833,1
21.36667,1
21.37500,1
21.38333,1
21.39167,1
21.40000,1
21.40833,1
21.41667,1
21.42500,1
21.43333,1
21.44167,1
21.45000,2
21.45833,2
21.46667,3
21.47500,3
21.48333,3
21.49167,4
21.50000,4
21.50833,4
21.51667,4
21.52500,5
21.53333,5
21.54167,6
21.55000,6
21.55833,6
21.56667,6
21.57500,6
21.58333,7
21.59167,7
21.60000,7
21.60833,8
21.61667,8
21.62500,9
21.63333,9
21.64167,10
21.65000,11
21.65833,12
21.66667,12
21.67500,12
21.68333,12
21.69167,13
21.70000,13
21.70833,14
21.71667,14
21.72500,15
21.73333,15
21.74167,15
21.75000,15
21.75833,16
21.76667,17
21.77500,18
21.78333,18
21.79167,18
21.80000,18
21.80833,18
21.81667,18
21.82500,19
21.83333,19
21.84167,19
21.85000,19
21.85833,20
21.86667,20
21.87500,20
21.88333,20
21.89167,20
21.90000,20
21.90833,20
21.91667,20
21.92500,20
21.93333,20
21.94167,19
21.95000,19
21.95833,19
21.96667,19
21.97500,19
21.98333,19
21.99167,19
22.00000,19
22.00833,19
22.01667,19
22.02500,19
22.03333,19
22.04167,18
22.05000,18
22.05833,18
22.06667,17
22.07500,17
22.08333,17
22.09167,17
22.10000,17
22.10833,17
22.11667,17
22.12500,17
22.13333,17
22.14167,17
22.15000,17
22.15833,17
22.16667,17
22.17500,17
22.18333,17
22.19167,17
22.20000,17
22.20833,17
22.21667,17
22.22500,17
22.23333,17
22.24167,17
22.25000,16
22.25833,16
22.26667,16
22.27500,16
22.28333,16
22.29167,16
22.30000,16
22.30833,16
22.31667,16
22.32500,16
22.33333,16
22.34167,16
22.35000,16
22.35833,16
22.36667,16
22.37500,16
22.38333,16
22.39167,15
22.40000,15
22.40833,15
22.41667,15
22.42500,15
22.43333,15
22.44167,14
22.45000,14
22.45833,14
22.46667,14
22.47500,14
22.48333,14
22.49167,14
22.50000,13
22.50833,13
22.51667,13
22.52500,13
22.53333,12
22.54167,12
22.55000,12
22.55833,12
22.56667,12
22.57500,12
22.58333,11
22.59167,11
22.60000,11
22.60833,11
22.61667,11
22.62500,11
22.63333,11
22.64167,10
22.65000,10
22.65833,10
22.66667,11
22.67500,11
22.68333,11
22.69167,11
22.70000,11
22.70833,11
22.71667,11
22.72500,11
22.73333,11
22.74167,11
22.75000,12
22.75833,12
22.76667,12
22.77500,13
22.78333,13
22.79167,14
22.80000,15
22.80833,16
22.81667,16
22.82500,17
22.83333,18
22.84167,18
22.85000,19
22.85833,20
22.86667,20
22.87500,21
22.88333,21
22.89167,22
22.90000,23
22.90833,23
22.91667,24
22.92500,25
22.93333,25
22.94167,26
22.95000,26
22.95833,27
22.96667,28
22.97500,28
22.98333,28
22.99167,29
23.00000,29
23.00833,30
23.01667,30
23.02500,31
23.03333,32
23.04167,32
23.05000,33
23.05833,33
23.06667,33
23.07500,32
23.08333,32
23.09167,32
23.10000,32
23.10833,32
23.11667,32
23.12500,31
23.13333,31
23.14167,31
23.15000,31
23.15833,30
23.16667,30
23.17500,30
23.18333,30
23.19167,29
23.20000,29
23.20833,29
23.21667,29
23.22500,29
23.23333,28
23.24167,28
23.25000,27
23.25833,27
23.26667,26
23.27500,26
23.28333,26
23.29167,25
23.30000,24
23.30833,24
23.31667,23
23.32500,23
23.33333,23
23.34167,23
23.35000,23
23.35833,22
23.36667,22
23.37500,22
23.38333,22
23.39167,22
23.40000,21
23.40833,21
23.41667,21
23.42500,21
23.43333,21
23.44167,20
23.45000,20
23.45833,20
23.46667,20
23.47500,20
23.48333,20
23.49167,20
23.50000,20
23.50833,20
23.51667,20
23.52500,20
23.53333,20
23.54167,20
23.55000,20
23.55833,20
23.56667,20
23.57500,20
23.58333,20
23.59167,21
23.60000,21
23.60833,21
23.61667,21
23.62500,22
23.63333,22
23.64167,22
23.65000,22
23.65833,22
23.66667,22
23.67500,23
23.68333,23
23.69167,23
23.70000,24
23.70833,24
23.71667,24
23.72500,25
23.73333,25
23.74167,26
23.75000,26
23.75833,27
23.76667,27
23.77500,27
23.78333,27
23.79167,27
23.80000,28
23.80833,28
23.81667,28
23.82500,29
23.83333,29
23.84167,29
23.85000,30
23.85833,30
23.86667,31
23.87500,31
23.88333,32
23.89167,32
23.90000,33
23.90833,33
23.91667,33
23.92500,34
23.93333,35
23.94167,35
23.95000,35
23.95833,36
23.96667,36
23.97500,37
23.98333,37
23.99167,37
24.00000,37
24.00833,37
24.01667,38
24.02500,38
24.03333,39
24.04167,39
24.05000,40
24.05833,40
24.06667,40
24.07500,40
24.08333,41
24.09167,41
24.10000,42
24.10833,42
24.11667,42
24.12500,42
24.13333,42
24.14167,42
24.15000,42
24.15833,42
24.16667,43
24.17500,43
24.18333,43
24.19167,43
24.20000,43
24.20833,43
24.21667,43
24.22500,43
24.23333,43
24.24167,42
24.25000,42
24.25833,43
24.26667,43
24.27500,43
24.28333,43
24.29167,43
24.30000,43
24.30833,43
24.31667,43
24.32500,43
24.33333,43
24.34167,43
24.35000,43
24.35833,43
24.36667,44
24.37500,44
24.38333,46
24.39167,47
24.40000,48
24.40833,50
24.41667,51
24.42500,53
24.43333,56
24.44167,59
24.45000,62
24.45833,65
24.46667,68
24.47500,72
24.48333,76
24.49167,81
24.50000,86
24.50833,92
24.51667,98
24.52500,104
24.53333,111
24.54167,118
24.55000,127
24.55833,135
24.56667,144
24.57500,154
24.58333,164
24.59167,174
24.60000,185
24.60833,197
24.61667,209
24.62500,221
24.63333,234
24.64167,247
24.65000,261
24.65833,274
24.66667,289
24.67500,303
24.68333,318
24.69167,332
24.70000,347
24.70833,361
24.71667,375
24.72500,389
24.73333,403
24.74167,416
24.75000,429
24.75833,442
24.76667,453
24.77500,465
24.78333,476
24.79167,486
24.80000,495
24.80833,503
24.81667,510
24.82500,516
24.83333,522
24.84167,526
24.85000,530
24.85833,532
24.86667,533
24.87500,534
24.88333,533
24.89167,531
24.90000,528
24.90833,524
24.91667,519
24.92500,514
24.93333,507
24.94167,500
24.95000,491
24.95833,482
24.96667,472
24.97500,462
24.98333,451
24.99167,440
25.00000,428
25.00833,415
25.01667,403
25.02500,390
25.03333,377
25.04167,363
25.05000,350
25.05833,336
25.06667,323
25.07500,310
25.08333,297
25.09167,285
25.10000,272
25.10833,260
25.11667,248
25.12500,236
25.13333,224
25.14167,213
25.15000,202
25.15833,192
25.16667,182
25.17500,172
25.18333,163
25.19167,154
25.20000,146
25.20833,138
25.21667,130
25.22500,123
25.23333,116
25.24167,109
25.25000,103
25.25833,97
25.26667,92
25.27500,86
25.28333,82
25.29167,77
25.30000,72
25.30833,68
25.31667,65
25.32500,61
25.33333,58
25.34167,55
25.35000,53
25.35833,50
25.36667,48
25.37500,46
25.38333,44
25.39167,42
25.40000,40
25.40833,39
25.41667,38
25.42500,37
25.43333,36
25.44167,35
25.45000,35
25.45833,34
25.46667,34
25.47500,33
25.48333,33
25.49167,33
25.50000,32
25.50833,32
25.51667,32
25.52500,31
25.53333,31
25.54167,31
25.55000,30
25.55833,30
25.56667,30
25.57500,30
25.58333,30
25.59167,30
25.60000,30
25.60833,31
25.61667,31
25.62500,31
25.63333,31
25.64167,31
25.65000,31
25.65833,31
25.66667,31
25.67500,31
25.68333,32
25.69167,32
25.70000,32
25.70833,32
25.71667,32
25.72500,32
25.73333,33
25.74167,33
25.75000,33
25.75833,33
25.76667,33
25.77500,33
25.78333,33
25.79167,33
25.80000,33
25.80833,33
25.81667,33
25.82500,33
25.83333,32
25.84167,32
25.85000,32
25.85833,32
25.86667,31
25.87500,31
25.88333,32
25.89167,32
25.90000,32
25.90833,32
25.91667,32
25.92500,32
25.93333,31
25.94167,31
25.95000,31
25.95833,31
25.96667,31
25.97500,30
25.98333,30
25.99167,30
26.00000,30
26.00833,29
26.01667,29
26.02500,29
26.03333,29
26.04167,29
26.05000,29
26.05833,29
26.06667,29
26.07500,30
26.08333,30
26.09167,30
26.10000,30
26.10833,30
26.11667,30
26.12500,30
26.13333,30
26.14167,30
26.15000,30
26.15833,30
26.16667,30
26.17500,30
26.18333,30
26.19167,31
26.20000,31
26.20833,31
26.21667,31
26.22500,32
26.23333,32
26.24167,32
26.25000,32
26.25833,32
26.26667,32
26.27500,32
26.28333,32
26.29167,32
26.30000,32
26.30833,33
26.31667,33
26.32500,33
26.33333,33
26.34167,34
26.35000,34
26.35833,34
26.36667,34
26.37500,34
26.38333,34
26.39167,34
26.40000,34
26.40833,34
26.41667,33
26.42500,33
26.43333,33
26.44167,33
26.45000,32
26.45833,32
26.46667,32
26.47500,31
26.48333,31
26.49167,30
26.50000,30
26.50833,30
26.51667,29
26.52500,29
26.53333,29
26.54167,29
26.55000,29
26.55833,29
26.56667,29
26.57500,29
26.58333,29
26.59167,29
26.60000,29
26.60833,28
26.61667,28
26.62500,28
26.63333,28
26.64167,27
26.65000,28
26.65833,28
26.66667,28
26.67500,28
26.68333,28
26.69167,28
26.70000,29
26.70833,29
26.71667,29
26.72500,29
26.73333,30
26.74167,30
26.75000,30
26.75833,30
26.76667,30
26.77500,30
26.78333,30
26.79167,30
26.80000,30
26.80833,30
26.81667,31
26.82500,31
26.83333,32
26.84167,32
26.85000,33
26.85833,33
26.86667,33
26.87500,34
26.88333,34
26.89167,34
26.90000,34
26.90833,34
26.91667,34
26.92500,34
26.93333,35
26.94167,35
26.95000,35
26.95833,35
26.96667,36
26.97500,36
26.98333,35
26.99167,35
27.00000,35
27.00833,35
27.01667,35
27.02500,35
27.03333,35
27.04167,35
27.05000,35
27.05833,35
27.06667,35
27.07500,35
27.08333,35
27.09167,35
27.10000,35
27.10833,35
27.11667,34
27.12500,34
27.13333,34
27.14167,34
27.15000,34
27.15833,34
27.16667,33
27.17500,33
27.18333,33
27.19167,32
27.20000,32
27.20833,31
27.21667,31
27.22500,30
27.23333,30
27.24167,29
27.25000,29
27.25833,29
27.26667,28
27.27500,28
27.28333,28
27.29167,28
27.30000,28
27.30833,27
27.31667,27
27.32500,27
27.33333,27
27.34167,27
27.35000,27
27.35833,26
27.36667,26
27.37500,26
27.38333,26
27.39167,25
27.40000,25
27.40833,25
27.41667,25
27.42500,25
27.43333,24
27.44167,24
27.45000,24
27.45833,24
27.46667,23
27.47500,23
27.48333,22
27.49167,22
27.50000,22
27.50833,21
27.51667,21
27.52500,22
27.53333,22
27.54167,22
27.55000,22
27.55833,22
27.56667,22
27.57500,22
27.58333,21
27.59167,21
27.60000,21
27.60833,21
27.61667,21
27.62500,21
27.63333,21
27.64167,21
27.65000,21
27.65833,20
27.66667,20
27.67500,20
27.68333,20
27.69167,19
27.70000,19
27.70833,19
27.71667,19
27.72500,19
27.73333,19
27.74167,19
27.75000,19
27.75833,18
27.76667,18
27.77500,18
27.78333,18
27.79167,18
27.80000,18
27.80833,17
27.81667,17
27.82500,18
27.83333,18
27.84167,18
27.85000,18
27.85833,18
27.86667,18
27.87500,18
27.88333,18
27.89167,18
27.90000,18
27.90833,18
27.91667,18
27.92500,18
27.93333,18
27.94167,18
27.95000,19
27.95833,19
27.96667,19
27.97500,19
27.98333,19
27.99167,19
28.00000,19
28.00833,19
28.01667,19
28.02500,19
28.03333,19
28.04167,19
28.05000,19
28.05833,19
28.06667,18
28.07500,18
28.08333,17
28.09167,17
28.10000,16
28.10833,16
28.11667,16
28.12500,16
28.13333,16
28.14167,15
28.15000,15
28.15833,15
28.16667,15
28.17500,14
28.18333,14
28.19167,13
28.20000,13
28.20833,12
28.21667,11
28.22500,11
28.23333,10
28.24167,9
28.25000,8
28.25833,7
28.26667,6
28.27500,5
28.28333,4
28.29167,3
28.30000,2
28.30833,2
28.31667,1
28.32500,0
28.33333,-1
28.34167,-2
28.35000,-3
28.35833,-4
28.36667,-5
28.37500,-6
28.38333,-7
28.39167,-9
28.40000,-10
28.40833,-11
28.41667,-13
28.42500,-14
28.43333,-15
28.44167,-16
28.45000,-17
28.45833,-19
28.46667,-20
28.47500,-21
28.48333,-22
28.49167,-23
28.50000,-24
28.50833,-25
28.51667,-26
28.52500,-27
28.53333,-28
28.54167,-29
28.55000,-29
28.55833,-30
28.56667,-31
28.57500,-31
28.58333,-31
28.59167,-31
28.60000,-31
28.60833,-31
28.61667,-31
28.62500,-31
28.63333,-31
28.64167,-31
28.65000,-30
28.65833,-30
28.66667,-30
28.67500,-29
28.68333,-28
28.69167,-27
28.70000,-27
28.70833,-26
28.71667,-25
28.72500,-24
28.73333,-23
28.74167,-22
28.75000,-21
28.75833,-20
28.76667,-18
28.77500,-17
28.78333,-16
28.79167,-14
28.80000,-13
28.80833,-11
28.81667,-9
28.82500,-7
28.83333,-6
28.84167,-4
28.85000,-2
28.85833,-1
28.86667,1
28.87500,2
28.88333,4
28.89167,6
28.90000,7
28.90833,9
28.91667,11
28.92500,12
28.93333,14
28.94167,15
28.95000,16
28.95833,18
28.96667,19
28.97500,20
28.98333,21
28.99167,23
29.00000,24
29.00833,25
29.01667,26
29.02500,27
29.03333,28
29.04167,29
29.05000,30
29.05833,31
29.06667,32
29.07500,33
29.08333,33
29.09167,34
29.10000,35
29.10833,35
29.11667,35
29.12500,36
29.13333,36
29.14167,36
29.15000,36
29.15833,36
29.16667,36
29.17500,36
29.18333,36
29.19167,35
29.20000,35
29.20833,35
29.21667,34
29.22500,33
29.23333,33
29.24167,33
29.25000,33
29.25833,33
29.26667,32
29.27500,32
29.28333,31
29.29167,31
29.30000,30
29.30833,30
29.31667,29
29.32500,29
29.33333,28
29.34167,27
29.35000,26
29.35833,26
29.36667,25
29.37500,25
29.38333,25
29.39167,24
29.40000,24
29.40833,23
29.41667,22
29.42500,22
29.43333,21
29.44167,20
29.45000,19
29.45833,19
29.46667,18
29.47500,17
29.48333,16
29.49167,15
29.50000,14
29.50833,14
29.51667,13
29.52500,13
29.53333,12
29.54167,12
29.55000,11
29.55833,11
29.56667,11
29.57500,10
29.58333,11
29.59167,11
29.60000,11
29.60833,11
29.61667,11
29.62500,11
29.63333,11
29.64167,10
29.65000,10
29.65833,10
29.66667,10
29.67500,10
29.68333,10
29.69167,11
29.70000,11
29.70833,11
29.71667,11
29.72500,11
29.73333,12
29.74167,12
29.75000,12
29.75833,12
29.76667,12
29.77500,12
29.78333,13
29.79167,13
29.80000,14
29.80833,15
29.81667,15
29.82500,15
29.83333,15
29.84167,16
29.85000,17
29.85833,17
29.86667,18
29.87500,18
29.88333,19
29.89167,19
29.90000,20
29.90833,21
29.91667,21
29.92500,22
29.93333,22
29.94167,23
29.95000,23
29.95833,24
29.96667,24
29.97500,25
29.98333,26
29.99167,27
30.00000,27

