[Header]
Application Name,LabSolutions
Version,5.97 SP1
Data File Name,C:\Users\cremerlab\Desktop\griffin\2021-02-15_NCM_diauxie_turnover\2021-02-15_NCM_acetate_glucose_diauxie_turnover_2152021_005.lcd
Output Date,2/16/2021
Output Time,8:53:31 AM

[File Information]
Type,Data File
Generated,2/15/2021 10:26:40 PM
Generated by,System Administrator
Modified,2/15/2021 10:56:59 PM
Modified by,System Administrator

[Sample Information]
Operator Name,System Administrator
Acquired,2/15/2021 10:26:58 PM
Sample Type,0:Unknown
Level,0
Sample Name,NCM diauxic shift timepoint 5
Sample ID,005
ISTD Amount1,1
ISTD Amount2,1
ISTD Amount3,1
ISTD Amount4,1
ISTD Amount5,1
ISTD Amount6,1
ISTD Amount7,1
ISTD Amount8,1
ISTD Amount9,1
ISTD Amount10,1
ISTD Amount11,1
ISTD Amount12,1
ISTD Amount13,1
ISTD Amount14,1
ISTD Amount15,1
ISTD Amount16,1
ISTD Amount17,1
ISTD Amount18,1
ISTD Amount19,1
ISTD Amount20,1
ISTD Amount21,1
ISTD Amount22,1
ISTD Amount23,1
ISTD Amount24,1
ISTD Amount25,1
ISTD Amount26,1
ISTD Amount27,1
ISTD Amount28,1
ISTD Amount29,1
ISTD Amount30,1
ISTD Amount31,1
ISTD Amount32,1
Sample Amount,1
Dilution Factor,1
Vial#,5
Injection Volume,20

[Original Files]
Data File,C:\Users\cremerlab\Desktop\griffin\2021-02-15_NCM_diauxie_turnover\2021-02-15_NCM_acetate_glucose_diauxie_turnover_2152021_005.lcd
Method File,C:\LabSolutions\Data\Project1\organicacidsetc.lcm
Batch File,C:\Users\cremerlab\Desktop\griffin\2021-02-15_NCM_diauxie_turnover\2021-02-15_NCM_acetate_glucose_diauxie_turnover.lcb
Report Format File,c:\LabSolutions\System\DEFAULT.lsr

[File Description]


[Configuration]
Instrument Name,HPLC-PC-Instrument1
Instrument #,1
Line #,1
# of Detectors,2
Detector ID,Detector A,Detector B
Detector Name,Detector A,Detector B
# of Channels,1,1

[Peak Table(Detector A)]
# of Peaks,0

[Peak Table(Detector B)]
# of Peaks,4
Peak#,R.Time,I.Time,F.Time,Area,Height,A/H,Conc.,Mark,ID#,Name,k',Plate #,Plate Ht.,Tailing,Resolution,Sep.Factor,Area Ratio,Height Ratio,Conc. %,Norm Conc.
1,6.227,5.367,6.858,15724,427,36.820,0.000,   ,,,0.000,658,228.091,0.880,0.000,0.000,0,0,0.000,0.000
2,10.868,10.617,11.800,140594,8663,16.229,0.000,   ,,,0.745,11070,13.551,1.366,6.705,0.000,0,0,0.000,0.000
3,13.417,12.542,14.308,476349,18643,25.551,0.000,   ,,,1.155,5692,26.352,0.722,4.532,1.549,0,0,0.000,0.000
4,24.900,24.267,25.625,40617,1456,27.887,0.000,   ,,,2.999,18019,8.324,1.022,15.803,2.597,0,0,0.000,0.000

[Compound Results(Detector A)]
# of IDs,0

[Compound Results(Detector B)]
# of IDs,0

[LC Chromatogram(Detector B-Ch1)]
Interval(msec),500
# of Points,3601
Start Time(min),0.000
End Time(min),30.000
Intensity Units,mV
Intensity Multiplier,0.001
R.Time (min),Intensity
0.00000,-18
0.00833,-18
0.01667,-1
0.02500,-1
0.03333,-1
0.04167,-2
0.05000,-3
0.05833,-5
0.06667,-6
0.07500,-6
0.08333,-5
0.09167,-4
0.10000,-1
0.10833,1
0.11667,3
0.12500,6
0.13333,9
0.14167,12
0.15000,15
0.15833,18
0.16667,21
0.17500,24
0.18333,27
0.19167,29
0.20000,32
0.20833,35
0.21667,37
0.22500,40
0.23333,43
0.24167,46
0.25000,48
0.25833,51
0.26667,54
0.27500,57
0.28333,60
0.29167,63
0.30000,66
0.30833,68
0.31667,71
0.32500,74
0.33333,77
0.34167,80
0.35000,82
0.35833,85
0.36667,87
0.37500,89
0.38333,91
0.39167,93
0.40000,96
0.40833,98
0.41667,100
0.42500,102
0.43333,104
0.44167,106
0.45000,108
0.45833,111
0.46667,113
0.47500,116
0.48333,118
0.49167,119
0.50000,121
0.50833,122
0.51667,124
0.52500,126
0.53333,127
0.54167,129
0.55000,131
0.55833,133
0.56667,135
0.57500,137
0.58333,140
0.59167,142
0.60000,144
0.60833,145
0.61667,146
0.62500,148
0.63333,149
0.64167,150
0.65000,151
0.65833,151
0.66667,152
0.67500,153
0.68333,154
0.69167,155
0.70000,157
0.70833,158
0.71667,160
0.72500,162
0.73333,164
0.74167,165
0.75000,167
0.75833,169
0.76667,171
0.77500,174
0.78333,176
0.79167,178
0.80000,180
0.80833,182
0.81667,184
0.82500,186
0.83333,188
0.84167,191
0.85000,193
0.85833,195
0.86667,196
0.87500,198
0.88333,200
0.89167,202
0.90000,204
0.90833,206
0.91667,207
0.92500,209
0.93333,210
0.94167,211
0.95000,213
0.95833,214
0.96667,215
0.97500,216
0.98333,217
0.99167,218
1.00000,220
1.00833,221
1.01667,222
1.02500,224
1.03333,225
1.04167,225
1.05000,227
1.05833,228
1.06667,228
1.07500,229
1.08333,230
1.09167,231
1.10000,232
1.10833,233
1.11667,234
1.12500,235
1.13333,236
1.14167,237
1.15000,238
1.15833,239
1.16667,240
1.17500,241
1.18333,242
1.19167,243
1.20000,244
1.20833,245
1.21667,246
1.22500,247
1.23333,247
1.24167,248
1.25000,249
1.25833,251
1.26667,252
1.27500,253
1.28333,255
1.29167,256
1.30000,257
1.30833,258
1.31667,259
1.32500,261
1.33333,262
1.34167,263
1.35000,264
1.35833,265
1.36667,267
1.37500,268
1.38333,269
1.39167,270
1.40000,272
1.40833,273
1.41667,274
1.42500,276
1.43333,277
1.44167,278
1.45000,279
1.45833,280
1.46667,281
1.47500,282
1.48333,284
1.49167,285
1.50000,286
1.50833,287
1.51667,288
1.52500,289
1.53333,290
1.54167,291
1.55000,292
1.55833,293
1.56667,294
1.57500,295
1.58333,296
1.59167,297
1.60000,298
1.60833,299
1.61667,300
1.62500,300
1.63333,301
1.64167,302
1.65000,303
1.65833,304
1.66667,306
1.67500,307
1.68333,308
1.69167,309
1.70000,310
1.70833,311
1.71667,312
1.72500,312
1.73333,313
1.74167,314
1.75000,315
1.75833,316
1.76667,317
1.77500,317
1.78333,318
1.79167,319
1.80000,320
1.80833,321
1.81667,322
1.82500,322
1.83333,323
1.84167,323
1.85000,324
1.85833,325
1.86667,325
1.87500,326
1.88333,327
1.89167,327
1.90000,328
1.90833,329
1.91667,329
1.92500,330
1.93333,331
1.94167,331
1.95000,332
1.95833,332
1.96667,333
1.97500,333
1.98333,334
1.99167,334
2.00000,335
2.00833,335
2.01667,336
2.02500,336
2.03333,337
2.04167,337
2.05000,338
2.05833,338
2.06667,338
2.07500,338
2.08333,339
2.09167,339
2.10000,340
2.10833,340
2.11667,340
2.12500,341
2.13333,341
2.14167,342
2.15000,343
2.15833,344
2.16667,345
2.17500,345
2.18333,346
2.19167,347
2.20000,348
2.20833,348
2.21667,349
2.22500,350
2.23333,350
2.24167,351
2.25000,352
2.25833,352
2.26667,353
2.27500,354
2.28333,355
2.29167,356
2.30000,356
2.30833,357
2.31667,358
2.32500,358
2.33333,359
2.34167,360
2.35000,361
2.35833,362
2.36667,363
2.37500,364
2.38333,365
2.39167,365
2.40000,366
2.40833,367
2.41667,368
2.42500,368
2.43333,369
2.44167,370
2.45000,371
2.45833,371
2.46667,372
2.47500,373
2.48333,374
2.49167,375
2.50000,376
2.50833,377
2.51667,378
2.52500,378
2.53333,378
2.54167,379
2.55000,380
2.55833,381
2.56667,382
2.57500,383
2.58333,384
2.59167,385
2.60000,386
2.60833,386
2.61667,387
2.62500,388
2.63333,388
2.64167,389
2.65000,389
2.65833,390
2.66667,390
2.67500,391
2.68333,393
2.69167,394
2.70000,395
2.70833,397
2.71667,398
2.72500,399
2.73333,401
2.74167,402
2.75000,404
2.75833,405
2.76667,406
2.77500,408
2.78333,409
2.79167,410
2.80000,412
2.80833,414
2.81667,416
2.82500,418
2.83333,420
2.84167,422
2.85000,423
2.85833,425
2.86667,426
2.87500,428
2.88333,429
2.89167,431
2.90000,432
2.90833,434
2.91667,435
2.92500,436
2.93333,437
2.94167,438
2.95000,440
2.95833,441
2.96667,442
2.97500,443
2.98333,444
2.99167,445
3.00000,446
3.00833,447
3.01667,448
3.02500,449
3.03333,450
3.04167,451
3.05000,452
3.05833,453
3.06667,454
3.07500,455
3.08333,455
3.09167,456
3.10000,456
3.10833,457
3.11667,458
3.12500,458
3.13333,458
3.14167,458
3.15000,458
3.15833,459
3.16667,459
3.17500,460
3.18333,460
3.19167,461
3.20000,461
3.20833,461
3.21667,462
3.22500,462
3.23333,463
3.24167,463
3.25000,463
3.25833,463
3.26667,464
3.27500,464
3.28333,465
3.29167,465
3.30000,466
3.30833,466
3.31667,466
3.32500,466
3.33333,465
3.34167,465
3.35000,465
3.35833,465
3.36667,465
3.37500,465
3.38333,466
3.39167,467
3.40000,467
3.40833,467
3.41667,468
3.42500,468
3.43333,468
3.44167,469
3.45000,469
3.45833,469
3.46667,470
3.47500,470
3.48333,471
3.49167,472
3.50000,473
3.50833,474
3.51667,475
3.52500,476
3.53333,477
3.54167,478
3.55000,479
3.55833,480
3.56667,481
3.57500,482
3.58333,483
3.59167,484
3.60000,485
3.60833,486
3.61667,487
3.62500,488
3.63333,489
3.64167,490
3.65000,491
3.65833,492
3.66667,493
3.67500,494
3.68333,495
3.69167,497
3.70000,498
3.70833,500
3.71667,501
3.72500,503
3.73333,504
3.74167,505
3.75000,506
3.75833,507
3.76667,508
3.77500,508
3.78333,509
3.79167,510
3.80000,511
3.80833,512
3.81667,513
3.82500,514
3.83333,514
3.84167,515
3.85000,515
3.85833,516
3.86667,517
3.87500,518
3.88333,518
3.89167,519
3.90000,519
3.90833,520
3.91667,520
3.92500,521
3.93333,522
3.94167,523
3.95000,523
3.95833,524
3.96667,524
3.97500,524
3.98333,524
3.99167,524
4.00000,524
4.00833,525
4.01667,525
4.02500,525
4.03333,526
4.04167,526
4.05000,526
4.05833,527
4.06667,528
4.07500,528
4.08333,528
4.09167,529
4.10000,529
4.10833,529
4.11667,530
4.12500,530
4.13333,531
4.14167,532
4.15000,532
4.15833,533
4.16667,533
4.17500,534
4.18333,534
4.19167,535
4.20000,536
4.20833,537
4.21667,538
4.22500,538
4.23333,539
4.24167,540
4.25000,540
4.25833,541
4.26667,541
4.27500,542
4.28333,542
4.29167,543
4.30000,543
4.30833,544
4.31667,544
4.32500,545
4.33333,545
4.34167,545
4.35000,546
4.35833,546
4.36667,546
4.37500,547
4.38333,548
4.39167,549
4.40000,550
4.40833,550
4.41667,551
4.42500,552
4.43333,553
4.44167,554
4.45000,554
4.45833,555
4.46667,556
4.47500,556
4.48333,557
4.49167,558
4.50000,559
4.50833,559
4.51667,560
4.52500,561
4.53333,562
4.54167,563
4.55000,564
4.55833,564
4.56667,565
4.57500,565
4.58333,565
4.59167,566
4.60000,567
4.60833,568
4.61667,569
4.62500,569
4.63333,570
4.64167,571
4.65000,572
4.65833,573
4.66667,573
4.67500,574
4.68333,575
4.69167,576
4.70000,577
4.70833,577
4.71667,578
4.72500,579
4.73333,579
4.74167,580
4.75000,581
4.75833,582
4.76667,582
4.77500,583
4.78333,583
4.79167,584
4.80000,584
4.80833,585
4.81667,585
4.82500,585
4.83333,586
4.84167,586
4.85000,586
4.85833,587
4.86667,587
4.87500,587
4.88333,587
4.89167,587
4.90000,587
4.90833,587
4.91667,587
4.92500,587
4.93333,587
4.94167,587
4.95000,587
4.95833,587
4.96667,587
4.97500,587
4.98333,587
4.99167,587
5.00000,587
5.00833,587
5.01667,587
5.02500,586
5.03333,586
5.04167,585
5.05000,585
5.05833,585
5.06667,585
5.07500,585
5.08333,585
5.09167,585
5.10000,585
5.10833,585
5.11667,585
5.12500,585
5.13333,586
5.14167,586
5.15000,586
5.15833,586
5.16667,586
5.17500,586
5.18333,587
5.19167,588
5.20000,589
5.20833,590
5.21667,591
5.22500,592
5.23333,593
5.24167,594
5.25000,595
5.25833,596
5.26667,597
5.27500,598
5.28333,599
5.29167,600
5.30000,601
5.30833,602
5.31667,604
5.32500,605
5.33333,607
5.34167,608
5.35000,609
5.35833,611
5.36667,612
5.37500,614
5.38333,615
5.39167,616
5.40000,618
5.40833,620
5.41667,622
5.42500,624
5.43333,626
5.44167,628
5.45000,630
5.45833,632
5.46667,634
5.47500,636
5.48333,638
5.49167,641
5.50000,643
5.50833,645
5.51667,648
5.52500,650
5.53333,653
5.54167,655
5.55000,657
5.55833,659
5.56667,661
5.57500,663
5.58333,666
5.59167,669
5.60000,672
5.60833,674
5.61667,677
5.62500,680
5.63333,684
5.64167,687
5.65000,690
5.65833,693
5.66667,696
5.67500,700
5.68333,704
5.69167,708
5.70000,712
5.70833,716
5.71667,721
5.72500,725
5.73333,730
5.74167,735
5.75000,740
5.75833,746
5.76667,752
5.77500,757
5.78333,763
5.79167,769
5.80000,776
5.80833,782
5.81667,789
5.82500,796
5.83333,803
5.84167,810
5.85000,818
5.85833,826
5.86667,834
5.87500,842
5.88333,850
5.89167,859
5.90000,869
5.90833,878
5.91667,888
5.92500,897
5.93333,906
5.94167,916
5.95000,926
5.95833,936
5.96667,945
5.97500,955
5.98333,965
5.99167,974
6.00000,984
6.00833,993
6.01667,1002
6.02500,1011
6.03333,1020
6.04167,1029
6.05000,1037
6.05833,1046
6.06667,1054
6.07500,1062
6.08333,1070
6.09167,1077
6.10000,1084
6.10833,1090
6.11667,1096
6.12500,1102
6.13333,1107
6.14167,1112
6.15000,1116
6.15833,1120
6.16667,1123
6.17500,1126
6.18333,1128
6.19167,1130
6.20000,1131
6.20833,1132
6.21667,1133
6.22500,1133
6.23333,1133
6.24167,1132
6.25000,1131
6.25833,1128
6.26667,1126
6.27500,1123
6.28333,1119
6.29167,1115
6.30000,1110
6.30833,1105
6.31667,1100
6.32500,1095
6.33333,1089
6.34167,1082
6.35000,1075
6.35833,1069
6.36667,1062
6.37500,1055
6.38333,1047
6.39167,1040
6.40000,1032
6.40833,1025
6.41667,1016
6.42500,1008
6.43333,1000
6.44167,992
6.45000,984
6.45833,976
6.46667,967
6.47500,959
6.48333,951
6.49167,943
6.50000,935
6.50833,928
6.51667,920
6.52500,913
6.53333,906
6.54167,899
6.55000,892
6.55833,885
6.56667,879
6.57500,872
6.58333,866
6.59167,860
6.60000,854
6.60833,848
6.61667,843
6.62500,838
6.63333,833
6.64167,828
6.65000,824
6.65833,819
6.66667,816
6.67500,812
6.68333,809
6.69167,806
6.70000,803
6.70833,799
6.71667,796
6.72500,794
6.73333,791
6.74167,789
6.75000,787
6.75833,786
6.76667,784
6.77500,783
6.78333,782
6.79167,781
6.80000,780
6.80833,779
6.81667,778
6.82500,777
6.83333,776
6.84167,776
6.85000,776
6.85833,776
6.86667,776
6.87500,776
6.88333,776
6.89167,776
6.90000,776
6.90833,776
6.91667,776
6.92500,777
6.93333,777
6.94167,777
6.95000,777
6.95833,778
6.96667,778
6.97500,778
6.98333,779
6.99167,779
7.00000,780
7.00833,780
7.01667,781
7.02500,781
7.03333,781
7.04167,781
7.05000,781
7.05833,781
7.06667,781
7.07500,781
7.08333,782
7.09167,781
7.10000,781
7.10833,780
7.11667,779
7.12500,779
7.13333,778
7.14167,778
7.15000,778
7.15833,777
7.16667,777
7.17500,776
7.18333,775
7.19167,774
7.20000,773
7.20833,772
7.21667,771
7.22500,771
7.23333,770
7.24167,768
7.25000,767
7.25833,766
7.26667,765
7.27500,763
7.28333,762
7.29167,760
7.30000,759
7.30833,757
7.31667,756
7.32500,755
7.33333,754
7.34167,753
7.35000,752
7.35833,750
7.36667,749
7.37500,748
7.38333,747
7.39167,746
7.40000,744
7.40833,743
7.41667,742
7.42500,741
7.43333,740
7.44167,739
7.45000,738
7.45833,737
7.46667,736
7.47500,736
7.48333,735
7.49167,735
7.50000,734
7.50833,733
7.51667,733
7.52500,732
7.53333,732
7.54167,731
7.55000,731
7.55833,730
7.56667,730
7.57500,729
7.58333,729
7.59167,728
7.60000,728
7.60833,727
7.61667,727
7.62500,726
7.63333,726
7.64167,725
7.65000,725
7.65833,725
7.66667,725
7.67500,725
7.68333,724
7.69167,724
7.70000,723
7.70833,723
7.71667,723
7.72500,722
7.73333,722
7.74167,721
7.75000,721
7.75833,721
7.76667,721
7.77500,720
7.78333,719
7.79167,719
7.80000,718
7.80833,718
7.81667,717
7.82500,717
7.83333,716
7.84167,716
7.85000,715
7.85833,715
7.86667,714
7.87500,714
7.88333,713
7.89167,713
7.90000,712
7.90833,711
7.91667,710
7.92500,710
7.93333,709
7.94167,708
7.95000,707
7.95833,706
7.96667,705
7.97500,704
7.98333,703
7.99167,703
8.00000,702
8.00833,702
8.01667,701
8.02500,700
8.03333,699
8.04167,698
8.05000,697
8.05833,695
8.06667,694
8.07500,693
8.08333,691
8.09167,690
8.10000,689
8.10833,689
8.11667,688
8.12500,688
8.13333,687
8.14167,686
8.15000,685
8.15833,685
8.16667,684
8.17500,683
8.18333,682
8.19167,681
8.20000,681
8.20833,680
8.21667,679
8.22500,678
8.23333,677
8.24167,676
8.25000,676
8.25833,675
8.26667,675
8.27500,674
8.28333,673
8.29167,673
8.30000,673
8.30833,672
8.31667,672
8.32500,671
8.33333,670
8.34167,669
8.35000,669
8.35833,668
8.36667,667
8.37500,667
8.38333,666
8.39167,665
8.40000,665
8.40833,664
8.41667,664
8.42500,663
8.43333,663
8.44167,662
8.45000,662
8.45833,661
8.46667,661
8.47500,661
8.48333,661
8.49167,661
8.50000,661
8.50833,661
8.51667,661
8.52500,660
8.53333,661
8.54167,661
8.55000,661
8.55833,661
8.56667,661
8.57500,661
8.58333,661
8.59167,662
8.60000,662
8.60833,663
8.61667,663
8.62500,663
8.63333,664
8.64167,664
8.65000,665
8.65833,665
8.66667,666
8.67500,666
8.68333,667
8.69167,668
8.70000,669
8.70833,670
8.71667,670
8.72500,671
8.73333,672
8.74167,673
8.75000,674
8.75833,675
8.76667,676
8.77500,677
8.78333,678
8.79167,680
8.80000,681
8.80833,681
8.81667,682
8.82500,682
8.83333,683
8.84167,684
8.85000,685
8.85833,686
8.86667,686
8.87500,687
8.88333,687
8.89167,688
8.90000,688
8.90833,689
8.91667,689
8.92500,689
8.93333,690
8.94167,690
8.95000,690
8.95833,691
8.96667,691
8.97500,691
8.98333,692
8.99167,692
9.00000,693
9.00833,693
9.01667,693
9.02500,694
9.03333,693
9.04167,693
9.05000,692
9.05833,692
9.06667,692
9.07500,692
9.08333,692
9.09167,692
9.10000,691
9.10833,691
9.11667,690
9.12500,690
9.13333,689
9.14167,688
9.15000,688
9.15833,687
9.16667,686
9.17500,686
9.18333,686
9.19167,685
9.20000,685
9.20833,685
9.21667,685
9.22500,684
9.23333,684
9.24167,683
9.25000,683
9.25833,682
9.26667,682
9.27500,682
9.28333,681
9.29167,681
9.30000,680
9.30833,680
9.31667,680
9.32500,679
9.33333,679
9.34167,678
9.35000,677
9.35833,677
9.36667,676
9.37500,675
9.38333,675
9.39167,675
9.40000,676
9.40833,676
9.41667,676
9.42500,676
9.43333,676
9.44167,676
9.45000,675
9.45833,675
9.46667,675
9.47500,674
9.48333,674
9.49167,674
9.50000,674
9.50833,674
9.51667,674
9.52500,674
9.53333,675
9.54167,675
9.55000,676
9.55833,676
9.56667,677
9.57500,677
9.58333,677
9.59167,678
9.60000,678
9.60833,678
9.61667,678
9.62500,678
9.63333,679
9.64167,679
9.65000,680
9.65833,680
9.66667,681
9.67500,681
9.68333,681
9.69167,681
9.70000,682
9.70833,682
9.71667,683
9.72500,683
9.73333,684
9.74167,684
9.75000,684
9.75833,684
9.76667,685
9.77500,685
9.78333,686
9.79167,686
9.80000,686
9.80833,686
9.81667,686
9.82500,687
9.83333,687
9.84167,687
9.85000,688
9.85833,688
9.86667,688
9.87500,688
9.88333,689
9.89167,689
9.90000,689
9.90833,689
9.91667,690
9.92500,690
9.93333,690
9.94167,690
9.95000,690
9.95833,690
9.96667,690
9.97500,690
9.98333,689
9.99167,689
10.00000,689
10.00833,689
10.01667,688
10.02500,688
10.03333,688
10.04167,688
10.05000,688
10.05833,688
10.06667,688
10.07500,687
10.08333,687
10.09167,687
10.10000,687
10.10833,687
10.11667,687
10.12500,687
10.13333,687
10.14167,687
10.15000,687
10.15833,687
10.16667,686
10.17500,686
10.18333,686
10.19167,686
10.20000,687
10.20833,687
10.21667,687
10.22500,687
10.23333,687
10.24167,687
10.25000,687
10.25833,687
10.26667,687
10.27500,687
10.28333,687
10.29167,687
10.30000,687
10.30833,687
10.31667,687
10.32500,687
10.33333,686
10.34167,686
10.35000,686
10.35833,685
10.36667,685
10.37500,684
10.38333,684
10.39167,683
10.40000,682
10.40833,680
10.41667,678
10.42500,676
10.43333,673
10.44167,668
10.45000,663
10.45833,655
10.46667,646
10.47500,634
10.48333,620
10.49167,602
10.50000,580
10.50833,554
10.51667,524
10.52500,489
10.53333,450
10.54167,407
10.55000,362
10.55833,313
10.56667,264
10.57500,216
10.58333,171
10.59167,132
10.60000,102
10.60833,84
10.61667,82
10.62500,99
10.63333,138
10.64167,204
10.65000,299
10.65833,426
10.66667,588
10.67500,785
10.68333,1020
10.69167,1293
10.70000,1602
10.70833,1947
10.71667,2326
10.72500,2736
10.73333,3173
10.74167,3633
10.75000,4111
10.75833,4599
10.76667,5093
10.77500,5584
10.78333,6065
10.79167,6530
10.80000,6969
10.80833,7377
10.81667,7746
10.82500,8069
10.83333,8343
10.84167,8563
10.85000,8725
10.85833,8827
10.86667,8869
10.87500,8852
10.88333,8777
10.89167,8647
10.90000,8468
10.90833,8244
10.91667,7979
10.92500,7681
10.93333,7355
10.94167,7008
10.95000,6645
10.95833,6274
10.96667,5898
10.97500,5524
10.98333,5154
10.99167,4794
11.00000,4447
11.00833,4113
11.01667,3796
11.02500,3497
11.03333,3217
11.04167,2957
11.05000,2716
11.05833,2495
11.06667,2293
11.07500,2110
11.08333,1944
11.09167,1793
11.10000,1658
11.10833,1538
11.11667,1431
11.12500,1336
11.13333,1253
11.14167,1179
11.15000,1115
11.15833,1059
11.16667,1010
11.17500,967
11.18333,930
11.19167,898
11.20000,870
11.20833,846
11.21667,826
11.22500,808
11.23333,793
11.24167,780
11.25000,769
11.25833,760
11.26667,752
11.27500,745
11.28333,739
11.29167,734
11.30000,730
11.30833,725
11.31667,722
11.32500,719
11.33333,717
11.34167,714
11.35000,712
11.35833,710
11.36667,708
11.37500,707
11.38333,705
11.39167,704
11.40000,703
11.40833,702
11.41667,701
11.42500,699
11.43333,699
11.44167,698
11.45000,697
11.45833,697
11.46667,696
11.47500,695
11.48333,695
11.49167,694
11.50000,694
11.50833,693
11.51667,692
11.52500,692
11.53333,691
11.54167,690
11.55000,690
11.55833,689
11.56667,689
11.57500,688
11.58333,687
11.59167,686
11.60000,685
11.60833,684
11.61667,683
11.62500,682
11.63333,681
11.64167,680
11.65000,679
11.65833,678
11.66667,677
11.67500,676
11.68333,675
11.69167,674
11.70000,674
11.70833,673
11.71667,672
11.72500,671
11.73333,671
11.74167,670
11.75000,669
11.75833,668
11.76667,668
11.77500,667
11.78333,667
11.79167,666
11.80000,666
11.80833,666
11.81667,666
11.82500,666
11.83333,666
11.84167,667
11.85000,667
11.85833,667
11.86667,667
11.87500,667
11.88333,667
11.89167,668
11.90000,668
11.90833,669
11.91667,670
11.92500,671
11.93333,672
11.94167,673
11.95000,674
11.95833,675
11.96667,676
11.97500,677
11.98333,679
11.99167,680
12.00000,681
12.00833,683
12.01667,684
12.02500,685
12.03333,686
12.04167,687
12.05000,689
12.05833,690
12.06667,692
12.07500,694
12.08333,695
12.09167,696
12.10000,698
12.10833,699
12.11667,700
12.12500,701
12.13333,703
12.14167,704
12.15000,705
12.15833,706
12.16667,707
12.17500,708
12.18333,709
12.19167,710
12.20000,711
12.20833,712
12.21667,712
12.22500,713
12.23333,713
12.24167,713
12.25000,713
12.25833,713
12.26667,714
12.27500,714
12.28333,715
12.29167,715
12.30000,715
12.30833,715
12.31667,715
12.32500,716
12.33333,716
12.34167,716
12.35000,717
12.35833,716
12.36667,717
12.37500,717
12.38333,717
12.39167,716
12.40000,716
12.40833,716
12.41667,715
12.42500,715
12.43333,715
12.44167,714
12.45000,714
12.45833,714
12.46667,713
12.47500,713
12.48333,713
12.49167,714
12.50000,714
12.50833,714
12.51667,714
12.52500,714
12.53333,715
12.54167,715
12.55000,716
12.55833,717
12.56667,718
12.57500,719
12.58333,721
12.59167,723
12.60000,726
12.60833,730
12.61667,734
12.62500,739
12.63333,744
12.64167,751
12.65000,760
12.65833,770
12.66667,782
12.67500,797
12.68333,814
12.69167,835
12.70000,859
12.70833,886
12.71667,918
12.72500,955
12.73333,996
12.74167,1043
12.75000,1095
12.75833,1154
12.76667,1219
12.77500,1290
12.78333,1369
12.79167,1454
12.80000,1546
12.80833,1646
12.81667,1753
12.82500,1868
12.83333,1990
12.84167,2119
12.85000,2256
12.85833,2399
12.86667,2548
12.87500,2705
12.88333,2868
12.89167,3038
12.90000,3213
12.90833,3393
12.91667,3580
12.92500,3772
12.93333,3969
12.94167,4171
12.95000,4377
12.95833,4588
12.96667,4804
12.97500,5024
12.98333,5248
12.99167,5475
13.00000,5707
13.00833,5942
13.01667,6181
13.02500,6422
13.03333,6668
13.04167,6916
13.05000,7166
13.05833,7420
13.06667,7677
13.07500,7936
13.08333,8198
13.09167,8462
13.10000,8730
13.10833,9000
13.11667,9273
13.12500,9548
13.13333,9825
13.14167,10105
13.15000,10386
13.15833,10670
13.16667,10956
13.17500,11244
13.18333,11534
13.19167,11826
13.20000,12120
13.20833,12417
13.21667,12716
13.22500,13016
13.23333,13318
13.24167,13622
13.25000,13929
13.25833,14237
13.26667,14546
13.27500,14858
13.28333,15170
13.29167,15484
13.30000,15799
13.30833,16115
13.31667,16432
13.32500,16748
13.33333,17065
13.34167,17379
13.35000,17690
13.35833,17994
13.36667,18289
13.37500,18568
13.38333,18823
13.39167,19045
13.40000,19222
13.40833,19340
13.41667,19385
13.42500,19340
13.43333,19194
13.44167,18933
13.45000,18552
13.45833,18048
13.46667,17425
13.47500,16692
13.48333,15863
13.49167,14956
13.50000,13994
13.50833,12997
13.51667,11989
13.52500,10989
13.53333,10015
13.54167,9083
13.55000,8204
13.55833,7385
13.56667,6631
13.57500,5944
13.58333,5323
13.59167,4768
13.60000,4274
13.60833,3837
13.61667,3453
13.62500,3116
13.63333,2823
13.64167,2567
13.65000,2345
13.65833,2152
13.66667,1986
13.67500,1842
13.68333,1717
13.69167,1609
13.70000,1515
13.70833,1434
13.71667,1364
13.72500,1303
13.73333,1250
13.74167,1203
13.75000,1163
13.75833,1127
13.76667,1095
13.77500,1067
13.78333,1042
13.79167,1020
13.80000,1001
13.80833,983
13.81667,968
13.82500,954
13.83333,941
13.84167,929
13.85000,918
13.85833,908
13.86667,899
13.87500,891
13.88333,883
13.89167,876
13.90000,870
13.90833,864
13.91667,858
13.92500,853
13.93333,848
13.94167,843
13.95000,839
13.95833,834
13.96667,830
13.97500,826
13.98333,823
13.99167,820
14.00000,816
14.00833,814
14.01667,811
14.02500,809
14.03333,806
14.04167,804
14.05000,802
14.05833,800
14.06667,798
14.07500,796
14.08333,795
14.09167,793
14.10000,791
14.10833,790
14.11667,789
14.12500,788
14.13333,786
14.14167,785
14.15000,784
14.15833,782
14.16667,781
14.17500,780
14.18333,780
14.19167,779
14.20000,778
14.20833,777
14.21667,776
14.22500,775
14.23333,774
14.24167,773
14.25000,772
14.25833,771
14.26667,770
14.27500,770
14.28333,769
14.29167,769
14.30000,769
14.30833,768
14.31667,768
14.32500,768
14.33333,767
14.34167,767
14.35000,767
14.35833,767
14.36667,767
14.37500,767
14.38333,767
14.39167,767
14.40000,767
14.40833,767
14.41667,767
14.42500,766
14.43333,766
14.44167,766
14.45000,765
14.45833,765
14.46667,765
14.47500,765
14.48333,765
14.49167,765
14.50000,765
14.50833,765
14.51667,765
14.52500,766
14.53333,766
14.54167,766
14.55000,766
14.55833,766
14.56667,766
14.57500,766
14.58333,766
14.59167,766
14.60000,766
14.60833,766
14.61667,766
14.62500,766
14.63333,766
14.64167,765
14.65000,765
14.65833,765
14.66667,765
14.67500,765
14.68333,765
14.69167,765
14.70000,764
14.70833,764
14.71667,763
14.72500,763
14.73333,762
14.74167,762
14.75000,762
14.75833,762
14.76667,762
14.77500,762
14.78333,762
14.79167,761
14.80000,762
14.80833,762
14.81667,762
14.82500,762
14.83333,762
14.84167,762
14.85000,762
14.85833,763
14.86667,763
14.87500,763
14.88333,763
14.89167,763
14.90000,763
14.90833,763
14.91667,764
14.92500,764
14.93333,764
14.94167,765
14.95000,765
14.95833,765
14.96667,765
14.97500,765
14.98333,765
14.99167,764
15.00000,764
15.00833,763
15.01667,763
15.02500,763
15.03333,763
15.04167,762
15.05000,762
15.05833,761
15.06667,760
15.07500,760
15.08333,759
15.09167,757
15.10000,756
15.10833,755
15.11667,754
15.12500,753
15.13333,752
15.14167,751
15.15000,750
15.15833,748
15.16667,747
15.17500,746
15.18333,745
15.19167,744
15.20000,744
15.20833,743
15.21667,742
15.22500,741
15.23333,740
15.24167,740
15.25000,740
15.25833,739
15.26667,739
15.27500,739
15.28333,739
15.29167,739
15.30000,739
15.30833,740
15.31667,740
15.32500,740
15.33333,740
15.34167,741
15.35000,741
15.35833,742
15.36667,742
15.37500,743
15.38333,743
15.39167,744
15.40000,744
15.40833,745
15.41667,746
15.42500,746
15.43333,747
15.44167,747
15.45000,747
15.45833,747
15.46667,747
15.47500,748
15.48333,748
15.49167,747
15.50000,747
15.50833,747
15.51667,746
15.52500,745
15.53333,745
15.54167,745
15.55000,744
15.55833,744
15.56667,743
15.57500,743
15.58333,742
15.59167,741
15.60000,740
15.60833,740
15.61667,739
15.62500,738
15.63333,737
15.64167,736
15.65000,735
15.65833,735
15.66667,734
15.67500,734
15.68333,733
15.69167,733
15.70000,732
15.70833,731
15.71667,731
15.72500,730
15.73333,730
15.74167,730
15.75000,730
15.75833,729
15.76667,729
15.77500,729
15.78333,729
15.79167,729
15.80000,730
15.80833,730
15.81667,731
15.82500,731
15.83333,731
15.84167,731
15.85000,731
15.85833,732
15.86667,732
15.87500,732
15.88333,733
15.89167,733
15.90000,733
15.90833,734
15.91667,735
15.92500,735
15.93333,736
15.94167,736
15.95000,736
15.95833,736
15.96667,736
15.97500,735
15.98333,735
15.99167,735
16.00000,735
16.00833,735
16.01667,735
16.02500,735
16.03333,736
16.04167,736
16.05000,736
16.05833,736
16.06667,736
16.07500,736
16.08333,736
16.09167,735
16.10000,735
16.10833,735
16.11667,734
16.12500,733
16.13333,733
16.14167,733
16.15000,732
16.15833,732
16.16667,732
16.17500,731
16.18333,730
16.19167,730
16.20000,729
16.20833,729
16.21667,729
16.22500,730
16.23333,730
16.24167,729
16.25000,729
16.25833,728
16.26667,729
16.27500,729
16.28333,729
16.29167,729
16.30000,729
16.30833,729
16.31667,729
16.32500,729
16.33333,729
16.34167,729
16.35000,730
16.35833,730
16.36667,731
16.37500,731
16.38333,732
16.39167,732
16.40000,732
16.40833,733
16.41667,733
16.42500,734
16.43333,734
16.44167,734
16.45000,735
16.45833,736
16.46667,736
16.47500,737
16.48333,738
16.49167,739
16.50000,739
16.50833,740
16.51667,741
16.52500,741
16.53333,742
16.54167,742
16.55000,743
16.55833,743
16.56667,744
16.57500,745
16.58333,745
16.59167,746
16.60000,746
16.60833,747
16.61667,747
16.62500,747
16.63333,748
16.64167,748
16.65000,748
16.65833,748
16.66667,748
16.67500,748
16.68333,748
16.69167,748
16.70000,748
16.70833,748
16.71667,748
16.72500,747
16.73333,747
16.74167,746
16.75000,746
16.75833,745
16.76667,745
16.77500,744
16.78333,744
16.79167,743
16.80000,743
16.80833,743
16.81667,742
16.82500,741
16.83333,740
16.84167,739
16.85000,738
16.85833,738
16.86667,737
16.87500,736
16.88333,736
16.89167,735
16.90000,735
16.90833,735
16.91667,734
16.92500,733
16.93333,733
16.94167,732
16.95000,731
16.95833,731
16.96667,730
16.97500,729
16.98333,728
16.99167,727
17.00000,726
17.00833,725
17.01667,723
17.02500,723
17.03333,722
17.04167,721
17.05000,721
17.05833,720
17.06667,720
17.07500,720
17.08333,720
17.09167,719
17.10000,719
17.10833,718
17.11667,718
17.12500,717
17.13333,717
17.14167,716
17.15000,716
17.15833,715
17.16667,715
17.17500,715
17.18333,714
17.19167,714
17.20000,713
17.20833,713
17.21667,713
17.22500,713
17.23333,712
17.24167,712
17.25000,711
17.25833,711
17.26667,711
17.27500,710
17.28333,710
17.29167,710
17.30000,710
17.30833,710
17.31667,711
17.32500,711
17.33333,711
17.34167,710
17.35000,710
17.35833,710
17.36667,710
17.37500,710
17.38333,711
17.39167,711
17.40000,711
17.40833,712
17.41667,713
17.42500,713
17.43333,713
17.44167,714
17.45000,714
17.45833,715
17.46667,715
17.47500,716
17.48333,716
17.49167,717
17.50000,717
17.50833,717
17.51667,718
17.52500,718
17.53333,719
17.54167,720
17.55000,720
17.55833,721
17.56667,721
17.57500,721
17.58333,722
17.59167,722
17.60000,722
17.60833,722
17.61667,722
17.62500,723
17.63333,723
17.64167,723
17.65000,723
17.65833,723
17.66667,723
17.67500,723
17.68333,723
17.69167,723
17.70000,722
17.70833,722
17.71667,722
17.72500,721
17.73333,721
17.74167,720
17.75000,719
17.75833,719
17.76667,718
17.77500,717
17.78333,717
17.79167,716
17.80000,715
17.80833,714
17.81667,714
17.82500,713
17.83333,712
17.84167,712
17.85000,711
17.85833,711
17.86667,710
17.87500,709
17.88333,709
17.89167,708
17.90000,706
17.90833,705
17.91667,704
17.92500,703
17.93333,702
17.94167,702
17.95000,701
17.95833,700
17.96667,699
17.97500,699
17.98333,698
17.99167,698
18.00000,698
18.00833,698
18.01667,698
18.02500,697
18.03333,697
18.04167,697
18.05000,697
18.05833,697
18.06667,696
18.07500,696
18.08333,695
18.09167,695
18.10000,694
18.10833,694
18.11667,695
18.12500,695
18.13333,695
18.14167,695
18.15000,695
18.15833,696
18.16667,696
18.17500,696
18.18333,696
18.19167,695
18.20000,695
18.20833,695
18.21667,696
18.22500,696
18.23333,696
18.24167,696
18.25000,696
18.25833,696
18.26667,696
18.27500,697
18.28333,697
18.29167,697
18.30000,697
18.30833,697
18.31667,697
18.32500,697
18.33333,697
18.34167,697
18.35000,696
18.35833,696
18.36667,697
18.37500,697
18.38333,698
18.39167,698
18.40000,697
18.40833,697
18.41667,697
18.42500,697
18.43333,697
18.44167,697
18.45000,697
18.45833,696
18.46667,696
18.47500,696
18.48333,696
18.49167,696
18.50000,696
18.50833,696
18.51667,696
18.52500,697
18.53333,697
18.54167,697
18.55000,698
18.55833,699
18.56667,699
18.57500,700
18.58333,700
18.59167,700
18.60000,700
18.60833,701
18.61667,702
18.62500,703
18.63333,703
18.64167,704
18.65000,704
18.65833,705
18.66667,705
18.67500,706
18.68333,707
18.69167,707
18.70000,708
18.70833,709
18.71667,710
18.72500,711
18.73333,712
18.74167,713
18.75000,714
18.75833,715
18.76667,716
18.77500,716
18.78333,717
18.79167,717
18.80000,718
18.80833,718
18.81667,719
18.82500,719
18.83333,720
18.84167,720
18.85000,720
18.85833,720
18.86667,720
18.87500,720
18.88333,719
18.89167,719
18.90000,719
18.90833,718
18.91667,718
18.92500,718
18.93333,717
18.94167,717
18.95000,716
18.95833,715
18.96667,714
18.97500,713
18.98333,713
18.99167,712
19.00000,711
19.00833,710
19.01667,709
19.02500,708
19.03333,707
19.04167,706
19.05000,705
19.05833,705
19.06667,704
19.07500,703
19.08333,703
19.09167,703
19.10000,702
19.10833,701
19.11667,700
19.12500,700
19.13333,699
19.14167,699
19.15000,698
19.15833,698
19.16667,698
19.17500,697
19.18333,697
19.19167,697
19.20000,696
19.20833,696
19.21667,696
19.22500,696
19.23333,696
19.24167,696
19.25000,696
19.25833,696
19.26667,696
19.27500,697
19.28333,697
19.29167,697
19.30000,697
19.30833,698
19.31667,698
19.32500,699
19.33333,699
19.34167,699
19.35000,699
19.35833,700
19.36667,700
19.37500,701
19.38333,701
19.39167,702
19.40000,702
19.40833,703
19.41667,704
19.42500,704
19.43333,704
19.44167,705
19.45000,705
19.45833,706
19.46667,707
19.47500,707
19.48333,708
19.49167,709
19.50000,709
19.50833,709
19.51667,710
19.52500,710
19.53333,710
19.54167,711
19.55000,711
19.55833,711
19.56667,711
19.57500,711
19.58333,711
19.59167,711
19.60000,711
19.60833,712
19.61667,712
19.62500,713
19.63333,713
19.64167,713
19.65000,714
19.65833,714
19.66667,714
19.67500,714
19.68333,714
19.69167,713
19.70000,713
19.70833,713
19.71667,712
19.72500,712
19.73333,712
19.74167,712
19.75000,712
19.75833,712
19.76667,711
19.77500,711
19.78333,710
19.79167,710
19.80000,709
19.80833,709
19.81667,708
19.82500,708
19.83333,707
19.84167,707
19.85000,707
19.85833,707
19.86667,707
19.87500,707
19.88333,706
19.89167,706
19.90000,706
19.90833,706
19.91667,705
19.92500,705
19.93333,705
19.94167,705
19.95000,705
19.95833,705
19.96667,705
19.97500,706
19.98333,706
19.99167,706
20.00000,706
20.00833,706
20.01667,706
20.02500,706
20.03333,706
20.04167,707
20.05000,708
20.05833,708
20.06667,709
20.07500,710
20.08333,710
20.09167,710
20.10000,711
20.10833,712
20.11667,712
20.12500,713
20.13333,714
20.14167,714
20.15000,715
20.15833,716
20.16667,717
20.17500,718
20.18333,719
20.19167,719
20.20000,720
20.20833,721
20.21667,722
20.22500,723
20.23333,724
20.24167,725
20.25000,725
20.25833,726
20.26667,726
20.27500,727
20.28333,728
20.29167,729
20.30000,730
20.30833,731
20.31667,731
20.32500,732
20.33333,733
20.34167,733
20.35000,733
20.35833,734
20.36667,734
20.37500,735
20.38333,735
20.39167,736
20.40000,737
20.40833,737
20.41667,738
20.42500,738
20.43333,738
20.44167,738
20.45000,738
20.45833,739
20.46667,739
20.47500,739
20.48333,738
20.49167,738
20.50000,738
20.50833,737
20.51667,737
20.52500,736
20.53333,735
20.54167,734
20.55000,734
20.55833,733
20.56667,733
20.57500,732
20.58333,731
20.59167,731
20.60000,730
20.60833,730
20.61667,729
20.62500,729
20.63333,728
20.64167,727
20.65000,726
20.65833,725
20.66667,724
20.67500,723
20.68333,722
20.69167,722
20.70000,721
20.70833,720
20.71667,719
20.72500,718
20.73333,718
20.74167,717
20.75000,715
20.75833,714
20.76667,713
20.77500,712
20.78333,711
20.79167,711
20.80000,710
20.80833,709
20.81667,708
20.82500,706
20.83333,705
20.84167,705
20.85000,704
20.85833,703
20.86667,703
20.87500,702
20.88333,701
20.89167,701
20.90000,700
20.90833,700
20.91667,700
20.92500,699
20.93333,698
20.94167,698
20.95000,697
20.95833,697
20.96667,696
20.97500,696
20.98333,696
20.99167,696
21.00000,695
21.00833,694
21.01667,694
21.02500,693
21.03333,693
21.04167,693
21.05000,692
21.05833,692
21.06667,692
21.07500,692
21.08333,692
21.09167,691
21.10000,691
21.10833,691
21.11667,692
21.12500,692
21.13333,692
21.14167,692
21.15000,692
21.15833,693
21.16667,693
21.17500,694
21.18333,695
21.19167,695
21.20000,696
21.20833,697
21.21667,697
21.22500,697
21.23333,698
21.24167,698
21.25000,699
21.25833,699
21.26667,700
21.27500,700
21.28333,701
21.29167,701
21.30000,702
21.30833,702
21.31667,702
21.32500,703
21.33333,703
21.34167,704
21.35000,704
21.35833,705
21.36667,706
21.37500,706
21.38333,707
21.39167,708
21.40000,709
21.40833,709
21.41667,710
21.42500,711
21.43333,711
21.44167,712
21.45000,713
21.45833,714
21.46667,714
21.47500,715
21.48333,715
21.49167,716
21.50000,716
21.50833,717
21.51667,718
21.52500,719
21.53333,719
21.54167,720
21.55000,720
21.55833,721
21.56667,721
21.57500,721
21.58333,722
21.59167,722
21.60000,722
21.60833,722
21.61667,722
21.62500,722
21.63333,722
21.64167,722
21.65000,723
21.65833,723
21.66667,722
21.67500,722
21.68333,722
21.69167,721
21.70000,721
21.70833,721
21.71667,721
21.72500,721
21.73333,721
21.74167,720
21.75000,720
21.75833,719
21.76667,719
21.77500,718
21.78333,718
21.79167,718
21.80000,718
21.80833,718
21.81667,717
21.82500,717
21.83333,717
21.84167,717
21.85000,717
21.85833,717
21.86667,716
21.87500,716
21.88333,716
21.89167,715
21.90000,715
21.90833,715
21.91667,715
21.92500,715
21.93333,715
21.94167,715
21.95000,715
21.95833,715
21.96667,716
21.97500,716
21.98333,716
21.99167,716
22.00000,716
22.00833,716
22.01667,716
22.02500,716
22.03333,716
22.04167,716
22.05000,716
22.05833,716
22.06667,716
22.07500,716
22.08333,716
22.09167,716
22.10000,717
22.10833,717
22.11667,717
22.12500,718
22.13333,718
22.14167,718
22.15000,718
22.15833,718
22.16667,718
22.17500,718
22.18333,717
22.19167,717
22.20000,717
22.20833,717
22.21667,717
22.22500,716
22.23333,716
22.24167,716
22.25000,715
22.25833,715
22.26667,714
22.27500,714
22.28333,713
22.29167,713
22.30000,713
22.30833,712
22.31667,712
22.32500,711
22.33333,711
22.34167,711
22.35000,710
22.35833,710
22.36667,710
22.37500,709
22.38333,709
22.39167,708
22.40000,708
22.40833,707
22.41667,707
22.42500,706
22.43333,706
22.44167,706
22.45000,705
22.45833,705
22.46667,705
22.47500,704
22.48333,704
22.49167,704
22.50000,704
22.50833,705
22.51667,705
22.52500,706
22.53333,706
22.54167,707
22.55000,707
22.55833,708
22.56667,708
22.57500,709
22.58333,709
22.59167,709
22.60000,710
22.60833,710
22.61667,711
22.62500,711
22.63333,712
22.64167,713
22.65000,713
22.65833,714
22.66667,714
22.67500,715
22.68333,716
22.69167,716
22.70000,717
22.70833,718
22.71667,719
22.72500,719
22.73333,720
22.74167,721
22.75000,722
22.75833,722
22.76667,722
22.77500,723
22.78333,723
22.79167,723
22.80000,724
22.80833,724
22.81667,725
22.82500,725
22.83333,725
22.84167,725
22.85000,725
22.85833,725
22.86667,726
22.87500,725
22.88333,725
22.89167,725
22.90000,725
22.90833,725
22.91667,725
22.92500,726
22.93333,725
22.94167,725
22.95000,725
22.95833,724
22.96667,724
22.97500,723
22.98333,723
22.99167,723
23.00000,723
23.00833,723
23.01667,723
23.02500,723
23.03333,722
23.04167,722
23.05000,722
23.05833,721
23.06667,720
23.07500,720
23.08333,719
23.09167,718
23.10000,718
23.10833,718
23.11667,717
23.12500,717
23.13333,716
23.14167,716
23.15000,716
23.15833,716
23.16667,716
23.17500,716
23.18333,716
23.19167,716
23.20000,715
23.20833,715
23.21667,715
23.22500,715
23.23333,715
23.24167,714
23.25000,714
23.25833,714
23.26667,713
23.27500,713
23.28333,713
23.29167,714
23.30000,714
23.30833,714
23.31667,714
23.32500,713
23.33333,713
23.34167,713
23.35000,712
23.35833,711
23.36667,711
23.37500,710
23.38333,710
23.39167,710
23.40000,710
23.40833,709
23.41667,709
23.42500,709
23.43333,709
23.44167,709
23.45000,709
23.45833,709
23.46667,709
23.47500,708
23.48333,708
23.49167,708
23.50000,707
23.50833,707
23.51667,707
23.52500,706
23.53333,706
23.54167,705
23.55000,705
23.55833,705
23.56667,704
23.57500,704
23.58333,704
23.59167,703
23.60000,703
23.60833,703
23.61667,703
23.62500,703
23.63333,703
23.64167,703
23.65000,703
23.65833,703
23.66667,704
23.67500,704
23.68333,704
23.69167,705
23.70000,705
23.70833,705
23.71667,705
23.72500,706
23.73333,706
23.74167,706
23.75000,706
23.75833,706
23.76667,706
23.77500,707
23.78333,707
23.79167,708
23.80000,708
23.80833,708
23.81667,708
23.82500,709
23.83333,709
23.84167,709
23.85000,710
23.85833,710
23.86667,710
23.87500,710
23.88333,711
23.89167,711
23.90000,712
23.90833,712
23.91667,712
23.92500,713
23.93333,713
23.94167,713
23.95000,713
23.95833,713
23.96667,713
23.97500,713
23.98333,713
23.99167,713
24.00000,713
24.00833,713
24.01667,713
24.02500,713
24.03333,713
24.04167,713
24.05000,714
24.05833,714
24.06667,715
24.07500,715
24.08333,715
24.09167,715
24.10000,716
24.10833,716
24.11667,716
24.12500,717
24.13333,717
24.14167,718
24.15000,718
24.15833,719
24.16667,719
24.17500,720
24.18333,720
24.19167,721
24.20000,721
24.20833,722
24.21667,722
24.22500,723
24.23333,723
24.24167,724
24.25000,725
24.25833,726
24.26667,727
24.27500,728
24.28333,729
24.29167,730
24.30000,732
24.30833,734
24.31667,736
24.32500,738
24.33333,740
24.34167,741
24.35000,744
24.35833,746
24.36667,749
24.37500,753
24.38333,756
24.39167,761
24.40000,765
24.40833,770
24.41667,775
24.42500,781
24.43333,788
24.44167,795
24.45000,802
24.45833,810
24.46667,819
24.47500,829
24.48333,840
24.49167,851
24.50000,864
24.50833,878
24.51667,892
24.52500,908
24.53333,925
24.54167,942
24.55000,962
24.55833,982
24.56667,1003
24.57500,1026
24.58333,1050
24.59167,1076
24.60000,1103
24.60833,1131
24.61667,1161
24.62500,1192
24.63333,1225
24.64167,1258
24.65000,1293
24.65833,1329
24.66667,1366
24.67500,1404
24.68333,1443
24.69167,1482
24.70000,1522
24.70833,1562
24.71667,1602
24.72500,1642
24.73333,1682
24.74167,1722
24.75000,1762
24.75833,1801
24.76667,1839
24.77500,1876
24.78333,1911
24.79167,1945
24.80000,1978
24.80833,2009
24.81667,2037
24.82500,2064
24.83333,2088
24.84167,2109
24.85000,2127
24.85833,2143
24.86667,2156
24.87500,2166
24.88333,2173
24.89167,2178
24.90000,2180
24.90833,2178
24.91667,2174
24.92500,2166
24.93333,2155
24.94167,2141
24.95000,2124
24.95833,2105
24.96667,2083
24.97500,2059
24.98333,2033
24.99167,2004
25.00000,1974
25.00833,1942
25.01667,1909
25.02500,1874
25.03333,1838
25.04167,1801
25.05000,1764
25.05833,1725
25.06667,1687
25.07500,1648
25.08333,1609
25.09167,1571
25.10000,1533
25.10833,1494
25.11667,1457
25.12500,1420
25.13333,1383
25.14167,1348
25.15000,1314
25.15833,1280
25.16667,1248
25.17500,1216
25.18333,1185
25.19167,1156
25.20000,1128
25.20833,1101
25.21667,1076
25.22500,1051
25.23333,1028
25.24167,1006
25.25000,985
25.25833,965
25.26667,946
25.27500,929
25.28333,913
25.29167,897
25.30000,883
25.30833,871
25.31667,858
25.32500,847
25.33333,836
25.34167,827
25.35000,817
25.35833,808
25.36667,800
25.37500,793
25.38333,786
25.39167,780
25.40000,774
25.40833,769
25.41667,764
25.42500,759
25.43333,755
25.44167,752
25.45000,749
25.45833,746
25.46667,742
25.47500,740
25.48333,737
25.49167,735
25.50000,733
25.50833,731
25.51667,730
25.52500,728
25.53333,727
25.54167,725
25.55000,724
25.55833,723
25.56667,722
25.57500,721
25.58333,721
25.59167,720
25.60000,720
25.60833,719
25.61667,719
25.62500,719
25.63333,719
25.64167,718
25.65000,718
25.65833,718
25.66667,718
25.67500,718
25.68333,718
25.69167,718
25.70000,717
25.70833,717
25.71667,717
25.72500,718
25.73333,718
25.74167,718
25.75000,718
25.75833,718
25.76667,718
25.77500,718
25.78333,719
25.79167,719
25.80000,719
25.80833,719
25.81667,719
25.82500,719
25.83333,719
25.84167,719
25.85000,718
25.85833,718
25.86667,718
25.87500,718
25.88333,718
25.89167,718
25.90000,718
25.90833,719
25.91667,719
25.92500,719
25.93333,719
25.94167,719
25.95000,719
25.95833,720
25.96667,720
25.97500,720
25.98333,720
25.99167,720
26.00000,719
26.00833,719
26.01667,719
26.02500,719
26.03333,718
26.04167,718
26.05000,718
26.05833,718
26.06667,717
26.07500,717
26.08333,717
26.09167,717
26.10000,717
26.10833,717
26.11667,717
26.12500,717
26.13333,717
26.14167,717
26.15000,716
26.15833,716
26.16667,716
26.17500,715
26.18333,716
26.19167,716
26.20000,716
26.20833,716
26.21667,716
26.22500,715
26.23333,715
26.24167,715
26.25000,714
26.25833,714
26.26667,714
26.27500,715
26.28333,715
26.29167,715
26.30000,715
26.30833,716
26.31667,716
26.32500,716
26.33333,716
26.34167,715
26.35000,715
26.35833,715
26.36667,715
26.37500,715
26.38333,715
26.39167,716
26.40000,716
26.40833,717
26.41667,717
26.42500,717
26.43333,717
26.44167,718
26.45000,718
26.45833,718
26.46667,719
26.47500,719
26.48333,719
26.49167,720
26.50000,720
26.50833,721
26.51667,721
26.52500,721
26.53333,721
26.54167,722
26.55000,722
26.55833,722
26.56667,722
26.57500,722
26.58333,723
26.59167,723
26.60000,723
26.60833,723
26.61667,724
26.62500,724
26.63333,724
26.64167,724
26.65000,724
26.65833,724
26.66667,724
26.67500,724
26.68333,725
26.69167,725
26.70000,725
26.70833,726
26.71667,726
26.72500,726
26.73333,726
26.74167,726
26.75000,727
26.75833,727
26.76667,727
26.77500,728
26.78333,728
26.79167,728
26.80000,728
26.80833,728
26.81667,728
26.82500,728
26.83333,729
26.84167,729
26.85000,729
26.85833,730
26.86667,730
26.87500,731
26.88333,731
26.89167,731
26.90000,731
26.90833,731
26.91667,732
26.92500,732
26.93333,732
26.94167,732
26.95000,732
26.95833,732
26.96667,732
26.97500,732
26.98333,732
26.99167,732
27.00000,732
27.00833,732
27.01667,732
27.02500,732
27.03333,732
27.04167,732
27.05000,732
27.05833,732
27.06667,732
27.07500,731
27.08333,731
27.09167,731
27.10000,730
27.10833,730
27.11667,730
27.12500,730
27.13333,729
27.14167,729
27.15000,728
27.15833,727
27.16667,727
27.17500,726
27.18333,726
27.19167,726
27.20000,725
27.20833,725
27.21667,724
27.22500,724
27.23333,723
27.24167,722
27.25000,722
27.25833,721
27.26667,721
27.27500,721
27.28333,720
27.29167,719
27.30000,719
27.30833,719
27.31667,719
27.32500,718
27.33333,718
27.34167,717
27.35000,717
27.35833,717
27.36667,716
27.37500,716
27.38333,715
27.39167,715
27.40000,715
27.40833,714
27.41667,714
27.42500,714
27.43333,713
27.44167,712
27.45000,712
27.45833,711
27.46667,711
27.47500,711
27.48333,710
27.49167,710
27.50000,710
27.50833,710
27.51667,709
27.52500,709
27.53333,709
27.54167,708
27.55000,708
27.55833,708
27.56667,708
27.57500,707
27.58333,707
27.59167,707
27.60000,707
27.60833,707
27.61667,707
27.62500,706
27.63333,706
27.64167,706
27.65000,705
27.65833,705
27.66667,705
27.67500,705
27.68333,704
27.69167,704
27.70000,703
27.70833,703
27.71667,702
27.72500,702
27.73333,702
27.74167,701
27.75000,700
27.75833,700
27.76667,700
27.77500,699
27.78333,699
27.79167,698
27.80000,697
27.80833,697
27.81667,696
27.82500,696
27.83333,694
27.84167,693
27.85000,692
27.85833,691
27.86667,690
27.87500,689
27.88333,688
27.89167,686
27.90000,685
27.90833,684
27.91667,682
27.92500,680
27.93333,678
27.94167,676
27.95000,673
27.95833,670
27.96667,667
27.97500,664
27.98333,660
27.99167,656
28.00000,652
28.00833,647
28.01667,643
28.02500,637
28.03333,631
28.04167,625
28.05000,619
28.05833,612
28.06667,605
28.07500,598
28.08333,590
28.09167,581
28.10000,572
28.10833,563
28.11667,553
28.12500,543
28.13333,533
28.14167,522
28.15000,511
28.15833,499
28.16667,487
28.17500,474
28.18333,461
28.19167,448
28.20000,434
28.20833,421
28.21667,407
28.22500,392
28.23333,378
28.24167,363
28.25000,348
28.25833,332
28.26667,316
28.27500,301
28.28333,285
28.29167,269
28.30000,252
28.30833,237
28.31667,221
28.32500,205
28.33333,189
28.34167,173
28.35000,158
28.35833,143
28.36667,127
28.37500,113
28.38333,98
28.39167,84
28.40000,71
28.40833,58
28.41667,45
28.42500,33
28.43333,21
28.44167,10
28.45000,0
28.45833,-10
28.46667,-19
28.47500,-27
28.48333,-34
28.49167,-40
28.50000,-46
28.50833,-51
28.51667,-55
28.52500,-58
28.53333,-61
28.54167,-63
28.55000,-64
28.55833,-64
28.56667,-64
28.57500,-64
28.58333,-62
28.59167,-60
28.60000,-57
28.60833,-54
28.61667,-50
28.62500,-46
28.63333,-41
28.64167,-35
28.65000,-29
28.65833,-22
28.66667,-15
28.67500,-7
28.68333,1
28.69167,9
28.70000,18
28.70833,27
28.71667,36
28.72500,45
28.73333,55
28.74167,64
28.75000,74
28.75833,84
28.76667,93
28.77500,103
28.78333,112
28.79167,122
28.80000,132
28.80833,141
28.81667,151
28.82500,161
28.83333,170
28.84167,179
28.85000,188
28.85833,196
28.86667,205
28.87500,213
28.88333,222
28.89167,230
28.90000,237
28.90833,245
28.91667,252
28.92500,259
28.93333,266
28.94167,273
28.95000,279
28.95833,285
28.96667,290
28.97500,296
28.98333,301
28.99167,307
29.00000,312
29.00833,317
29.01667,322
29.02500,327
29.03333,331
29.04167,335
29.05000,339
29.05833,343
29.06667,347
29.07500,350
29.08333,354
29.09167,357
29.10000,360
29.10833,363
29.11667,366
29.12500,369
29.13333,372
29.14167,374
29.15000,376
29.15833,378
29.16667,380
29.17500,381
29.18333,383
29.19167,385
29.20000,386
29.20833,388
29.21667,389
29.22500,391
29.23333,392
29.24167,393
29.25000,394
29.25833,395
29.26667,396
29.27500,397
29.28333,398
29.29167,399
29.30000,400
29.30833,400
29.31667,401
29.32500,401
29.33333,402
29.34167,403
29.35000,403
29.35833,404
29.36667,404
29.37500,404
29.38333,404
29.39167,404
29.40000,405
29.40833,405
29.41667,405
29.42500,405
29.43333,405
29.44167,406
29.45000,406
29.45833,406
29.46667,406
29.47500,406
29.48333,406
29.49167,405
29.50000,405
29.50833,405
29.51667,405
29.52500,404
29.53333,404
29.54167,404
29.55000,403
29.55833,403
29.56667,403
29.57500,402
29.58333,402
29.59167,402
29.60000,402
29.60833,402
29.61667,401
29.62500,401
29.63333,400
29.64167,400
29.65000,399
29.65833,399
29.66667,398
29.67500,397
29.68333,396
29.69167,395
29.70000,394
29.70833,392
29.71667,391
29.72500,390
29.73333,389
29.74167,387
29.75000,386
29.75833,384
29.76667,382
29.77500,379
29.78333,377
29.79167,375
29.80000,373
29.80833,371
29.81667,368
29.82500,366
29.83333,363
29.84167,360
29.85000,357
29.85833,353
29.86667,350
29.87500,346
29.88333,343
29.89167,339
29.90000,335
29.90833,332
29.91667,328
29.92500,323
29.93333,319
29.94167,314
29.95000,309
29.95833,305
29.96667,300
29.97500,295
29.98333,291
29.99167,285
30.00000,281

