[Header]
Application Name,LabSolutions
Version,5.97 SP1
Data File Name,C:\Users\cremerlab\Desktop\griffin\2021-02-15_NCM_diauxie_turnover\2021-02-15_NCM_acetate_glucose_diauxie_turnover_2152021_008.lcd
Output Date,2/16/2021
Output Time,8:55:51 AM

[File Information]
Type,Data File
Generated,2/15/2021 11:57:38 PM
Generated by,System Administrator
Modified,2/16/2021 12:27:57 AM
Modified by,System Administrator

[Sample Information]
Operator Name,System Administrator
Acquired,2/15/2021 11:57:56 PM
Sample Type,0:Unknown
Level,0
Sample Name,NCM diauxic shift timepoint 8
Sample ID,008
ISTD Amount1,1
ISTD Amount2,1
ISTD Amount3,1
ISTD Amount4,1
ISTD Amount5,1
ISTD Amount6,1
ISTD Amount7,1
ISTD Amount8,1
ISTD Amount9,1
ISTD Amount10,1
ISTD Amount11,1
ISTD Amount12,1
ISTD Amount13,1
ISTD Amount14,1
ISTD Amount15,1
ISTD Amount16,1
ISTD Amount17,1
ISTD Amount18,1
ISTD Amount19,1
ISTD Amount20,1
ISTD Amount21,1
ISTD Amount22,1
ISTD Amount23,1
ISTD Amount24,1
ISTD Amount25,1
ISTD Amount26,1
ISTD Amount27,1
ISTD Amount28,1
ISTD Amount29,1
ISTD Amount30,1
ISTD Amount31,1
ISTD Amount32,1
Sample Amount,1
Dilution Factor,1
Vial#,8
Injection Volume,20

[Original Files]
Data File,C:\Users\cremerlab\Desktop\griffin\2021-02-15_NCM_diauxie_turnover\2021-02-15_NCM_acetate_glucose_diauxie_turnover_2152021_008.lcd
Method File,C:\LabSolutions\Data\Project1\organicacidsetc.lcm
Batch File,C:\Users\cremerlab\Desktop\griffin\2021-02-15_NCM_diauxie_turnover\2021-02-15_NCM_acetate_glucose_diauxie_turnover.lcb
Report Format File,c:\LabSolutions\System\DEFAULT.lsr

[File Description]


[Configuration]
Instrument Name,HPLC-PC-Instrument1
Instrument #,1
Line #,1
# of Detectors,2
Detector ID,Detector A,Detector B
Detector Name,Detector A,Detector B
# of Channels,1,1

[Peak Table(Detector A)]
# of Peaks,0

[Peak Table(Detector B)]
# of Peaks,4
Peak#,R.Time,I.Time,F.Time,Area,Height,A/H,Conc.,Mark,ID#,Name,k',Plate #,Plate Ht.,Tailing,Resolution,Sep.Factor,Area Ratio,Height Ratio,Conc. %,Norm Conc.
1,10.878,10.625,11.492,119993,7655,15.675,0.000,   ,,,0.000,11026,13.604,1.276,0.000,0.000,0,0,0.000,0.000
2,13.399,12.558,14.367,429260,17225,24.921,0.000,   ,,,0.232,5969,25.129,0.729,4.550,0.000,0,0,0.000,0.000
3,24.914,24.275,25.617,35152,1256,27.988,0.000,   ,,,1.290,18117,8.280,1.013,16.059,5.568,0,0,0.000,0.000
4,29.743,28.667,29.967,10005,137,73.242,0.000,   ,,,1.734,8811,17.025,0.604,4.810,1.344,0,0,0.000,0.000

[Compound Results(Detector A)]
# of IDs,0

[Compound Results(Detector B)]
# of IDs,0

[LC Chromatogram(Detector B-Ch1)]
Interval(msec),500
# of Points,3601
Start Time(min),0.000
End Time(min),30.000
Intensity Units,mV
Intensity Multiplier,0.001
R.Time (min),Intensity
0.00000,-152
0.00833,-152
0.01667,-61
0.02500,0
0.03333,1
0.04167,-0
0.05000,-2
0.05833,-5
0.06667,-6
0.07500,-7
0.08333,-6
0.09167,-5
0.10000,-2
0.10833,1
0.11667,5
0.12500,9
0.13333,13
0.14167,17
0.15000,20
0.15833,24
0.16667,28
0.17500,32
0.18333,36
0.19167,40
0.20000,44
0.20833,47
0.21667,52
0.22500,56
0.23333,61
0.24167,65
0.25000,70
0.25833,74
0.26667,79
0.27500,83
0.28333,87
0.29167,92
0.30000,97
0.30833,102
0.31667,106
0.32500,111
0.33333,115
0.34167,120
0.35000,124
0.35833,128
0.36667,132
0.37500,136
0.38333,139
0.39167,143
0.40000,146
0.40833,150
0.41667,153
0.42500,156
0.43333,160
0.44167,163
0.45000,166
0.45833,169
0.46667,172
0.47500,175
0.48333,178
0.49167,180
0.50000,183
0.50833,185
0.51667,187
0.52500,189
0.53333,192
0.54167,194
0.55000,196
0.55833,198
0.56667,201
0.57500,204
0.58333,206
0.59167,209
0.60000,211
0.60833,212
0.61667,214
0.62500,215
0.63333,215
0.64167,216
0.65000,216
0.65833,216
0.66667,216
0.67500,216
0.68333,216
0.69167,216
0.70000,216
0.70833,216
0.71667,216
0.72500,216
0.73333,216
0.74167,217
0.75000,217
0.75833,218
0.76667,219
0.77500,220
0.78333,221
0.79167,222
0.80000,223
0.80833,224
0.81667,225
0.82500,226
0.83333,228
0.84167,229
0.85000,230
0.85833,231
0.86667,231
0.87500,232
0.88333,233
0.89167,234
0.90000,235
0.90833,236
0.91667,237
0.92500,238
0.93333,239
0.94167,241
0.95000,241
0.95833,242
0.96667,242
0.97500,243
0.98333,243
0.99167,243
1.00000,244
1.00833,244
1.01667,245
1.02500,245
1.03333,245
1.04167,246
1.05000,246
1.05833,246
1.06667,247
1.07500,247
1.08333,248
1.09167,248
1.10000,248
1.10833,248
1.11667,249
1.12500,249
1.13333,249
1.14167,250
1.15000,250
1.15833,251
1.16667,251
1.17500,251
1.18333,252
1.19167,252
1.20000,252
1.20833,253
1.21667,253
1.22500,254
1.23333,254
1.24167,255
1.25000,255
1.25833,256
1.26667,256
1.27500,256
1.28333,257
1.29167,257
1.30000,258
1.30833,259
1.31667,259
1.32500,260
1.33333,261
1.34167,261
1.35000,262
1.35833,263
1.36667,263
1.37500,264
1.38333,264
1.39167,265
1.40000,266
1.40833,266
1.41667,267
1.42500,268
1.43333,269
1.44167,269
1.45000,270
1.45833,271
1.46667,271
1.47500,272
1.48333,273
1.49167,274
1.50000,275
1.50833,276
1.51667,277
1.52500,278
1.53333,279
1.54167,281
1.55000,282
1.55833,283
1.56667,284
1.57500,286
1.58333,287
1.59167,289
1.60000,290
1.60833,291
1.61667,293
1.62500,294
1.63333,295
1.64167,296
1.65000,297
1.65833,299
1.66667,300
1.67500,302
1.68333,303
1.69167,305
1.70000,307
1.70833,308
1.71667,310
1.72500,312
1.73333,313
1.74167,315
1.75000,316
1.75833,318
1.76667,320
1.77500,321
1.78333,322
1.79167,324
1.80000,325
1.80833,327
1.81667,328
1.82500,330
1.83333,331
1.84167,332
1.85000,334
1.85833,335
1.86667,337
1.87500,338
1.88333,340
1.89167,341
1.90000,343
1.90833,345
1.91667,347
1.92500,348
1.93333,350
1.94167,351
1.95000,352
1.95833,353
1.96667,354
1.97500,354
1.98333,355
1.99167,356
2.00000,357
2.00833,358
2.01667,359
2.02500,359
2.03333,360
2.04167,361
2.05000,362
2.05833,363
2.06667,364
2.07500,364
2.08333,365
2.09167,365
2.10000,366
2.10833,366
2.11667,366
2.12500,367
2.13333,367
2.14167,367
2.15000,367
2.15833,368
2.16667,368
2.17500,368
2.18333,369
2.19167,369
2.20000,370
2.20833,370
2.21667,370
2.22500,370
2.23333,370
2.24167,370
2.25000,370
2.25833,370
2.26667,370
2.27500,369
2.28333,369
2.29167,369
2.30000,369
2.30833,369
2.31667,369
2.32500,369
2.33333,369
2.34167,369
2.35000,369
2.35833,369
2.36667,369
2.37500,369
2.38333,369
2.39167,370
2.40000,370
2.40833,370
2.41667,371
2.42500,371
2.43333,372
2.44167,372
2.45000,373
2.45833,374
2.46667,375
2.47500,376
2.48333,377
2.49167,378
2.50000,379
2.50833,380
2.51667,381
2.52500,382
2.53333,382
2.54167,383
2.55000,384
2.55833,385
2.56667,386
2.57500,387
2.58333,388
2.59167,389
2.60000,390
2.60833,391
2.61667,392
2.62500,393
2.63333,394
2.64167,395
2.65000,396
2.65833,397
2.66667,398
2.67500,400
2.68333,401
2.69167,402
2.70000,403
2.70833,404
2.71667,405
2.72500,406
2.73333,407
2.74167,408
2.75000,410
2.75833,411
2.76667,412
2.77500,413
2.78333,414
2.79167,415
2.80000,416
2.80833,417
2.81667,418
2.82500,418
2.83333,419
2.84167,420
2.85000,420
2.85833,420
2.86667,421
2.87500,421
2.88333,422
2.89167,423
2.90000,423
2.90833,424
2.91667,425
2.92500,426
2.93333,426
2.94167,427
2.95000,428
2.95833,429
2.96667,429
2.97500,430
2.98333,430
2.99167,431
3.00000,431
3.00833,431
3.01667,431
3.02500,432
3.03333,432
3.04167,432
3.05000,432
3.05833,432
3.06667,433
3.07500,433
3.08333,433
3.09167,433
3.10000,434
3.10833,435
3.11667,435
3.12500,435
3.13333,436
3.14167,436
3.15000,436
3.15833,437
3.16667,437
3.17500,437
3.18333,437
3.19167,438
3.20000,438
3.20833,439
3.21667,439
3.22500,440
3.23333,441
3.24167,442
3.25000,443
3.25833,443
3.26667,444
3.27500,444
3.28333,444
3.29167,445
3.30000,445
3.30833,445
3.31667,446
3.32500,447
3.33333,448
3.34167,449
3.35000,449
3.35833,450
3.36667,450
3.37500,451
3.38333,451
3.39167,452
3.40000,453
3.40833,453
3.41667,454
3.42500,455
3.43333,456
3.44167,457
3.45000,457
3.45833,459
3.46667,460
3.47500,461
3.48333,462
3.49167,463
3.50000,464
3.50833,464
3.51667,465
3.52500,466
3.53333,467
3.54167,468
3.55000,469
3.55833,470
3.56667,471
3.57500,472
3.58333,473
3.59167,474
3.60000,475
3.60833,475
3.61667,476
3.62500,477
3.63333,477
3.64167,478
3.65000,480
3.65833,481
3.66667,482
3.67500,483
3.68333,484
3.69167,485
3.70000,486
3.70833,487
3.71667,488
3.72500,489
3.73333,490
3.74167,491
3.75000,493
3.75833,494
3.76667,495
3.77500,496
3.78333,497
3.79167,499
3.80000,500
3.80833,501
3.81667,502
3.82500,503
3.83333,505
3.84167,506
3.85000,507
3.85833,508
3.86667,509
3.87500,510
3.88333,512
3.89167,513
3.90000,514
3.90833,515
3.91667,517
3.92500,518
3.93333,519
3.94167,521
3.95000,523
3.95833,524
3.96667,525
3.97500,526
3.98333,527
3.99167,529
4.00000,530
4.00833,530
4.01667,531
4.02500,532
4.03333,533
4.04167,535
4.05000,536
4.05833,537
4.06667,538
4.07500,539
4.08333,540
4.09167,541
4.10000,542
4.10833,542
4.11667,543
4.12500,543
4.13333,544
4.14167,544
4.15000,545
4.15833,546
4.16667,546
4.17500,547
4.18333,547
4.19167,547
4.20000,548
4.20833,548
4.21667,549
4.22500,549
4.23333,550
4.24167,550
4.25000,550
4.25833,550
4.26667,550
4.27500,551
4.28333,551
4.29167,550
4.30000,551
4.30833,551
4.31667,551
4.32500,551
4.33333,551
4.34167,551
4.35000,551
4.35833,551
4.36667,552
4.37500,552
4.38333,552
4.39167,553
4.40000,553
4.40833,552
4.41667,553
4.42500,553
4.43333,553
4.44167,553
4.45000,553
4.45833,553
4.46667,553
4.47500,554
4.48333,554
4.49167,554
4.50000,553
4.50833,553
4.51667,553
4.52500,553
4.53333,554
4.54167,554
4.55000,554
4.55833,554
4.56667,554
4.57500,554
4.58333,554
4.59167,554
4.60000,554
4.60833,554
4.61667,554
4.62500,554
4.63333,554
4.64167,554
4.65000,554
4.65833,554
4.66667,554
4.67500,554
4.68333,554
4.69167,554
4.70000,554
4.70833,554
4.71667,554
4.72500,554
4.73333,554
4.74167,554
4.75000,554
4.75833,554
4.76667,554
4.77500,554
4.78333,554
4.79167,555
4.80000,555
4.80833,555
4.81667,555
4.82500,555
4.83333,555
4.84167,556
4.85000,556
4.85833,556
4.86667,557
4.87500,557
4.88333,558
4.89167,558
4.90000,558
4.90833,559
4.91667,559
4.92500,560
4.93333,561
4.94167,561
4.95000,562
4.95833,562
4.96667,563
4.97500,563
4.98333,564
4.99167,564
5.00000,565
5.00833,565
5.01667,566
5.02500,567
5.03333,568
5.04167,568
5.05000,569
5.05833,569
5.06667,570
5.07500,570
5.08333,570
5.09167,571
5.10000,571
5.10833,572
5.11667,572
5.12500,573
5.13333,574
5.14167,575
5.15000,576
5.15833,577
5.16667,577
5.17500,578
5.18333,578
5.19167,579
5.20000,580
5.20833,580
5.21667,581
5.22500,582
5.23333,583
5.24167,583
5.25000,584
5.25833,585
5.26667,585
5.27500,586
5.28333,587
5.29167,587
5.30000,587
5.30833,588
5.31667,588
5.32500,589
5.33333,590
5.34167,591
5.35000,591
5.35833,592
5.36667,592
5.37500,593
5.38333,593
5.39167,593
5.40000,594
5.40833,594
5.41667,594
5.42500,595
5.43333,595
5.44167,595
5.45000,596
5.45833,596
5.46667,597
5.47500,597
5.48333,598
5.49167,598
5.50000,598
5.50833,599
5.51667,599
5.52500,599
5.53333,600
5.54167,600
5.55000,600
5.55833,600
5.56667,601
5.57500,601
5.58333,601
5.59167,602
5.60000,603
5.60833,603
5.61667,603
5.62500,604
5.63333,604
5.64167,604
5.65000,604
5.65833,604
5.66667,604
5.67500,605
5.68333,605
5.69167,605
5.70000,605
5.70833,605
5.71667,605
5.72500,605
5.73333,605
5.74167,605
5.75000,605
5.75833,605
5.76667,606
5.77500,606
5.78333,606
5.79167,606
5.80000,606
5.80833,606
5.81667,607
5.82500,607
5.83333,607
5.84167,607
5.85000,607
5.85833,607
5.86667,607
5.87500,607
5.88333,607
5.89167,607
5.90000,607
5.90833,608
5.91667,608
5.92500,608
5.93333,608
5.94167,608
5.95000,608
5.95833,609
5.96667,609
5.97500,609
5.98333,609
5.99167,609
6.00000,610
6.00833,610
6.01667,611
6.02500,612
6.03333,612
6.04167,613
6.05000,614
6.05833,614
6.06667,615
6.07500,615
6.08333,616
6.09167,616
6.10000,616
6.10833,617
6.11667,617
6.12500,617
6.13333,617
6.14167,617
6.15000,617
6.15833,618
6.16667,618
6.17500,618
6.18333,619
6.19167,619
6.20000,619
6.20833,619
6.21667,620
6.22500,620
6.23333,620
6.24167,620
6.25000,620
6.25833,620
6.26667,621
6.27500,621
6.28333,622
6.29167,622
6.30000,622
6.30833,622
6.31667,623
6.32500,623
6.33333,624
6.34167,624
6.35000,625
6.35833,625
6.36667,626
6.37500,627
6.38333,627
6.39167,628
6.40000,628
6.40833,629
6.41667,630
6.42500,631
6.43333,631
6.44167,632
6.45000,632
6.45833,633
6.46667,634
6.47500,634
6.48333,635
6.49167,635
6.50000,636
6.50833,637
6.51667,638
6.52500,639
6.53333,640
6.54167,642
6.55000,643
6.55833,644
6.56667,645
6.57500,646
6.58333,647
6.59167,648
6.60000,649
6.60833,650
6.61667,651
6.62500,653
6.63333,654
6.64167,655
6.65000,656
6.65833,657
6.66667,658
6.67500,659
6.68333,660
6.69167,661
6.70000,663
6.70833,664
6.71667,666
6.72500,668
6.73333,669
6.74167,670
6.75000,672
6.75833,673
6.76667,675
6.77500,676
6.78333,678
6.79167,679
6.80000,681
6.80833,682
6.81667,684
6.82500,685
6.83333,687
6.84167,688
6.85000,690
6.85833,692
6.86667,694
6.87500,695
6.88333,696
6.89167,698
6.90000,699
6.90833,700
6.91667,701
6.92500,702
6.93333,703
6.94167,704
6.95000,705
6.95833,706
6.96667,708
6.97500,709
6.98333,711
6.99167,713
7.00000,714
7.00833,715
7.01667,717
7.02500,718
7.03333,719
7.04167,720
7.05000,721
7.05833,722
7.06667,723
7.07500,724
7.08333,724
7.09167,725
7.10000,726
7.10833,727
7.11667,728
7.12500,729
7.13333,729
7.14167,730
7.15000,730
7.15833,730
7.16667,730
7.17500,731
7.18333,731
7.19167,731
7.20000,732
7.20833,732
7.21667,732
7.22500,732
7.23333,732
7.24167,732
7.25000,732
7.25833,732
7.26667,731
7.27500,730
7.28333,730
7.29167,730
7.30000,729
7.30833,728
7.31667,727
7.32500,727
7.33333,726
7.34167,725
7.35000,725
7.35833,724
7.36667,722
7.37500,721
7.38333,720
7.39167,719
7.40000,718
7.40833,717
7.41667,715
7.42500,713
7.43333,712
7.44167,710
7.45000,709
7.45833,707
7.46667,706
7.47500,704
7.48333,702
7.49167,700
7.50000,698
7.50833,697
7.51667,695
7.52500,694
7.53333,692
7.54167,690
7.55000,689
7.55833,688
7.56667,686
7.57500,685
7.58333,684
7.59167,682
7.60000,681
7.60833,679
7.61667,678
7.62500,677
7.63333,676
7.64167,675
7.65000,673
7.65833,672
7.66667,671
7.67500,670
7.68333,669
7.69167,668
7.70000,666
7.70833,665
7.71667,663
7.72500,663
7.73333,662
7.74167,661
7.75000,660
7.75833,659
7.76667,658
7.77500,657
7.78333,656
7.79167,654
7.80000,653
7.80833,652
7.81667,651
7.82500,650
7.83333,649
7.84167,649
7.85000,648
7.85833,647
7.86667,646
7.87500,645
7.88333,644
7.89167,643
7.90000,642
7.90833,641
7.91667,641
7.92500,640
7.93333,639
7.94167,638
7.95000,638
7.95833,637
7.96667,636
7.97500,636
7.98333,635
7.99167,635
8.00000,634
8.00833,633
8.01667,633
8.02500,632
8.03333,631
8.04167,631
8.05000,630
8.05833,630
8.06667,630
8.07500,629
8.08333,629
8.09167,629
8.10000,629
8.10833,630
8.11667,630
8.12500,629
8.13333,629
8.14167,629
8.15000,629
8.15833,629
8.16667,628
8.17500,628
8.18333,629
8.19167,629
8.20000,629
8.20833,629
8.21667,629
8.22500,629
8.23333,629
8.24167,629
8.25000,629
8.25833,630
8.26667,630
8.27500,630
8.28333,630
8.29167,630
8.30000,630
8.30833,630
8.31667,630
8.32500,630
8.33333,630
8.34167,630
8.35000,630
8.35833,630
8.36667,630
8.37500,631
8.38333,631
8.39167,631
8.40000,630
8.40833,630
8.41667,630
8.42500,630
8.43333,630
8.44167,630
8.45000,630
8.45833,630
8.46667,630
8.47500,630
8.48333,631
8.49167,631
8.50000,631
8.50833,631
8.51667,632
8.52500,632
8.53333,632
8.54167,632
8.55000,633
8.55833,633
8.56667,634
8.57500,634
8.58333,635
8.59167,636
8.60000,636
8.60833,637
8.61667,637
8.62500,638
8.63333,639
8.64167,639
8.65000,640
8.65833,641
8.66667,642
8.67500,642
8.68333,643
8.69167,644
8.70000,645
8.70833,646
8.71667,646
8.72500,647
8.73333,647
8.74167,648
8.75000,649
8.75833,650
8.76667,650
8.77500,651
8.78333,651
8.79167,651
8.80000,651
8.80833,652
8.81667,652
8.82500,653
8.83333,653
8.84167,653
8.85000,653
8.85833,653
8.86667,653
8.87500,654
8.88333,654
8.89167,655
8.90000,655
8.90833,655
8.91667,655
8.92500,655
8.93333,655
8.94167,655
8.95000,654
8.95833,654
8.96667,653
8.97500,652
8.98333,652
8.99167,651
9.00000,650
9.00833,649
9.01667,648
9.02500,648
9.03333,647
9.04167,646
9.05000,646
9.05833,645
9.06667,645
9.07500,644
9.08333,643
9.09167,642
9.10000,642
9.10833,641
9.11667,641
9.12500,640
9.13333,640
9.14167,639
9.15000,638
9.15833,637
9.16667,636
9.17500,636
9.18333,635
9.19167,635
9.20000,635
9.20833,635
9.21667,634
9.22500,634
9.23333,634
9.24167,633
9.25000,632
9.25833,631
9.26667,631
9.27500,631
9.28333,630
9.29167,630
9.30000,630
9.30833,629
9.31667,629
9.32500,629
9.33333,629
9.34167,628
9.35000,628
9.35833,628
9.36667,627
9.37500,627
9.38333,627
9.39167,627
9.40000,627
9.40833,627
9.41667,627
9.42500,627
9.43333,627
9.44167,628
9.45000,628
9.45833,628
9.46667,627
9.47500,627
9.48333,627
9.49167,627
9.50000,627
9.50833,627
9.51667,628
9.52500,628
9.53333,628
9.54167,628
9.55000,629
9.55833,629
9.56667,629
9.57500,629
9.58333,630
9.59167,630
9.60000,630
9.60833,630
9.61667,631
9.62500,631
9.63333,631
9.64167,632
9.65000,632
9.65833,633
9.66667,633
9.67500,633
9.68333,633
9.69167,634
9.70000,634
9.70833,634
9.71667,635
9.72500,635
9.73333,636
9.74167,636
9.75000,636
9.75833,636
9.76667,636
9.77500,636
9.78333,637
9.79167,637
9.80000,638
9.80833,638
9.81667,638
9.82500,638
9.83333,639
9.84167,639
9.85000,639
9.85833,639
9.86667,639
9.87500,639
9.88333,639
9.89167,639
9.90000,639
9.90833,640
9.91667,640
9.92500,639
9.93333,639
9.94167,640
9.95000,640
9.95833,639
9.96667,639
9.97500,639
9.98333,639
9.99167,639
10.00000,639
10.00833,639
10.01667,639
10.02500,639
10.03333,640
10.04167,640
10.05000,640
10.05833,641
10.06667,641
10.07500,641
10.08333,641
10.09167,642
10.10000,642
10.10833,642
10.11667,642
10.12500,642
10.13333,642
10.14167,642
10.15000,642
10.15833,643
10.16667,643
10.17500,643
10.18333,644
10.19167,644
10.20000,644
10.20833,645
10.21667,645
10.22500,646
10.23333,646
10.24167,646
10.25000,646
10.25833,646
10.26667,646
10.27500,647
10.28333,647
10.29167,648
10.30000,648
10.30833,649
10.31667,649
10.32500,649
10.33333,649
10.34167,649
10.35000,649
10.35833,648
10.36667,648
10.37500,648
10.38333,648
10.39167,647
10.40000,647
10.40833,646
10.41667,644
10.42500,642
10.43333,640
10.44167,637
10.45000,634
10.45833,628
10.46667,622
10.47500,614
10.48333,603
10.49167,591
10.50000,575
10.50833,557
10.51667,535
10.52500,509
10.53333,479
10.54167,445
10.55000,407
10.55833,366
10.56667,324
10.57500,280
10.58333,237
10.59167,197
10.60000,163
10.60833,135
10.61667,119
10.62500,116
10.63333,129
10.64167,163
10.65000,220
10.65833,303
10.66667,414
10.67500,556
10.68333,730
10.69167,936
10.70000,1177
10.70833,1451
10.71667,1757
10.72500,2093
10.73333,2457
10.74167,2845
10.75000,3253
10.75833,3677
10.76667,4111
10.77500,4548
10.78333,4984
10.79167,5411
10.80000,5822
10.80833,6211
10.81667,6573
10.82500,6902
10.83333,7191
10.84167,7436
10.85000,7635
10.85833,7783
10.86667,7880
10.87500,7924
10.88333,7917
10.89167,7859
10.90000,7755
10.90833,7606
10.91667,7417
10.92500,7193
10.93333,6938
10.94167,6658
10.95000,6358
10.95833,6042
10.96667,5718
10.97500,5388
10.98333,5057
10.99167,4729
11.00000,4408
11.00833,4096
11.01667,3796
11.02500,3510
11.03333,3239
11.04167,2984
11.05000,2746
11.05833,2525
11.06667,2322
11.07500,2135
11.08333,1965
11.09167,1810
11.10000,1670
11.10833,1545
11.11667,1432
11.12500,1332
11.13333,1242
11.14167,1163
11.15000,1094
11.15833,1033
11.16667,980
11.17500,934
11.18333,893
11.19167,859
11.20000,828
11.20833,802
11.21667,780
11.22500,761
11.23333,744
11.24167,730
11.25000,718
11.25833,707
11.26667,698
11.27500,690
11.28333,684
11.29167,678
11.30000,673
11.30833,669
11.31667,666
11.32500,663
11.33333,660
11.34167,658
11.35000,656
11.35833,654
11.36667,653
11.37500,651
11.38333,650
11.39167,650
11.40000,648
11.40833,647
11.41667,647
11.42500,646
11.43333,645
11.44167,645
11.45000,644
11.45833,643
11.46667,643
11.47500,642
11.48333,642
11.49167,642
11.50000,642
11.50833,642
11.51667,641
11.52500,641
11.53333,640
11.54167,640
11.55000,639
11.55833,639
11.56667,638
11.57500,638
11.58333,637
11.59167,636
11.60000,635
11.60833,634
11.61667,633
11.62500,632
11.63333,631
11.64167,630
11.65000,629
11.65833,628
11.66667,627
11.67500,626
11.68333,625
11.69167,624
11.70000,622
11.70833,621
11.71667,620
11.72500,620
11.73333,619
11.74167,618
11.75000,617
11.75833,616
11.76667,615
11.77500,614
11.78333,613
11.79167,612
11.80000,612
11.80833,611
11.81667,610
11.82500,610
11.83333,610
11.84167,610
11.85000,609
11.85833,609
11.86667,610
11.87500,610
11.88333,611
11.89167,611
11.90000,612
11.90833,612
11.91667,613
11.92500,614
11.93333,615
11.94167,616
11.95000,617
11.95833,618
11.96667,620
11.97500,621
11.98333,623
11.99167,624
12.00000,626
12.00833,627
12.01667,628
12.02500,629
12.03333,630
12.04167,631
12.05000,633
12.05833,634
12.06667,635
12.07500,637
12.08333,638
12.09167,639
12.10000,640
12.10833,641
12.11667,642
12.12500,643
12.13333,645
12.14167,646
12.15000,647
12.15833,647
12.16667,648
12.17500,648
12.18333,649
12.19167,649
12.20000,650
12.20833,650
12.21667,650
12.22500,651
12.23333,651
12.24167,651
12.25000,651
12.25833,651
12.26667,651
12.27500,651
12.28333,651
12.29167,651
12.30000,651
12.30833,650
12.31667,650
12.32500,650
12.33333,650
12.34167,650
12.35000,649
12.35833,649
12.36667,648
12.37500,648
12.38333,648
12.39167,647
12.40000,647
12.40833,646
12.41667,646
12.42500,646
12.43333,646
12.44167,646
12.45000,646
12.45833,646
12.46667,646
12.47500,646
12.48333,646
12.49167,646
12.50000,646
12.50833,646
12.51667,647
12.52500,647
12.53333,648
12.54167,649
12.55000,650
12.55833,652
12.56667,653
12.57500,654
12.58333,656
12.59167,657
12.60000,660
12.60833,662
12.61667,666
12.62500,670
12.63333,675
12.64167,681
12.65000,689
12.65833,698
12.66667,708
12.67500,721
12.68333,736
12.69167,753
12.70000,772
12.70833,795
12.71667,822
12.72500,853
12.73333,888
12.74167,928
12.75000,973
12.75833,1024
12.76667,1081
12.77500,1143
12.78333,1213
12.79167,1288
12.80000,1371
12.80833,1461
12.81667,1558
12.82500,1662
12.83333,1773
12.84167,1892
12.85000,2017
12.85833,2149
12.86667,2288
12.87500,2434
12.88333,2587
12.89167,2746
12.90000,2911
12.90833,3083
12.91667,3259
12.92500,3442
12.93333,3630
12.94167,3824
12.95000,4022
12.95833,4225
12.96667,4432
12.97500,4644
12.98333,4860
12.99167,5080
13.00000,5304
13.00833,5532
13.01667,5763
13.02500,5997
13.03333,6235
13.04167,6477
13.05000,6721
13.05833,6969
13.06667,7219
13.07500,7472
13.08333,7727
13.09167,7985
13.10000,8246
13.10833,8509
13.11667,8774
13.12500,9042
13.13333,9313
13.14167,9585
13.15000,9860
13.15833,10137
13.16667,10416
13.17500,10697
13.18333,10981
13.19167,11266
13.20000,11553
13.20833,11843
13.21667,12134
13.22500,12427
13.23333,12721
13.24167,13017
13.25000,13315
13.25833,13614
13.26667,13915
13.27500,14217
13.28333,14520
13.29167,14824
13.30000,15128
13.30833,15432
13.31667,15735
13.32500,16036
13.33333,16333
13.34167,16623
13.35000,16903
13.35833,17166
13.36667,17406
13.37500,17612
13.38333,17773
13.39167,17877
13.40000,17910
13.40833,17858
13.41667,17709
13.42500,17454
13.43333,17087
13.44167,16607
13.45000,16019
13.45833,15331
13.46667,14558
13.47500,13717
13.48333,12828
13.49167,11909
13.50000,10982
13.50833,10065
13.51667,9173
13.52500,8319
13.53333,7514
13.54167,6765
13.55000,6075
13.55833,5447
13.56667,4880
13.57500,4371
13.58333,3919
13.59167,3518
13.60000,3165
13.60833,2856
13.61667,2586
13.62500,2350
13.63333,2145
13.64167,1968
13.65000,1814
13.65833,1681
13.66667,1566
13.67500,1466
13.68333,1380
13.69167,1306
13.70000,1241
13.70833,1185
13.71667,1136
13.72500,1093
13.73333,1055
13.74167,1023
13.75000,994
13.75833,969
13.76667,947
13.77500,927
13.78333,910
13.79167,895
13.80000,881
13.80833,869
13.81667,858
13.82500,848
13.83333,840
13.84167,831
13.85000,824
13.85833,818
13.86667,812
13.87500,807
13.88333,802
13.89167,797
13.90000,793
13.90833,790
13.91667,787
13.92500,784
13.93333,781
13.94167,778
13.95000,775
13.95833,773
13.96667,771
13.97500,769
13.98333,767
13.99167,766
14.00000,764
14.00833,762
14.01667,761
14.02500,759
14.03333,758
14.04167,757
14.05000,756
14.05833,755
14.06667,754
14.07500,753
14.08333,751
14.09167,750
14.10000,749
14.10833,748
14.11667,747
14.12500,746
14.13333,745
14.14167,744
14.15000,743
14.15833,742
14.16667,740
14.17500,739
14.18333,738
14.19167,737
14.20000,736
14.20833,735
14.21667,734
14.22500,734
14.23333,733
14.24167,732
14.25000,731
14.25833,730
14.26667,730
14.27500,729
14.28333,728
14.29167,728
14.30000,727
14.30833,727
14.31667,726
14.32500,726
14.33333,725
14.34167,725
14.35000,724
14.35833,724
14.36667,724
14.37500,723
14.38333,723
14.39167,723
14.40000,722
14.40833,722
14.41667,722
14.42500,721
14.43333,721
14.44167,720
14.45000,720
14.45833,720
14.46667,720
14.47500,720
14.48333,720
14.49167,720
14.50000,720
14.50833,720
14.51667,720
14.52500,720
14.53333,720
14.54167,720
14.55000,720
14.55833,720
14.56667,720
14.57500,720
14.58333,720
14.59167,719
14.60000,719
14.60833,719
14.61667,719
14.62500,719
14.63333,719
14.64167,719
14.65000,719
14.65833,719
14.66667,718
14.67500,718
14.68333,717
14.69167,717
14.70000,716
14.70833,716
14.71667,716
14.72500,716
14.73333,715
14.74167,715
14.75000,715
14.75833,714
14.76667,714
14.77500,713
14.78333,713
14.79167,712
14.80000,711
14.80833,711
14.81667,710
14.82500,710
14.83333,709
14.84167,709
14.85000,708
14.85833,708
14.86667,707
14.87500,707
14.88333,706
14.89167,705
14.90000,705
14.90833,704
14.91667,704
14.92500,703
14.93333,703
14.94167,702
14.95000,701
14.95833,701
14.96667,701
14.97500,700
14.98333,699
14.99167,698
15.00000,697
15.00833,696
15.01667,695
15.02500,694
15.03333,694
15.04167,693
15.05000,692
15.05833,691
15.06667,690
15.07500,688
15.08333,687
15.09167,686
15.10000,684
15.10833,683
15.11667,681
15.12500,680
15.13333,678
15.14167,677
15.15000,675
15.15833,673
15.16667,672
15.17500,671
15.18333,669
15.19167,668
15.20000,666
15.20833,665
15.21667,664
15.22500,662
15.23333,661
15.24167,660
15.25000,659
15.25833,658
15.26667,657
15.27500,657
15.28333,656
15.29167,655
15.30000,655
15.30833,654
15.31667,654
15.32500,653
15.33333,653
15.34167,652
15.35000,652
15.35833,652
15.36667,652
15.37500,652
15.38333,652
15.39167,653
15.40000,653
15.40833,653
15.41667,654
15.42500,654
15.43333,654
15.44167,654
15.45000,654
15.45833,654
15.46667,655
15.47500,655
15.48333,654
15.49167,655
15.50000,655
15.50833,656
15.51667,656
15.52500,656
15.53333,655
15.54167,656
15.55000,656
15.55833,656
15.56667,656
15.57500,656
15.58333,657
15.59167,657
15.60000,658
15.60833,658
15.61667,658
15.62500,658
15.63333,659
15.64167,659
15.65000,660
15.65833,660
15.66667,660
15.67500,661
15.68333,662
15.69167,662
15.70000,662
15.70833,662
15.71667,662
15.72500,662
15.73333,662
15.74167,662
15.75000,662
15.75833,663
15.76667,663
15.77500,664
15.78333,664
15.79167,664
15.80000,665
15.80833,665
15.81667,666
15.82500,667
15.83333,667
15.84167,667
15.85000,667
15.85833,667
15.86667,668
15.87500,668
15.88333,668
15.89167,669
15.90000,669
15.90833,669
15.91667,669
15.92500,668
15.93333,668
15.94167,668
15.95000,668
15.95833,667
15.96667,667
15.97500,667
15.98333,667
15.99167,668
16.00000,668
16.00833,668
16.01667,668
16.02500,668
16.03333,667
16.04167,667
16.05000,667
16.05833,667
16.06667,666
16.07500,666
16.08333,665
16.09167,665
16.10000,665
16.10833,665
16.11667,665
16.12500,664
16.13333,663
16.14167,662
16.15000,662
16.15833,661
16.16667,660
16.17500,661
16.18333,661
16.19167,660
16.20000,660
16.20833,660
16.21667,659
16.22500,658
16.23333,658
16.24167,657
16.25000,657
16.25833,656
16.26667,655
16.27500,654
16.28333,653
16.29167,653
16.30000,653
16.30833,653
16.31667,653
16.32500,652
16.33333,652
16.34167,652
16.35000,652
16.35833,652
16.36667,652
16.37500,652
16.38333,653
16.39167,652
16.40000,652
16.40833,652
16.41667,652
16.42500,652
16.43333,652
16.44167,652
16.45000,652
16.45833,652
16.46667,652
16.47500,652
16.48333,652
16.49167,652
16.50000,652
16.50833,652
16.51667,652
16.52500,652
16.53333,652
16.54167,652
16.55000,651
16.55833,651
16.56667,651
16.57500,651
16.58333,651
16.59167,650
16.60000,650
16.60833,650
16.61667,650
16.62500,650
16.63333,650
16.64167,650
16.65000,650
16.65833,649
16.66667,649
16.67500,648
16.68333,648
16.69167,648
16.70000,648
16.70833,648
16.71667,647
16.72500,647
16.73333,646
16.74167,646
16.75000,646
16.75833,645
16.76667,645
16.77500,645
16.78333,645
16.79167,645
16.80000,645
16.80833,644
16.81667,645
16.82500,645
16.83333,644
16.84167,644
16.85000,644
16.85833,644
16.86667,645
16.87500,645
16.88333,644
16.89167,644
16.90000,644
16.90833,644
16.91667,644
16.92500,645
16.93333,645
16.94167,645
16.95000,645
16.95833,645
16.96667,645
16.97500,645
16.98333,646
16.99167,647
17.00000,647
17.00833,648
17.01667,648
17.02500,648
17.03333,648
17.04167,648
17.05000,648
17.05833,649
17.06667,649
17.07500,650
17.08333,650
17.09167,651
17.10000,652
17.10833,652
17.11667,653
17.12500,653
17.13333,654
17.14167,654
17.15000,654
17.15833,654
17.16667,654
17.17500,654
17.18333,655
17.19167,655
17.20000,655
17.20833,655
17.21667,655
17.22500,656
17.23333,656
17.24167,656
17.25000,657
17.25833,657
17.26667,657
17.27500,657
17.28333,657
17.29167,658
17.30000,658
17.30833,658
17.31667,658
17.32500,658
17.33333,658
17.34167,658
17.35000,657
17.35833,657
17.36667,657
17.37500,657
17.38333,657
17.39167,657
17.40000,657
17.40833,657
17.41667,656
17.42500,656
17.43333,656
17.44167,655
17.45000,655
17.45833,654
17.46667,654
17.47500,654
17.48333,653
17.49167,653
17.50000,653
17.50833,652
17.51667,651
17.52500,651
17.53333,650
17.54167,650
17.55000,650
17.55833,649
17.56667,649
17.57500,648
17.58333,648
17.59167,648
17.60000,647
17.60833,647
17.61667,646
17.62500,646
17.63333,645
17.64167,644
17.65000,644
17.65833,643
17.66667,643
17.67500,643
17.68333,642
17.69167,642
17.70000,642
17.70833,642
17.71667,642
17.72500,641
17.73333,641
17.74167,641
17.75000,640
17.75833,640
17.76667,640
17.77500,640
17.78333,639
17.79167,639
17.80000,640
17.80833,640
17.81667,641
17.82500,641
17.83333,641
17.84167,641
17.85000,642
17.85833,642
17.86667,642
17.87500,642
17.88333,643
17.89167,643
17.90000,644
17.90833,644
17.91667,645
17.92500,645
17.93333,646
17.94167,647
17.95000,647
17.95833,648
17.96667,648
17.97500,648
17.98333,649
17.99167,649
18.00000,650
18.00833,650
18.01667,651
18.02500,652
18.03333,652
18.04167,652
18.05000,653
18.05833,654
18.06667,654
18.07500,655
18.08333,655
18.09167,655
18.10000,655
18.10833,655
18.11667,655
18.12500,655
18.13333,655
18.14167,655
18.15000,655
18.15833,655
18.16667,655
18.17500,655
18.18333,655
18.19167,655
18.20000,655
18.20833,655
18.21667,655
18.22500,655
18.23333,655
18.24167,655
18.25000,655
18.25833,655
18.26667,655
18.27500,655
18.28333,656
18.29167,656
18.30000,656
18.30833,656
18.31667,656
18.32500,656
18.33333,656
18.34167,656
18.35000,656
18.35833,656
18.36667,657
18.37500,658
18.38333,658
18.39167,658
18.40000,658
18.40833,658
18.41667,658
18.42500,658
18.43333,658
18.44167,659
18.45000,659
18.45833,659
18.46667,659
18.47500,659
18.48333,659
18.49167,659
18.50000,659
18.50833,659
18.51667,659
18.52500,659
18.53333,659
18.54167,659
18.55000,659
18.55833,659
18.56667,659
18.57500,659
18.58333,659
18.59167,659
18.60000,658
18.60833,658
18.61667,658
18.62500,658
18.63333,659
18.64167,659
18.65000,659
18.65833,660
18.66667,661
18.67500,661
18.68333,662
18.69167,663
18.70000,663
18.70833,663
18.71667,663
18.72500,664
18.73333,665
18.74167,665
18.75000,666
18.75833,667
18.76667,667
18.77500,668
18.78333,668
18.79167,669
18.80000,669
18.80833,670
18.81667,670
18.82500,671
18.83333,672
18.84167,672
18.85000,672
18.85833,673
18.86667,673
18.87500,673
18.88333,672
18.89167,672
18.90000,671
18.90833,670
18.91667,670
18.92500,669
18.93333,669
18.94167,669
18.95000,668
18.95833,667
18.96667,666
18.97500,665
18.98333,664
18.99167,663
19.00000,662
19.00833,661
19.01667,659
19.02500,658
19.03333,657
19.04167,656
19.05000,655
19.05833,654
19.06667,653
19.07500,651
19.08333,650
19.09167,649
19.10000,647
19.10833,646
19.11667,645
19.12500,644
19.13333,644
19.14167,643
19.15000,642
19.15833,642
19.16667,641
19.17500,640
19.18333,639
19.19167,639
19.20000,638
19.20833,638
19.21667,637
19.22500,637
19.23333,636
19.24167,636
19.25000,636
19.25833,635
19.26667,635
19.27500,635
19.28333,636
19.29167,636
19.30000,636
19.30833,635
19.31667,636
19.32500,636
19.33333,636
19.34167,636
19.35000,636
19.35833,637
19.36667,637
19.37500,638
19.38333,639
19.39167,639
19.40000,640
19.40833,641
19.41667,642
19.42500,643
19.43333,643
19.44167,644
19.45000,645
19.45833,646
19.46667,647
19.47500,648
19.48333,649
19.49167,650
19.50000,651
19.50833,653
19.51667,654
19.52500,655
19.53333,655
19.54167,656
19.55000,657
19.55833,658
19.56667,660
19.57500,661
19.58333,662
19.59167,662
19.60000,663
19.60833,664
19.61667,665
19.62500,666
19.63333,667
19.64167,668
19.65000,669
19.65833,670
19.66667,671
19.67500,672
19.68333,672
19.69167,673
19.70000,674
19.70833,674
19.71667,675
19.72500,675
19.73333,676
19.74167,677
19.75000,678
19.75833,679
19.76667,680
19.77500,681
19.78333,681
19.79167,682
19.80000,682
19.80833,682
19.81667,682
19.82500,682
19.83333,682
19.84167,682
19.85000,682
19.85833,682
19.86667,683
19.87500,683
19.88333,683
19.89167,683
19.90000,683
19.90833,682
19.91667,682
19.92500,682
19.93333,682
19.94167,681
19.95000,680
19.95833,680
19.96667,679
19.97500,679
19.98333,678
19.99167,677
20.00000,676
20.00833,675
20.01667,674
20.02500,673
20.03333,673
20.04167,672
20.05000,671
20.05833,670
20.06667,670
20.07500,669
20.08333,668
20.09167,667
20.10000,666
20.10833,665
20.11667,665
20.12500,664
20.13333,663
20.14167,661
20.15000,660
20.15833,659
20.16667,658
20.17500,657
20.18333,657
20.19167,656
20.20000,655
20.20833,655
20.21667,654
20.22500,653
20.23333,652
20.24167,651
20.25000,651
20.25833,650
20.26667,649
20.27500,649
20.28333,649
20.29167,648
20.30000,648
20.30833,648
20.31667,648
20.32500,647
20.33333,647
20.34167,647
20.35000,646
20.35833,646
20.36667,645
20.37500,645
20.38333,645
20.39167,645
20.40000,645
20.40833,645
20.41667,644
20.42500,644
20.43333,644
20.44167,644
20.45000,644
20.45833,643
20.46667,643
20.47500,643
20.48333,643
20.49167,642
20.50000,642
20.50833,642
20.51667,641
20.52500,641
20.53333,640
20.54167,640
20.55000,639
20.55833,639
20.56667,638
20.57500,638
20.58333,637
20.59167,637
20.60000,636
20.60833,636
20.61667,636
20.62500,636
20.63333,635
20.64167,634
20.65000,634
20.65833,633
20.66667,632
20.67500,632
20.68333,631
20.69167,631
20.70000,631
20.70833,630
20.71667,629
20.72500,629
20.73333,628
20.74167,628
20.75000,628
20.75833,628
20.76667,628
20.77500,628
20.78333,627
20.79167,627
20.80000,627
20.80833,627
20.81667,627
20.82500,627
20.83333,627
20.84167,627
20.85000,626
20.85833,626
20.86667,626
20.87500,626
20.88333,626
20.89167,626
20.90000,626
20.90833,626
20.91667,626
20.92500,626
20.93333,626
20.94167,627
20.95000,627
20.95833,627
20.96667,627
20.97500,628
20.98333,628
20.99167,628
21.00000,629
21.00833,629
21.01667,629
21.02500,629
21.03333,629
21.04167,629
21.05000,629
21.05833,630
21.06667,630
21.07500,631
21.08333,631
21.09167,632
21.10000,632
21.10833,632
21.11667,633
21.12500,633
21.13333,634
21.14167,635
21.15000,636
21.15833,637
21.16667,637
21.17500,638
21.18333,638
21.19167,639
21.20000,639
21.20833,639
21.21667,640
21.22500,641
21.23333,641
21.24167,642
21.25000,642
21.25833,643
21.26667,644
21.27500,645
21.28333,646
21.29167,647
21.30000,648
21.30833,649
21.31667,649
21.32500,650
21.33333,650
21.34167,651
21.35000,651
21.35833,652
21.36667,652
21.37500,653
21.38333,654
21.39167,654
21.40000,654
21.40833,655
21.41667,655
21.42500,655
21.43333,655
21.44167,656
21.45000,656
21.45833,656
21.46667,656
21.47500,656
21.48333,657
21.49167,657
21.50000,658
21.50833,658
21.51667,658
21.52500,658
21.53333,658
21.54167,658
21.55000,658
21.55833,657
21.56667,657
21.57500,657
21.58333,657
21.59167,657
21.60000,657
21.60833,657
21.61667,657
21.62500,657
21.63333,657
21.64167,656
21.65000,657
21.65833,657
21.66667,657
21.67500,657
21.68333,656
21.69167,655
21.70000,655
21.70833,654
21.71667,654
21.72500,654
21.73333,654
21.74167,653
21.75000,653
21.75833,653
21.76667,652
21.77500,652
21.78333,652
21.79167,652
21.80000,652
21.80833,652
21.81667,652
21.82500,652
21.83333,652
21.84167,652
21.85000,652
21.85833,652
21.86667,652
21.87500,651
21.88333,651
21.89167,651
21.90000,652
21.90833,652
21.91667,652
21.92500,653
21.93333,653
21.94167,653
21.95000,653
21.95833,654
21.96667,654
21.97500,654
21.98333,654
21.99167,654
22.00000,655
22.00833,656
22.01667,656
22.02500,657
22.03333,657
22.04167,657
22.05000,657
22.05833,657
22.06667,657
22.07500,657
22.08333,657
22.09167,657
22.10000,657
22.10833,657
22.11667,658
22.12500,657
22.13333,657
22.14167,657
22.15000,657
22.15833,657
22.16667,657
22.17500,656
22.18333,655
22.19167,655
22.20000,655
22.20833,655
22.21667,654
22.22500,654
22.23333,653
22.24167,652
22.25000,652
22.25833,651
22.26667,651
22.27500,650
22.28333,649
22.29167,648
22.30000,648
22.30833,647
22.31667,646
22.32500,645
22.33333,644
22.34167,643
22.35000,642
22.35833,642
22.36667,641
22.37500,640
22.38333,640
22.39167,639
22.40000,638
22.40833,638
22.41667,637
22.42500,636
22.43333,635
22.44167,635
22.45000,634
22.45833,634
22.46667,633
22.47500,633
22.48333,632
22.49167,631
22.50000,631
22.50833,631
22.51667,631
22.52500,631
22.53333,630
22.54167,631
22.55000,631
22.55833,630
22.56667,630
22.57500,630
22.58333,630
22.59167,630
22.60000,630
22.60833,630
22.61667,630
22.62500,630
22.63333,630
22.64167,631
22.65000,631
22.65833,631
22.66667,631
22.67500,632
22.68333,632
22.69167,632
22.70000,632
22.70833,632
22.71667,632
22.72500,633
22.73333,633
22.74167,633
22.75000,633
22.75833,634
22.76667,634
22.77500,635
22.78333,635
22.79167,635
22.80000,635
22.80833,636
22.81667,636
22.82500,636
22.83333,637
22.84167,638
22.85000,638
22.85833,638
22.86667,639
22.87500,639
22.88333,640
22.89167,640
22.90000,640
22.90833,641
22.91667,641
22.92500,641
22.93333,642
22.94167,643
22.95000,643
22.95833,644
22.96667,644
22.97500,645
22.98333,646
22.99167,646
23.00000,647
23.00833,648
23.01667,649
23.02500,650
23.03333,651
23.04167,652
23.05000,654
23.05833,655
23.06667,656
23.07500,657
23.08333,658
23.09167,659
23.10000,660
23.10833,662
23.11667,663
23.12500,664
23.13333,665
23.14167,666
23.15000,667
23.15833,668
23.16667,669
23.17500,670
23.18333,671
23.19167,672
23.20000,673
23.20833,674
23.21667,675
23.22500,676
23.23333,677
23.24167,678
23.25000,679
23.25833,679
23.26667,680
23.27500,680
23.28333,681
23.29167,682
23.30000,682
23.30833,683
23.31667,683
23.32500,683
23.33333,684
23.34167,684
23.35000,684
23.35833,684
23.36667,684
23.37500,684
23.38333,684
23.39167,684
23.40000,683
23.40833,683
23.41667,683
23.42500,683
23.43333,682
23.44167,682
23.45000,681
23.45833,681
23.46667,680
23.47500,679
23.48333,678
23.49167,677
23.50000,676
23.50833,675
23.51667,675
23.52500,674
23.53333,673
23.54167,673
23.55000,671
23.55833,670
23.56667,669
23.57500,668
23.58333,667
23.59167,666
23.60000,665
23.60833,664
23.61667,663
23.62500,662
23.63333,661
23.64167,660
23.65000,660
23.65833,659
23.66667,658
23.67500,657
23.68333,656
23.69167,655
23.70000,655
23.70833,654
23.71667,654
23.72500,653
23.73333,653
23.74167,652
23.75000,651
23.75833,651
23.76667,650
23.77500,650
23.78333,649
23.79167,649
23.80000,648
23.80833,648
23.81667,647
23.82500,647
23.83333,647
23.84167,646
23.85000,646
23.85833,645
23.86667,645
23.87500,645
23.88333,645
23.89167,645
23.90000,644
23.90833,644
23.91667,644
23.92500,644
23.93333,644
23.94167,643
23.95000,643
23.95833,644
23.96667,644
23.97500,644
23.98333,644
23.99167,644
24.00000,645
24.00833,645
24.01667,645
24.02500,645
24.03333,646
24.04167,646
24.05000,646
24.05833,646
24.06667,646
24.07500,647
24.08333,647
24.09167,647
24.10000,647
24.10833,647
24.11667,647
24.12500,647
24.13333,648
24.14167,648
24.15000,648
24.15833,648
24.16667,648
24.17500,649
24.18333,649
24.19167,649
24.20000,650
24.20833,651
24.21667,651
24.22500,652
24.23333,652
24.24167,653
24.25000,654
24.25833,655
24.26667,656
24.27500,657
24.28333,659
24.29167,660
24.30000,661
24.30833,663
24.31667,665
24.32500,667
24.33333,669
24.34167,671
24.35000,673
24.35833,675
24.36667,678
24.37500,681
24.38333,684
24.39167,687
24.40000,691
24.40833,695
24.41667,699
24.42500,704
24.43333,709
24.44167,714
24.45000,720
24.45833,726
24.46667,733
24.47500,741
24.48333,750
24.49167,758
24.50000,768
24.50833,778
24.51667,789
24.52500,801
24.53333,814
24.54167,828
24.55000,843
24.55833,859
24.56667,876
24.57500,893
24.58333,912
24.59167,932
24.60000,953
24.60833,975
24.61667,998
24.62500,1023
24.63333,1049
24.64167,1076
24.65000,1104
24.65833,1133
24.66667,1163
24.67500,1194
24.68333,1226
24.69167,1259
24.70000,1292
24.70833,1326
24.71667,1360
24.72500,1395
24.73333,1430
24.74167,1465
24.75000,1500
24.75833,1534
24.76667,1568
24.77500,1601
24.78333,1634
24.79167,1666
24.80000,1697
24.80833,1726
24.81667,1754
24.82500,1780
24.83333,1805
24.84167,1827
24.85000,1848
24.85833,1865
24.86667,1881
24.87500,1894
24.88333,1905
24.89167,1913
24.90000,1919
24.90833,1922
24.91667,1923
24.92500,1921
24.93333,1917
24.94167,1910
24.95000,1901
24.95833,1889
24.96667,1875
24.97500,1858
24.98333,1839
24.99167,1819
25.00000,1796
25.00833,1771
25.01667,1745
25.02500,1718
25.03333,1689
25.04167,1659
25.05000,1628
25.05833,1596
25.06667,1563
25.07500,1530
25.08333,1497
25.09167,1464
25.10000,1430
25.10833,1396
25.11667,1363
25.12500,1330
25.13333,1297
25.14167,1265
25.15000,1234
25.15833,1204
25.16667,1174
25.17500,1146
25.18333,1118
25.19167,1091
25.20000,1065
25.20833,1041
25.21667,1017
25.22500,995
25.23333,973
25.24167,952
25.25000,932
25.25833,914
25.26667,896
25.27500,880
25.28333,864
25.29167,849
25.30000,835
25.30833,822
25.31667,810
25.32500,799
25.33333,788
25.34167,778
25.35000,769
25.35833,761
25.36667,753
25.37500,746
25.38333,739
25.39167,733
25.40000,728
25.40833,723
25.41667,718
25.42500,714
25.43333,710
25.44167,707
25.45000,703
25.45833,700
25.46667,698
25.47500,695
25.48333,693
25.49167,691
25.50000,690
25.50833,689
25.51667,687
25.52500,686
25.53333,685
25.54167,684
25.55000,683
25.55833,682
25.56667,681
25.57500,680
25.58333,679
25.59167,679
25.60000,678
25.60833,678
25.61667,677
25.62500,677
25.63333,677
25.64167,677
25.65000,677
25.65833,676
25.66667,676
25.67500,675
25.68333,674
25.69167,674
25.70000,674
25.70833,674
25.71667,674
25.72500,674
25.73333,673
25.74167,673
25.75000,673
25.75833,673
25.76667,672
25.77500,672
25.78333,672
25.79167,672
25.80000,671
25.80833,671
25.81667,671
25.82500,671
25.83333,670
25.84167,670
25.85000,670
25.85833,669
25.86667,669
25.87500,668
25.88333,668
25.89167,667
25.90000,667
25.90833,666
25.91667,665
25.92500,665
25.93333,665
25.94167,664
25.95000,664
25.95833,664
25.96667,663
25.97500,663
25.98333,662
25.99167,661
26.00000,661
26.00833,661
26.01667,661
26.02500,661
26.03333,660
26.04167,660
26.05000,660
26.05833,660
26.06667,659
26.07500,659
26.08333,659
26.09167,659
26.10000,659
26.10833,658
26.11667,658
26.12500,657
26.13333,656
26.14167,656
26.15000,656
26.15833,656
26.16667,656
26.17500,656
26.18333,655
26.19167,655
26.20000,655
26.20833,655
26.21667,655
26.22500,655
26.23333,655
26.24167,655
26.25000,655
26.25833,655
26.26667,655
26.27500,655
26.28333,654
26.29167,654
26.30000,654
26.30833,654
26.31667,654
26.32500,655
26.33333,655
26.34167,655
26.35000,655
26.35833,655
26.36667,655
26.37500,655
26.38333,656
26.39167,656
26.40000,656
26.40833,657
26.41667,657
26.42500,657
26.43333,657
26.44167,657
26.45000,657
26.45833,657
26.46667,658
26.47500,658
26.48333,659
26.49167,660
26.50000,660
26.50833,660
26.51667,660
26.52500,661
26.53333,661
26.54167,662
26.55000,662
26.55833,662
26.56667,662
26.57500,663
26.58333,663
26.59167,663
26.60000,663
26.60833,663
26.61667,664
26.62500,664
26.63333,664
26.64167,664
26.65000,665
26.65833,665
26.66667,666
26.67500,666
26.68333,666
26.69167,666
26.70000,667
26.70833,667
26.71667,667
26.72500,667
26.73333,668
26.74167,668
26.75000,668
26.75833,668
26.76667,668
26.77500,668
26.78333,669
26.79167,669
26.80000,669
26.80833,669
26.81667,669
26.82500,669
26.83333,669
26.84167,670
26.85000,669
26.85833,669
26.86667,669
26.87500,668
26.88333,668
26.89167,668
26.90000,667
26.90833,667
26.91667,667
26.92500,666
26.93333,666
26.94167,666
26.95000,665
26.95833,665
26.96667,665
26.97500,666
26.98333,666
26.99167,666
27.00000,665
27.00833,665
27.01667,665
27.02500,664
27.03333,664
27.04167,664
27.05000,663
27.05833,663
27.06667,662
27.07500,661
27.08333,661
27.09167,661
27.10000,661
27.10833,661
27.11667,661
27.12500,660
27.13333,660
27.14167,660
27.15000,659
27.15833,659
27.16667,659
27.17500,659
27.18333,659
27.19167,658
27.20000,658
27.20833,658
27.21667,658
27.22500,658
27.23333,657
27.24167,657
27.25000,658
27.25833,657
27.26667,657
27.27500,657
27.28333,657
27.29167,657
27.30000,657
27.30833,657
27.31667,658
27.32500,658
27.33333,658
27.34167,658
27.35000,658
27.35833,658
27.36667,658
27.37500,658
27.38333,658
27.39167,659
27.40000,659
27.40833,660
27.41667,660
27.42500,661
27.43333,661
27.44167,662
27.45000,662
27.45833,663
27.46667,663
27.47500,663
27.48333,664
27.49167,665
27.50000,666
27.50833,666
27.51667,667
27.52500,668
27.53333,668
27.54167,669
27.55000,669
27.55833,670
27.56667,671
27.57500,671
27.58333,672
27.59167,672
27.60000,672
27.60833,673
27.61667,673
27.62500,674
27.63333,674
27.64167,674
27.65000,675
27.65833,675
27.66667,675
27.67500,675
27.68333,676
27.69167,676
27.70000,676
27.70833,676
27.71667,677
27.72500,677
27.73333,677
27.74167,677
27.75000,676
27.75833,676
27.76667,676
27.77500,676
27.78333,676
27.79167,676
27.80000,675
27.80833,675
27.81667,675
27.82500,674
27.83333,673
27.84167,673
27.85000,672
27.85833,671
27.86667,669
27.87500,668
27.88333,667
27.89167,665
27.90000,662
27.90833,660
27.91667,657
27.92500,654
27.93333,652
27.94167,649
27.95000,646
27.95833,642
27.96667,639
27.97500,635
27.98333,631
27.99167,627
28.00000,622
28.00833,617
28.01667,611
28.02500,604
28.03333,598
28.04167,591
28.05000,583
28.05833,575
28.06667,567
28.07500,558
28.08333,549
28.09167,540
28.10000,530
28.10833,520
28.11667,509
28.12500,498
28.13333,487
28.14167,475
28.15000,462
28.15833,448
28.16667,434
28.17500,420
28.18333,405
28.19167,390
28.20000,374
28.20833,358
28.21667,341
28.22500,324
28.23333,306
28.24167,289
28.25000,271
28.25833,252
28.26667,233
28.27500,214
28.28333,195
28.29167,175
28.30000,156
28.30833,136
28.31667,116
28.32500,96
28.33333,77
28.34167,57
28.35000,37
28.35833,17
28.36667,-2
28.37500,-22
28.38333,-41
28.39167,-60
28.40000,-78
28.40833,-96
28.41667,-114
28.42500,-132
28.43333,-149
28.44167,-165
28.45000,-181
28.45833,-197
28.46667,-211
28.47500,-224
28.48333,-238
28.49167,-250
28.50000,-262
28.50833,-273
28.51667,-284
28.52500,-293
28.53333,-302
28.54167,-310
28.55000,-317
28.55833,-323
28.56667,-328
28.57500,-333
28.58333,-337
28.59167,-340
28.60000,-342
28.60833,-344
28.61667,-345
28.62500,-345
28.63333,-345
28.64167,-344
28.65000,-342
28.65833,-339
28.66667,-336
28.67500,-333
28.68333,-329
28.69167,-325
28.70000,-320
28.70833,-315
28.71667,-309
28.72500,-303
28.73333,-297
28.74167,-290
28.75000,-283
28.75833,-275
28.76667,-268
28.77500,-261
28.78333,-253
28.79167,-245
28.80000,-237
28.80833,-229
28.81667,-221
28.82500,-214
28.83333,-206
28.84167,-197
28.85000,-189
28.85833,-180
28.86667,-172
28.87500,-164
28.88333,-156
28.89167,-149
28.90000,-141
28.90833,-134
28.91667,-126
28.92500,-119
28.93333,-113
28.94167,-106
28.95000,-99
28.95833,-93
28.96667,-87
28.97500,-81
28.98333,-75
28.99167,-70
29.00000,-64
29.00833,-59
29.01667,-53
29.02500,-48
29.03333,-43
29.04167,-39
29.05000,-34
29.05833,-29
29.06667,-25
29.07500,-21
29.08333,-16
29.09167,-12
29.10000,-8
29.10833,-4
29.11667,-0
29.12500,3
29.13333,6
29.14167,10
29.15000,14
29.15833,17
29.16667,21
29.17500,24
29.18333,27
29.19167,31
29.20000,34
29.20833,38
29.21667,41
29.22500,44
29.23333,48
29.24167,51
29.25000,54
29.25833,56
29.26667,59
29.27500,62
29.28333,65
29.29167,68
29.30000,71
29.30833,74
29.31667,77
29.32500,81
29.33333,84
29.34167,88
29.35000,91
29.35833,94
29.36667,97
29.37500,101
29.38333,104
29.39167,107
29.40000,110
29.40833,113
29.41667,117
29.42500,120
29.43333,124
29.44167,127
29.45000,130
29.45833,133
29.46667,137
29.47500,140
29.48333,143
29.49167,146
29.50000,149
29.50833,151
29.51667,154
29.52500,157
29.53333,160
29.54167,163
29.55000,166
29.55833,168
29.56667,171
29.57500,173
29.58333,175
29.59167,178
29.60000,180
29.60833,182
29.61667,184
29.62500,186
29.63333,188
29.64167,189
29.65000,190
29.65833,192
29.66667,193
29.67500,195
29.68333,196
29.69167,197
29.70000,198
29.70833,199
29.71667,200
29.72500,200
29.73333,201
29.74167,202
29.75000,201
29.75833,201
29.76667,201
29.77500,200
29.78333,199
29.79167,198
29.80000,197
29.80833,196
29.81667,195
29.82500,194
29.83333,192
29.84167,191
29.85000,189
29.85833,187
29.86667,184
29.87500,182
29.88333,179
29.89167,177
29.90000,174
29.90833,171
29.91667,168
29.92500,165
29.93333,162
29.94167,159
29.95000,155
29.95833,152
29.96667,148
29.97500,144
29.98333,140
29.99167,135
30.00000,130

