[Header]
Application Name,LabSolutions
Version,5.97 SP1
Data File Name,C:\Users\cremerlab\Desktop\griffin\2021-02-15_NCM_diauxie_turnover\2021-02-15_NCM_acetate_glucose_diauxie_turnover_2152021_010.lcd
Output Date,2/16/2021
Output Time,9:07:53 AM

[File Information]
Type,Data File
Generated,2/16/2021 12:58:19 AM
Generated by,System Administrator
Modified,2/16/2021 1:28:38 AM
Modified by,System Administrator

[Sample Information]
Operator Name,System Administrator
Acquired,2/16/2021 12:58:37 AM
Sample Type,0:Unknown
Level,0
Sample Name,10 mM glucose medium 20 uL
Sample ID,001
ISTD Amount1,1
ISTD Amount2,1
ISTD Amount3,1
ISTD Amount4,1
ISTD Amount5,1
ISTD Amount6,1
ISTD Amount7,1
ISTD Amount8,1
ISTD Amount9,1
ISTD Amount10,1
ISTD Amount11,1
ISTD Amount12,1
ISTD Amount13,1
ISTD Amount14,1
ISTD Amount15,1
ISTD Amount16,1
ISTD Amount17,1
ISTD Amount18,1
ISTD Amount19,1
ISTD Amount20,1
ISTD Amount21,1
ISTD Amount22,1
ISTD Amount23,1
ISTD Amount24,1
ISTD Amount25,1
ISTD Amount26,1
ISTD Amount27,1
ISTD Amount28,1
ISTD Amount29,1
ISTD Amount30,1
ISTD Amount31,1
ISTD Amount32,1
Sample Amount,1
Dilution Factor,1
Vial#,10
Injection Volume,20

[Original Files]
Data File,C:\Users\cremerlab\Desktop\griffin\2021-02-15_NCM_diauxie_turnover\2021-02-15_NCM_acetate_glucose_diauxie_turnover_2152021_010.lcd
Method File,C:\LabSolutions\Data\Project1\organicacidsetc.lcm
Batch File,C:\Users\cremerlab\Desktop\griffin\2021-02-15_NCM_diauxie_turnover\2021-02-15_NCM_acetate_glucose_diauxie_turnover.lcb
Report Format File,c:\LabSolutions\System\DEFAULT.lsr

[File Description]


[Configuration]
Instrument Name,HPLC-PC-Instrument1
Instrument #,1
Line #,1
# of Detectors,2
Detector ID,Detector A,Detector B
Detector Name,Detector A,Detector B
# of Channels,1,1

[Peak Table(Detector A)]
# of Peaks,0

[Peak Table(Detector B)]
# of Peaks,3
Peak#,R.Time,I.Time,F.Time,Area,Height,A/H,Conc.,Mark,ID#,Name,k',Plate #,Plate Ht.,Tailing,Resolution,Sep.Factor,Area Ratio,Height Ratio,Conc. %,Norm Conc.
1,10.873,10.625,11.475,139586,8965,15.570,0.000,   ,,,0.000,11241,13.344,1.286,0.000,0.000,0,0,0.000,0.000
2,13.436,12.550,14.267,503973,19444,25.919,0.000,   ,,,0.236,5547,27.042,0.716,4.529,0.000,0,0,0.000,0.000
3,15.552,15.008,16.317,123576,5417,22.812,0.000,   ,,,0.430,10600,14.151,1.132,3.191,1.825,0,0,0.000,0.000

[Compound Results(Detector A)]
# of IDs,0

[Compound Results(Detector B)]
# of IDs,0

[LC Chromatogram(Detector B-Ch1)]
Interval(msec),500
# of Points,3601
Start Time(min),0.000
End Time(min),30.000
Intensity Units,mV
Intensity Multiplier,0.001
R.Time (min),Intensity
0.00000,-84
0.00833,-84
0.01667,-1
0.02500,-1
0.03333,-1
0.04167,-2
0.05000,-4
0.05833,-6
0.06667,-7
0.07500,-8
0.08333,-7
0.09167,-6
0.10000,-5
0.10833,-3
0.11667,-1
0.12500,2
0.13333,4
0.14167,6
0.15000,9
0.15833,11
0.16667,14
0.17500,16
0.18333,19
0.19167,21
0.20000,24
0.20833,27
0.21667,30
0.22500,33
0.23333,37
0.24167,40
0.25000,43
0.25833,45
0.26667,49
0.27500,52
0.28333,55
0.29167,59
0.30000,62
0.30833,65
0.31667,68
0.32500,71
0.33333,74
0.34167,78
0.35000,80
0.35833,83
0.36667,86
0.37500,89
0.38333,92
0.39167,95
0.40000,97
0.40833,100
0.41667,103
0.42500,105
0.43333,108
0.44167,110
0.45000,112
0.45833,114
0.46667,116
0.47500,118
0.48333,121
0.49167,123
0.50000,124
0.50833,126
0.51667,128
0.52500,130
0.53333,132
0.54167,134
0.55000,136
0.55833,138
0.56667,140
0.57500,142
0.58333,143
0.59167,145
0.60000,147
0.60833,148
0.61667,149
0.62500,149
0.63333,149
0.64167,149
0.65000,149
0.65833,149
0.66667,149
0.67500,148
0.68333,148
0.69167,148
0.70000,148
0.70833,148
0.71667,148
0.72500,148
0.73333,149
0.74167,150
0.75000,151
0.75833,151
0.76667,152
0.77500,153
0.78333,154
0.79167,155
0.80000,155
0.80833,156
0.81667,157
0.82500,158
0.83333,160
0.84167,161
0.85000,162
0.85833,163
0.86667,165
0.87500,166
0.88333,167
0.89167,168
0.90000,169
0.90833,171
0.91667,172
0.92500,174
0.93333,175
0.94167,177
0.95000,178
0.95833,179
0.96667,181
0.97500,182
0.98333,184
0.99167,186
1.00000,188
1.00833,190
1.01667,192
1.02500,194
1.03333,196
1.04167,197
1.05000,199
1.05833,200
1.06667,202
1.07500,204
1.08333,205
1.09167,207
1.10000,208
1.10833,210
1.11667,212
1.12500,213
1.13333,215
1.14167,217
1.15000,219
1.15833,221
1.16667,222
1.17500,223
1.18333,225
1.19167,226
1.20000,227
1.20833,229
1.21667,230
1.22500,231
1.23333,232
1.24167,233
1.25000,234
1.25833,235
1.26667,236
1.27500,236
1.28333,236
1.29167,237
1.30000,237
1.30833,238
1.31667,238
1.32500,239
1.33333,239
1.34167,239
1.35000,240
1.35833,240
1.36667,240
1.37500,241
1.38333,241
1.39167,242
1.40000,242
1.40833,242
1.41667,242
1.42500,242
1.43333,242
1.44167,242
1.45000,242
1.45833,241
1.46667,241
1.47500,241
1.48333,242
1.49167,242
1.50000,242
1.50833,242
1.51667,242
1.52500,242
1.53333,242
1.54167,242
1.55000,242
1.55833,242
1.56667,242
1.57500,243
1.58333,243
1.59167,243
1.60000,244
1.60833,244
1.61667,244
1.62500,244
1.63333,245
1.64167,245
1.65000,245
1.65833,245
1.66667,246
1.67500,246
1.68333,247
1.69167,247
1.70000,247
1.70833,248
1.71667,248
1.72500,248
1.73333,249
1.74167,249
1.75000,250
1.75833,251
1.76667,252
1.77500,253
1.78333,254
1.79167,255
1.80000,256
1.80833,257
1.81667,258
1.82500,259
1.83333,260
1.84167,261
1.85000,262
1.85833,263
1.86667,264
1.87500,265
1.88333,266
1.89167,267
1.90000,267
1.90833,268
1.91667,269
1.92500,270
1.93333,271
1.94167,272
1.95000,274
1.95833,275
1.96667,276
1.97500,277
1.98333,278
1.99167,279
2.00000,280
2.00833,281
2.01667,282
2.02500,284
2.03333,285
2.04167,285
2.05000,286
2.05833,287
2.06667,289
2.07500,290
2.08333,291
2.09167,292
2.10000,293
2.10833,294
2.11667,295
2.12500,295
2.13333,296
2.14167,297
2.15000,298
2.15833,299
2.16667,300
2.17500,301
2.18333,302
2.19167,303
2.20000,304
2.20833,306
2.21667,307
2.22500,309
2.23333,310
2.24167,312
2.25000,313
2.25833,314
2.26667,315
2.27500,316
2.28333,316
2.29167,317
2.30000,318
2.30833,319
2.31667,319
2.32500,320
2.33333,321
2.34167,322
2.35000,323
2.35833,323
2.36667,325
2.37500,326
2.38333,326
2.39167,327
2.40000,328
2.40833,329
2.41667,329
2.42500,330
2.43333,331
2.44167,331
2.45000,331
2.45833,332
2.46667,333
2.47500,334
2.48333,334
2.49167,335
2.50000,336
2.50833,336
2.51667,337
2.52500,337
2.53333,338
2.54167,339
2.55000,339
2.55833,340
2.56667,341
2.57500,342
2.58333,342
2.59167,343
2.60000,343
2.60833,343
2.61667,344
2.62500,345
2.63333,346
2.64167,347
2.65000,348
2.65833,349
2.66667,350
2.67500,350
2.68333,351
2.69167,352
2.70000,352
2.70833,353
2.71667,354
2.72500,355
2.73333,356
2.74167,357
2.75000,357
2.75833,358
2.76667,358
2.77500,359
2.78333,359
2.79167,360
2.80000,361
2.80833,361
2.81667,362
2.82500,363
2.83333,364
2.84167,365
2.85000,366
2.85833,367
2.86667,369
2.87500,370
2.88333,371
2.89167,372
2.90000,373
2.90833,374
2.91667,375
2.92500,376
2.93333,377
2.94167,378
2.95000,379
2.95833,381
2.96667,382
2.97500,383
2.98333,384
2.99167,385
3.00000,386
3.00833,387
3.01667,388
3.02500,389
3.03333,391
3.04167,391
3.05000,392
3.05833,393
3.06667,394
3.07500,395
3.08333,396
3.09167,397
3.10000,398
3.10833,399
3.11667,401
3.12500,402
3.13333,403
3.14167,403
3.15000,404
3.15833,405
3.16667,406
3.17500,408
3.18333,409
3.19167,409
3.20000,410
3.20833,411
3.21667,412
3.22500,413
3.23333,414
3.24167,414
3.25000,415
3.25833,416
3.26667,416
3.27500,416
3.28333,417
3.29167,418
3.30000,419
3.30833,420
3.31667,420
3.32500,420
3.33333,421
3.34167,421
3.35000,422
3.35833,422
3.36667,423
3.37500,423
3.38333,423
3.39167,423
3.40000,423
3.40833,423
3.41667,423
3.42500,423
3.43333,423
3.44167,423
3.45000,424
3.45833,424
3.46667,424
3.47500,425
3.48333,425
3.49167,425
3.50000,425
3.50833,425
3.51667,424
3.52500,424
3.53333,424
3.54167,424
3.55000,424
3.55833,424
3.56667,424
3.57500,425
3.58333,425
3.59167,425
3.60000,425
3.60833,426
3.61667,426
3.62500,426
3.63333,426
3.64167,426
3.65000,426
3.65833,427
3.66667,427
3.67500,428
3.68333,428
3.69167,429
3.70000,429
3.70833,430
3.71667,431
3.72500,432
3.73333,433
3.74167,434
3.75000,435
3.75833,436
3.76667,437
3.77500,438
3.78333,439
3.79167,440
3.80000,441
3.80833,442
3.81667,444
3.82500,445
3.83333,446
3.84167,447
3.85000,448
3.85833,449
3.86667,450
3.87500,452
3.88333,453
3.89167,454
3.90000,455
3.90833,455
3.91667,456
3.92500,458
3.93333,459
3.94167,460
3.95000,462
3.95833,463
3.96667,464
3.97500,464
3.98333,465
3.99167,466
4.00000,467
4.00833,468
4.01667,469
4.02500,470
4.03333,471
4.04167,473
4.05000,474
4.05833,475
4.06667,476
4.07500,476
4.08333,478
4.09167,479
4.10000,480
4.10833,481
4.11667,482
4.12500,484
4.13333,485
4.14167,486
4.15000,487
4.15833,487
4.16667,488
4.17500,489
4.18333,490
4.19167,492
4.20000,493
4.20833,494
4.21667,495
4.22500,497
4.23333,499
4.24167,500
4.25000,501
4.25833,502
4.26667,503
4.27500,504
4.28333,505
4.29167,506
4.30000,507
4.30833,508
4.31667,510
4.32500,511
4.33333,512
4.34167,513
4.35000,514
4.35833,515
4.36667,516
4.37500,517
4.38333,519
4.39167,520
4.40000,521
4.40833,523
4.41667,524
4.42500,526
4.43333,527
4.44167,528
4.45000,529
4.45833,531
4.46667,532
4.47500,534
4.48333,534
4.49167,535
4.50000,537
4.50833,537
4.51667,538
4.52500,540
4.53333,541
4.54167,542
4.55000,544
4.55833,545
4.56667,547
4.57500,548
4.58333,549
4.59167,551
4.60000,552
4.60833,553
4.61667,554
4.62500,554
4.63333,555
4.64167,556
4.65000,557
4.65833,558
4.66667,558
4.67500,559
4.68333,560
4.69167,561
4.70000,561
4.70833,562
4.71667,562
4.72500,562
4.73333,562
4.74167,563
4.75000,563
4.75833,563
4.76667,564
4.77500,564
4.78333,563
4.79167,563
4.80000,563
4.80833,562
4.81667,562
4.82500,562
4.83333,562
4.84167,562
4.85000,562
4.85833,561
4.86667,561
4.87500,561
4.88333,560
4.89167,560
4.90000,560
4.90833,560
4.91667,560
4.92500,560
4.93333,560
4.94167,560
4.95000,559
4.95833,559
4.96667,559
4.97500,558
4.98333,558
4.99167,558
5.00000,557
5.00833,557
5.01667,557
5.02500,556
5.03333,556
5.04167,557
5.05000,557
5.05833,557
5.06667,557
5.07500,557
5.08333,557
5.09167,557
5.10000,557
5.10833,558
5.11667,558
5.12500,558
5.13333,558
5.14167,559
5.15000,559
5.15833,559
5.16667,559
5.17500,559
5.18333,560
5.19167,560
5.20000,561
5.20833,561
5.21667,562
5.22500,563
5.23333,564
5.24167,564
5.25000,565
5.25833,565
5.26667,566
5.27500,567
5.28333,568
5.29167,569
5.30000,570
5.30833,570
5.31667,571
5.32500,572
5.33333,573
5.34167,574
5.35000,575
5.35833,575
5.36667,576
5.37500,577
5.38333,578
5.39167,579
5.40000,580
5.40833,582
5.41667,583
5.42500,584
5.43333,585
5.44167,586
5.45000,587
5.45833,588
5.46667,589
5.47500,590
5.48333,591
5.49167,592
5.50000,593
5.50833,594
5.51667,596
5.52500,597
5.53333,598
5.54167,599
5.55000,599
5.55833,600
5.56667,601
5.57500,602
5.58333,602
5.59167,603
5.60000,604
5.60833,605
5.61667,606
5.62500,607
5.63333,608
5.64167,609
5.65000,610
5.65833,610
5.66667,611
5.67500,612
5.68333,612
5.69167,612
5.70000,613
5.70833,613
5.71667,614
5.72500,614
5.73333,614
5.74167,613
5.75000,613
5.75833,613
5.76667,613
5.77500,613
5.78333,613
5.79167,613
5.80000,613
5.80833,613
5.81667,612
5.82500,612
5.83333,612
5.84167,611
5.85000,611
5.85833,610
5.86667,610
5.87500,609
5.88333,608
5.89167,608
5.90000,607
5.90833,607
5.91667,606
5.92500,606
5.93333,605
5.94167,604
5.95000,604
5.95833,603
5.96667,603
5.97500,602
5.98333,602
5.99167,602
6.00000,602
6.00833,602
6.01667,601
6.02500,601
6.03333,600
6.04167,600
6.05000,600
6.05833,600
6.06667,600
6.07500,600
6.08333,600
6.09167,599
6.10000,599
6.10833,600
6.11667,600
6.12500,601
6.13333,601
6.14167,602
6.15000,602
6.15833,602
6.16667,603
6.17500,603
6.18333,604
6.19167,604
6.20000,605
6.20833,605
6.21667,606
6.22500,607
6.23333,608
6.24167,609
6.25000,610
6.25833,611
6.26667,611
6.27500,612
6.28333,613
6.29167,614
6.30000,615
6.30833,616
6.31667,617
6.32500,618
6.33333,618
6.34167,619
6.35000,621
6.35833,622
6.36667,623
6.37500,625
6.38333,626
6.39167,627
6.40000,628
6.40833,629
6.41667,630
6.42500,631
6.43333,632
6.44167,633
6.45000,635
6.45833,636
6.46667,637
6.47500,638
6.48333,639
6.49167,640
6.50000,641
6.50833,642
6.51667,644
6.52500,645
6.53333,646
6.54167,647
6.55000,648
6.55833,650
6.56667,651
6.57500,652
6.58333,654
6.59167,655
6.60000,656
6.60833,657
6.61667,658
6.62500,660
6.63333,662
6.64167,663
6.65000,665
6.65833,666
6.66667,668
6.67500,669
6.68333,670
6.69167,672
6.70000,673
6.70833,674
6.71667,676
6.72500,677
6.73333,679
6.74167,680
6.75000,682
6.75833,683
6.76667,685
6.77500,686
6.78333,688
6.79167,689
6.80000,691
6.80833,692
6.81667,694
6.82500,695
6.83333,696
6.84167,697
6.85000,698
6.85833,699
6.86667,701
6.87500,702
6.88333,703
6.89167,704
6.90000,705
6.90833,706
6.91667,708
6.92500,709
6.93333,709
6.94167,710
6.95000,711
6.95833,711
6.96667,711
6.97500,712
6.98333,712
6.99167,712
7.00000,713
7.00833,713
7.01667,714
7.02500,714
7.03333,714
7.04167,714
7.05000,715
7.05833,715
7.06667,715
7.07500,715
7.08333,715
7.09167,715
7.10000,716
7.10833,716
7.11667,716
7.12500,716
7.13333,716
7.14167,716
7.15000,716
7.15833,716
7.16667,716
7.17500,716
7.18333,716
7.19167,715
7.20000,715
7.20833,715
7.21667,714
7.22500,714
7.23333,714
7.24167,713
7.25000,713
7.25833,713
7.26667,713
7.27500,713
7.28333,713
7.29167,712
7.30000,712
7.30833,711
7.31667,711
7.32500,711
7.33333,711
7.34167,711
7.35000,710
7.35833,710
7.36667,710
7.37500,709
7.38333,709
7.39167,709
7.40000,709
7.40833,709
7.41667,709
7.42500,708
7.43333,708
7.44167,708
7.45000,707
7.45833,707
7.46667,707
7.47500,707
7.48333,706
7.49167,705
7.50000,705
7.50833,704
7.51667,703
7.52500,703
7.53333,702
7.54167,702
7.55000,701
7.55833,701
7.56667,700
7.57500,699
7.58333,698
7.59167,698
7.60000,697
7.60833,696
7.61667,695
7.62500,694
7.63333,693
7.64167,692
7.65000,691
7.65833,690
7.66667,689
7.67500,688
7.68333,687
7.69167,685
7.70000,683
7.70833,682
7.71667,680
7.72500,679
7.73333,677
7.74167,676
7.75000,674
7.75833,673
7.76667,671
7.77500,670
7.78333,669
7.79167,669
7.80000,667
7.80833,666
7.81667,665
7.82500,664
7.83333,662
7.84167,661
7.85000,660
7.85833,660
7.86667,659
7.87500,659
7.88333,658
7.89167,657
7.90000,656
7.90833,655
7.91667,653
7.92500,652
7.93333,651
7.94167,650
7.95000,650
7.95833,649
7.96667,648
7.97500,647
7.98333,646
7.99167,646
8.00000,645
8.00833,645
8.01667,645
8.02500,644
8.03333,644
8.04167,643
8.05000,643
8.05833,643
8.06667,642
8.07500,642
8.08333,641
8.09167,641
8.10000,640
8.10833,640
8.11667,639
8.12500,639
8.13333,639
8.14167,638
8.15000,638
8.15833,637
8.16667,637
8.17500,636
8.18333,635
8.19167,634
8.20000,634
8.20833,634
8.21667,634
8.22500,634
8.23333,633
8.24167,632
8.25000,632
8.25833,632
8.26667,632
8.27500,631
8.28333,631
8.29167,630
8.30000,630
8.30833,630
8.31667,629
8.32500,629
8.33333,629
8.34167,629
8.35000,628
8.35833,628
8.36667,629
8.37500,629
8.38333,629
8.39167,629
8.40000,629
8.40833,629
8.41667,629
8.42500,629
8.43333,630
8.44167,630
8.45000,630
8.45833,629
8.46667,629
8.47500,629
8.48333,630
8.49167,630
8.50000,630
8.50833,630
8.51667,630
8.52500,630
8.53333,631
8.54167,631
8.55000,631
8.55833,631
8.56667,632
8.57500,632
8.58333,633
8.59167,633
8.60000,634
8.60833,634
8.61667,635
8.62500,635
8.63333,636
8.64167,636
8.65000,637
8.65833,637
8.66667,638
8.67500,638
8.68333,639
8.69167,639
8.70000,639
8.70833,639
8.71667,640
8.72500,640
8.73333,641
8.74167,641
8.75000,641
8.75833,642
8.76667,642
8.77500,642
8.78333,642
8.79167,643
8.80000,643
8.80833,644
8.81667,644
8.82500,645
8.83333,645
8.84167,645
8.85000,645
8.85833,646
8.86667,646
8.87500,646
8.88333,646
8.89167,646
8.90000,646
8.90833,646
8.91667,646
8.92500,646
8.93333,647
8.94167,647
8.95000,648
8.95833,648
8.96667,648
8.97500,648
8.98333,648
8.99167,649
9.00000,649
9.00833,649
9.01667,649
9.02500,649
9.03333,649
9.04167,649
9.05000,649
9.05833,649
9.06667,649
9.07500,649
9.08333,648
9.09167,648
9.10000,648
9.10833,647
9.11667,647
9.12500,647
9.13333,647
9.14167,646
9.15000,646
9.15833,645
9.16667,644
9.17500,644
9.18333,643
9.19167,643
9.20000,642
9.20833,642
9.21667,641
9.22500,641
9.23333,640
9.24167,640
9.25000,639
9.25833,638
9.26667,638
9.27500,637
9.28333,636
9.29167,635
9.30000,634
9.30833,633
9.31667,632
9.32500,631
9.33333,630
9.34167,629
9.35000,628
9.35833,627
9.36667,626
9.37500,626
9.38333,625
9.39167,624
9.40000,624
9.40833,623
9.41667,623
9.42500,622
9.43333,621
9.44167,621
9.45000,620
9.45833,620
9.46667,620
9.47500,619
9.48333,619
9.49167,619
9.50000,619
9.50833,619
9.51667,619
9.52500,620
9.53333,620
9.54167,620
9.55000,620
9.55833,620
9.56667,620
9.57500,620
9.58333,621
9.59167,622
9.60000,622
9.60833,623
9.61667,624
9.62500,624
9.63333,624
9.64167,625
9.65000,625
9.65833,625
9.66667,625
9.67500,625
9.68333,625
9.69167,625
9.70000,626
9.70833,626
9.71667,626
9.72500,626
9.73333,627
9.74167,627
9.75000,627
9.75833,627
9.76667,627
9.77500,627
9.78333,627
9.79167,627
9.80000,627
9.80833,627
9.81667,627
9.82500,626
9.83333,626
9.84167,626
9.85000,626
9.85833,626
9.86667,626
9.87500,626
9.88333,627
9.89167,627
9.90000,627
9.90833,627
9.91667,626
9.92500,626
9.93333,626
9.94167,626
9.95000,626
9.95833,626
9.96667,626
9.97500,625
9.98333,625
9.99167,624
10.00000,624
10.00833,624
10.01667,624
10.02500,624
10.03333,624
10.04167,624
10.05000,624
10.05833,624
10.06667,625
10.07500,625
10.08333,625
10.09167,625
10.10000,626
10.10833,626
10.11667,626
10.12500,626
10.13333,626
10.14167,626
10.15000,626
10.15833,627
10.16667,627
10.17500,628
10.18333,628
10.19167,629
10.20000,629
10.20833,629
10.21667,630
10.22500,630
10.23333,631
10.24167,632
10.25000,632
10.25833,632
10.26667,633
10.27500,633
10.28333,633
10.29167,634
10.30000,634
10.30833,635
10.31667,635
10.32500,635
10.33333,635
10.34167,635
10.35000,635
10.35833,635
10.36667,634
10.37500,634
10.38333,633
10.39167,632
10.40000,631
10.40833,630
10.41667,628
10.42500,626
10.43333,622
10.44167,617
10.45000,611
10.45833,603
10.46667,593
10.47500,581
10.48333,565
10.49167,546
10.50000,523
10.50833,495
10.51667,463
10.52500,426
10.53333,384
10.54167,337
10.55000,285
10.55833,231
10.56667,176
10.57500,121
10.58333,68
10.59167,20
10.60000,-20
10.60833,-48
10.61667,-62
10.62500,-56
10.63333,-28
10.64167,26
10.65000,110
10.65833,227
10.66667,378
10.67500,567
10.68333,795
10.69167,1061
10.70000,1367
10.70833,1711
10.71667,2092
10.72500,2506
10.73333,2949
10.74167,3418
10.75000,3908
10.75833,4412
10.76667,4924
10.77500,5437
10.78333,5943
10.79167,6436
10.80000,6906
10.80833,7347
10.81667,7751
10.82500,8112
10.83333,8424
10.84167,8681
10.85000,8881
10.85833,9019
10.86667,9096
10.87500,9110
10.88333,9063
10.89167,8958
10.90000,8798
10.90833,8588
10.91667,8334
10.92500,8040
10.93333,7715
10.94167,7363
10.95000,6991
10.95833,6607
10.96667,6215
10.97500,5823
10.98333,5433
10.99167,5051
11.00000,4680
11.00833,4324
11.01667,3984
11.02500,3663
11.03333,3362
11.04167,3082
11.05000,2822
11.05833,2583
11.06667,2364
11.07500,2165
11.08333,1985
11.09167,1823
11.10000,1678
11.10833,1548
11.11667,1433
11.12500,1331
11.13333,1241
11.14167,1161
11.15000,1092
11.15833,1031
11.16667,978
11.17500,932
11.18333,893
11.19167,859
11.20000,829
11.20833,803
11.21667,781
11.22500,761
11.23333,745
11.24167,731
11.25000,719
11.25833,708
11.26667,699
11.27500,691
11.28333,684
11.29167,678
11.30000,673
11.30833,668
11.31667,664
11.32500,660
11.33333,657
11.34167,654
11.35000,652
11.35833,650
11.36667,647
11.37500,646
11.38333,644
11.39167,642
11.40000,641
11.40833,640
11.41667,638
11.42500,637
11.43333,636
11.44167,635
11.45000,635
11.45833,634
11.46667,634
11.47500,634
11.48333,633
11.49167,633
11.50000,632
11.50833,632
11.51667,631
11.52500,631
11.53333,630
11.54167,629
11.55000,628
11.55833,628
11.56667,627
11.57500,627
11.58333,626
11.59167,626
11.60000,625
11.60833,624
11.61667,624
11.62500,623
11.63333,622
11.64167,621
11.65000,621
11.65833,620
11.66667,619
11.67500,619
11.68333,618
11.69167,618
11.70000,617
11.70833,617
11.71667,617
11.72500,616
11.73333,616
11.74167,615
11.75000,614
11.75833,613
11.76667,613
11.77500,612
11.78333,612
11.79167,611
11.80000,611
11.80833,611
11.81667,610
11.82500,610
11.83333,609
11.84167,609
11.85000,608
11.85833,608
11.86667,608
11.87500,609
11.88333,609
11.89167,609
11.90000,609
11.90833,609
11.91667,610
11.92500,610
11.93333,610
11.94167,610
11.95000,611
11.95833,611
11.96667,611
11.97500,612
11.98333,612
11.99167,613
12.00000,614
12.00833,615
12.01667,615
12.02500,616
12.03333,617
12.04167,617
12.05000,618
12.05833,619
12.06667,621
12.07500,622
12.08333,623
12.09167,624
12.10000,625
12.10833,626
12.11667,627
12.12500,628
12.13333,629
12.14167,630
12.15000,632
12.15833,633
12.16667,634
12.17500,635
12.18333,636
12.19167,637
12.20000,638
12.20833,639
12.21667,640
12.22500,641
12.23333,642
12.24167,643
12.25000,643
12.25833,644
12.26667,644
12.27500,644
12.28333,644
12.29167,645
12.30000,645
12.30833,646
12.31667,646
12.32500,647
12.33333,647
12.34167,647
12.35000,647
12.35833,648
12.36667,648
12.37500,649
12.38333,649
12.39167,649
12.40000,649
12.40833,649
12.41667,649
12.42500,649
12.43333,649
12.44167,649
12.45000,649
12.45833,649
12.46667,649
12.47500,649
12.48333,649
12.49167,649
12.50000,649
12.50833,648
12.51667,648
12.52500,648
12.53333,648
12.54167,648
12.55000,649
12.55833,650
12.56667,651
12.57500,652
12.58333,653
12.59167,655
12.60000,657
12.60833,659
12.61667,663
12.62500,667
12.63333,672
12.64167,679
12.65000,687
12.65833,696
12.66667,708
12.67500,721
12.68333,737
12.69167,756
12.70000,779
12.70833,805
12.71667,836
12.72500,870
12.73333,910
12.74167,955
12.75000,1006
12.75833,1063
12.76667,1126
12.77500,1196
12.78333,1273
12.79167,1356
12.80000,1447
12.80833,1545
12.81667,1650
12.82500,1762
12.83333,1882
12.84167,2009
12.85000,2143
12.85833,2285
12.86667,2433
12.87500,2588
12.88333,2750
12.89167,2918
12.90000,3092
12.90833,3272
12.91667,3458
12.92500,3648
12.93333,3844
12.94167,4046
12.95000,4252
12.95833,4463
12.96667,4679
12.97500,4898
12.98333,5122
12.99167,5350
13.00000,5581
13.00833,5817
13.01667,6055
13.02500,6298
13.03333,6543
13.04167,6792
13.05000,7044
13.05833,7298
13.06667,7555
13.07500,7814
13.08333,8077
13.09167,8342
13.10000,8611
13.10833,8881
13.11667,9154
13.12500,9430
13.13333,9708
13.14167,9989
13.15000,10271
13.15833,10556
13.16667,10843
13.17500,11132
13.18333,11423
13.19167,11717
13.20000,12013
13.20833,12311
13.21667,12611
13.22500,12913
13.23333,13217
13.24167,13523
13.25000,13831
13.25833,14141
13.26667,14454
13.27500,14768
13.28333,15084
13.29167,15402
13.30000,15721
13.30833,16042
13.31667,16364
13.32500,16688
13.33333,17012
13.34167,17336
13.35000,17660
13.35833,17983
13.36667,18303
13.37500,18618
13.38333,18924
13.39167,19216
13.40000,19486
13.40833,19726
13.41667,19923
13.42500,20065
13.43333,20136
13.44167,20120
13.45000,20003
13.45833,19773
13.46667,19420
13.47500,18940
13.48333,18335
13.49167,17611
13.50000,16783
13.50833,15867
13.51667,14884
13.52500,13858
13.53333,12810
13.54167,11763
13.55000,10736
13.55833,9747
13.56667,8809
13.57500,7931
13.58333,7118
13.59167,6375
13.60000,5702
13.60833,5098
13.61667,4558
13.62500,4079
13.63333,3657
13.64167,3287
13.65000,2963
13.65833,2681
13.66667,2437
13.67500,2224
13.68333,2040
13.69167,1881
13.70000,1743
13.70833,1624
13.71667,1522
13.72500,1433
13.73333,1356
13.74167,1289
13.75000,1231
13.75833,1180
13.76667,1136
13.77500,1097
13.78333,1064
13.79167,1034
13.80000,1008
13.80833,985
13.81667,964
13.82500,945
13.83333,928
13.84167,914
13.85000,900
13.85833,888
13.86667,876
13.87500,866
13.88333,857
13.89167,848
13.90000,840
13.90833,833
13.91667,826
13.92500,820
13.93333,814
13.94167,808
13.95000,803
13.95833,798
13.96667,794
13.97500,789
13.98333,786
13.99167,782
14.00000,778
14.00833,775
14.01667,772
14.02500,768
14.03333,765
14.04167,763
14.05000,760
14.05833,758
14.06667,756
14.07500,753
14.08333,751
14.09167,749
14.10000,748
14.10833,747
14.11667,745
14.12500,744
14.13333,743
14.14167,742
14.15000,740
14.15833,739
14.16667,738
14.17500,738
14.18333,737
14.19167,737
14.20000,736
14.20833,735
14.21667,735
14.22500,734
14.23333,734
14.24167,734
14.25000,733
14.25833,733
14.26667,732
14.27500,732
14.28333,732
14.29167,732
14.30000,732
14.30833,732
14.31667,732
14.32500,732
14.33333,731
14.34167,731
14.35000,731
14.35833,731
14.36667,731
14.37500,730
14.38333,730
14.39167,730
14.40000,729
14.40833,729
14.41667,728
14.42500,728
14.43333,728
14.44167,728
14.45000,728
14.45833,727
14.46667,727
14.47500,726
14.48333,724
14.49167,724
14.50000,723
14.50833,722
14.51667,722
14.52500,721
14.53333,720
14.54167,719
14.55000,718
14.55833,717
14.56667,716
14.57500,715
14.58333,714
14.59167,714
14.60000,713
14.60833,712
14.61667,710
14.62500,709
14.63333,708
14.64167,707
14.65000,705
14.65833,704
14.66667,703
14.67500,702
14.68333,701
14.69167,700
14.70000,700
14.70833,699
14.71667,697
14.72500,696
14.73333,695
14.74167,694
14.75000,693
14.75833,692
14.76667,691
14.77500,690
14.78333,689
14.79167,688
14.80000,687
14.80833,686
14.81667,685
14.82500,684
14.83333,683
14.84167,682
14.85000,682
14.85833,681
14.86667,681
14.87500,680
14.88333,680
14.89167,679
14.90000,678
14.90833,677
14.91667,677
14.92500,676
14.93333,676
14.94167,676
14.95000,676
14.95833,676
14.96667,676
14.97500,676
14.98333,676
14.99167,676
15.00000,677
15.00833,677
15.01667,679
15.02500,680
15.03333,681
15.04167,682
15.05000,684
15.05833,686
15.06667,689
15.07500,691
15.08333,694
15.09167,698
15.10000,703
15.10833,709
15.11667,715
15.12500,723
15.13333,732
15.14167,743
15.15000,755
15.15833,770
15.16667,787
15.17500,807
15.18333,829
15.19167,856
15.20000,886
15.20833,920
15.21667,960
15.22500,1004
15.23333,1055
15.24167,1112
15.25000,1176
15.25833,1247
15.26667,1326
15.27500,1414
15.28333,1510
15.29167,1615
15.30000,1730
15.30833,1853
15.31667,1987
15.32500,2129
15.33333,2281
15.34167,2441
15.35000,2610
15.35833,2785
15.36667,2968
15.37500,3157
15.38333,3350
15.39167,3547
15.40000,3747
15.40833,3947
15.41667,4147
15.42500,4344
15.43333,4538
15.44167,4726
15.45000,4908
15.45833,5081
15.46667,5245
15.47500,5397
15.48333,5537
15.49167,5664
15.50000,5776
15.50833,5873
15.51667,5953
15.52500,6016
15.53333,6063
15.54167,6091
15.55000,6103
15.55833,6098
15.56667,6075
15.57500,6037
15.58333,5982
15.59167,5913
15.60000,5829
15.60833,5732
15.61667,5624
15.62500,5504
15.63333,5375
15.64167,5236
15.65000,5091
15.65833,4939
15.66667,4783
15.67500,4622
15.68333,4458
15.69167,4293
15.70000,4127
15.70833,3962
15.71667,3798
15.72500,3635
15.73333,3476
15.74167,3320
15.75000,3167
15.75833,3018
15.76667,2874
15.77500,2735
15.78333,2602
15.79167,2474
15.80000,2352
15.80833,2236
15.81667,2126
15.82500,2021
15.83333,1923
15.84167,1830
15.85000,1742
15.85833,1660
15.86667,1583
15.87500,1512
15.88333,1445
15.89167,1383
15.90000,1325
15.90833,1272
15.91667,1222
15.92500,1177
15.93333,1134
15.94167,1095
15.95000,1060
15.95833,1027
15.96667,996
15.97500,969
15.98333,944
15.99167,921
16.00000,900
16.00833,880
16.01667,863
16.02500,847
16.03333,832
16.04167,819
16.05000,807
16.05833,797
16.06667,787
16.07500,778
16.08333,770
16.09167,762
16.10000,756
16.10833,750
16.11667,744
16.12500,739
16.13333,734
16.14167,730
16.15000,726
16.15833,723
16.16667,719
16.17500,717
16.18333,715
16.19167,713
16.20000,711
16.20833,709
16.21667,707
16.22500,706
16.23333,705
16.24167,703
16.25000,702
16.25833,701
16.26667,700
16.27500,700
16.28333,699
16.29167,699
16.30000,698
16.30833,698
16.31667,698
16.32500,697
16.33333,697
16.34167,696
16.35000,696
16.35833,696
16.36667,695
16.37500,695
16.38333,695
16.39167,695
16.40000,695
16.40833,695
16.41667,695
16.42500,695
16.43333,695
16.44167,696
16.45000,696
16.45833,696
16.46667,696
16.47500,696
16.48333,696
16.49167,696
16.50000,695
16.50833,695
16.51667,695
16.52500,695
16.53333,695
16.54167,695
16.55000,695
16.55833,695
16.56667,695
16.57500,695
16.58333,695
16.59167,695
16.60000,695
16.60833,695
16.61667,695
16.62500,695
16.63333,695
16.64167,695
16.65000,695
16.65833,695
16.66667,695
16.67500,694
16.68333,694
16.69167,694
16.70000,693
16.70833,693
16.71667,693
16.72500,693
16.73333,693
16.74167,693
16.75000,692
16.75833,692
16.76667,691
16.77500,691
16.78333,690
16.79167,689
16.80000,689
16.80833,689
16.81667,688
16.82500,688
16.83333,687
16.84167,687
16.85000,686
16.85833,685
16.86667,685
16.87500,684
16.88333,683
16.89167,682
16.90000,681
16.90833,680
16.91667,679
16.92500,678
16.93333,677
16.94167,676
16.95000,675
16.95833,674
16.96667,673
16.97500,672
16.98333,671
16.99167,670
17.00000,670
17.00833,668
17.01667,667
17.02500,666
17.03333,666
17.04167,665
17.05000,664
17.05833,663
17.06667,663
17.07500,662
17.08333,661
17.09167,660
17.10000,659
17.10833,659
17.11667,659
17.12500,658
17.13333,657
17.14167,656
17.15000,656
17.15833,655
17.16667,655
17.17500,655
17.18333,654
17.19167,654
17.20000,654
17.20833,653
17.21667,653
17.22500,652
17.23333,652
17.24167,652
17.25000,652
17.25833,651
17.26667,651
17.27500,651
17.28333,651
17.29167,651
17.30000,650
17.30833,651
17.31667,651
17.32500,651
17.33333,651
17.34167,651
17.35000,651
17.35833,651
17.36667,651
17.37500,651
17.38333,651
17.39167,650
17.40000,650
17.40833,650
17.41667,650
17.42500,650
17.43333,651
17.44167,651
17.45000,651
17.45833,652
17.46667,652
17.47500,652
17.48333,652
17.49167,652
17.50000,652
17.50833,651
17.51667,651
17.52500,651
17.53333,651
17.54167,652
17.55000,652
17.55833,652
17.56667,652
17.57500,652
17.58333,652
17.59167,652
17.60000,652
17.60833,652
17.61667,652
17.62500,652
17.63333,652
17.64167,652
17.65000,651
17.65833,651
17.66667,651
17.67500,651
17.68333,650
17.69167,650
17.70000,650
17.70833,649
17.71667,649
17.72500,649
17.73333,648
17.74167,648
17.75000,647
17.75833,647
17.76667,647
17.77500,647
17.78333,647
17.79167,647
17.80000,646
17.80833,646
17.81667,646
17.82500,645
17.83333,645
17.84167,645
17.85000,645
17.85833,645
17.86667,645
17.87500,645
17.88333,645
17.89167,644
17.90000,644
17.90833,643
17.91667,643
17.92500,642
17.93333,642
17.94167,642
17.95000,642
17.95833,642
17.96667,642
17.97500,642
17.98333,642
17.99167,642
18.00000,643
18.00833,643
18.01667,643
18.02500,643
18.03333,643
18.04167,643
18.05000,644
18.05833,644
18.06667,644
18.07500,644
18.08333,644
18.09167,645
18.10000,645
18.10833,645
18.11667,645
18.12500,645
18.13333,645
18.14167,646
18.15000,646
18.15833,647
18.16667,647
18.17500,648
18.18333,648
18.19167,648
18.20000,649
18.20833,649
18.21667,649
18.22500,649
18.23333,649
18.24167,649
18.25000,650
18.25833,650
18.26667,650
18.27500,650
18.28333,650
18.29167,650
18.30000,649
18.30833,649
18.31667,649
18.32500,649
18.33333,649
18.34167,648
18.35000,648
18.35833,648
18.36667,648
18.37500,648
18.38333,648
18.39167,648
18.40000,647
18.40833,648
18.41667,648
18.42500,647
18.43333,647
18.44167,647
18.45000,647
18.45833,647
18.46667,646
18.47500,646
18.48333,645
18.49167,644
18.50000,644
18.50833,644
18.51667,643
18.52500,643
18.53333,643
18.54167,643
18.55000,643
18.55833,643
18.56667,642
18.57500,643
18.58333,643
18.59167,643
18.60000,643
18.60833,643
18.61667,643
18.62500,643
18.63333,643
18.64167,643
18.65000,643
18.65833,643
18.66667,644
18.67500,643
18.68333,643
18.69167,644
18.70000,644
18.70833,644
18.71667,644
18.72500,645
18.73333,645
18.74167,645
18.75000,645
18.75833,645
18.76667,645
18.77500,645
18.78333,646
18.79167,647
18.80000,647
18.80833,647
18.81667,647
18.82500,647
18.83333,648
18.84167,648
18.85000,648
18.85833,648
18.86667,648
18.87500,648
18.88333,648
18.89167,648
18.90000,649
18.90833,649
18.91667,649
18.92500,648
18.93333,648
18.94167,647
18.95000,647
18.95833,647
18.96667,646
18.97500,646
18.98333,646
18.99167,645
19.00000,645
19.00833,644
19.01667,644
19.02500,644
19.03333,643
19.04167,643
19.05000,643
19.05833,642
19.06667,642
19.07500,642
19.08333,642
19.09167,642
19.10000,642
19.10833,642
19.11667,642
19.12500,642
19.13333,642
19.14167,642
19.15000,642
19.15833,642
19.16667,642
19.17500,641
19.18333,641
19.19167,641
19.20000,641
19.20833,641
19.21667,641
19.22500,641
19.23333,641
19.24167,640
19.25000,640
19.25833,639
19.26667,640
19.27500,640
19.28333,639
19.29167,639
19.30000,639
19.30833,640
19.31667,640
19.32500,639
19.33333,639
19.34167,639
19.35000,639
19.35833,639
19.36667,639
19.37500,639
19.38333,639
19.39167,639
19.40000,639
19.40833,639
19.41667,639
19.42500,639
19.43333,639
19.44167,639
19.45000,639
19.45833,639
19.46667,639
19.47500,639
19.48333,639
19.49167,639
19.50000,639
19.50833,640
19.51667,640
19.52500,640
19.53333,640
19.54167,640
19.55000,640
19.55833,640
19.56667,640
19.57500,640
19.58333,641
19.59167,641
19.60000,641
19.60833,642
19.61667,642
19.62500,642
19.63333,643
19.64167,643
19.65000,644
19.65833,645
19.66667,646
19.67500,646
19.68333,647
19.69167,647
19.70000,648
19.70833,648
19.71667,649
19.72500,649
19.73333,649
19.74167,649
19.75000,649
19.75833,650
19.76667,650
19.77500,650
19.78333,651
19.79167,651
19.80000,651
19.80833,651
19.81667,652
19.82500,652
19.83333,652
19.84167,652
19.85000,653
19.85833,652
19.86667,652
19.87500,653
19.88333,653
19.89167,653
19.90000,653
19.90833,653
19.91667,653
19.92500,653
19.93333,653
19.94167,653
19.95000,653
19.95833,652
19.96667,652
19.97500,651
19.98333,651
19.99167,651
20.00000,651
20.00833,651
20.01667,650
20.02500,649
20.03333,649
20.04167,648
20.05000,648
20.05833,648
20.06667,647
20.07500,647
20.08333,647
20.09167,646
20.10000,646
20.10833,646
20.11667,645
20.12500,645
20.13333,644
20.14167,644
20.15000,644
20.15833,644
20.16667,644
20.17500,643
20.18333,643
20.19167,643
20.20000,643
20.20833,643
20.21667,643
20.22500,643
20.23333,643
20.24167,643
20.25000,643
20.25833,643
20.26667,643
20.27500,643
20.28333,643
20.29167,642
20.30000,642
20.30833,643
20.31667,643
20.32500,642
20.33333,642
20.34167,642
20.35000,643
20.35833,643
20.36667,643
20.37500,643
20.38333,643
20.39167,643
20.40000,644
20.40833,644
20.41667,644
20.42500,644
20.43333,644
20.44167,644
20.45000,645
20.45833,644
20.46667,644
20.47500,644
20.48333,644
20.49167,644
20.50000,644
20.50833,644
20.51667,644
20.52500,644
20.53333,644
20.54167,645
20.55000,645
20.55833,645
20.56667,645
20.57500,645
20.58333,645
20.59167,645
20.60000,645
20.60833,645
20.61667,645
20.62500,646
20.63333,646
20.64167,646
20.65000,645
20.65833,645
20.66667,645
20.67500,645
20.68333,645
20.69167,646
20.70000,645
20.70833,645
20.71667,645
20.72500,645
20.73333,645
20.74167,645
20.75000,645
20.75833,644
20.76667,644
20.77500,644
20.78333,644
20.79167,644
20.80000,644
20.80833,644
20.81667,644
20.82500,644
20.83333,644
20.84167,644
20.85000,643
20.85833,643
20.86667,642
20.87500,642
20.88333,641
20.89167,640
20.90000,640
20.90833,639
20.91667,639
20.92500,639
20.93333,639
20.94167,638
20.95000,637
20.95833,637
20.96667,637
20.97500,636
20.98333,636
20.99167,635
21.00000,635
21.00833,635
21.01667,634
21.02500,633
21.03333,632
21.04167,631
21.05000,630
21.05833,630
21.06667,629
21.07500,629
21.08333,628
21.09167,628
21.10000,628
21.10833,628
21.11667,627
21.12500,626
21.13333,626
21.14167,625
21.15000,625
21.15833,625
21.16667,625
21.17500,624
21.18333,624
21.19167,623
21.20000,623
21.20833,623
21.21667,623
21.22500,623
21.23333,622
21.24167,622
21.25000,622
21.25833,622
21.26667,622
21.27500,622
21.28333,622
21.29167,622
21.30000,622
21.30833,622
21.31667,622
21.32500,622
21.33333,622
21.34167,621
21.35000,621
21.35833,621
21.36667,621
21.37500,621
21.38333,621
21.39167,621
21.40000,621
21.40833,621
21.41667,622
21.42500,622
21.43333,622
21.44167,622
21.45000,623
21.45833,623
21.46667,623
21.47500,623
21.48333,623
21.49167,624
21.50000,624
21.50833,624
21.51667,625
21.52500,626
21.53333,626
21.54167,627
21.55000,627
21.55833,628
21.56667,629
21.57500,630
21.58333,630
21.59167,631
21.60000,633
21.60833,634
21.61667,635
21.62500,636
21.63333,637
21.64167,638
21.65000,639
21.65833,640
21.66667,641
21.67500,643
21.68333,644
21.69167,646
21.70000,647
21.70833,649
21.71667,651
21.72500,652
21.73333,654
21.74167,655
21.75000,657
21.75833,658
21.76667,660
21.77500,662
21.78333,663
21.79167,665
21.80000,667
21.80833,668
21.81667,670
21.82500,671
21.83333,672
21.84167,673
21.85000,674
21.85833,675
21.86667,676
21.87500,677
21.88333,679
21.89167,680
21.90000,680
21.90833,681
21.91667,682
21.92500,683
21.93333,684
21.94167,684
21.95000,685
21.95833,685
21.96667,685
21.97500,686
21.98333,686
21.99167,686
22.00000,687
22.00833,687
22.01667,686
22.02500,686
22.03333,686
22.04167,685
22.05000,684
22.05833,683
22.06667,682
22.07500,682
22.08333,681
22.09167,681
22.10000,680
22.10833,679
22.11667,678
22.12500,677
22.13333,676
22.14167,674
22.15000,673
22.15833,672
22.16667,670
22.17500,669
22.18333,667
22.19167,666
22.20000,664
22.20833,663
22.21667,662
22.22500,661
22.23333,659
22.24167,658
22.25000,657
22.25833,655
22.26667,654
22.27500,653
22.28333,652
22.29167,651
22.30000,649
22.30833,648
22.31667,647
22.32500,646
22.33333,645
22.34167,644
22.35000,644
22.35833,643
22.36667,642
22.37500,642
22.38333,641
22.39167,640
22.40000,640
22.40833,639
22.41667,638
22.42500,637
22.43333,636
22.44167,636
22.45000,635
22.45833,635
22.46667,635
22.47500,635
22.48333,635
22.49167,635
22.50000,635
22.50833,635
22.51667,635
22.52500,634
22.53333,634
22.54167,634
22.55000,634
22.55833,634
22.56667,634
22.57500,634
22.58333,634
22.59167,633
22.60000,633
22.60833,633
22.61667,633
22.62500,633
22.63333,633
22.64167,633
22.65000,633
22.65833,633
22.66667,632
22.67500,632
22.68333,632
22.69167,632
22.70000,631
22.70833,631
22.71667,631
22.72500,630
22.73333,630
22.74167,630
22.75000,630
22.75833,630
22.76667,630
22.77500,630
22.78333,630
22.79167,630
22.80000,630
22.80833,630
22.81667,630
22.82500,630
22.83333,630
22.84167,629
22.85000,629
22.85833,629
22.86667,629
22.87500,629
22.88333,629
22.89167,629
22.90000,629
22.90833,629
22.91667,630
22.92500,630
22.93333,630
22.94167,630
22.95000,629
22.95833,629
22.96667,629
22.97500,629
22.98333,629
22.99167,629
23.00000,629
23.00833,629
23.01667,629
23.02500,629
23.03333,629
23.04167,630
23.05000,630
23.05833,630
23.06667,630
23.07500,630
23.08333,631
23.09167,631
23.10000,631
23.10833,631
23.11667,631
23.12500,631
23.13333,631
23.14167,631
23.15000,631
23.15833,631
23.16667,632
23.17500,632
23.18333,632
23.19167,632
23.20000,631
23.20833,631
23.21667,631
23.22500,631
23.23333,631
23.24167,631
23.25000,631
23.25833,631
23.26667,631
23.27500,631
23.28333,631
23.29167,630
23.30000,630
23.30833,630
23.31667,629
23.32500,629
23.33333,628
23.34167,628
23.35000,628
23.35833,628
23.36667,628
23.37500,627
23.38333,627
23.39167,626
23.40000,626
23.40833,625
23.41667,625
23.42500,624
23.43333,623
23.44167,623
23.45000,622
23.45833,622
23.46667,621
23.47500,621
23.48333,621
23.49167,620
23.50000,619
23.50833,619
23.51667,619
23.52500,619
23.53333,619
23.54167,618
23.55000,618
23.55833,618
23.56667,618
23.57500,618
23.58333,617
23.59167,617
23.60000,618
23.60833,618
23.61667,618
23.62500,617
23.63333,617
23.64167,617
23.65000,618
23.65833,618
23.66667,618
23.67500,618
23.68333,618
23.69167,617
23.70000,617
23.70833,617
23.71667,618
23.72500,618
23.73333,619
23.74167,619
23.75000,619
23.75833,620
23.76667,620
23.77500,620
23.78333,621
23.79167,621
23.80000,622
23.80833,622
23.81667,623
23.82500,624
23.83333,624
23.84167,624
23.85000,625
23.85833,625
23.86667,625
23.87500,626
23.88333,626
23.89167,626
23.90000,627
23.90833,627
23.91667,628
23.92500,628
23.93333,629
23.94167,629
23.95000,630
23.95833,631
23.96667,631
23.97500,632
23.98333,633
23.99167,633
24.00000,634
24.00833,634
24.01667,635
24.02500,635
24.03333,635
24.04167,635
24.05000,635
24.05833,636
24.06667,636
24.07500,637
24.08333,638
24.09167,639
24.10000,639
24.10833,639
24.11667,640
24.12500,641
24.13333,642
24.14167,643
24.15000,644
24.15833,644
24.16667,645
24.17500,646
24.18333,646
24.19167,647
24.20000,648
24.20833,648
24.21667,649
24.22500,650
24.23333,650
24.24167,651
24.25000,651
24.25833,651
24.26667,652
24.27500,652
24.28333,653
24.29167,654
24.30000,654
24.30833,654
24.31667,654
24.32500,655
24.33333,655
24.34167,655
24.35000,656
24.35833,656
24.36667,657
24.37500,657
24.38333,657
24.39167,657
24.40000,657
24.40833,657
24.41667,657
24.42500,657
24.43333,657
24.44167,657
24.45000,657
24.45833,657
24.46667,657
24.47500,657
24.48333,657
24.49167,657
24.50000,657
24.50833,658
24.51667,658
24.52500,658
24.53333,658
24.54167,658
24.55000,658
24.55833,658
24.56667,658
24.57500,659
24.58333,659
24.59167,659
24.60000,659
24.60833,659
24.61667,659
24.62500,659
24.63333,659
24.64167,659
24.65000,659
24.65833,659
24.66667,659
24.67500,659
24.68333,659
24.69167,659
24.70000,659
24.70833,659
24.71667,659
24.72500,658
24.73333,658
24.74167,658
24.75000,658
24.75833,658
24.76667,657
24.77500,657
24.78333,657
24.79167,657
24.80000,657
24.80833,656
24.81667,656
24.82500,655
24.83333,654
24.84167,654
24.85000,653
24.85833,653
24.86667,652
24.87500,651
24.88333,651
24.89167,650
24.90000,650
24.90833,649
24.91667,649
24.92500,648
24.93333,648
24.94167,647
24.95000,647
24.95833,647
24.96667,646
24.97500,645
24.98333,645
24.99167,644
25.00000,644
25.00833,643
25.01667,643
25.02500,642
25.03333,641
25.04167,640
25.05000,639
25.05833,638
25.06667,637
25.07500,636
25.08333,636
25.09167,636
25.10000,636
25.10833,636
25.11667,635
25.12500,634
25.13333,634
25.14167,634
25.15000,633
25.15833,632
25.16667,632
25.17500,632
25.18333,631
25.19167,630
25.20000,630
25.20833,630
25.21667,629
25.22500,629
25.23333,628
25.24167,628
25.25000,627
25.25833,627
25.26667,627
25.27500,627
25.28333,627
25.29167,627
25.30000,627
25.30833,626
25.31667,626
25.32500,627
25.33333,627
25.34167,627
25.35000,627
25.35833,627
25.36667,628
25.37500,628
25.38333,629
25.39167,629
25.40000,630
25.40833,631
25.41667,631
25.42500,632
25.43333,632
25.44167,633
25.45000,633
25.45833,634
25.46667,634
25.47500,635
25.48333,635
25.49167,636
25.50000,636
25.50833,637
25.51667,638
25.52500,639
25.53333,640
25.54167,641
25.55000,641
25.55833,642
25.56667,643
25.57500,644
25.58333,644
25.59167,645
25.60000,646
25.60833,647
25.61667,648
25.62500,648
25.63333,649
25.64167,650
25.65000,650
25.65833,650
25.66667,650
25.67500,650
25.68333,651
25.69167,651
25.70000,652
25.70833,652
25.71667,652
25.72500,653
25.73333,653
25.74167,654
25.75000,654
25.75833,655
25.76667,655
25.77500,656
25.78333,656
25.79167,656
25.80000,657
25.80833,657
25.81667,657
25.82500,657
25.83333,658
25.84167,658
25.85000,658
25.85833,659
25.86667,659
25.87500,659
25.88333,659
25.89167,659
25.90000,660
25.90833,660
25.91667,660
25.92500,661
25.93333,661
25.94167,661
25.95000,661
25.95833,661
25.96667,661
25.97500,661
25.98333,661
25.99167,661
26.00000,660
26.00833,660
26.01667,660
26.02500,660
26.03333,659
26.04167,659
26.05000,659
26.05833,658
26.06667,658
26.07500,658
26.08333,657
26.09167,657
26.10000,656
26.10833,656
26.11667,656
26.12500,655
26.13333,655
26.14167,654
26.15000,654
26.15833,653
26.16667,653
26.17500,652
26.18333,652
26.19167,651
26.20000,650
26.20833,650
26.21667,650
26.22500,649
26.23333,649
26.24167,648
26.25000,648
26.25833,647
26.26667,647
26.27500,647
26.28333,646
26.29167,646
26.30000,646
26.30833,646
26.31667,645
26.32500,645
26.33333,645
26.34167,644
26.35000,644
26.35833,644
26.36667,644
26.37500,643
26.38333,643
26.39167,643
26.40000,643
26.40833,644
26.41667,644
26.42500,644
26.43333,644
26.44167,643
26.45000,643
26.45833,643
26.46667,643
26.47500,643
26.48333,643
26.49167,643
26.50000,643
26.50833,643
26.51667,643
26.52500,643
26.53333,643
26.54167,643
26.55000,643
26.55833,643
26.56667,643
26.57500,643
26.58333,642
26.59167,642
26.60000,642
26.60833,641
26.61667,641
26.62500,641
26.63333,640
26.64167,640
26.65000,639
26.65833,639
26.66667,639
26.67500,638
26.68333,637
26.69167,637
26.70000,636
26.70833,636
26.71667,635
26.72500,634
26.73333,634
26.74167,633
26.75000,632
26.75833,631
26.76667,630
26.77500,630
26.78333,629
26.79167,628
26.80000,628
26.80833,627
26.81667,627
26.82500,627
26.83333,626
26.84167,626
26.85000,625
26.85833,624
26.86667,624
26.87500,624
26.88333,624
26.89167,623
26.90000,623
26.90833,623
26.91667,623
26.92500,623
26.93333,623
26.94167,624
26.95000,624
26.95833,624
26.96667,625
26.97500,625
26.98333,626
26.99167,626
27.00000,627
27.00833,628
27.01667,628
27.02500,629
27.03333,629
27.04167,629
27.05000,630
27.05833,630
27.06667,631
27.07500,632
27.08333,633
27.09167,635
27.10000,636
27.10833,637
27.11667,638
27.12500,639
27.13333,640
27.14167,641
27.15000,641
27.15833,642
27.16667,643
27.17500,643
27.18333,644
27.19167,644
27.20000,645
27.20833,646
27.21667,646
27.22500,647
27.23333,647
27.24167,648
27.25000,648
27.25833,648
27.26667,648
27.27500,649
27.28333,649
27.29167,648
27.30000,648
27.30833,648
27.31667,648
27.32500,649
27.33333,648
27.34167,648
27.35000,647
27.35833,647
27.36667,646
27.37500,646
27.38333,645
27.39167,644
27.40000,644
27.40833,643
27.41667,642
27.42500,642
27.43333,642
27.44167,642
27.45000,641
27.45833,641
27.46667,641
27.47500,641
27.48333,641
27.49167,641
27.50000,641
27.50833,641
27.51667,640
27.52500,640
27.53333,640
27.54167,639
27.55000,639
27.55833,639
27.56667,639
27.57500,639
27.58333,639
27.59167,639
27.60000,639
27.60833,639
27.61667,640
27.62500,640
27.63333,640
27.64167,640
27.65000,640
27.65833,641
27.66667,641
27.67500,641
27.68333,641
27.69167,641
27.70000,642
27.70833,642
27.71667,642
27.72500,641
27.73333,641
27.74167,641
27.75000,640
27.75833,640
27.76667,640
27.77500,639
27.78333,638
27.79167,638
27.80000,637
27.80833,636
27.81667,636
27.82500,635
27.83333,634
27.84167,633
27.85000,632
27.85833,630
27.86667,629
27.87500,627
27.88333,626
27.89167,624
27.90000,622
27.90833,620
27.91667,618
27.92500,615
27.93333,612
27.94167,609
27.95000,606
27.95833,603
27.96667,599
27.97500,595
27.98333,591
27.99167,587
28.00000,582
28.00833,577
28.01667,572
28.02500,566
28.03333,560
28.04167,554
28.05000,547
28.05833,540
28.06667,532
28.07500,524
28.08333,516
28.09167,508
28.10000,499
28.10833,490
28.11667,480
28.12500,470
28.13333,460
28.14167,449
28.15000,438
28.15833,427
28.16667,415
28.17500,403
28.18333,390
28.19167,377
28.20000,363
28.20833,349
28.21667,335
28.22500,321
28.23333,306
28.24167,291
28.25000,275
28.25833,260
28.26667,244
28.27500,228
28.28333,212
28.29167,196
28.30000,180
28.30833,163
28.31667,147
28.32500,130
28.33333,114
28.34167,97
28.35000,81
28.35833,65
28.36667,50
28.37500,35
28.38333,19
28.39167,5
28.40000,-10
28.40833,-24
28.41667,-37
28.42500,-50
28.43333,-63
28.44167,-75
28.45000,-86
28.45833,-97
28.46667,-107
28.47500,-117
28.48333,-126
28.49167,-134
28.50000,-141
28.50833,-148
28.51667,-153
28.52500,-159
28.53333,-163
28.54167,-167
28.55000,-170
28.55833,-173
28.56667,-174
28.57500,-175
28.58333,-175
28.59167,-174
28.60000,-172
28.60833,-170
28.61667,-168
28.62500,-165
28.63333,-161
28.64167,-156
28.65000,-151
28.65833,-145
28.66667,-138
28.67500,-131
28.68333,-124
28.69167,-116
28.70000,-108
28.70833,-100
28.71667,-92
28.72500,-83
28.73333,-74
28.74167,-65
28.75000,-55
28.75833,-46
28.76667,-36
28.77500,-26
28.78333,-16
28.79167,-6
28.80000,4
28.80833,14
28.81667,24
28.82500,34
28.83333,44
28.84167,54
28.85000,64
28.85833,73
28.86667,83
28.87500,92
28.88333,100
28.89167,109
28.90000,118
28.90833,126
28.91667,135
28.92500,143
28.93333,151
28.94167,158
28.95000,166
28.95833,173
28.96667,180
28.97500,187
28.98333,194
28.99167,200
29.00000,206
29.00833,212
29.01667,218
29.02500,223
29.03333,229
29.04167,235
29.05000,240
29.05833,245
29.06667,250
29.07500,254
29.08333,259
29.09167,263
29.10000,267
29.10833,271
29.11667,274
29.12500,278
29.13333,281
29.14167,285
29.15000,288
29.15833,292
29.16667,295
29.17500,297
29.18333,300
29.19167,303
29.20000,305
29.20833,308
29.21667,310
29.22500,312
29.23333,314
29.24167,316
29.25000,318
29.25833,320
29.26667,322
29.27500,323
29.28333,325
29.29167,326
29.30000,328
29.30833,329
29.31667,331
29.32500,332
29.33333,333
29.34167,334
29.35000,335
29.35833,336
29.36667,337
29.37500,338
29.38333,339
29.39167,340
29.40000,341
29.40833,341
29.41667,342
29.42500,342
29.43333,342
29.44167,343
29.45000,343
29.45833,343
29.46667,343
29.47500,343
29.48333,342
29.49167,342
29.50000,342
29.50833,342
29.51667,342
29.52500,342
29.53333,342
29.54167,341
29.55000,341
29.55833,341
29.56667,340
29.57500,340
29.58333,339
29.59167,339
29.60000,338
29.60833,336
29.61667,335
29.62500,334
29.63333,333
29.64167,332
29.65000,331
29.65833,330
29.66667,329
29.67500,328
29.68333,327
29.69167,325
29.70000,324
29.70833,322
29.71667,320
29.72500,318
29.73333,316
29.74167,314
29.75000,312
29.75833,309
29.76667,307
29.77500,304
29.78333,301
29.79167,298
29.80000,295
29.80833,292
29.81667,289
29.82500,286
29.83333,282
29.84167,279
29.85000,275
29.85833,272
29.86667,268
29.87500,264
29.88333,260
29.89167,256
29.90000,252
29.90833,247
29.91667,243
29.92500,238
29.93333,234
29.94167,229
29.95000,224
29.95833,219
29.96667,214
29.97500,209
29.98333,204
29.99167,199
30.00000,194

