[Header]
Application Name,LabSolutions
Version,5.97 SP1
Data File Name,C:\Users\cremerlab\Desktop\griffin\2021-02-15_NCM_diauxie_turnover\2021-02-15_NCM_acetate_glucose_diauxie_turnover_2152021_011.lcd
Output Date,2/16/2021
Output Time,12:37:53 PM

[File Information]
Type,Data File
Generated,2/16/2021 1:28:39 AM
Generated by,System Administrator
Modified,2/16/2021 1:58:58 AM
Modified by,System Administrator

[Sample Information]
Operator Name,System Administrator
Acquired,2/16/2021 1:28:57 AM
Sample Type,0:Unknown
Level,0
Sample Name,30 mM acetate medium 20 uL
Sample ID,002
ISTD Amount1,1
ISTD Amount2,1
ISTD Amount3,1
ISTD Amount4,1
ISTD Amount5,1
ISTD Amount6,1
ISTD Amount7,1
ISTD Amount8,1
ISTD Amount9,1
ISTD Amount10,1
ISTD Amount11,1
ISTD Amount12,1
ISTD Amount13,1
ISTD Amount14,1
ISTD Amount15,1
ISTD Amount16,1
ISTD Amount17,1
ISTD Amount18,1
ISTD Amount19,1
ISTD Amount20,1
ISTD Amount21,1
ISTD Amount22,1
ISTD Amount23,1
ISTD Amount24,1
ISTD Amount25,1
ISTD Amount26,1
ISTD Amount27,1
ISTD Amount28,1
ISTD Amount29,1
ISTD Amount30,1
ISTD Amount31,1
ISTD Amount32,1
Sample Amount,1
Dilution Factor,1
Vial#,11
Injection Volume,20

[Original Files]
Data File,C:\Users\cremerlab\Desktop\griffin\2021-02-15_NCM_diauxie_turnover\2021-02-15_NCM_acetate_glucose_diauxie_turnover_2152021_011.lcd
Method File,C:\LabSolutions\Data\Project1\organicacidsetc.lcm
Batch File,C:\Users\cremerlab\Desktop\griffin\2021-02-15_NCM_diauxie_turnover\2021-02-15_NCM_acetate_glucose_diauxie_turnover.lcb
Report Format File,c:\LabSolutions\System\DEFAULT.lsr

[File Description]


[Configuration]
Instrument Name,HPLC-PC-Instrument1
Instrument #,1
Line #,1
# of Detectors,2
Detector ID,Detector A,Detector B
Detector Name,Detector A,Detector B
# of Channels,1,1

[Peak Table(Detector A)]
# of Peaks,0

[Peak Table(Detector B)]
# of Peaks,3
Peak#,R.Time,I.Time,F.Time,Area,Height,A/H,Conc.,Mark,ID#,Name,k',Plate #,Plate Ht.,Tailing,Resolution,Sep.Factor,Area Ratio,Height Ratio,Conc. %,Norm Conc.
1,10.876,10.625,11.542,130590,8270,15.791,0.000,   ,,,0.000,11001,13.636,1.295,0.000,0.000,0,0,0.000,0.000
2,13.424,12.550,14.283,477451,18626,25.633,0.000,   ,,,0.234,5656,26.521,0.722,4.515,0.000,0,0,0.000,0.000
3,24.909,24.300,25.642,44723,1610,27.782,0.000,   ,,,1.290,18163,8.259,1.038,15.806,5.507,0,0,0.000,0.000

[Compound Results(Detector A)]
# of IDs,0

[Compound Results(Detector B)]
# of IDs,0

[LC Chromatogram(Detector B-Ch1)]
Interval(msec),500
# of Points,3601
Start Time(min),0.000
End Time(min),30.000
Intensity Units,mV
Intensity Multiplier,0.001
R.Time (min),Intensity
0.00000,-65
0.00833,-65
0.01667,0
0.02500,1
0.03333,2
0.04167,2
0.05000,1
0.05833,-0
0.06667,-1
0.07500,-0
0.08333,1
0.09167,3
0.10000,6
0.10833,10
0.11667,13
0.12500,17
0.13333,21
0.14167,25
0.15000,29
0.15833,33
0.16667,36
0.17500,40
0.18333,44
0.19167,47
0.20000,52
0.20833,56
0.21667,60
0.22500,63
0.23333,67
0.24167,71
0.25000,75
0.25833,79
0.26667,83
0.27500,87
0.28333,90
0.29167,94
0.30000,98
0.30833,101
0.31667,105
0.32500,109
0.33333,112
0.34167,116
0.35000,120
0.35833,123
0.36667,127
0.37500,130
0.38333,133
0.39167,136
0.40000,139
0.40833,142
0.41667,144
0.42500,147
0.43333,149
0.44167,152
0.45000,155
0.45833,157
0.46667,159
0.47500,161
0.48333,163
0.49167,165
0.50000,167
0.50833,170
0.51667,172
0.52500,174
0.53333,175
0.54167,177
0.55000,179
0.55833,180
0.56667,182
0.57500,184
0.58333,187
0.59167,189
0.60000,190
0.60833,192
0.61667,193
0.62500,194
0.63333,195
0.64167,196
0.65000,196
0.65833,196
0.66667,196
0.67500,197
0.68333,197
0.69167,197
0.70000,198
0.70833,199
0.71667,200
0.72500,201
0.73333,202
0.74167,203
0.75000,204
0.75833,205
0.76667,206
0.77500,207
0.78333,209
0.79167,210
0.80000,212
0.80833,213
0.81667,214
0.82500,215
0.83333,217
0.84167,218
0.85000,220
0.85833,221
0.86667,222
0.87500,223
0.88333,224
0.89167,226
0.90000,227
0.90833,228
0.91667,230
0.92500,231
0.93333,232
0.94167,233
0.95000,234
0.95833,236
0.96667,237
0.97500,239
0.98333,240
0.99167,241
1.00000,243
1.00833,243
1.01667,244
1.02500,246
1.03333,247
1.04167,248
1.05000,250
1.05833,251
1.06667,253
1.07500,255
1.08333,256
1.09167,257
1.10000,258
1.10833,260
1.11667,261
1.12500,263
1.13333,264
1.14167,266
1.15000,267
1.15833,268
1.16667,270
1.17500,271
1.18333,272
1.19167,273
1.20000,274
1.20833,276
1.21667,277
1.22500,279
1.23333,280
1.24167,281
1.25000,283
1.25833,284
1.26667,286
1.27500,287
1.28333,288
1.29167,289
1.30000,290
1.30833,292
1.31667,293
1.32500,295
1.33333,296
1.34167,298
1.35000,299
1.35833,300
1.36667,301
1.37500,302
1.38333,303
1.39167,304
1.40000,305
1.40833,306
1.41667,307
1.42500,308
1.43333,309
1.44167,310
1.45000,310
1.45833,311
1.46667,311
1.47500,312
1.48333,313
1.49167,313
1.50000,314
1.50833,315
1.51667,315
1.52500,316
1.53333,316
1.54167,317
1.55000,317
1.55833,318
1.56667,318
1.57500,319
1.58333,320
1.59167,320
1.60000,321
1.60833,322
1.61667,322
1.62500,323
1.63333,323
1.64167,324
1.65000,325
1.65833,325
1.66667,326
1.67500,326
1.68333,327
1.69167,328
1.70000,329
1.70833,330
1.71667,331
1.72500,331
1.73333,332
1.74167,333
1.75000,334
1.75833,335
1.76667,336
1.77500,337
1.78333,339
1.79167,340
1.80000,341
1.80833,343
1.81667,344
1.82500,346
1.83333,347
1.84167,348
1.85000,350
1.85833,351
1.86667,352
1.87500,354
1.88333,355
1.89167,357
1.90000,359
1.90833,360
1.91667,362
1.92500,363
1.93333,365
1.94167,366
1.95000,367
1.95833,369
1.96667,370
1.97500,372
1.98333,374
1.99167,375
2.00000,376
2.00833,377
2.01667,378
2.02500,379
2.03333,380
2.04167,381
2.05000,382
2.05833,383
2.06667,384
2.07500,385
2.08333,385
2.09167,386
2.10000,387
2.10833,388
2.11667,388
2.12500,389
2.13333,389
2.14167,390
2.15000,390
2.15833,391
2.16667,391
2.17500,391
2.18333,392
2.19167,392
2.20000,393
2.20833,393
2.21667,393
2.22500,393
2.23333,392
2.24167,392
2.25000,392
2.25833,392
2.26667,392
2.27500,392
2.28333,391
2.29167,391
2.30000,391
2.30833,391
2.31667,390
2.32500,390
2.33333,390
2.34167,390
2.35000,390
2.35833,389
2.36667,389
2.37500,389
2.38333,389
2.39167,388
2.40000,389
2.40833,389
2.41667,389
2.42500,388
2.43333,388
2.44167,388
2.45000,388
2.45833,388
2.46667,388
2.47500,389
2.48333,389
2.49167,389
2.50000,389
2.50833,390
2.51667,390
2.52500,390
2.53333,391
2.54167,391
2.55000,392
2.55833,393
2.56667,394
2.57500,394
2.58333,395
2.59167,396
2.60000,397
2.60833,398
2.61667,398
2.62500,399
2.63333,400
2.64167,401
2.65000,402
2.65833,403
2.66667,404
2.67500,405
2.68333,406
2.69167,407
2.70000,408
2.70833,409
2.71667,410
2.72500,411
2.73333,412
2.74167,413
2.75000,413
2.75833,414
2.76667,414
2.77500,415
2.78333,416
2.79167,416
2.80000,417
2.80833,418
2.81667,419
2.82500,419
2.83333,420
2.84167,420
2.85000,420
2.85833,420
2.86667,421
2.87500,421
2.88333,421
2.89167,422
2.90000,423
2.90833,423
2.91667,424
2.92500,425
2.93333,425
2.94167,425
2.95000,425
2.95833,425
2.96667,425
2.97500,426
2.98333,426
2.99167,426
3.00000,426
3.00833,426
3.01667,426
3.02500,426
3.03333,425
3.04167,426
3.05000,426
3.05833,426
3.06667,427
3.07500,427
3.08333,427
3.09167,428
3.10000,428
3.10833,428
3.11667,428
3.12500,429
3.13333,429
3.14167,429
3.15000,429
3.15833,429
3.16667,429
3.17500,429
3.18333,429
3.19167,430
3.20000,430
3.20833,430
3.21667,431
3.22500,431
3.23333,431
3.24167,432
3.25000,433
3.25833,433
3.26667,434
3.27500,434
3.28333,435
3.29167,436
3.30000,436
3.30833,438
3.31667,439
3.32500,440
3.33333,442
3.34167,443
3.35000,445
3.35833,446
3.36667,447
3.37500,448
3.38333,449
3.39167,451
3.40000,452
3.40833,454
3.41667,455
3.42500,457
3.43333,459
3.44167,460
3.45000,462
3.45833,463
3.46667,465
3.47500,466
3.48333,468
3.49167,470
3.50000,471
3.50833,473
3.51667,475
3.52500,477
3.53333,478
3.54167,480
3.55000,481
3.55833,482
3.56667,483
3.57500,484
3.58333,486
3.59167,487
3.60000,489
3.60833,490
3.61667,492
3.62500,493
3.63333,494
3.64167,495
3.65000,496
3.65833,497
3.66667,498
3.67500,498
3.68333,499
3.69167,500
3.70000,501
3.70833,501
3.71667,501
3.72500,502
3.73333,503
3.74167,504
3.75000,504
3.75833,505
3.76667,506
3.77500,506
3.78333,507
3.79167,507
3.80000,508
3.80833,508
3.81667,509
3.82500,509
3.83333,510
3.84167,512
3.85000,512
3.85833,513
3.86667,514
3.87500,514
3.88333,515
3.89167,515
3.90000,516
3.90833,516
3.91667,516
3.92500,517
3.93333,518
3.94167,519
3.95000,520
3.95833,522
3.96667,522
3.97500,523
3.98333,524
3.99167,525
4.00000,525
4.00833,526
4.01667,527
4.02500,528
4.03333,529
4.04167,530
4.05000,531
4.05833,532
4.06667,532
4.07500,532
4.08333,533
4.09167,533
4.10000,534
4.10833,535
4.11667,536
4.12500,536
4.13333,537
4.14167,538
4.15000,538
4.15833,538
4.16667,539
4.17500,539
4.18333,540
4.19167,540
4.20000,540
4.20833,540
4.21667,540
4.22500,540
4.23333,540
4.24167,540
4.25000,541
4.25833,541
4.26667,541
4.27500,540
4.28333,540
4.29167,540
4.30000,540
4.30833,540
4.31667,540
4.32500,540
4.33333,540
4.34167,540
4.35000,540
4.35833,540
4.36667,540
4.37500,539
4.38333,539
4.39167,539
4.40000,539
4.40833,539
4.41667,540
4.42500,540
4.43333,541
4.44167,541
4.45000,541
4.45833,542
4.46667,542
4.47500,543
4.48333,543
4.49167,544
4.50000,543
4.50833,543
4.51667,544
4.52500,544
4.53333,545
4.54167,545
4.55000,546
4.55833,547
4.56667,547
4.57500,548
4.58333,549
4.59167,549
4.60000,550
4.60833,551
4.61667,551
4.62500,552
4.63333,552
4.64167,553
4.65000,554
4.65833,555
4.66667,555
4.67500,556
4.68333,557
4.69167,558
4.70000,558
4.70833,559
4.71667,559
4.72500,559
4.73333,559
4.74167,559
4.75000,559
4.75833,560
4.76667,560
4.77500,560
4.78333,560
4.79167,561
4.80000,561
4.80833,561
4.81667,561
4.82500,562
4.83333,562
4.84167,562
4.85000,562
4.85833,562
4.86667,562
4.87500,562
4.88333,562
4.89167,562
4.90000,562
4.90833,562
4.91667,562
4.92500,561
4.93333,561
4.94167,561
4.95000,561
4.95833,561
4.96667,561
4.97500,560
4.98333,560
4.99167,560
5.00000,560
5.00833,560
5.01667,560
5.02500,560
5.03333,560
5.04167,560
5.05000,560
5.05833,560
5.06667,560
5.07500,560
5.08333,559
5.09167,560
5.10000,560
5.10833,560
5.11667,561
5.12500,561
5.13333,562
5.14167,562
5.15000,562
5.15833,563
5.16667,563
5.17500,563
5.18333,564
5.19167,564
5.20000,564
5.20833,564
5.21667,564
5.22500,564
5.23333,565
5.24167,566
5.25000,567
5.25833,568
5.26667,569
5.27500,570
5.28333,571
5.29167,571
5.30000,572
5.30833,573
5.31667,573
5.32500,573
5.33333,574
5.34167,575
5.35000,576
5.35833,576
5.36667,577
5.37500,577
5.38333,578
5.39167,578
5.40000,578
5.40833,578
5.41667,579
5.42500,579
5.43333,579
5.44167,579
5.45000,579
5.45833,579
5.46667,580
5.47500,580
5.48333,580
5.49167,580
5.50000,580
5.50833,581
5.51667,581
5.52500,581
5.53333,581
5.54167,581
5.55000,581
5.55833,581
5.56667,581
5.57500,581
5.58333,581
5.59167,580
5.60000,580
5.60833,579
5.61667,578
5.62500,578
5.63333,577
5.64167,577
5.65000,576
5.65833,575
5.66667,575
5.67500,574
5.68333,573
5.69167,573
5.70000,572
5.70833,572
5.71667,572
5.72500,572
5.73333,571
5.74167,570
5.75000,570
5.75833,569
5.76667,569
5.77500,568
5.78333,568
5.79167,568
5.80000,567
5.80833,567
5.81667,567
5.82500,567
5.83333,567
5.84167,567
5.85000,567
5.85833,567
5.86667,567
5.87500,567
5.88333,567
5.89167,568
5.90000,568
5.90833,569
5.91667,569
5.92500,570
5.93333,570
5.94167,571
5.95000,572
5.95833,572
5.96667,573
5.97500,573
5.98333,574
5.99167,575
6.00000,576
6.00833,577
6.01667,578
6.02500,579
6.03333,580
6.04167,582
6.05000,583
6.05833,585
6.06667,586
6.07500,587
6.08333,589
6.09167,590
6.10000,592
6.10833,593
6.11667,595
6.12500,596
6.13333,597
6.14167,598
6.15000,599
6.15833,600
6.16667,601
6.17500,603
6.18333,604
6.19167,605
6.20000,605
6.20833,606
6.21667,607
6.22500,608
6.23333,608
6.24167,609
6.25000,610
6.25833,610
6.26667,611
6.27500,611
6.28333,611
6.29167,612
6.30000,612
6.30833,613
6.31667,613
6.32500,614
6.33333,614
6.34167,614
6.35000,614
6.35833,614
6.36667,614
6.37500,615
6.38333,615
6.39167,615
6.40000,616
6.40833,616
6.41667,616
6.42500,616
6.43333,616
6.44167,616
6.45000,616
6.45833,617
6.46667,617
6.47500,617
6.48333,616
6.49167,616
6.50000,616
6.50833,617
6.51667,617
6.52500,616
6.53333,616
6.54167,616
6.55000,616
6.55833,616
6.56667,616
6.57500,616
6.58333,616
6.59167,616
6.60000,616
6.60833,616
6.61667,616
6.62500,616
6.63333,616
6.64167,616
6.65000,616
6.65833,617
6.66667,617
6.67500,617
6.68333,617
6.69167,617
6.70000,617
6.70833,618
6.71667,618
6.72500,618
6.73333,617
6.74167,617
6.75000,617
6.75833,617
6.76667,617
6.77500,617
6.78333,617
6.79167,617
6.80000,618
6.80833,619
6.81667,619
6.82500,620
6.83333,620
6.84167,621
6.85000,622
6.85833,623
6.86667,623
6.87500,624
6.88333,625
6.89167,626
6.90000,627
6.90833,628
6.91667,629
6.92500,630
6.93333,631
6.94167,632
6.95000,633
6.95833,634
6.96667,635
6.97500,636
6.98333,637
6.99167,638
7.00000,638
7.00833,639
7.01667,639
7.02500,640
7.03333,640
7.04167,641
7.05000,641
7.05833,642
7.06667,642
7.07500,642
7.08333,643
7.09167,643
7.10000,643
7.10833,644
7.11667,644
7.12500,644
7.13333,644
7.14167,644
7.15000,644
7.15833,644
7.16667,643
7.17500,643
7.18333,643
7.19167,643
7.20000,643
7.20833,642
7.21667,642
7.22500,642
7.23333,642
7.24167,641
7.25000,641
7.25833,640
7.26667,639
7.27500,639
7.28333,639
7.29167,638
7.30000,638
7.30833,637
7.31667,636
7.32500,636
7.33333,635
7.34167,635
7.35000,634
7.35833,633
7.36667,633
7.37500,633
7.38333,633
7.39167,632
7.40000,631
7.40833,631
7.41667,630
7.42500,629
7.43333,628
7.44167,628
7.45000,627
7.45833,627
7.46667,626
7.47500,626
7.48333,625
7.49167,625
7.50000,624
7.50833,623
7.51667,622
7.52500,621
7.53333,621
7.54167,620
7.55000,619
7.55833,618
7.56667,617
7.57500,617
7.58333,616
7.59167,615
7.60000,615
7.60833,614
7.61667,613
7.62500,611
7.63333,610
7.64167,609
7.65000,609
7.65833,608
7.66667,606
7.67500,606
7.68333,605
7.69167,604
7.70000,603
7.70833,601
7.71667,600
7.72500,600
7.73333,599
7.74167,598
7.75000,598
7.75833,597
7.76667,597
7.77500,596
7.78333,595
7.79167,594
7.80000,593
7.80833,592
7.81667,592
7.82500,591
7.83333,591
7.84167,590
7.85000,590
7.85833,589
7.86667,589
7.87500,588
7.88333,588
7.89167,588
7.90000,588
7.90833,587
7.91667,587
7.92500,587
7.93333,587
7.94167,587
7.95000,587
7.95833,588
7.96667,588
7.97500,588
7.98333,589
7.99167,589
8.00000,589
8.00833,589
8.01667,589
8.02500,590
8.03333,590
8.04167,590
8.05000,591
8.05833,591
8.06667,592
8.07500,592
8.08333,592
8.09167,592
8.10000,592
8.10833,592
8.11667,592
8.12500,593
8.13333,594
8.14167,594
8.15000,595
8.15833,595
8.16667,596
8.17500,596
8.18333,595
8.19167,596
8.20000,596
8.20833,596
8.21667,597
8.22500,597
8.23333,597
8.24167,597
8.25000,597
8.25833,597
8.26667,597
8.27500,598
8.28333,598
8.29167,598
8.30000,599
8.30833,599
8.31667,599
8.32500,599
8.33333,599
8.34167,599
8.35000,599
8.35833,599
8.36667,598
8.37500,598
8.38333,598
8.39167,597
8.40000,597
8.40833,596
8.41667,596
8.42500,596
8.43333,595
8.44167,595
8.45000,595
8.45833,594
8.46667,594
8.47500,594
8.48333,594
8.49167,593
8.50000,593
8.50833,592
8.51667,592
8.52500,591
8.53333,591
8.54167,590
8.55000,589
8.55833,589
8.56667,588
8.57500,587
8.58333,587
8.59167,586
8.60000,586
8.60833,586
8.61667,586
8.62500,586
8.63333,585
8.64167,585
8.65000,585
8.65833,585
8.66667,584
8.67500,584
8.68333,583
8.69167,583
8.70000,583
8.70833,582
8.71667,582
8.72500,582
8.73333,582
8.74167,582
8.75000,582
8.75833,582
8.76667,581
8.77500,581
8.78333,581
8.79167,581
8.80000,582
8.80833,582
8.81667,582
8.82500,583
8.83333,583
8.84167,584
8.85000,585
8.85833,585
8.86667,585
8.87500,586
8.88333,587
8.89167,587
8.90000,588
8.90833,589
8.91667,591
8.92500,592
8.93333,593
8.94167,594
8.95000,595
8.95833,596
8.96667,597
8.97500,599
8.98333,600
8.99167,602
9.00000,603
9.00833,604
9.01667,606
9.02500,607
9.03333,608
9.04167,609
9.05000,611
9.05833,613
9.06667,615
9.07500,616
9.08333,618
9.09167,619
9.10000,620
9.10833,621
9.11667,621
9.12500,622
9.13333,623
9.14167,624
9.15000,625
9.15833,625
9.16667,626
9.17500,627
9.18333,628
9.19167,628
9.20000,629
9.20833,630
9.21667,630
9.22500,631
9.23333,631
9.24167,631
9.25000,631
9.25833,631
9.26667,631
9.27500,631
9.28333,631
9.29167,631
9.30000,630
9.30833,630
9.31667,630
9.32500,629
9.33333,629
9.34167,628
9.35000,628
9.35833,628
9.36667,628
9.37500,627
9.38333,626
9.39167,626
9.40000,625
9.40833,624
9.41667,624
9.42500,623
9.43333,622
9.44167,621
9.45000,621
9.45833,620
9.46667,620
9.47500,619
9.48333,619
9.49167,619
9.50000,619
9.50833,618
9.51667,618
9.52500,618
9.53333,617
9.54167,617
9.55000,616
9.55833,616
9.56667,616
9.57500,616
9.58333,615
9.59167,615
9.60000,615
9.60833,615
9.61667,615
9.62500,615
9.63333,615
9.64167,615
9.65000,615
9.65833,615
9.66667,615
9.67500,615
9.68333,615
9.69167,615
9.70000,615
9.70833,615
9.71667,615
9.72500,615
9.73333,614
9.74167,614
9.75000,614
9.75833,614
9.76667,615
9.77500,615
9.78333,615
9.79167,615
9.80000,615
9.80833,615
9.81667,615
9.82500,615
9.83333,615
9.84167,615
9.85000,615
9.85833,615
9.86667,615
9.87500,614
9.88333,614
9.89167,614
9.90000,614
9.90833,613
9.91667,613
9.92500,613
9.93333,613
9.94167,613
9.95000,613
9.95833,613
9.96667,613
9.97500,613
9.98333,613
9.99167,613
10.00000,613
10.00833,613
10.01667,613
10.02500,613
10.03333,612
10.04167,612
10.05000,612
10.05833,612
10.06667,611
10.07500,611
10.08333,612
10.09167,612
10.10000,612
10.10833,611
10.11667,611
10.12500,611
10.13333,611
10.14167,611
10.15000,611
10.15833,612
10.16667,612
10.17500,612
10.18333,613
10.19167,613
10.20000,613
10.20833,614
10.21667,614
10.22500,614
10.23333,614
10.24167,614
10.25000,614
10.25833,614
10.26667,614
10.27500,614
10.28333,614
10.29167,614
10.30000,614
10.30833,614
10.31667,614
10.32500,614
10.33333,614
10.34167,614
10.35000,614
10.35833,614
10.36667,613
10.37500,612
10.38333,611
10.39167,611
10.40000,609
10.40833,608
10.41667,607
10.42500,605
10.43333,602
10.44167,599
10.45000,594
10.45833,588
10.46667,580
10.47500,570
10.48333,558
10.49167,543
10.50000,525
10.50833,503
10.51667,477
10.52500,447
10.53333,413
10.54167,375
10.55000,334
10.55833,290
10.56667,244
10.57500,198
10.58333,154
10.59167,114
10.60000,80
10.60833,56
10.61667,44
10.62500,48
10.63333,71
10.64167,117
10.65000,188
10.65833,287
10.66667,417
10.67500,581
10.68333,778
10.69167,1012
10.70000,1281
10.70833,1585
10.71667,1923
10.72500,2293
10.73333,2691
10.74167,3114
10.75000,3557
10.75833,4015
10.76667,4483
10.77500,4955
10.78333,5422
10.79167,5878
10.80000,6317
10.80833,6730
10.81667,7112
10.82500,7456
10.83333,7756
10.84167,8007
10.85000,8207
10.85833,8352
10.86667,8440
10.87500,8472
10.88333,8447
10.89167,8369
10.90000,8241
10.90833,8066
10.91667,7849
10.92500,7594
10.93333,7309
10.94167,6998
10.95000,6668
10.95833,6325
10.96667,5972
10.97500,5616
10.98333,5261
10.99167,4911
11.00000,4569
11.00833,4239
11.01667,3922
11.02500,3620
11.03333,3336
11.04167,3069
11.05000,2820
11.05833,2589
11.06667,2377
11.07500,2182
11.08333,2005
11.09167,1845
11.10000,1700
11.10833,1570
11.11667,1453
11.12500,1349
11.13333,1256
11.14167,1174
11.15000,1101
11.15833,1038
11.16667,982
11.17500,933
11.18333,891
11.19167,854
11.20000,823
11.20833,795
11.21667,771
11.22500,751
11.23333,733
11.24167,718
11.25000,705
11.25833,694
11.26667,685
11.27500,676
11.28333,669
11.29167,663
11.30000,657
11.30833,652
11.31667,647
11.32500,643
11.33333,640
11.34167,637
11.35000,634
11.35833,632
11.36667,630
11.37500,628
11.38333,626
11.39167,625
11.40000,623
11.40833,622
11.41667,620
11.42500,619
11.43333,618
11.44167,617
11.45000,616
11.45833,616
11.46667,615
11.47500,615
11.48333,614
11.49167,614
11.50000,613
11.50833,613
11.51667,612
11.52500,612
11.53333,611
11.54167,611
11.55000,611
11.55833,610
11.56667,609
11.57500,609
11.58333,608
11.59167,608
11.60000,607
11.60833,607
11.61667,606
11.62500,605
11.63333,604
11.64167,604
11.65000,604
11.65833,603
11.66667,603
11.67500,602
11.68333,602
11.69167,602
11.70000,601
11.70833,600
11.71667,600
11.72500,599
11.73333,598
11.74167,597
11.75000,596
11.75833,595
11.76667,594
11.77500,594
11.78333,593
11.79167,592
11.80000,591
11.80833,590
11.81667,589
11.82500,589
11.83333,589
11.84167,588
11.85000,588
11.85833,587
11.86667,587
11.87500,587
11.88333,587
11.89167,586
11.90000,586
11.90833,586
11.91667,586
11.92500,586
11.93333,586
11.94167,586
11.95000,586
11.95833,587
11.96667,587
11.97500,587
11.98333,587
11.99167,587
12.00000,587
12.00833,588
12.01667,588
12.02500,588
12.03333,589
12.04167,589
12.05000,589
12.05833,590
12.06667,591
12.07500,591
12.08333,592
12.09167,593
12.10000,593
12.10833,593
12.11667,594
12.12500,594
12.13333,594
12.14167,594
12.15000,595
12.15833,595
12.16667,596
12.17500,596
12.18333,597
12.19167,597
12.20000,597
12.20833,598
12.21667,598
12.22500,598
12.23333,598
12.24167,598
12.25000,599
12.25833,599
12.26667,599
12.27500,599
12.28333,598
12.29167,598
12.30000,598
12.30833,598
12.31667,598
12.32500,598
12.33333,598
12.34167,597
12.35000,597
12.35833,597
12.36667,597
12.37500,597
12.38333,597
12.39167,597
12.40000,597
12.40833,596
12.41667,596
12.42500,595
12.43333,595
12.44167,595
12.45000,594
12.45833,594
12.46667,594
12.47500,594
12.48333,594
12.49167,594
12.50000,594
12.50833,594
12.51667,594
12.52500,594
12.53333,595
12.54167,595
12.55000,595
12.55833,596
12.56667,596
12.57500,597
12.58333,599
12.59167,600
12.60000,603
12.60833,606
12.61667,609
12.62500,614
12.63333,619
12.64167,625
12.65000,632
12.65833,641
12.66667,653
12.67500,666
12.68333,681
12.69167,699
12.70000,720
12.70833,745
12.71667,774
12.72500,807
12.73333,845
12.74167,889
12.75000,938
12.75833,992
12.76667,1053
12.77500,1120
12.78333,1194
12.79167,1275
12.80000,1363
12.80833,1458
12.81667,1560
12.82500,1670
12.83333,1787
12.84167,1911
12.85000,2042
12.85833,2180
12.86667,2326
12.87500,2478
12.88333,2636
12.89167,2801
12.90000,2972
12.90833,3149
12.91667,3331
12.92500,3519
12.93333,3712
12.94167,3910
12.95000,4113
12.95833,4321
12.96667,4533
12.97500,4749
12.98333,4970
12.99167,5194
13.00000,5423
13.00833,5655
13.01667,5890
13.02500,6129
13.03333,6372
13.04167,6617
13.05000,6865
13.05833,7117
13.06667,7371
13.07500,7628
13.08333,7888
13.09167,8151
13.10000,8416
13.10833,8683
13.11667,8953
13.12500,9225
13.13333,9500
13.14167,9776
13.15000,10056
13.15833,10337
13.16667,10621
13.17500,10907
13.18333,11195
13.19167,11485
13.20000,11777
13.20833,12071
13.21667,12367
13.22500,12665
13.23333,12965
13.24167,13266
13.25000,13570
13.25833,13876
13.26667,14183
13.27500,14492
13.28333,14803
13.29167,15115
13.30000,15428
13.30833,15742
13.31667,16057
13.32500,16373
13.33333,16688
13.34167,17003
13.35000,17315
13.35833,17624
13.36667,17926
13.37500,18216
13.38333,18491
13.39167,18740
13.40000,18955
13.40833,19123
13.41667,19231
13.42500,19264
13.43333,19207
13.44167,19047
13.45000,18773
13.45833,18380
13.46667,17866
13.47500,17234
13.48333,16495
13.49167,15663
13.50000,14756
13.50833,13796
13.51667,12804
13.52500,11801
13.53333,10808
13.54167,9842
13.55000,8918
13.55833,8046
13.56667,7234
13.57500,6487
13.58333,5806
13.59167,5191
13.60000,4640
13.60833,4150
13.61667,3716
13.62500,3335
13.63333,3000
13.64167,2709
13.65000,2455
13.65833,2234
13.66667,2043
13.67500,1877
13.68333,1733
13.69167,1609
13.70000,1502
13.70833,1409
13.71667,1328
13.72500,1259
13.73333,1199
13.74167,1146
13.75000,1100
13.75833,1060
13.76667,1025
13.77500,994
13.78333,967
13.79167,943
13.80000,922
13.80833,903
13.81667,886
13.82500,871
13.83333,857
13.84167,845
13.85000,833
13.85833,823
13.86667,814
13.87500,805
13.88333,797
13.89167,789
13.90000,783
13.90833,777
13.91667,771
13.92500,766
13.93333,762
13.94167,757
13.95000,753
13.95833,748
13.96667,744
13.97500,741
13.98333,737
13.99167,734
14.00000,731
14.00833,728
14.01667,725
14.02500,723
14.03333,720
14.04167,717
14.05000,715
14.05833,712
14.06667,710
14.07500,708
14.08333,706
14.09167,704
14.10000,703
14.10833,701
14.11667,700
14.12500,698
14.13333,697
14.14167,696
14.15000,694
14.15833,693
14.16667,692
14.17500,691
14.18333,689
14.19167,688
14.20000,687
14.20833,686
14.21667,685
14.22500,684
14.23333,683
14.24167,682
14.25000,681
14.25833,681
14.26667,680
14.27500,680
14.28333,680
14.29167,679
14.30000,679
14.30833,679
14.31667,678
14.32500,677
14.33333,677
14.34167,676
14.35000,676
14.35833,675
14.36667,675
14.37500,675
14.38333,675
14.39167,674
14.40000,674
14.40833,674
14.41667,674
14.42500,674
14.43333,673
14.44167,673
14.45000,673
14.45833,673
14.46667,673
14.47500,673
14.48333,673
14.49167,673
14.50000,673
14.50833,673
14.51667,673
14.52500,673
14.53333,673
14.54167,673
14.55000,673
14.55833,672
14.56667,672
14.57500,672
14.58333,672
14.59167,672
14.60000,672
14.60833,672
14.61667,671
14.62500,671
14.63333,671
14.64167,671
14.65000,671
14.65833,671
14.66667,670
14.67500,670
14.68333,669
14.69167,669
14.70000,669
14.70833,669
14.71667,668
14.72500,668
14.73333,668
14.74167,668
14.75000,669
14.75833,669
14.76667,669
14.77500,669
14.78333,669
14.79167,669
14.80000,669
14.80833,669
14.81667,669
14.82500,669
14.83333,669
14.84167,669
14.85000,669
14.85833,669
14.86667,670
14.87500,670
14.88333,670
14.89167,670
14.90000,670
14.90833,671
14.91667,671
14.92500,671
14.93333,671
14.94167,672
14.95000,672
14.95833,672
14.96667,672
14.97500,672
14.98333,672
14.99167,672
15.00000,672
15.00833,672
15.01667,671
15.02500,671
15.03333,670
15.04167,670
15.05000,669
15.05833,668
15.06667,667
15.07500,666
15.08333,666
15.09167,665
15.10000,664
15.10833,663
15.11667,662
15.12500,661
15.13333,660
15.14167,659
15.15000,658
15.15833,656
15.16667,655
15.17500,654
15.18333,653
15.19167,653
15.20000,652
15.20833,651
15.21667,650
15.22500,649
15.23333,648
15.24167,648
15.25000,647
15.25833,646
15.26667,645
15.27500,644
15.28333,643
15.29167,643
15.30000,642
15.30833,642
15.31667,642
15.32500,641
15.33333,641
15.34167,640
15.35000,640
15.35833,640
15.36667,640
15.37500,640
15.38333,639
15.39167,639
15.40000,639
15.40833,639
15.41667,639
15.42500,638
15.43333,638
15.44167,638
15.45000,638
15.45833,638
15.46667,637
15.47500,637
15.48333,637
15.49167,637
15.50000,636
15.50833,636
15.51667,635
15.52500,635
15.53333,634
15.54167,634
15.55000,633
15.55833,633
15.56667,632
15.57500,632
15.58333,631
15.59167,631
15.60000,630
15.60833,630
15.61667,629
15.62500,629
15.63333,628
15.64167,627
15.65000,626
15.65833,625
15.66667,624
15.67500,624
15.68333,623
15.69167,623
15.70000,622
15.70833,622
15.71667,622
15.72500,622
15.73333,622
15.74167,622
15.75000,622
15.75833,622
15.76667,622
15.77500,622
15.78333,622
15.79167,622
15.80000,622
15.80833,622
15.81667,622
15.82500,622
15.83333,622
15.84167,622
15.85000,622
15.85833,622
15.86667,622
15.87500,622
15.88333,622
15.89167,622
15.90000,623
15.90833,623
15.91667,623
15.92500,624
15.93333,624
15.94167,625
15.95000,625
15.95833,625
15.96667,625
15.97500,625
15.98333,625
15.99167,625
16.00000,625
16.00833,625
16.01667,624
16.02500,625
16.03333,626
16.04167,626
16.05000,627
16.05833,627
16.06667,628
16.07500,628
16.08333,627
16.09167,627
16.10000,628
16.10833,628
16.11667,628
16.12500,628
16.13333,628
16.14167,628
16.15000,628
16.15833,628
16.16667,628
16.17500,628
16.18333,628
16.19167,628
16.20000,628
16.20833,628
16.21667,628
16.22500,628
16.23333,628
16.24167,628
16.25000,628
16.25833,628
16.26667,628
16.27500,628
16.28333,628
16.29167,628
16.30000,628
16.30833,628
16.31667,628
16.32500,628
16.33333,628
16.34167,628
16.35000,628
16.35833,628
16.36667,629
16.37500,629
16.38333,629
16.39167,629
16.40000,630
16.40833,630
16.41667,630
16.42500,630
16.43333,630
16.44167,630
16.45000,630
16.45833,631
16.46667,631
16.47500,631
16.48333,631
16.49167,630
16.50000,631
16.50833,631
16.51667,631
16.52500,630
16.53333,630
16.54167,631
16.55000,631
16.55833,631
16.56667,631
16.57500,631
16.58333,631
16.59167,631
16.60000,631
16.60833,631
16.61667,631
16.62500,631
16.63333,631
16.64167,630
16.65000,630
16.65833,630
16.66667,630
16.67500,630
16.68333,630
16.69167,630
16.70000,630
16.70833,631
16.71667,631
16.72500,631
16.73333,630
16.74167,630
16.75000,630
16.75833,629
16.76667,629
16.77500,629
16.78333,629
16.79167,629
16.80000,629
16.80833,629
16.81667,629
16.82500,629
16.83333,629
16.84167,629
16.85000,630
16.85833,630
16.86667,629
16.87500,629
16.88333,629
16.89167,629
16.90000,629
16.90833,629
16.91667,630
16.92500,630
16.93333,629
16.94167,630
16.95000,630
16.95833,630
16.96667,630
16.97500,630
16.98333,630
16.99167,630
17.00000,630
17.00833,630
17.01667,630
17.02500,630
17.03333,630
17.04167,631
17.05000,631
17.05833,631
17.06667,631
17.07500,631
17.08333,631
17.09167,631
17.10000,631
17.10833,631
17.11667,631
17.12500,631
17.13333,631
17.14167,632
17.15000,632
17.15833,632
17.16667,631
17.17500,631
17.18333,631
17.19167,631
17.20000,631
17.20833,631
17.21667,630
17.22500,630
17.23333,629
17.24167,628
17.25000,628
17.25833,628
17.26667,628
17.27500,627
17.28333,627
17.29167,627
17.30000,626
17.30833,626
17.31667,626
17.32500,625
17.33333,625
17.34167,625
17.35000,624
17.35833,624
17.36667,623
17.37500,623
17.38333,622
17.39167,622
17.40000,623
17.40833,623
17.41667,623
17.42500,622
17.43333,622
17.44167,622
17.45000,623
17.45833,623
17.46667,623
17.47500,623
17.48333,623
17.49167,623
17.50000,623
17.50833,624
17.51667,624
17.52500,625
17.53333,626
17.54167,626
17.55000,627
17.55833,628
17.56667,628
17.57500,628
17.58333,629
17.59167,629
17.60000,629
17.60833,630
17.61667,630
17.62500,631
17.63333,631
17.64167,632
17.65000,633
17.65833,633
17.66667,634
17.67500,634
17.68333,635
17.69167,635
17.70000,635
17.70833,635
17.71667,636
17.72500,636
17.73333,637
17.74167,637
17.75000,637
17.75833,637
17.76667,638
17.77500,638
17.78333,639
17.79167,640
17.80000,640
17.80833,640
17.81667,640
17.82500,640
17.83333,640
17.84167,640
17.85000,640
17.85833,639
17.86667,639
17.87500,639
17.88333,638
17.89167,638
17.90000,638
17.90833,638
17.91667,637
17.92500,637
17.93333,636
17.94167,635
17.95000,635
17.95833,634
17.96667,634
17.97500,633
17.98333,633
17.99167,632
18.00000,631
18.00833,629
18.01667,628
18.02500,627
18.03333,626
18.04167,625
18.05000,625
18.05833,624
18.06667,624
18.07500,623
18.08333,623
18.09167,622
18.10000,622
18.10833,621
18.11667,621
18.12500,620
18.13333,619
18.14167,619
18.15000,618
18.15833,618
18.16667,617
18.17500,616
18.18333,616
18.19167,615
18.20000,615
18.20833,614
18.21667,614
18.22500,614
18.23333,613
18.24167,613
18.25000,613
18.25833,613
18.26667,613
18.27500,613
18.28333,612
18.29167,612
18.30000,612
18.30833,612
18.31667,612
18.32500,612
18.33333,612
18.34167,612
18.35000,612
18.35833,612
18.36667,613
18.37500,613
18.38333,613
18.39167,613
18.40000,612
18.40833,612
18.41667,612
18.42500,612
18.43333,612
18.44167,612
18.45000,612
18.45833,612
18.46667,612
18.47500,612
18.48333,612
18.49167,612
18.50000,612
18.50833,612
18.51667,612
18.52500,612
18.53333,612
18.54167,612
18.55000,613
18.55833,613
18.56667,614
18.57500,614
18.58333,615
18.59167,615
18.60000,615
18.60833,615
18.61667,615
18.62500,615
18.63333,616
18.64167,616
18.65000,617
18.65833,618
18.66667,618
18.67500,619
18.68333,620
18.69167,620
18.70000,621
18.70833,622
18.71667,622
18.72500,623
18.73333,623
18.74167,624
18.75000,625
18.75833,625
18.76667,626
18.77500,627
18.78333,628
18.79167,628
18.80000,629
18.80833,630
18.81667,630
18.82500,631
18.83333,631
18.84167,632
18.85000,632
18.85833,632
18.86667,633
18.87500,633
18.88333,633
18.89167,633
18.90000,633
18.90833,634
18.91667,634
18.92500,633
18.93333,633
18.94167,633
18.95000,632
18.95833,632
18.96667,631
18.97500,631
18.98333,630
18.99167,629
19.00000,629
19.00833,628
19.01667,628
19.02500,627
19.03333,626
19.04167,625
19.05000,624
19.05833,623
19.06667,623
19.07500,622
19.08333,621
19.09167,621
19.10000,620
19.10833,620
19.11667,619
19.12500,619
19.13333,619
19.14167,619
19.15000,619
19.15833,619
19.16667,618
19.17500,618
19.18333,618
19.19167,618
19.20000,618
19.20833,619
19.21667,619
19.22500,620
19.23333,620
19.24167,620
19.25000,620
19.25833,620
19.26667,621
19.27500,621
19.28333,622
19.29167,622
19.30000,622
19.30833,623
19.31667,623
19.32500,623
19.33333,624
19.34167,624
19.35000,624
19.35833,624
19.36667,624
19.37500,624
19.38333,625
19.39167,625
19.40000,625
19.40833,626
19.41667,626
19.42500,627
19.43333,627
19.44167,627
19.45000,627
19.45833,626
19.46667,626
19.47500,626
19.48333,625
19.49167,625
19.50000,625
19.50833,624
19.51667,624
19.52500,624
19.53333,624
19.54167,623
19.55000,623
19.55833,623
19.56667,622
19.57500,622
19.58333,621
19.59167,621
19.60000,620
19.60833,619
19.61667,619
19.62500,618
19.63333,618
19.64167,617
19.65000,617
19.65833,616
19.66667,615
19.67500,615
19.68333,614
19.69167,613
19.70000,612
19.70833,612
19.71667,611
19.72500,611
19.73333,611
19.74167,610
19.75000,609
19.75833,608
19.76667,608
19.77500,607
19.78333,606
19.79167,606
19.80000,606
19.80833,605
19.81667,604
19.82500,604
19.83333,603
19.84167,602
19.85000,601
19.85833,601
19.86667,601
19.87500,601
19.88333,601
19.89167,601
19.90000,601
19.90833,601
19.91667,601
19.92500,600
19.93333,600
19.94167,600
19.95000,600
19.95833,601
19.96667,601
19.97500,602
19.98333,602
19.99167,602
20.00000,602
20.00833,602
20.01667,602
20.02500,602
20.03333,603
20.04167,603
20.05000,603
20.05833,604
20.06667,604
20.07500,605
20.08333,606
20.09167,607
20.10000,607
20.10833,608
20.11667,609
20.12500,610
20.13333,610
20.14167,611
20.15000,611
20.15833,611
20.16667,612
20.17500,613
20.18333,614
20.19167,614
20.20000,615
20.20833,615
20.21667,616
20.22500,616
20.23333,617
20.24167,618
20.25000,618
20.25833,619
20.26667,619
20.27500,620
20.28333,620
20.29167,621
20.30000,621
20.30833,622
20.31667,623
20.32500,623
20.33333,623
20.34167,624
20.35000,624
20.35833,625
20.36667,626
20.37500,626
20.38333,627
20.39167,627
20.40000,627
20.40833,628
20.41667,628
20.42500,629
20.43333,629
20.44167,629
20.45000,629
20.45833,629
20.46667,629
20.47500,630
20.48333,630
20.49167,630
20.50000,631
20.50833,631
20.51667,632
20.52500,632
20.53333,632
20.54167,632
20.55000,633
20.55833,633
20.56667,633
20.57500,633
20.58333,633
20.59167,633
20.60000,633
20.60833,633
20.61667,633
20.62500,633
20.63333,632
20.64167,632
20.65000,631
20.65833,631
20.66667,631
20.67500,630
20.68333,630
20.69167,629
20.70000,629
20.70833,628
20.71667,627
20.72500,626
20.73333,625
20.74167,624
20.75000,623
20.75833,623
20.76667,622
20.77500,621
20.78333,619
20.79167,618
20.80000,617
20.80833,616
20.81667,616
20.82500,615
20.83333,615
20.84167,614
20.85000,613
20.85833,612
20.86667,612
20.87500,611
20.88333,611
20.89167,610
20.90000,610
20.90833,609
20.91667,609
20.92500,609
20.93333,608
20.94167,608
20.95000,607
20.95833,607
20.96667,606
20.97500,606
20.98333,606
20.99167,605
21.00000,605
21.00833,605
21.01667,604
21.02500,604
21.03333,604
21.04167,604
21.05000,605
21.05833,605
21.06667,606
21.07500,606
21.08333,607
21.09167,607
21.10000,607
21.10833,607
21.11667,607
21.12500,607
21.13333,607
21.14167,608
21.15000,608
21.15833,609
21.16667,609
21.17500,610
21.18333,611
21.19167,611
21.20000,612
21.20833,613
21.21667,614
21.22500,615
21.23333,616
21.24167,617
21.25000,618
21.25833,618
21.26667,619
21.27500,620
21.28333,621
21.29167,622
21.30000,623
21.30833,623
21.31667,624
21.32500,625
21.33333,625
21.34167,626
21.35000,627
21.35833,627
21.36667,628
21.37500,629
21.38333,630
21.39167,631
21.40000,632
21.40833,633
21.41667,633
21.42500,634
21.43333,635
21.44167,635
21.45000,636
21.45833,637
21.46667,637
21.47500,638
21.48333,638
21.49167,639
21.50000,639
21.50833,639
21.51667,640
21.52500,640
21.53333,640
21.54167,640
21.55000,640
21.55833,640
21.56667,640
21.57500,640
21.58333,640
21.59167,640
21.60000,640
21.60833,639
21.61667,639
21.62500,639
21.63333,639
21.64167,639
21.65000,639
21.65833,639
21.66667,639
21.67500,638
21.68333,637
21.69167,636
21.70000,636
21.70833,635
21.71667,634
21.72500,634
21.73333,633
21.74167,632
21.75000,632
21.75833,631
21.76667,631
21.77500,630
21.78333,630
21.79167,629
21.80000,628
21.80833,628
21.81667,628
21.82500,627
21.83333,627
21.84167,627
21.85000,627
21.85833,627
21.86667,627
21.87500,626
21.88333,626
21.89167,626
21.90000,626
21.90833,626
21.91667,626
21.92500,626
21.93333,626
21.94167,625
21.95000,625
21.95833,625
21.96667,625
21.97500,625
21.98333,625
21.99167,626
22.00000,626
22.00833,626
22.01667,627
22.02500,628
22.03333,628
22.04167,628
22.05000,629
22.05833,629
22.06667,630
22.07500,630
22.08333,631
22.09167,631
22.10000,631
22.10833,631
22.11667,632
22.12500,632
22.13333,632
22.14167,632
22.15000,633
22.15833,633
22.16667,634
22.17500,634
22.18333,635
22.19167,635
22.20000,635
22.20833,636
22.21667,636
22.22500,636
22.23333,636
22.24167,636
22.25000,637
22.25833,636
22.26667,636
22.27500,636
22.28333,636
22.29167,635
22.30000,635
22.30833,635
22.31667,635
22.32500,635
22.33333,635
22.34167,634
22.35000,634
22.35833,634
22.36667,634
22.37500,634
22.38333,634
22.39167,634
22.40000,633
22.40833,632
22.41667,632
22.42500,631
22.43333,631
22.44167,630
22.45000,630
22.45833,629
22.46667,629
22.47500,628
22.48333,628
22.49167,627
22.50000,627
22.50833,627
22.51667,627
22.52500,626
22.53333,625
22.54167,625
22.55000,625
22.55833,624
22.56667,624
22.57500,623
22.58333,623
22.59167,623
22.60000,623
22.60833,622
22.61667,622
22.62500,621
22.63333,621
22.64167,620
22.65000,620
22.65833,621
22.66667,620
22.67500,620
22.68333,620
22.69167,620
22.70000,620
22.70833,620
22.71667,620
22.72500,620
22.73333,620
22.74167,620
22.75000,620
22.75833,620
22.76667,620
22.77500,620
22.78333,620
22.79167,620
22.80000,620
22.80833,620
22.81667,619
22.82500,620
22.83333,619
22.84167,620
22.85000,620
22.85833,620
22.86667,620
22.87500,621
22.88333,621
22.89167,621
22.90000,621
22.90833,621
22.91667,622
22.92500,622
22.93333,622
22.94167,623
22.95000,623
22.95833,623
22.96667,623
22.97500,622
22.98333,622
22.99167,622
23.00000,623
23.00833,622
23.01667,622
23.02500,622
23.03333,622
23.04167,623
23.05000,623
23.05833,623
23.06667,623
23.07500,623
23.08333,623
23.09167,623
23.10000,624
23.10833,624
23.11667,624
23.12500,624
23.13333,625
23.14167,625
23.15000,626
23.15833,626
23.16667,626
23.17500,626
23.18333,626
23.19167,627
23.20000,627
23.20833,627
23.21667,628
23.22500,628
23.23333,629
23.24167,629
23.25000,630
23.25833,631
23.26667,631
23.27500,632
23.28333,632
23.29167,632
23.30000,633
23.30833,634
23.31667,634
23.32500,635
23.33333,635
23.34167,635
23.35000,635
23.35833,635
23.36667,635
23.37500,635
23.38333,635
23.39167,635
23.40000,636
23.40833,636
23.41667,635
23.42500,635
23.43333,635
23.44167,636
23.45000,636
23.45833,636
23.46667,636
23.47500,636
23.48333,636
23.49167,636
23.50000,636
23.50833,636
23.51667,636
23.52500,635
23.53333,635
23.54167,634
23.55000,634
23.55833,633
23.56667,633
23.57500,632
23.58333,631
23.59167,631
23.60000,631
23.60833,630
23.61667,630
23.62500,630
23.63333,629
23.64167,629
23.65000,628
23.65833,628
23.66667,627
23.67500,627
23.68333,626
23.69167,626
23.70000,625
23.70833,625
23.71667,624
23.72500,624
23.73333,623
23.74167,623
23.75000,622
23.75833,622
23.76667,621
23.77500,621
23.78333,621
23.79167,621
23.80000,621
23.80833,621
23.81667,621
23.82500,620
23.83333,620
23.84167,620
23.85000,620
23.85833,620
23.86667,620
23.87500,621
23.88333,621
23.89167,621
23.90000,621
23.90833,621
23.91667,621
23.92500,621
23.93333,621
23.94167,621
23.95000,622
23.95833,622
23.96667,623
23.97500,623
23.98333,623
23.99167,624
24.00000,624
24.00833,624
24.01667,624
24.02500,625
24.03333,626
24.04167,626
24.05000,626
24.05833,627
24.06667,627
24.07500,628
24.08333,629
24.09167,629
24.10000,630
24.10833,630
24.11667,630
24.12500,630
24.13333,631
24.14167,631
24.15000,632
24.15833,633
24.16667,634
24.17500,634
24.18333,635
24.19167,635
24.20000,636
24.20833,637
24.21667,638
24.22500,639
24.23333,639
24.24167,640
24.25000,641
24.25833,641
24.26667,642
24.27500,643
24.28333,643
24.29167,644
24.30000,645
24.30833,647
24.31667,648
24.32500,650
24.33333,651
24.34167,653
24.35000,655
24.35833,657
24.36667,660
24.37500,663
24.38333,666
24.39167,669
24.40000,673
24.40833,678
24.41667,683
24.42500,688
24.43333,694
24.44167,700
24.45000,707
24.45833,715
24.46667,723
24.47500,732
24.48333,742
24.49167,753
24.50000,765
24.50833,778
24.51667,792
24.52500,808
24.53333,824
24.54167,842
24.55000,861
24.55833,882
24.56667,904
24.57500,928
24.58333,953
24.59167,980
24.60000,1009
24.60833,1038
24.61667,1070
24.62500,1102
24.63333,1136
24.64167,1172
24.65000,1209
24.65833,1247
24.66667,1286
24.67500,1327
24.68333,1369
24.69167,1412
24.70000,1456
24.70833,1500
24.71667,1545
24.72500,1590
24.73333,1635
24.74167,1680
24.75000,1725
24.75833,1769
24.76667,1813
24.77500,1855
24.78333,1897
24.79167,1936
24.80000,1974
24.80833,2011
24.81667,2045
24.82500,2077
24.83333,2107
24.84167,2134
24.85000,2158
24.85833,2180
24.86667,2198
24.87500,2213
24.88333,2225
24.89167,2234
24.90000,2240
24.90833,2242
24.91667,2240
24.92500,2235
24.93333,2227
24.94167,2216
24.95000,2202
24.95833,2185
24.96667,2165
24.97500,2141
24.98333,2116
24.99167,2087
25.00000,2057
25.00833,2024
25.01667,1989
25.02500,1953
25.03333,1915
25.04167,1876
25.05000,1835
25.05833,1794
25.06667,1752
25.07500,1709
25.08333,1667
25.09167,1624
25.10000,1581
25.10833,1538
25.11667,1496
25.12500,1454
25.13333,1413
25.14167,1373
25.15000,1333
25.15833,1295
25.16667,1257
25.17500,1221
25.18333,1185
25.19167,1152
25.20000,1120
25.20833,1088
25.21667,1058
25.22500,1029
25.23333,1002
25.24167,976
25.25000,951
25.25833,927
25.26667,905
25.27500,883
25.28333,863
25.29167,845
25.30000,827
25.30833,811
25.31667,796
25.32500,781
25.33333,767
25.34167,754
25.35000,743
25.35833,732
25.36667,723
25.37500,713
25.38333,704
25.39167,696
25.40000,688
25.40833,681
25.41667,675
25.42500,670
25.43333,665
25.44167,660
25.45000,656
25.45833,652
25.46667,648
25.47500,645
25.48333,642
25.49167,639
25.50000,636
25.50833,634
25.51667,632
25.52500,629
25.53333,627
25.54167,625
25.55000,624
25.55833,623
25.56667,621
25.57500,620
25.58333,619
25.59167,619
25.60000,618
25.60833,617
25.61667,617
25.62500,616
25.63333,616
25.64167,616
25.65000,615
25.65833,615
25.66667,615
25.67500,615
25.68333,614
25.69167,614
25.70000,614
25.70833,614
25.71667,614
25.72500,615
25.73333,615
25.74167,616
25.75000,616
25.75833,616
25.76667,617
25.77500,618
25.78333,618
25.79167,619
25.80000,619
25.80833,619
25.81667,620
25.82500,620
25.83333,621
25.84167,622
25.85000,623
25.85833,623
25.86667,624
25.87500,624
25.88333,625
25.89167,626
25.90000,627
25.90833,628
25.91667,629
25.92500,631
25.93333,632
25.94167,633
25.95000,633
25.95833,634
25.96667,635
25.97500,636
25.98333,637
25.99167,637
26.00000,638
26.00833,639
26.01667,640
26.02500,641
26.03333,642
26.04167,642
26.05000,643
26.05833,644
26.06667,645
26.07500,646
26.08333,646
26.09167,647
26.10000,647
26.10833,648
26.11667,649
26.12500,649
26.13333,650
26.14167,651
26.15000,651
26.15833,651
26.16667,651
26.17500,652
26.18333,652
26.19167,652
26.20000,652
26.20833,652
26.21667,652
26.22500,652
26.23333,651
26.24167,651
26.25000,651
26.25833,650
26.26667,650
26.27500,650
26.28333,650
26.29167,649
26.30000,649
26.30833,648
26.31667,648
26.32500,648
26.33333,647
26.34167,646
26.35000,646
26.35833,645
26.36667,644
26.37500,643
26.38333,642
26.39167,641
26.40000,640
26.40833,639
26.41667,638
26.42500,638
26.43333,637
26.44167,636
26.45000,636
26.45833,635
26.46667,634
26.47500,634
26.48333,633
26.49167,633
26.50000,632
26.50833,631
26.51667,631
26.52500,630
26.53333,630
26.54167,629
26.55000,628
26.55833,628
26.56667,627
26.57500,626
26.58333,626
26.59167,626
26.60000,625
26.60833,625
26.61667,625
26.62500,624
26.63333,624
26.64167,624
26.65000,624
26.65833,624
26.66667,624
26.67500,624
26.68333,624
26.69167,625
26.70000,625
26.70833,625
26.71667,625
26.72500,625
26.73333,625
26.74167,625
26.75000,625
26.75833,625
26.76667,626
26.77500,626
26.78333,626
26.79167,626
26.80000,626
26.80833,627
26.81667,627
26.82500,628
26.83333,628
26.84167,629
26.85000,629
26.85833,629
26.86667,629
26.87500,629
26.88333,629
26.89167,629
26.90000,630
26.90833,630
26.91667,630
26.92500,630
26.93333,630
26.94167,631
26.95000,630
26.95833,630
26.96667,630
26.97500,630
26.98333,630
26.99167,630
27.00000,630
27.00833,630
27.01667,631
27.02500,630
27.03333,630
27.04167,630
27.05000,630
27.05833,629
27.06667,629
27.07500,628
27.08333,628
27.09167,627
27.10000,627
27.10833,627
27.11667,627
27.12500,627
27.13333,626
27.14167,626
27.15000,625
27.15833,625
27.16667,625
27.17500,624
27.18333,624
27.19167,623
27.20000,623
27.20833,622
27.21667,622
27.22500,621
27.23333,621
27.24167,620
27.25000,620
27.25833,619
27.26667,619
27.27500,619
27.28333,618
27.29167,618
27.30000,618
27.30833,618
27.31667,618
27.32500,617
27.33333,617
27.34167,617
27.35000,617
27.35833,617
27.36667,617
27.37500,617
27.38333,617
27.39167,617
27.40000,617
27.40833,617
27.41667,616
27.42500,617
27.43333,617
27.44167,617
27.45000,618
27.45833,618
27.46667,618
27.47500,619
27.48333,619
27.49167,619
27.50000,620
27.50833,620
27.51667,621
27.52500,621
27.53333,622
27.54167,622
27.55000,623
27.55833,623
27.56667,623
27.57500,623
27.58333,623
27.59167,623
27.60000,624
27.60833,624
27.61667,624
27.62500,625
27.63333,625
27.64167,625
27.65000,626
27.65833,626
27.66667,626
27.67500,626
27.68333,626
27.69167,626
27.70000,625
27.70833,626
27.71667,626
27.72500,626
27.73333,625
27.74167,625
27.75000,625
27.75833,624
27.76667,624
27.77500,623
27.78333,622
27.79167,621
27.80000,620
27.80833,619
27.81667,619
27.82500,618
27.83333,617
27.84167,616
27.85000,615
27.85833,614
27.86667,612
27.87500,611
27.88333,609
27.89167,607
27.90000,605
27.90833,603
27.91667,600
27.92500,598
27.93333,595
27.94167,593
27.95000,590
27.95833,586
27.96667,582
27.97500,578
27.98333,574
27.99167,570
28.00000,565
28.00833,561
28.01667,555
28.02500,550
28.03333,544
28.04167,537
28.05000,531
28.05833,524
28.06667,517
28.07500,509
28.08333,502
28.09167,494
28.10000,485
28.10833,476
28.11667,466
28.12500,456
28.13333,446
28.14167,435
28.15000,424
28.15833,413
28.16667,401
28.17500,389
28.18333,376
28.19167,363
28.20000,350
28.20833,337
28.21667,323
28.22500,310
28.23333,295
28.24167,281
28.25000,265
28.25833,250
28.26667,235
28.27500,220
28.28333,205
28.29167,189
28.30000,174
28.30833,159
28.31667,143
28.32500,128
28.33333,113
28.34167,98
28.35000,84
28.35833,69
28.36667,55
28.37500,41
28.38333,27
28.39167,14
28.40000,1
28.40833,-11
28.41667,-23
28.42500,-35
28.43333,-46
28.44167,-56
28.45000,-66
28.45833,-75
28.46667,-83
28.47500,-90
28.48333,-97
28.49167,-103
28.50000,-108
28.50833,-113
28.51667,-118
28.52500,-121
28.53333,-123
28.54167,-125
28.55000,-127
28.55833,-127
28.56667,-128
28.57500,-127
28.58333,-126
28.59167,-124
28.60000,-121
28.60833,-117
28.61667,-113
28.62500,-108
28.63333,-103
28.64167,-98
28.65000,-92
28.65833,-86
28.66667,-80
28.67500,-73
28.68333,-65
28.69167,-57
28.70000,-49
28.70833,-41
28.71667,-32
28.72500,-23
28.73333,-14
28.74167,-4
28.75000,5
28.75833,14
28.76667,24
28.77500,33
28.78333,42
28.79167,51
28.80000,60
28.80833,69
28.81667,77
28.82500,86
28.83333,94
28.84167,103
28.85000,111
28.85833,120
28.86667,128
28.87500,136
28.88333,144
28.89167,151
28.90000,158
28.90833,165
28.91667,172
28.92500,179
28.93333,185
28.94167,191
28.95000,197
28.95833,202
28.96667,208
28.97500,213
28.98333,217
28.99167,222
29.00000,227
29.00833,231
29.01667,235
29.02500,239
29.03333,243
29.04167,246
29.05000,250
29.05833,253
29.06667,256
29.07500,259
29.08333,262
29.09167,265
29.10000,267
29.10833,270
29.11667,272
29.12500,274
29.13333,276
29.14167,278
29.15000,279
29.15833,281
29.16667,282
29.17500,284
29.18333,285
29.19167,287
29.20000,288
29.20833,289
29.21667,291
29.22500,292
29.23333,293
29.24167,294
29.25000,295
29.25833,296
29.26667,297
29.27500,298
29.28333,299
29.29167,300
29.30000,301
29.30833,301
29.31667,302
29.32500,303
29.33333,303
29.34167,304
29.35000,304
29.35833,305
29.36667,305
29.37500,305
29.38333,305
29.39167,305
29.40000,306
29.40833,306
29.41667,306
29.42500,306
29.43333,306
29.44167,306
29.45000,306
29.45833,306
29.46667,306
29.47500,306
29.48333,306
29.49167,305
29.50000,305
29.50833,305
29.51667,304
29.52500,304
29.53333,303
29.54167,303
29.55000,303
29.55833,303
29.56667,303
29.57500,302
29.58333,302
29.59167,301
29.60000,301
29.60833,301
29.61667,300
29.62500,299
29.63333,299
29.64167,298
29.65000,298
29.65833,297
29.66667,296
29.67500,295
29.68333,294
29.69167,292
29.70000,291
29.70833,289
29.71667,288
29.72500,287
29.73333,286
29.74167,284
29.75000,283
29.75833,282
29.76667,280
29.77500,279
29.78333,277
29.79167,275
29.80000,273
29.80833,272
29.81667,270
29.82500,268
29.83333,266
29.84167,264
29.85000,262
29.85833,259
29.86667,257
29.87500,254
29.88333,251
29.89167,248
29.90000,245
29.90833,242
29.91667,239
29.92500,236
29.93333,233
29.94167,229
29.95000,226
29.95833,222
29.96667,218
29.97500,214
29.98333,210
29.99167,206
30.00000,202

