[Header]
Application Name,LabSolutions
Version,5.97 SP1
Data File Name,C:\Users\cremerlab\Desktop\griffin\2021-02-15_NCM_diauxie_turnover\2021-02-15_NCM_acetate_glucose_diauxie_turnover_2152021_018.lcd
Output Date,2/16/2021
Output Time,9:42:16 AM

[File Information]
Type,Data File
Generated,2/16/2021 5:00:55 AM
Generated by,System Administrator
Modified,2/16/2021 5:31:13 AM
Modified by,System Administrator

[Sample Information]
Operator Name,System Administrator
Acquired,2/16/2021 5:01:12 AM
Sample Type,0:Unknown
Level,0
Sample Name,10 mM glucose medium 2.5 uL
Sample ID,001
ISTD Amount1,1
ISTD Amount2,1
ISTD Amount3,1
ISTD Amount4,1
ISTD Amount5,1
ISTD Amount6,1
ISTD Amount7,1
ISTD Amount8,1
ISTD Amount9,1
ISTD Amount10,1
ISTD Amount11,1
ISTD Amount12,1
ISTD Amount13,1
ISTD Amount14,1
ISTD Amount15,1
ISTD Amount16,1
ISTD Amount17,1
ISTD Amount18,1
ISTD Amount19,1
ISTD Amount20,1
ISTD Amount21,1
ISTD Amount22,1
ISTD Amount23,1
ISTD Amount24,1
ISTD Amount25,1
ISTD Amount26,1
ISTD Amount27,1
ISTD Amount28,1
ISTD Amount29,1
ISTD Amount30,1
ISTD Amount31,1
ISTD Amount32,1
Sample Amount,1
Dilution Factor,1
Vial#,10
Injection Volume,2.5

[Original Files]
Data File,C:\Users\cremerlab\Desktop\griffin\2021-02-15_NCM_diauxie_turnover\2021-02-15_NCM_acetate_glucose_diauxie_turnover_2152021_018.lcd
Method File,C:\LabSolutions\Data\Project1\organicacidsetc.lcm
Batch File,C:\Users\cremerlab\Desktop\griffin\2021-02-15_NCM_diauxie_turnover\2021-02-15_NCM_acetate_glucose_diauxie_turnover.lcb
Report Format File,c:\LabSolutions\System\DEFAULT.lsr

[File Description]


[Configuration]
Instrument Name,HPLC-PC-Instrument1
Instrument #,1
Line #,1
# of Detectors,2
Detector ID,Detector A,Detector B
Detector Name,Detector A,Detector B
# of Channels,1,1

[Peak Table(Detector A)]
# of Peaks,0

[Peak Table(Detector B)]
# of Peaks,3
Peak#,R.Time,I.Time,F.Time,Area,Height,A/H,Conc.,Mark,ID#,Name,k',Plate #,Plate Ht.,Tailing,Resolution,Sep.Factor,Area Ratio,Height Ratio,Conc. %,Norm Conc.
1,10.831,10.583,11.292,30455,1940,15.698,0.000,   ,,,0.000,10531,14.243,1.235,0.000,0.000,0,0,0.000,0.000
2,13.085,12.492,14.025,115479,5774,20.001,0.000,   ,,,0.208,9576,15.663,0.904,4.710,0.000,0,0,0.000,0.000
3,15.513,15.042,16.367,28590,1220,23.443,0.000,   ,,,0.432,10269,14.608,1.190,4.233,2.077,0,0,0.000,0.000

[Compound Results(Detector A)]
# of IDs,0

[Compound Results(Detector B)]
# of IDs,0

[LC Chromatogram(Detector B-Ch1)]
Interval(msec),500
# of Points,3601
Start Time(min),0.000
End Time(min),30.000
Intensity Units,mV
Intensity Multiplier,0.001
R.Time (min),Intensity
0.00000,-32
0.00833,-32
0.01667,-0
0.02500,-0
0.03333,-0
0.04167,1
0.05000,1
0.05833,2
0.06667,3
0.07500,4
0.08333,6
0.09167,7
0.10000,9
0.10833,11
0.11667,13
0.12500,15
0.13333,17
0.14167,20
0.15000,22
0.15833,25
0.16667,28
0.17500,31
0.18333,34
0.19167,37
0.20000,40
0.20833,43
0.21667,47
0.22500,50
0.23333,53
0.24167,57
0.25000,60
0.25833,64
0.26667,67
0.27500,70
0.28333,74
0.29167,77
0.30000,81
0.30833,84
0.31667,88
0.32500,92
0.33333,96
0.34167,100
0.35000,103
0.35833,107
0.36667,111
0.37500,115
0.38333,119
0.39167,123
0.40000,127
0.40833,130
0.41667,133
0.42500,137
0.43333,140
0.44167,143
0.45000,146
0.45833,149
0.46667,152
0.47500,155
0.48333,158
0.49167,161
0.50000,164
0.50833,167
0.51667,169
0.52500,172
0.53333,174
0.54167,177
0.55000,179
0.55833,181
0.56667,183
0.57500,185
0.58333,186
0.59167,188
0.60000,190
0.60833,192
0.61667,193
0.62500,194
0.63333,196
0.64167,197
0.65000,198
0.65833,199
0.66667,200
0.67500,201
0.68333,202
0.69167,203
0.70000,203
0.70833,204
0.71667,205
0.72500,206
0.73333,206
0.74167,207
0.75000,207
0.75833,208
0.76667,208
0.77500,209
0.78333,209
0.79167,209
0.80000,210
0.80833,210
0.81667,211
0.82500,211
0.83333,211
0.84167,211
0.85000,212
0.85833,213
0.86667,213
0.87500,213
0.88333,214
0.89167,215
0.90000,215
0.90833,215
0.91667,215
0.92500,216
0.93333,216
0.94167,216
0.95000,217
0.95833,218
0.96667,218
0.97500,219
0.98333,219
0.99167,220
1.00000,220
1.00833,221
1.01667,222
1.02500,222
1.03333,223
1.04167,223
1.05000,224
1.05833,225
1.06667,227
1.07500,228
1.08333,229
1.09167,230
1.10000,231
1.10833,233
1.11667,234
1.12500,235
1.13333,236
1.14167,237
1.15000,238
1.15833,240
1.16667,241
1.17500,243
1.18333,244
1.19167,246
1.20000,247
1.20833,249
1.21667,250
1.22500,252
1.23333,253
1.24167,255
1.25000,256
1.25833,258
1.26667,259
1.27500,260
1.28333,262
1.29167,263
1.30000,265
1.30833,267
1.31667,268
1.32500,270
1.33333,271
1.34167,273
1.35000,274
1.35833,276
1.36667,277
1.37500,278
1.38333,279
1.39167,281
1.40000,283
1.40833,284
1.41667,285
1.42500,287
1.43333,288
1.44167,289
1.45000,290
1.45833,292
1.46667,293
1.47500,294
1.48333,295
1.49167,296
1.50000,297
1.50833,297
1.51667,298
1.52500,299
1.53333,299
1.54167,300
1.55000,300
1.55833,301
1.56667,301
1.57500,302
1.58333,302
1.59167,303
1.60000,303
1.60833,304
1.61667,304
1.62500,305
1.63333,306
1.64167,306
1.65000,307
1.65833,307
1.66667,308
1.67500,308
1.68333,309
1.69167,309
1.70000,310
1.70833,311
1.71667,311
1.72500,312
1.73333,312
1.74167,313
1.75000,313
1.75833,313
1.76667,314
1.77500,314
1.78333,314
1.79167,315
1.80000,315
1.80833,316
1.81667,316
1.82500,317
1.83333,317
1.84167,318
1.85000,318
1.85833,319
1.86667,319
1.87500,320
1.88333,320
1.89167,321
1.90000,322
1.90833,322
1.91667,323
1.92500,323
1.93333,324
1.94167,324
1.95000,325
1.95833,326
1.96667,326
1.97500,327
1.98333,328
1.99167,329
2.00000,330
2.00833,331
2.01667,332
2.02500,332
2.03333,332
2.04167,333
2.05000,333
2.05833,334
2.06667,334
2.07500,335
2.08333,336
2.09167,337
2.10000,337
2.10833,338
2.11667,339
2.12500,339
2.13333,339
2.14167,340
2.15000,341
2.15833,341
2.16667,342
2.17500,343
2.18333,344
2.19167,344
2.20000,345
2.20833,345
2.21667,346
2.22500,347
2.23333,347
2.24167,348
2.25000,349
2.25833,349
2.26667,349
2.27500,350
2.28333,350
2.29167,351
2.30000,351
2.30833,352
2.31667,352
2.32500,353
2.33333,353
2.34167,354
2.35000,354
2.35833,355
2.36667,355
2.37500,356
2.38333,357
2.39167,358
2.40000,358
2.40833,358
2.41667,359
2.42500,359
2.43333,359
2.44167,360
2.45000,360
2.45833,361
2.46667,361
2.47500,362
2.48333,362
2.49167,362
2.50000,362
2.50833,363
2.51667,363
2.52500,363
2.53333,364
2.54167,364
2.55000,365
2.55833,366
2.56667,367
2.57500,367
2.58333,368
2.59167,368
2.60000,369
2.60833,369
2.61667,370
2.62500,371
2.63333,372
2.64167,372
2.65000,372
2.65833,373
2.66667,374
2.67500,375
2.68333,376
2.69167,376
2.70000,377
2.70833,378
2.71667,379
2.72500,379
2.73333,380
2.74167,381
2.75000,381
2.75833,382
2.76667,382
2.77500,383
2.78333,384
2.79167,385
2.80000,385
2.80833,386
2.81667,387
2.82500,388
2.83333,389
2.84167,390
2.85000,391
2.85833,392
2.86667,392
2.87500,393
2.88333,394
2.89167,395
2.90000,396
2.90833,397
2.91667,398
2.92500,399
2.93333,400
2.94167,401
2.95000,402
2.95833,403
2.96667,404
2.97500,405
2.98333,406
2.99167,408
3.00000,409
3.00833,410
3.01667,411
3.02500,412
3.03333,413
3.04167,414
3.05000,415
3.05833,416
3.06667,417
3.07500,418
3.08333,419
3.09167,420
3.10000,421
3.10833,423
3.11667,424
3.12500,425
3.13333,426
3.14167,427
3.15000,427
3.15833,428
3.16667,429
3.17500,430
3.18333,432
3.19167,433
3.20000,434
3.20833,436
3.21667,437
3.22500,438
3.23333,439
3.24167,439
3.25000,441
3.25833,442
3.26667,443
3.27500,444
3.28333,445
3.29167,446
3.30000,446
3.30833,446
3.31667,447
3.32500,448
3.33333,448
3.34167,449
3.35000,450
3.35833,451
3.36667,452
3.37500,453
3.38333,454
3.39167,454
3.40000,455
3.40833,455
3.41667,455
3.42500,456
3.43333,456
3.44167,457
3.45000,457
3.45833,457
3.46667,458
3.47500,458
3.48333,459
3.49167,459
3.50000,459
3.50833,459
3.51667,459
3.52500,459
3.53333,459
3.54167,460
3.55000,460
3.55833,460
3.56667,461
3.57500,461
3.58333,462
3.59167,463
3.60000,463
3.60833,463
3.61667,464
3.62500,464
3.63333,464
3.64167,464
3.65000,465
3.65833,465
3.66667,466
3.67500,466
3.68333,466
3.69167,466
3.70000,466
3.70833,466
3.71667,466
3.72500,467
3.73333,467
3.74167,468
3.75000,469
3.75833,469
3.76667,470
3.77500,470
3.78333,470
3.79167,470
3.80000,471
3.80833,471
3.81667,472
3.82500,472
3.83333,472
3.84167,473
3.85000,473
3.85833,473
3.86667,473
3.87500,474
3.88333,474
3.89167,475
3.90000,475
3.90833,476
3.91667,476
3.92500,476
3.93333,477
3.94167,477
3.95000,477
3.95833,477
3.96667,477
3.97500,477
3.98333,477
3.99167,478
4.00000,478
4.00833,478
4.01667,478
4.02500,478
4.03333,478
4.04167,478
4.05000,478
4.05833,478
4.06667,478
4.07500,478
4.08333,478
4.09167,478
4.10000,478
4.10833,478
4.11667,477
4.12500,477
4.13333,477
4.14167,477
4.15000,478
4.15833,478
4.16667,479
4.17500,479
4.18333,480
4.19167,480
4.20000,480
4.20833,481
4.21667,481
4.22500,481
4.23333,482
4.24167,482
4.25000,483
4.25833,483
4.26667,484
4.27500,484
4.28333,485
4.29167,486
4.30000,487
4.30833,488
4.31667,489
4.32500,489
4.33333,490
4.34167,491
4.35000,492
4.35833,493
4.36667,494
4.37500,495
4.38333,496
4.39167,497
4.40000,498
4.40833,499
4.41667,500
4.42500,501
4.43333,502
4.44167,503
4.45000,504
4.45833,505
4.46667,506
4.47500,506
4.48333,507
4.49167,508
4.50000,509
4.50833,510
4.51667,511
4.52500,512
4.53333,513
4.54167,513
4.55000,514
4.55833,515
4.56667,516
4.57500,517
4.58333,518
4.59167,519
4.60000,520
4.60833,520
4.61667,521
4.62500,521
4.63333,521
4.64167,521
4.65000,522
4.65833,522
4.66667,522
4.67500,522
4.68333,523
4.69167,523
4.70000,523
4.70833,523
4.71667,523
4.72500,524
4.73333,524
4.74167,524
4.75000,525
4.75833,525
4.76667,526
4.77500,526
4.78333,526
4.79167,526
4.80000,526
4.80833,526
4.81667,527
4.82500,527
4.83333,528
4.84167,528
4.85000,528
4.85833,529
4.86667,529
4.87500,529
4.88333,530
4.89167,530
4.90000,530
4.90833,531
4.91667,531
4.92500,531
4.93333,531
4.94167,531
4.95000,531
4.95833,531
4.96667,532
4.97500,533
4.98333,533
4.99167,533
5.00000,533
5.00833,533
5.01667,533
5.02500,532
5.03333,532
5.04167,532
5.05000,532
5.05833,531
5.06667,531
5.07500,530
5.08333,530
5.09167,529
5.10000,528
5.10833,528
5.11667,527
5.12500,527
5.13333,526
5.14167,525
5.15000,524
5.15833,524
5.16667,523
5.17500,522
5.18333,522
5.19167,521
5.20000,520
5.20833,520
5.21667,519
5.22500,518
5.23333,517
5.24167,517
5.25000,516
5.25833,515
5.26667,514
5.27500,513
5.28333,513
5.29167,512
5.30000,511
5.30833,511
5.31667,511
5.32500,510
5.33333,510
5.34167,510
5.35000,510
5.35833,510
5.36667,510
5.37500,509
5.38333,509
5.39167,509
5.40000,509
5.40833,508
5.41667,508
5.42500,508
5.43333,508
5.44167,508
5.45000,508
5.45833,508
5.46667,508
5.47500,508
5.48333,509
5.49167,509
5.50000,510
5.50833,510
5.51667,510
5.52500,511
5.53333,511
5.54167,511
5.55000,511
5.55833,511
5.56667,512
5.57500,512
5.58333,512
5.59167,513
5.60000,514
5.60833,514
5.61667,515
5.62500,515
5.63333,516
5.64167,517
5.65000,517
5.65833,518
5.66667,518
5.67500,519
5.68333,520
5.69167,520
5.70000,521
5.70833,521
5.71667,522
5.72500,523
5.73333,523
5.74167,524
5.75000,524
5.75833,525
5.76667,526
5.77500,526
5.78333,526
5.79167,527
5.80000,527
5.80833,527
5.81667,528
5.82500,529
5.83333,529
5.84167,530
5.85000,530
5.85833,531
5.86667,532
5.87500,532
5.88333,533
5.89167,534
5.90000,534
5.90833,535
5.91667,536
5.92500,536
5.93333,537
5.94167,537
5.95000,538
5.95833,539
5.96667,539
5.97500,539
5.98333,539
5.99167,540
6.00000,541
6.00833,542
6.01667,543
6.02500,544
6.03333,544
6.04167,545
6.05000,546
6.05833,547
6.06667,548
6.07500,549
6.08333,550
6.09167,551
6.10000,552
6.10833,553
6.11667,554
6.12500,554
6.13333,555
6.14167,556
6.15000,557
6.15833,558
6.16667,560
6.17500,560
6.18333,561
6.19167,562
6.20000,563
6.20833,564
6.21667,565
6.22500,566
6.23333,566
6.24167,567
6.25000,568
6.25833,569
6.26667,569
6.27500,570
6.28333,571
6.29167,572
6.30000,573
6.30833,574
6.31667,574
6.32500,575
6.33333,576
6.34167,576
6.35000,576
6.35833,577
6.36667,577
6.37500,578
6.38333,578
6.39167,578
6.40000,579
6.40833,579
6.41667,579
6.42500,579
6.43333,579
6.44167,579
6.45000,580
6.45833,580
6.46667,580
6.47500,581
6.48333,581
6.49167,582
6.50000,582
6.50833,582
6.51667,582
6.52500,582
6.53333,583
6.54167,583
6.55000,583
6.55833,583
6.56667,584
6.57500,584
6.58333,585
6.59167,585
6.60000,585
6.60833,585
6.61667,585
6.62500,585
6.63333,585
6.64167,585
6.65000,586
6.65833,587
6.66667,587
6.67500,588
6.68333,589
6.69167,590
6.70000,590
6.70833,591
6.71667,592
6.72500,592
6.73333,593
6.74167,594
6.75000,595
6.75833,596
6.76667,597
6.77500,597
6.78333,598
6.79167,599
6.80000,600
6.80833,600
6.81667,602
6.82500,602
6.83333,603
6.84167,603
6.85000,604
6.85833,605
6.86667,606
6.87500,608
6.88333,609
6.89167,610
6.90000,611
6.90833,612
6.91667,613
6.92500,614
6.93333,615
6.94167,616
6.95000,617
6.95833,618
6.96667,619
6.97500,620
6.98333,620
6.99167,621
7.00000,622
7.00833,622
7.01667,623
7.02500,623
7.03333,624
7.04167,624
7.05000,625
7.05833,626
7.06667,626
7.07500,627
7.08333,627
7.09167,627
7.10000,628
7.10833,628
7.11667,628
7.12500,628
7.13333,628
7.14167,627
7.15000,627
7.15833,627
7.16667,626
7.17500,626
7.18333,625
7.19167,625
7.20000,624
7.20833,624
7.21667,624
7.22500,623
7.23333,623
7.24167,622
7.25000,622
7.25833,622
7.26667,621
7.27500,620
7.28333,619
7.29167,618
7.30000,617
7.30833,616
7.31667,615
7.32500,613
7.33333,612
7.34167,611
7.35000,610
7.35833,608
7.36667,607
7.37500,606
7.38333,604
7.39167,603
7.40000,602
7.40833,600
7.41667,599
7.42500,598
7.43333,597
7.44167,596
7.45000,595
7.45833,594
7.46667,592
7.47500,591
7.48333,589
7.49167,588
7.50000,587
7.50833,585
7.51667,584
7.52500,583
7.53333,582
7.54167,581
7.55000,580
7.55833,578
7.56667,577
7.57500,576
7.58333,575
7.59167,573
7.60000,572
7.60833,571
7.61667,570
7.62500,569
7.63333,568
7.64167,567
7.65000,566
7.65833,565
7.66667,565
7.67500,564
7.68333,563
7.69167,562
7.70000,561
7.70833,560
7.71667,560
7.72500,559
7.73333,558
7.74167,558
7.75000,558
7.75833,557
7.76667,556
7.77500,555
7.78333,555
7.79167,554
7.80000,553
7.80833,552
7.81667,552
7.82500,551
7.83333,551
7.84167,551
7.85000,550
7.85833,549
7.86667,549
7.87500,548
7.88333,548
7.89167,547
7.90000,547
7.90833,547
7.91667,546
7.92500,546
7.93333,546
7.94167,545
7.95000,545
7.95833,545
7.96667,545
7.97500,545
7.98333,545
7.99167,544
8.00000,544
8.00833,544
8.01667,544
8.02500,544
8.03333,544
8.04167,543
8.05000,543
8.05833,543
8.06667,543
8.07500,543
8.08333,542
8.09167,542
8.10000,542
8.10833,542
8.11667,542
8.12500,543
8.13333,543
8.14167,543
8.15000,543
8.15833,543
8.16667,543
8.17500,543
8.18333,543
8.19167,542
8.20000,542
8.20833,542
8.21667,543
8.22500,543
8.23333,543
8.24167,543
8.25000,544
8.25833,544
8.26667,544
8.27500,544
8.28333,544
8.29167,544
8.30000,544
8.30833,544
8.31667,544
8.32500,544
8.33333,544
8.34167,544
8.35000,544
8.35833,544
8.36667,544
8.37500,544
8.38333,544
8.39167,544
8.40000,544
8.40833,544
8.41667,544
8.42500,544
8.43333,544
8.44167,544
8.45000,544
8.45833,544
8.46667,544
8.47500,545
8.48333,545
8.49167,545
8.50000,545
8.50833,545
8.51667,545
8.52500,546
8.53333,546
8.54167,546
8.55000,547
8.55833,547
8.56667,547
8.57500,547
8.58333,548
8.59167,548
8.60000,548
8.60833,548
8.61667,548
8.62500,548
8.63333,549
8.64167,549
8.65000,549
8.65833,549
8.66667,549
8.67500,550
8.68333,550
8.69167,550
8.70000,551
8.70833,551
8.71667,551
8.72500,552
8.73333,552
8.74167,553
8.75000,553
8.75833,554
8.76667,554
8.77500,555
8.78333,555
8.79167,556
8.80000,556
8.80833,557
8.81667,557
8.82500,557
8.83333,557
8.84167,557
8.85000,557
8.85833,557
8.86667,558
8.87500,558
8.88333,557
8.89167,557
8.90000,557
8.90833,558
8.91667,558
8.92500,558
8.93333,557
8.94167,557
8.95000,557
8.95833,557
8.96667,556
8.97500,556
8.98333,556
8.99167,556
9.00000,555
9.00833,554
9.01667,554
9.02500,554
9.03333,553
9.04167,553
9.05000,552
9.05833,552
9.06667,552
9.07500,552
9.08333,552
9.09167,551
9.10000,551
9.10833,550
9.11667,550
9.12500,549
9.13333,549
9.14167,548
9.15000,548
9.15833,547
9.16667,546
9.17500,546
9.18333,545
9.19167,544
9.20000,544
9.20833,543
9.21667,543
9.22500,543
9.23333,542
9.24167,542
9.25000,541
9.25833,541
9.26667,540
9.27500,540
9.28333,539
9.29167,539
9.30000,539
9.30833,539
9.31667,539
9.32500,539
9.33333,539
9.34167,539
9.35000,539
9.35833,539
9.36667,539
9.37500,539
9.38333,539
9.39167,539
9.40000,539
9.40833,539
9.41667,539
9.42500,539
9.43333,540
9.44167,540
9.45000,540
9.45833,541
9.46667,541
9.47500,541
9.48333,542
9.49167,542
9.50000,543
9.50833,544
9.51667,544
9.52500,545
9.53333,546
9.54167,546
9.55000,547
9.55833,548
9.56667,549
9.57500,549
9.58333,549
9.59167,550
9.60000,550
9.60833,551
9.61667,551
9.62500,551
9.63333,552
9.64167,552
9.65000,553
9.65833,553
9.66667,554
9.67500,555
9.68333,555
9.69167,556
9.70000,556
9.70833,557
9.71667,558
9.72500,558
9.73333,559
9.74167,559
9.75000,559
9.75833,560
9.76667,560
9.77500,561
9.78333,561
9.79167,561
9.80000,561
9.80833,562
9.81667,562
9.82500,562
9.83333,563
9.84167,563
9.85000,563
9.85833,563
9.86667,563
9.87500,563
9.88333,563
9.89167,563
9.90000,563
9.90833,564
9.91667,564
9.92500,564
9.93333,564
9.94167,564
9.95000,563
9.95833,564
9.96667,563
9.97500,563
9.98333,563
9.99167,564
10.00000,564
10.00833,564
10.01667,565
10.02500,565
10.03333,565
10.04167,565
10.05000,565
10.05833,565
10.06667,565
10.07500,565
10.08333,566
10.09167,566
10.10000,566
10.10833,565
10.11667,565
10.12500,565
10.13333,564
10.14167,564
10.15000,564
10.15833,564
10.16667,564
10.17500,564
10.18333,564
10.19167,564
10.20000,565
10.20833,565
10.21667,565
10.22500,565
10.23333,565
10.24167,564
10.25000,565
10.25833,565
10.26667,565
10.27500,564
10.28333,565
10.29167,565
10.30000,565
10.30833,565
10.31667,566
10.32500,566
10.33333,566
10.34167,566
10.35000,565
10.35833,565
10.36667,564
10.37500,564
10.38333,564
10.39167,563
10.40000,563
10.40833,562
10.41667,561
10.42500,559
10.43333,557
10.44167,555
10.45000,552
10.45833,548
10.46667,543
10.47500,538
10.48333,531
10.49167,523
10.50000,515
10.50833,505
10.51667,494
10.52500,483
10.53333,472
10.54167,461
10.55000,452
10.55833,443
10.56667,437
10.57500,434
10.58333,434
10.59167,440
10.60000,452
10.60833,470
10.61667,496
10.62500,530
10.63333,572
10.64167,624
10.65000,684
10.65833,754
10.66667,832
10.67500,918
10.68333,1012
10.69167,1112
10.70000,1217
10.70833,1326
10.71667,1438
10.72500,1550
10.73333,1661
10.74167,1769
10.75000,1874
10.75833,1972
10.76667,2064
10.77500,2147
10.78333,2219
10.79167,2282
10.80000,2333
10.80833,2372
10.81667,2399
10.82500,2414
10.83333,2417
10.84167,2409
10.85000,2388
10.85833,2357
10.86667,2316
10.87500,2265
10.88333,2208
10.89167,2143
10.90000,2073
10.90833,1999
10.91667,1922
10.92500,1842
10.93333,1761
10.94167,1679
10.95000,1598
10.95833,1518
10.96667,1440
10.97500,1364
10.98333,1292
10.99167,1224
11.00000,1159
11.00833,1098
11.01667,1041
11.02500,988
11.03333,940
11.04167,896
11.05000,855
11.05833,819
11.06667,786
11.07500,756
11.08333,729
11.09167,706
11.10000,685
11.10833,667
11.11667,650
11.12500,637
11.13333,624
11.14167,614
11.15000,605
11.15833,596
11.16667,589
11.17500,583
11.18333,578
11.19167,574
11.20000,570
11.20833,567
11.21667,565
11.22500,563
11.23333,562
11.24167,561
11.25000,560
11.25833,559
11.26667,558
11.27500,558
11.28333,558
11.29167,557
11.30000,557
11.30833,557
11.31667,557
11.32500,557
11.33333,557
11.34167,557
11.35000,557
11.35833,557
11.36667,557
11.37500,557
11.38333,557
11.39167,557
11.40000,556
11.40833,556
11.41667,556
11.42500,557
11.43333,557
11.44167,557
11.45000,557
11.45833,557
11.46667,556
11.47500,557
11.48333,557
11.49167,557
11.50000,557
11.50833,558
11.51667,558
11.52500,559
11.53333,559
11.54167,560
11.55000,560
11.55833,560
11.56667,560
11.57500,560
11.58333,560
11.59167,561
11.60000,561
11.60833,561
11.61667,562
11.62500,562
11.63333,562
11.64167,563
11.65000,563
11.65833,563
11.66667,564
11.67500,564
11.68333,565
11.69167,565
11.70000,565
11.70833,565
11.71667,566
11.72500,566
11.73333,566
11.74167,566
11.75000,566
11.75833,566
11.76667,566
11.77500,566
11.78333,566
11.79167,567
11.80000,567
11.80833,568
11.81667,569
11.82500,569
11.83333,569
11.84167,569
11.85000,569
11.85833,569
11.86667,569
11.87500,569
11.88333,569
11.89167,569
11.90000,569
11.90833,569
11.91667,568
11.92500,568
11.93333,568
11.94167,567
11.95000,567
11.95833,567
11.96667,567
11.97500,567
11.98333,567
11.99167,566
12.00000,566
12.00833,566
12.01667,566
12.02500,565
12.03333,565
12.04167,564
12.05000,564
12.05833,564
12.06667,564
12.07500,564
12.08333,563
12.09167,563
12.10000,563
12.10833,563
12.11667,563
12.12500,562
12.13333,561
12.14167,560
12.15000,560
12.15833,559
12.16667,559
12.17500,558
12.18333,558
12.19167,558
12.20000,558
12.20833,558
12.21667,558
12.22500,558
12.23333,557
12.24167,557
12.25000,556
12.25833,556
12.26667,555
12.27500,555
12.28333,554
12.29167,554
12.30000,554
12.30833,554
12.31667,554
12.32500,554
12.33333,554
12.34167,554
12.35000,554
12.35833,554
12.36667,555
12.37500,555
12.38333,554
12.39167,555
12.40000,555
12.40833,555
12.41667,555
12.42500,555
12.43333,555
12.44167,555
12.45000,556
12.45833,557
12.46667,557
12.47500,558
12.48333,558
12.49167,559
12.50000,560
12.50833,561
12.51667,563
12.52500,565
12.53333,566
12.54167,568
12.55000,571
12.55833,573
12.56667,576
12.57500,580
12.58333,584
12.59167,589
12.60000,596
12.60833,603
12.61667,612
12.62500,623
12.63333,635
12.64167,649
12.65000,665
12.65833,684
12.66667,707
12.67500,733
12.68333,762
12.69167,795
12.70000,833
12.70833,875
12.71667,922
12.72500,975
12.73333,1032
12.74167,1094
12.75000,1162
12.75833,1236
12.76667,1316
12.77500,1401
12.78333,1492
12.79167,1589
12.80000,1692
12.80833,1800
12.81667,1914
12.82500,2033
12.83333,2156
12.84167,2285
12.85000,2419
12.85833,2556
12.86667,2698
12.87500,2843
12.88333,2992
12.89167,3145
12.90000,3300
12.90833,3459
12.91667,3620
12.92500,3784
12.93333,3949
12.94167,4116
12.95000,4284
12.95833,4452
12.96667,4621
12.97500,4789
12.98333,4955
12.99167,5120
13.00000,5281
13.00833,5439
13.01667,5592
13.02500,5737
13.03333,5873
13.04167,5998
13.05000,6108
13.05833,6200
13.06667,6272
13.07500,6319
13.08333,6340
13.09167,6331
13.10000,6291
13.10833,6216
13.11667,6108
13.12500,5967
13.13333,5795
13.14167,5595
13.15000,5370
13.15833,5124
13.16667,4862
13.17500,4591
13.18333,4314
13.19167,4037
13.20000,3764
13.20833,3498
13.21667,3242
13.22500,2999
13.23333,2770
13.24167,2556
13.25000,2359
13.25833,2178
13.26667,2014
13.27500,1864
13.28333,1728
13.29167,1606
13.30000,1496
13.30833,1399
13.31667,1312
13.32500,1235
13.33333,1166
13.34167,1106
13.35000,1052
13.35833,1005
13.36667,963
13.37500,925
13.38333,892
13.39167,863
13.40000,837
13.40833,814
13.41667,794
13.42500,776
13.43333,760
13.44167,746
13.45000,733
13.45833,722
13.46667,712
13.47500,703
13.48333,695
13.49167,687
13.50000,681
13.50833,675
13.51667,669
13.52500,664
13.53333,660
13.54167,655
13.55000,651
13.55833,647
13.56667,644
13.57500,641
13.58333,638
13.59167,635
13.60000,633
13.60833,631
13.61667,628
13.62500,626
13.63333,624
13.64167,623
13.65000,621
13.65833,619
13.66667,617
13.67500,616
13.68333,614
13.69167,612
13.70000,611
13.70833,609
13.71667,608
13.72500,607
13.73333,606
13.74167,605
13.75000,603
13.75833,602
13.76667,601
13.77500,600
13.78333,599
13.79167,597
13.80000,596
13.80833,595
13.81667,594
13.82500,593
13.83333,593
13.84167,592
13.85000,591
13.85833,590
13.86667,590
13.87500,589
13.88333,589
13.89167,588
13.90000,588
13.90833,587
13.91667,587
13.92500,586
13.93333,585
13.94167,584
13.95000,583
13.95833,582
13.96667,581
13.97500,580
13.98333,580
13.99167,580
14.00000,579
14.00833,578
14.01667,578
14.02500,578
14.03333,578
14.04167,577
14.05000,577
14.05833,577
14.06667,577
14.07500,577
14.08333,576
14.09167,576
14.10000,576
14.10833,576
14.11667,575
14.12500,575
14.13333,575
14.14167,575
14.15000,575
14.15833,575
14.16667,575
14.17500,575
14.18333,575
14.19167,575
14.20000,574
14.20833,575
14.21667,575
14.22500,575
14.23333,575
14.24167,575
14.25000,576
14.25833,576
14.26667,576
14.27500,576
14.28333,576
14.29167,576
14.30000,576
14.30833,576
14.31667,576
14.32500,576
14.33333,576
14.34167,576
14.35000,576
14.35833,576
14.36667,577
14.37500,577
14.38333,577
14.39167,578
14.40000,578
14.40833,578
14.41667,578
14.42500,578
14.43333,578
14.44167,578
14.45000,578
14.45833,578
14.46667,578
14.47500,577
14.48333,577
14.49167,577
14.50000,577
14.50833,577
14.51667,577
14.52500,577
14.53333,577
14.54167,577
14.55000,577
14.55833,577
14.56667,577
14.57500,577
14.58333,577
14.59167,576
14.60000,576
14.60833,576
14.61667,575
14.62500,575
14.63333,574
14.64167,574
14.65000,574
14.65833,574
14.66667,574
14.67500,574
14.68333,574
14.69167,573
14.70000,573
14.70833,574
14.71667,574
14.72500,575
14.73333,575
14.74167,575
14.75000,574
14.75833,575
14.76667,575
14.77500,574
14.78333,574
14.79167,574
14.80000,573
14.80833,573
14.81667,573
14.82500,573
14.83333,573
14.84167,572
14.85000,573
14.85833,573
14.86667,572
14.87500,572
14.88333,572
14.89167,572
14.90000,573
14.90833,572
14.91667,572
14.92500,572
14.93333,572
14.94167,573
14.95000,573
14.95833,573
14.96667,573
14.97500,574
14.98333,574
14.99167,574
15.00000,574
15.00833,575
15.01667,576
15.02500,577
15.03333,577
15.04167,578
15.05000,579
15.05833,580
15.06667,581
15.07500,582
15.08333,584
15.09167,586
15.10000,588
15.10833,591
15.11667,594
15.12500,598
15.13333,602
15.14167,607
15.15000,613
15.15833,620
15.16667,628
15.17500,636
15.18333,646
15.19167,657
15.20000,670
15.20833,683
15.21667,699
15.22500,716
15.23333,735
15.24167,756
15.25000,779
15.25833,805
15.26667,832
15.27500,861
15.28333,892
15.29167,926
15.30000,961
15.30833,998
15.31667,1037
15.32500,1077
15.33333,1119
15.34167,1162
15.35000,1206
15.35833,1250
15.36667,1295
15.37500,1340
15.38333,1384
15.39167,1428
15.40000,1470
15.40833,1511
15.41667,1550
15.42500,1587
15.43333,1622
15.44167,1654
15.45000,1683
15.45833,1709
15.46667,1732
15.47500,1751
15.48333,1767
15.49167,1779
15.50000,1786
15.50833,1790
15.51667,1791
15.52500,1787
15.53333,1780
15.54167,1769
15.55000,1755
15.55833,1738
15.56667,1718
15.57500,1695
15.58333,1670
15.59167,1642
15.60000,1612
15.60833,1580
15.61667,1547
15.62500,1513
15.63333,1478
15.64167,1442
15.65000,1406
15.65833,1369
15.66667,1333
15.67500,1296
15.68333,1260
15.69167,1224
15.70000,1189
15.70833,1155
15.71667,1121
15.72500,1089
15.73333,1058
15.74167,1027
15.75000,998
15.75833,971
15.76667,944
15.77500,919
15.78333,895
15.79167,873
15.80000,852
15.80833,832
15.81667,813
15.82500,795
15.83333,779
15.84167,764
15.85000,749
15.85833,736
15.86667,724
15.87500,712
15.88333,702
15.89167,692
15.90000,683
15.90833,674
15.91667,666
15.92500,660
15.93333,653
15.94167,647
15.95000,642
15.95833,637
15.96667,632
15.97500,628
15.98333,624
15.99167,620
16.00000,616
16.00833,613
16.01667,610
16.02500,607
16.03333,604
16.04167,602
16.05000,600
16.05833,599
16.06667,597
16.07500,595
16.08333,593
16.09167,592
16.10000,590
16.10833,589
16.11667,587
16.12500,586
16.13333,585
16.14167,584
16.15000,583
16.15833,582
16.16667,580
16.17500,579
16.18333,578
16.19167,577
16.20000,576
16.20833,574
16.21667,573
16.22500,572
16.23333,571
16.24167,570
16.25000,570
16.25833,569
16.26667,568
16.27500,567
16.28333,566
16.29167,565
16.30000,564
16.30833,563
16.31667,562
16.32500,561
16.33333,560
16.34167,560
16.35000,560
16.35833,559
16.36667,559
16.37500,559
16.38333,558
16.39167,558
16.40000,558
16.40833,558
16.41667,557
16.42500,556
16.43333,556
16.44167,556
16.45000,556
16.45833,556
16.46667,556
16.47500,556
16.48333,556
16.49167,556
16.50000,556
16.50833,557
16.51667,557
16.52500,557
16.53333,558
16.54167,558
16.55000,558
16.55833,559
16.56667,559
16.57500,560
16.58333,560
16.59167,561
16.60000,561
16.60833,562
16.61667,562
16.62500,563
16.63333,564
16.64167,565
16.65000,565
16.65833,566
16.66667,566
16.67500,567
16.68333,568
16.69167,568
16.70000,569
16.70833,570
16.71667,570
16.72500,571
16.73333,572
16.74167,572
16.75000,573
16.75833,573
16.76667,574
16.77500,575
16.78333,576
16.79167,577
16.80000,578
16.80833,579
16.81667,579
16.82500,579
16.83333,580
16.84167,580
16.85000,581
16.85833,581
16.86667,582
16.87500,582
16.88333,582
16.89167,583
16.90000,584
16.90833,584
16.91667,584
16.92500,584
16.93333,585
16.94167,585
16.95000,585
16.95833,585
16.96667,585
16.97500,585
16.98333,585
16.99167,585
17.00000,585
17.00833,585
17.01667,585
17.02500,584
17.03333,583
17.04167,583
17.05000,582
17.05833,582
17.06667,581
17.07500,581
17.08333,580
17.09167,580
17.10000,580
17.10833,579
17.11667,579
17.12500,579
17.13333,578
17.14167,578
17.15000,577
17.15833,577
17.16667,577
17.17500,576
17.18333,576
17.19167,576
17.20000,575
17.20833,575
17.21667,575
17.22500,575
17.23333,575
17.24167,575
17.25000,575
17.25833,575
17.26667,574
17.27500,574
17.28333,574
17.29167,574
17.30000,574
17.30833,574
17.31667,574
17.32500,574
17.33333,574
17.34167,573
17.35000,574
17.35833,574
17.36667,574
17.37500,574
17.38333,574
17.39167,574
17.40000,574
17.40833,574
17.41667,574
17.42500,574
17.43333,574
17.44167,574
17.45000,574
17.45833,574
17.46667,574
17.47500,574
17.48333,573
17.49167,573
17.50000,573
17.50833,573
17.51667,573
17.52500,573
17.53333,573
17.54167,573
17.55000,573
17.55833,573
17.56667,573
17.57500,573
17.58333,573
17.59167,573
17.60000,573
17.60833,573
17.61667,573
17.62500,573
17.63333,573
17.64167,573
17.65000,573
17.65833,573
17.66667,574
17.67500,574
17.68333,574
17.69167,574
17.70000,574
17.70833,574
17.71667,575
17.72500,575
17.73333,575
17.74167,575
17.75000,575
17.75833,575
17.76667,575
17.77500,575
17.78333,575
17.79167,575
17.80000,575
17.80833,576
17.81667,576
17.82500,576
17.83333,576
17.84167,577
17.85000,577
17.85833,577
17.86667,577
17.87500,577
17.88333,578
17.89167,578
17.90000,578
17.90833,578
17.91667,578
17.92500,578
17.93333,578
17.94167,578
17.95000,578
17.95833,578
17.96667,578
17.97500,578
17.98333,578
17.99167,577
18.00000,577
18.00833,577
18.01667,577
18.02500,577
18.03333,577
18.04167,577
18.05000,577
18.05833,577
18.06667,576
18.07500,576
18.08333,576
18.09167,575
18.10000,575
18.10833,574
18.11667,574
18.12500,574
18.13333,573
18.14167,573
18.15000,573
18.15833,572
18.16667,571
18.17500,571
18.18333,571
18.19167,570
18.20000,570
18.20833,570
18.21667,570
18.22500,570
18.23333,570
18.24167,570
18.25000,570
18.25833,569
18.26667,569
18.27500,569
18.28333,569
18.29167,568
18.30000,568
18.30833,567
18.31667,567
18.32500,567
18.33333,567
18.34167,567
18.35000,567
18.35833,567
18.36667,567
18.37500,568
18.38333,568
18.39167,568
18.40000,568
18.40833,568
18.41667,568
18.42500,568
18.43333,567
18.44167,567
18.45000,567
18.45833,567
18.46667,567
18.47500,567
18.48333,567
18.49167,567
18.50000,568
18.50833,567
18.51667,567
18.52500,567
18.53333,567
18.54167,567
18.55000,567
18.55833,567
18.56667,567
18.57500,567
18.58333,567
18.59167,567
18.60000,567
18.60833,567
18.61667,568
18.62500,568
18.63333,568
18.64167,568
18.65000,569
18.65833,569
18.66667,569
18.67500,569
18.68333,570
18.69167,570
18.70000,571
18.70833,571
18.71667,572
18.72500,572
18.73333,573
18.74167,573
18.75000,573
18.75833,573
18.76667,574
18.77500,574
18.78333,575
18.79167,575
18.80000,575
18.80833,575
18.81667,576
18.82500,576
18.83333,576
18.84167,576
18.85000,576
18.85833,576
18.86667,576
18.87500,576
18.88333,576
18.89167,576
18.90000,575
18.90833,575
18.91667,575
18.92500,575
18.93333,575
18.94167,575
18.95000,574
18.95833,574
18.96667,574
18.97500,574
18.98333,573
18.99167,573
19.00000,572
19.00833,572
19.01667,571
19.02500,571
19.03333,570
19.04167,570
19.05000,570
19.05833,570
19.06667,569
19.07500,569
19.08333,569
19.09167,568
19.10000,567
19.10833,567
19.11667,566
19.12500,566
19.13333,565
19.14167,565
19.15000,565
19.15833,565
19.16667,565
19.17500,564
19.18333,564
19.19167,563
19.20000,563
19.20833,562
19.21667,562
19.22500,561
19.23333,561
19.24167,561
19.25000,562
19.25833,562
19.26667,562
19.27500,562
19.28333,563
19.29167,563
19.30000,563
19.30833,563
19.31667,564
19.32500,564
19.33333,564
19.34167,564
19.35000,565
19.35833,566
19.36667,566
19.37500,567
19.38333,567
19.39167,568
19.40000,569
19.40833,570
19.41667,571
19.42500,572
19.43333,573
19.44167,574
19.45000,575
19.45833,576
19.46667,577
19.47500,577
19.48333,578
19.49167,579
19.50000,581
19.50833,581
19.51667,582
19.52500,583
19.53333,584
19.54167,585
19.55000,586
19.55833,587
19.56667,588
19.57500,589
19.58333,589
19.59167,590
19.60000,591
19.60833,591
19.61667,591
19.62500,592
19.63333,592
19.64167,592
19.65000,592
19.65833,592
19.66667,592
19.67500,592
19.68333,592
19.69167,591
19.70000,591
19.70833,591
19.71667,591
19.72500,591
19.73333,590
19.74167,590
19.75000,589
19.75833,589
19.76667,588
19.77500,587
19.78333,587
19.79167,586
19.80000,585
19.80833,584
19.81667,583
19.82500,582
19.83333,582
19.84167,580
19.85000,579
19.85833,578
19.86667,577
19.87500,577
19.88333,576
19.89167,576
19.90000,575
19.90833,574
19.91667,574
19.92500,574
19.93333,573
19.94167,573
19.95000,572
19.95833,571
19.96667,571
19.97500,570
19.98333,570
19.99167,569
20.00000,569
20.00833,570
20.01667,570
20.02500,569
20.03333,569
20.04167,569
20.05000,569
20.05833,569
20.06667,570
20.07500,570
20.08333,570
20.09167,570
20.10000,571
20.10833,571
20.11667,571
20.12500,571
20.13333,572
20.14167,572
20.15000,573
20.15833,573
20.16667,574
20.17500,574
20.18333,574
20.19167,575
20.20000,575
20.20833,575
20.21667,576
20.22500,576
20.23333,577
20.24167,577
20.25000,577
20.25833,578
20.26667,578
20.27500,579
20.28333,579
20.29167,580
20.30000,580
20.30833,580
20.31667,581
20.32500,581
20.33333,582
20.34167,582
20.35000,582
20.35833,582
20.36667,582
20.37500,582
20.38333,581
20.39167,581
20.40000,581
20.40833,581
20.41667,581
20.42500,581
20.43333,581
20.44167,580
20.45000,580
20.45833,580
20.46667,580
20.47500,579
20.48333,579
20.49167,579
20.50000,579
20.50833,578
20.51667,578
20.52500,578
20.53333,577
20.54167,577
20.55000,577
20.55833,576
20.56667,576
20.57500,576
20.58333,576
20.59167,576
20.60000,576
20.60833,576
20.61667,576
20.62500,576
20.63333,576
20.64167,576
20.65000,576
20.65833,576
20.66667,576
20.67500,575
20.68333,575
20.69167,575
20.70000,575
20.70833,575
20.71667,575
20.72500,575
20.73333,576
20.74167,576
20.75000,575
20.75833,575
20.76667,575
20.77500,575
20.78333,574
20.79167,574
20.80000,574
20.80833,573
20.81667,572
20.82500,572
20.83333,572
20.84167,571
20.85000,571
20.85833,571
20.86667,571
20.87500,571
20.88333,570
20.89167,570
20.90000,569
20.90833,569
20.91667,569
20.92500,569
20.93333,569
20.94167,569
20.95000,568
20.95833,568
20.96667,567
20.97500,566
20.98333,566
20.99167,566
21.00000,566
21.00833,565
21.01667,565
21.02500,565
21.03333,565
21.04167,564
21.05000,564
21.05833,563
21.06667,563
21.07500,563
21.08333,562
21.09167,562
21.10000,562
21.10833,562
21.11667,561
21.12500,561
21.13333,561
21.14167,560
21.15000,560
21.15833,560
21.16667,559
21.17500,558
21.18333,558
21.19167,558
21.20000,558
21.20833,558
21.21667,558
21.22500,559
21.23333,559
21.24167,558
21.25000,558
21.25833,558
21.26667,558
21.27500,558
21.28333,558
21.29167,558
21.30000,558
21.30833,557
21.31667,558
21.32500,558
21.33333,558
21.34167,558
21.35000,558
21.35833,557
21.36667,557
21.37500,557
21.38333,557
21.39167,557
21.40000,557
21.40833,557
21.41667,558
21.42500,558
21.43333,558
21.44167,558
21.45000,558
21.45833,558
21.46667,559
21.47500,559
21.48333,559
21.49167,559
21.50000,559
21.50833,559
21.51667,560
21.52500,560
21.53333,561
21.54167,561
21.55000,561
21.55833,562
21.56667,562
21.57500,563
21.58333,563
21.59167,564
21.60000,564
21.60833,565
21.61667,565
21.62500,566
21.63333,566
21.64167,567
21.65000,567
21.65833,568
21.66667,568
21.67500,569
21.68333,570
21.69167,571
21.70000,571
21.70833,572
21.71667,572
21.72500,572
21.73333,573
21.74167,573
21.75000,573
21.75833,573
21.76667,574
21.77500,574
21.78333,574
21.79167,575
21.80000,575
21.80833,576
21.81667,576
21.82500,576
21.83333,577
21.84167,577
21.85000,577
21.85833,578
21.86667,578
21.87500,578
21.88333,578
21.89167,578
21.90000,578
21.90833,579
21.91667,579
21.92500,579
21.93333,579
21.94167,580
21.95000,580
21.95833,580
21.96667,580
21.97500,580
21.98333,580
21.99167,580
22.00000,580
22.00833,580
22.01667,580
22.02500,580
22.03333,580
22.04167,580
22.05000,579
22.05833,579
22.06667,580
22.07500,580
22.08333,581
22.09167,581
22.10000,581
22.10833,581
22.11667,581
22.12500,581
22.13333,581
22.14167,582
22.15000,582
22.15833,582
22.16667,582
22.17500,581
22.18333,581
22.19167,581
22.20000,581
22.20833,580
22.21667,580
22.22500,580
22.23333,579
22.24167,579
22.25000,579
22.25833,579
22.26667,579
22.27500,579
22.28333,579
22.29167,579
22.30000,579
22.30833,579
22.31667,579
22.32500,579
22.33333,579
22.34167,579
22.35000,579
22.35833,579
22.36667,579
22.37500,579
22.38333,579
22.39167,579
22.40000,579
22.40833,579
22.41667,579
22.42500,579
22.43333,579
22.44167,579
22.45000,579
22.45833,579
22.46667,579
22.47500,579
22.48333,579
22.49167,579
22.50000,579
22.50833,578
22.51667,578
22.52500,578
22.53333,578
22.54167,579
22.55000,579
22.55833,579
22.56667,579
22.57500,579
22.58333,579
22.59167,579
22.60000,579
22.60833,580
22.61667,580
22.62500,581
22.63333,581
22.64167,581
22.65000,581
22.65833,581
22.66667,581
22.67500,581
22.68333,582
22.69167,582
22.70000,582
22.70833,583
22.71667,583
22.72500,584
22.73333,584
22.74167,584
22.75000,584
22.75833,584
22.76667,584
22.77500,585
22.78333,585
22.79167,585
22.80000,585
22.80833,586
22.81667,586
22.82500,586
22.83333,587
22.84167,587
22.85000,587
22.85833,588
22.86667,588
22.87500,588
22.88333,588
22.89167,588
22.90000,588
22.90833,588
22.91667,588
22.92500,588
22.93333,588
22.94167,588
22.95000,588
22.95833,588
22.96667,588
22.97500,589
22.98333,589
22.99167,589
23.00000,589
23.00833,589
23.01667,589
23.02500,589
23.03333,589
23.04167,588
23.05000,588
23.05833,588
23.06667,588
23.07500,588
23.08333,588
23.09167,587
23.10000,587
23.10833,587
23.11667,586
23.12500,586
23.13333,586
23.14167,587
23.15000,587
23.15833,587
23.16667,588
23.17500,588
23.18333,587
23.19167,587
23.20000,587
23.20833,587
23.21667,587
23.22500,588
23.23333,588
23.24167,588
23.25000,588
23.25833,587
23.26667,587
23.27500,587
23.28333,587
23.29167,587
23.30000,587
23.30833,587
23.31667,586
23.32500,586
23.33333,586
23.34167,585
23.35000,585
23.35833,584
23.36667,584
23.37500,584
23.38333,584
23.39167,584
23.40000,584
23.40833,583
23.41667,583
23.42500,582
23.43333,581
23.44167,581
23.45000,581
23.45833,581
23.46667,580
23.47500,579
23.48333,578
23.49167,578
23.50000,577
23.50833,577
23.51667,576
23.52500,576
23.53333,575
23.54167,574
23.55000,573
23.55833,572
23.56667,572
23.57500,571
23.58333,571
23.59167,570
23.60000,570
23.60833,570
23.61667,570
23.62500,569
23.63333,569
23.64167,569
23.65000,568
23.65833,568
23.66667,568
23.67500,568
23.68333,568
23.69167,567
23.70000,567
23.70833,567
23.71667,568
23.72500,567
23.73333,567
23.74167,567
23.75000,567
23.75833,567
23.76667,567
23.77500,567
23.78333,567
23.79167,567
23.80000,568
23.80833,568
23.81667,569
23.82500,569
23.83333,569
23.84167,569
23.85000,569
23.85833,570
23.86667,570
23.87500,570
23.88333,570
23.89167,570
23.90000,571
23.90833,572
23.91667,572
23.92500,573
23.93333,573
23.94167,574
23.95000,574
23.95833,574
23.96667,575
23.97500,575
23.98333,575
23.99167,575
24.00000,576
24.00833,576
24.01667,576
24.02500,577
24.03333,578
24.04167,579
24.05000,579
24.05833,580
24.06667,580
24.07500,581
24.08333,581
24.09167,581
24.10000,581
24.10833,582
24.11667,582
24.12500,583
24.13333,583
24.14167,584
24.15000,584
24.15833,585
24.16667,585
24.17500,585
24.18333,585
24.19167,585
24.20000,586
24.20833,586
24.21667,586
24.22500,586
24.23333,586
24.24167,586
24.25000,586
24.25833,586
24.26667,586
24.27500,586
24.28333,586
24.29167,586
24.30000,586
24.30833,585
24.31667,585
24.32500,585
24.33333,585
24.34167,585
24.35000,585
24.35833,585
24.36667,585
24.37500,585
24.38333,584
24.39167,584
24.40000,583
24.40833,583
24.41667,583
24.42500,582
24.43333,582
24.44167,581
24.45000,581
24.45833,580
24.46667,580
24.47500,579
24.48333,579
24.49167,578
24.50000,578
24.50833,578
24.51667,577
24.52500,577
24.53333,577
24.54167,576
24.55000,576
24.55833,576
24.56667,576
24.57500,575
24.58333,575
24.59167,575
24.60000,575
24.60833,576
24.61667,576
24.62500,576
24.63333,576
24.64167,576
24.65000,576
24.65833,576
24.66667,576
24.67500,577
24.68333,577
24.69167,578
24.70000,578
24.70833,578
24.71667,578
24.72500,579
24.73333,579
24.74167,580
24.75000,581
24.75833,582
24.76667,582
24.77500,582
24.78333,583
24.79167,584
24.80000,584
24.80833,585
24.81667,585
24.82500,585
24.83333,586
24.84167,586
24.85000,586
24.85833,587
24.86667,587
24.87500,588
24.88333,588
24.89167,588
24.90000,589
24.90833,589
24.91667,590
24.92500,590
24.93333,589
24.94167,589
24.95000,589
24.95833,589
24.96667,589
24.97500,588
24.98333,588
24.99167,588
25.00000,587
25.00833,587
25.01667,586
25.02500,585
25.03333,584
25.04167,583
25.05000,583
25.05833,582
25.06667,581
25.07500,580
25.08333,579
25.09167,578
25.10000,577
25.10833,576
25.11667,576
25.12500,574
25.13333,574
25.14167,573
25.15000,572
25.15833,571
25.16667,570
25.17500,570
25.18333,569
25.19167,569
25.20000,568
25.20833,568
25.21667,567
25.22500,567
25.23333,566
25.24167,566
25.25000,566
25.25833,566
25.26667,566
25.27500,567
25.28333,567
25.29167,567
25.30000,567
25.30833,567
25.31667,567
25.32500,567
25.33333,567
25.34167,568
25.35000,569
25.35833,570
25.36667,570
25.37500,571
25.38333,571
25.39167,572
25.40000,573
25.40833,574
25.41667,574
25.42500,575
25.43333,576
25.44167,576
25.45000,577
25.45833,578
25.46667,579
25.47500,580
25.48333,580
25.49167,581
25.50000,582
25.50833,583
25.51667,584
25.52500,585
25.53333,585
25.54167,586
25.55000,586
25.55833,587
25.56667,588
25.57500,589
25.58333,589
25.59167,590
25.60000,590
25.60833,590
25.61667,590
25.62500,590
25.63333,590
25.64167,591
25.65000,591
25.65833,591
25.66667,591
25.67500,591
25.68333,591
25.69167,591
25.70000,591
25.70833,591
25.71667,590
25.72500,590
25.73333,590
25.74167,590
25.75000,590
25.75833,591
25.76667,591
25.77500,591
25.78333,591
25.79167,591
25.80000,591
25.80833,591
25.81667,591
25.82500,591
25.83333,591
25.84167,591
25.85000,591
25.85833,591
25.86667,591
25.87500,591
25.88333,591
25.89167,591
25.90000,591
25.90833,591
25.91667,591
25.92500,591
25.93333,591
25.94167,591
25.95000,591
25.95833,591
25.96667,591
25.97500,591
25.98333,591
25.99167,591
26.00000,591
26.00833,591
26.01667,591
26.02500,591
26.03333,591
26.04167,591
26.05000,591
26.05833,591
26.06667,591
26.07500,591
26.08333,591
26.09167,591
26.10000,591
26.10833,591
26.11667,591
26.12500,590
26.13333,590
26.14167,591
26.15000,591
26.15833,591
26.16667,591
26.17500,590
26.18333,590
26.19167,590
26.20000,589
26.20833,589
26.21667,589
26.22500,589
26.23333,589
26.24167,588
26.25000,588
26.25833,588
26.26667,588
26.27500,588
26.28333,588
26.29167,588
26.30000,587
26.30833,587
26.31667,587
26.32500,587
26.33333,586
26.34167,586
26.35000,586
26.35833,586
26.36667,586
26.37500,585
26.38333,585
26.39167,585
26.40000,585
26.40833,584
26.41667,584
26.42500,583
26.43333,583
26.44167,582
26.45000,581
26.45833,581
26.46667,580
26.47500,580
26.48333,579
26.49167,578
26.50000,578
26.50833,577
26.51667,577
26.52500,576
26.53333,576
26.54167,576
26.55000,576
26.55833,575
26.56667,575
26.57500,575
26.58333,574
26.59167,573
26.60000,573
26.60833,572
26.61667,572
26.62500,572
26.63333,571
26.64167,571
26.65000,571
26.65833,571
26.66667,571
26.67500,570
26.68333,570
26.69167,570
26.70000,570
26.70833,569
26.71667,569
26.72500,569
26.73333,569
26.74167,568
26.75000,568
26.75833,568
26.76667,568
26.77500,568
26.78333,568
26.79167,568
26.80000,568
26.80833,568
26.81667,568
26.82500,568
26.83333,568
26.84167,568
26.85000,568
26.85833,568
26.86667,568
26.87500,568
26.88333,568
26.89167,568
26.90000,568
26.90833,568
26.91667,569
26.92500,569
26.93333,569
26.94167,570
26.95000,570
26.95833,570
26.96667,570
26.97500,570
26.98333,570
26.99167,570
27.00000,570
27.00833,570
27.01667,570
27.02500,570
27.03333,570
27.04167,570
27.05000,569
27.05833,569
27.06667,569
27.07500,569
27.08333,570
27.09167,570
27.10000,570
27.10833,570
27.11667,571
27.12500,572
27.13333,572
27.14167,573
27.15000,574
27.15833,574
27.16667,575
27.17500,576
27.18333,577
27.19167,578
27.20000,579
27.20833,580
27.21667,581
27.22500,582
27.23333,583
27.24167,583
27.25000,584
27.25833,585
27.26667,585
27.27500,586
27.28333,586
27.29167,587
27.30000,587
27.30833,588
27.31667,589
27.32500,590
27.33333,590
27.34167,591
27.35000,591
27.35833,592
27.36667,592
27.37500,593
27.38333,593
27.39167,593
27.40000,593
27.40833,594
27.41667,594
27.42500,594
27.43333,594
27.44167,595
27.45000,595
27.45833,595
27.46667,595
27.47500,595
27.48333,595
27.49167,595
27.50000,595
27.50833,595
27.51667,595
27.52500,595
27.53333,595
27.54167,595
27.55000,595
27.55833,595
27.56667,595
27.57500,595
27.58333,595
27.59167,595
27.60000,595
27.60833,594
27.61667,594
27.62500,594
27.63333,594
27.64167,594
27.65000,594
27.65833,594
27.66667,593
27.67500,593
27.68333,594
27.69167,594
27.70000,594
27.70833,594
27.71667,594
27.72500,594
27.73333,594
27.74167,594
27.75000,594
27.75833,594
27.76667,594
27.77500,594
27.78333,594
27.79167,593
27.80000,593
27.80833,592
27.81667,592
27.82500,591
27.83333,591
27.84167,590
27.85000,590
27.85833,589
27.86667,589
27.87500,588
27.88333,588
27.89167,587
27.90000,586
27.90833,585
27.91667,585
27.92500,584
27.93333,583
27.94167,582
27.95000,581
27.95833,579
27.96667,578
27.97500,577
27.98333,576
27.99167,575
28.00000,575
28.00833,573
28.01667,572
28.02500,570
28.03333,569
28.04167,569
28.05000,568
28.05833,567
28.06667,565
28.07500,564
28.08333,562
28.09167,560
28.10000,559
28.10833,557
28.11667,555
28.12500,553
28.13333,552
28.14167,550
28.15000,548
28.15833,547
28.16667,545
28.17500,544
28.18333,543
28.19167,541
28.20000,540
28.20833,539
28.21667,538
28.22500,537
28.23333,536
28.24167,535
28.25000,534
28.25833,532
28.26667,531
28.27500,531
28.28333,530
28.29167,529
28.30000,528
28.30833,526
28.31667,525
28.32500,524
28.33333,523
28.34167,522
28.35000,522
28.35833,522
28.36667,521
28.37500,521
28.38333,520
28.39167,520
28.40000,519
28.40833,519
28.41667,519
28.42500,519
28.43333,519
28.44167,520
28.45000,520
28.45833,520
28.46667,520
28.47500,521
28.48333,521
28.49167,522
28.50000,522
28.50833,523
28.51667,524
28.52500,524
28.53333,525
28.54167,526
28.55000,527
28.55833,528
28.56667,528
28.57500,529
28.58333,530
28.59167,531
28.60000,532
28.60833,533
28.61667,535
28.62500,536
28.63333,537
28.64167,538
28.65000,540
28.65833,541
28.66667,543
28.67500,544
28.68333,545
28.69167,547
28.70000,548
28.70833,550
28.71667,551
28.72500,553
28.73333,555
28.74167,556
28.75000,558
28.75833,559
28.76667,560
28.77500,561
28.78333,563
28.79167,564
28.80000,565
28.80833,567
28.81667,568
28.82500,570
28.83333,571
28.84167,572
28.85000,573
28.85833,574
28.86667,575
28.87500,576
28.88333,577
28.89167,577
28.90000,578
28.90833,579
28.91667,580
28.92500,581
28.93333,582
28.94167,582
28.95000,583
28.95833,584
28.96667,584
28.97500,584
28.98333,585
28.99167,585
29.00000,586
29.00833,586
29.01667,587
29.02500,587
29.03333,587
29.04167,587
29.05000,588
29.05833,588
29.06667,588
29.07500,589
29.08333,589
29.09167,589
29.10000,589
29.10833,590
29.11667,590
29.12500,590
29.13333,591
29.14167,591
29.15000,591
29.15833,591
29.16667,591
29.17500,591
29.18333,591
29.19167,591
29.20000,591
29.20833,591
29.21667,591
29.22500,591
29.23333,591
29.24167,591
29.25000,591
29.25833,591
29.26667,591
29.27500,591
29.28333,591
29.29167,591
29.30000,591
29.30833,591
29.31667,591
29.32500,591
29.33333,591
29.34167,591
29.35000,591
29.35833,591
29.36667,591
29.37500,591
29.38333,592
29.39167,592
29.40000,592
29.40833,592
29.41667,593
29.42500,593
29.43333,594
29.44167,594
29.45000,594
29.45833,594
29.46667,595
29.47500,595
29.48333,595
29.49167,595
29.50000,595
29.50833,596
29.51667,596
29.52500,596
29.53333,596
29.54167,596
29.55000,596
29.55833,596
29.56667,596
29.57500,596
29.58333,596
29.59167,596
29.60000,596
29.60833,596
29.61667,596
29.62500,596
29.63333,596
29.64167,595
29.65000,595
29.65833,595
29.66667,594
29.67500,594
29.68333,593
29.69167,593
29.70000,593
29.70833,592
29.71667,592
29.72500,591
29.73333,591
29.74167,591
29.75000,590
29.75833,590
29.76667,589
29.77500,589
29.78333,588
29.79167,587
29.80000,587
29.80833,586
29.81667,586
29.82500,585
29.83333,584
29.84167,583
29.85000,583
29.85833,582
29.86667,581
29.87500,581
29.88333,581
29.89167,580
29.90000,579
29.90833,578
29.91667,578
29.92500,577
29.93333,577
29.94167,576
29.95000,575
29.95833,575
29.96667,574
29.97500,573
29.98333,572
29.99167,571
30.00000,571

