[Header]
Application Name,LabSolutions
Version,5.97 SP1
Data File Name,C:\Users\cremerlab\Desktop\griffin\2021-02-15_NCM_diauxie_turnover\2021-02-15_NCM_acetate_glucose_diauxie_turnover_2152021_016.lcd
Output Date,2/16/2021
Output Time,9:38:16 AM

[File Information]
Type,Data File
Generated,2/16/2021 4:00:14 AM
Generated by,System Administrator
Modified,2/16/2021 4:30:34 AM
Modified by,System Administrator

[Sample Information]
Operator Name,System Administrator
Acquired,2/16/2021 4:00:33 AM
Sample Type,0:Unknown
Level,0
Sample Name,10 mM glucose medium 15 uL
Sample ID,001
ISTD Amount1,1
ISTD Amount2,1
ISTD Amount3,1
ISTD Amount4,1
ISTD Amount5,1
ISTD Amount6,1
ISTD Amount7,1
ISTD Amount8,1
ISTD Amount9,1
ISTD Amount10,1
ISTD Amount11,1
ISTD Amount12,1
ISTD Amount13,1
ISTD Amount14,1
ISTD Amount15,1
ISTD Amount16,1
ISTD Amount17,1
ISTD Amount18,1
ISTD Amount19,1
ISTD Amount20,1
ISTD Amount21,1
ISTD Amount22,1
ISTD Amount23,1
ISTD Amount24,1
ISTD Amount25,1
ISTD Amount26,1
ISTD Amount27,1
ISTD Amount28,1
ISTD Amount29,1
ISTD Amount30,1
ISTD Amount31,1
ISTD Amount32,1
Sample Amount,1
Dilution Factor,1
Vial#,10
Injection Volume,15

[Original Files]
Data File,C:\Users\cremerlab\Desktop\griffin\2021-02-15_NCM_diauxie_turnover\2021-02-15_NCM_acetate_glucose_diauxie_turnover_2152021_016.lcd
Method File,C:\LabSolutions\Data\Project1\organicacidsetc.lcm
Batch File,C:\Users\cremerlab\Desktop\griffin\2021-02-15_NCM_diauxie_turnover\2021-02-15_NCM_acetate_glucose_diauxie_turnover.lcb
Report Format File,c:\LabSolutions\System\DEFAULT.lsr

[File Description]


[Configuration]
Instrument Name,HPLC-PC-Instrument1
Instrument #,1
Line #,1
# of Detectors,2
Detector ID,Detector A,Detector B
Detector Name,Detector A,Detector B
# of Channels,1,1

[Peak Table(Detector A)]
# of Peaks,0

[Peak Table(Detector B)]
# of Peaks,4
Peak#,R.Time,I.Time,F.Time,Area,Height,A/H,Conc.,Mark,ID#,Name,k',Plate #,Plate Ht.,Tailing,Resolution,Sep.Factor,Area Ratio,Height Ratio,Conc. %,Norm Conc.
1,10.862,10.608,11.667,108916,6721,16.205,0.000,   ,,,0.000,10897,13.765,1.369,0.000,0.000,0,0,0.000,0.000
2,13.349,12.525,14.558,382031,15746,24.262,0.000,   ,,,0.229,6354,23.606,0.744,4.580,0.000,0,0,0.000,0.000
3,15.545,15.008,16.408,96835,4202,23.044,0.000,   ,,,0.431,10482,14.310,1.144,3.438,1.883,0,0,0.000,0.000
4,29.698,28.592,29.967,12431,134,92.540,0.000,   ,,,1.734,6595,22.743,0.623,13.675,4.023,0,0,0.000,0.000

[Compound Results(Detector A)]
# of IDs,0

[Compound Results(Detector B)]
# of IDs,0

[LC Chromatogram(Detector B-Ch1)]
Interval(msec),500
# of Points,3601
Start Time(min),0.000
End Time(min),30.000
Intensity Units,mV
Intensity Multiplier,0.001
R.Time (min),Intensity
0.00000,1
0.00833,1
0.01667,0
0.02500,0
0.03333,-0
0.04167,-2
0.05000,-4
0.05833,-5
0.06667,-6
0.07500,-7
0.08333,-7
0.09167,-7
0.10000,-6
0.10833,-5
0.11667,-5
0.12500,-4
0.13333,-3
0.14167,-3
0.15000,-2
0.15833,-2
0.16667,-2
0.17500,-1
0.18333,-1
0.19167,-1
0.20000,-1
0.20833,-1
0.21667,-1
0.22500,-0
0.23333,0
0.24167,1
0.25000,2
0.25833,2
0.26667,2
0.27500,2
0.28333,3
0.29167,3
0.30000,3
0.30833,4
0.31667,4
0.32500,4
0.33333,4
0.34167,4
0.35000,5
0.35833,5
0.36667,6
0.37500,7
0.38333,7
0.39167,8
0.40000,8
0.40833,9
0.41667,9
0.42500,10
0.43333,10
0.44167,11
0.45000,11
0.45833,11
0.46667,11
0.47500,11
0.48333,11
0.49167,12
0.50000,12
0.50833,13
0.51667,13
0.52500,14
0.53333,14
0.54167,14
0.55000,14
0.55833,15
0.56667,15
0.57500,16
0.58333,17
0.59167,17
0.60000,17
0.60833,17
0.61667,17
0.62500,16
0.63333,15
0.64167,15
0.65000,14
0.65833,13
0.66667,12
0.67500,11
0.68333,11
0.69167,10
0.70000,9
0.70833,9
0.71667,8
0.72500,8
0.73333,7
0.74167,7
0.75000,7
0.75833,7
0.76667,7
0.77500,6
0.78333,6
0.79167,6
0.80000,6
0.80833,6
0.81667,6
0.82500,5
0.83333,5
0.84167,5
0.85000,4
0.85833,4
0.86667,4
0.87500,3
0.88333,4
0.89167,4
0.90000,4
0.90833,4
0.91667,4
0.92500,4
0.93333,3
0.94167,3
0.95000,3
0.95833,2
0.96667,2
0.97500,2
0.98333,2
0.99167,2
1.00000,2
1.00833,1
1.01667,1
1.02500,1
1.03333,0
1.04167,-0
1.05000,-0
1.05833,-0
1.06667,-0
1.07500,-0
1.08333,-1
1.09167,-1
1.10000,-2
1.10833,-2
1.11667,-2
1.12500,-2
1.13333,-2
1.14167,-2
1.15000,-2
1.15833,-2
1.16667,-2
1.17500,-2
1.18333,-3
1.19167,-3
1.20000,-3
1.20833,-3
1.21667,-4
1.22500,-4
1.23333,-4
1.24167,-4
1.25000,-4
1.25833,-4
1.26667,-4
1.27500,-5
1.28333,-5
1.29167,-6
1.30000,-6
1.30833,-6
1.31667,-7
1.32500,-7
1.33333,-7
1.34167,-7
1.35000,-7
1.35833,-7
1.36667,-8
1.37500,-8
1.38333,-8
1.39167,-9
1.40000,-9
1.40833,-10
1.41667,-11
1.42500,-11
1.43333,-11
1.44167,-12
1.45000,-12
1.45833,-12
1.46667,-12
1.47500,-12
1.48333,-11
1.49167,-11
1.50000,-11
1.50833,-12
1.51667,-12
1.52500,-12
1.53333,-12
1.54167,-12
1.55000,-12
1.55833,-12
1.56667,-12
1.57500,-12
1.58333,-12
1.59167,-11
1.60000,-11
1.60833,-10
1.61667,-9
1.62500,-9
1.63333,-8
1.64167,-8
1.65000,-8
1.65833,-7
1.66667,-7
1.67500,-6
1.68333,-6
1.69167,-5
1.70000,-5
1.70833,-4
1.71667,-4
1.72500,-3
1.73333,-2
1.74167,-2
1.75000,-1
1.75833,0
1.76667,1
1.77500,1
1.78333,2
1.79167,3
1.80000,4
1.80833,5
1.81667,5
1.82500,5
1.83333,6
1.84167,6
1.85000,6
1.85833,7
1.86667,7
1.87500,8
1.88333,8
1.89167,9
1.90000,9
1.90833,10
1.91667,10
1.92500,10
1.93333,10
1.94167,10
1.95000,10
1.95833,11
1.96667,10
1.97500,10
1.98333,11
1.99167,11
2.00000,10
2.00833,10
2.01667,10
2.02500,10
2.03333,10
2.04167,9
2.05000,9
2.05833,8
2.06667,8
2.07500,7
2.08333,7
2.09167,6
2.10000,6
2.10833,6
2.11667,6
2.12500,6
2.13333,6
2.14167,6
2.15000,6
2.15833,6
2.16667,5
2.17500,5
2.18333,5
2.19167,5
2.20000,4
2.20833,4
2.21667,4
2.22500,4
2.23333,4
2.24167,5
2.25000,5
2.25833,5
2.26667,5
2.27500,5
2.28333,4
2.29167,4
2.30000,4
2.30833,3
2.31667,3
2.32500,3
2.33333,3
2.34167,3
2.35000,3
2.35833,3
2.36667,3
2.37500,3
2.38333,3
2.39167,3
2.40000,3
2.40833,3
2.41667,2
2.42500,2
2.43333,2
2.44167,1
2.45000,1
2.45833,2
2.46667,2
2.47500,1
2.48333,1
2.49167,1
2.50000,2
2.50833,2
2.51667,2
2.52500,2
2.53333,2
2.54167,3
2.55000,3
2.55833,3
2.56667,3
2.57500,3
2.58333,3
2.59167,4
2.60000,4
2.60833,4
2.61667,4
2.62500,4
2.63333,5
2.64167,5
2.65000,5
2.65833,5
2.66667,5
2.67500,6
2.68333,6
2.69167,7
2.70000,7
2.70833,7
2.71667,8
2.72500,8
2.73333,8
2.74167,9
2.75000,9
2.75833,9
2.76667,10
2.77500,9
2.78333,9
2.79167,9
2.80000,9
2.80833,9
2.81667,10
2.82500,10
2.83333,10
2.84167,10
2.85000,10
2.85833,10
2.86667,10
2.87500,10
2.88333,10
2.89167,9
2.90000,9
2.90833,8
2.91667,8
2.92500,7
2.93333,7
2.94167,7
2.95000,7
2.95833,6
2.96667,6
2.97500,5
2.98333,5
2.99167,5
3.00000,5
3.00833,5
3.01667,5
3.02500,4
3.03333,4
3.04167,4
3.05000,4
3.05833,4
3.06667,4
3.07500,4
3.08333,3
3.09167,3
3.10000,3
3.10833,3
3.11667,3
3.12500,4
3.13333,4
3.14167,4
3.15000,4
3.15833,4
3.16667,4
3.17500,5
3.18333,5
3.19167,5
3.20000,5
3.20833,5
3.21667,5
3.22500,6
3.23333,6
3.24167,6
3.25000,7
3.25833,7
3.26667,8
3.27500,8
3.28333,9
3.29167,9
3.30000,9
3.30833,10
3.31667,10
3.32500,10
3.33333,10
3.34167,9
3.35000,9
3.35833,9
3.36667,9
3.37500,10
3.38333,10
3.39167,10
3.40000,10
3.40833,10
3.41667,10
3.42500,10
3.43333,9
3.44167,9
3.45000,9
3.45833,8
3.46667,8
3.47500,7
3.48333,7
3.49167,7
3.50000,7
3.50833,6
3.51667,5
3.52500,5
3.53333,4
3.54167,3
3.55000,2
3.55833,2
3.56667,1
3.57500,0
3.58333,-1
3.59167,-2
3.60000,-2
3.60833,-3
3.61667,-4
3.62500,-4
3.63333,-5
3.64167,-5
3.65000,-6
3.65833,-7
3.66667,-7
3.67500,-8
3.68333,-8
3.69167,-9
3.70000,-9
3.70833,-10
3.71667,-10
3.72500,-11
3.73333,-11
3.74167,-12
3.75000,-12
3.75833,-12
3.76667,-13
3.77500,-13
3.78333,-13
3.79167,-13
3.80000,-13
3.80833,-14
3.81667,-14
3.82500,-14
3.83333,-14
3.84167,-14
3.85000,-14
3.85833,-14
3.86667,-14
3.87500,-14
3.88333,-14
3.89167,-14
3.90000,-13
3.90833,-13
3.91667,-13
3.92500,-13
3.93333,-12
3.94167,-12
3.95000,-12
3.95833,-11
3.96667,-11
3.97500,-11
3.98333,-11
3.99167,-11
4.00000,-10
4.00833,-10
4.01667,-9
4.02500,-9
4.03333,-9
4.04167,-8
4.05000,-8
4.05833,-7
4.06667,-6
4.07500,-6
4.08333,-5
4.09167,-5
4.10000,-4
4.10833,-4
4.11667,-3
4.12500,-3
4.13333,-2
4.14167,-2
4.15000,-1
4.15833,-0
4.16667,0
4.17500,1
4.18333,1
4.19167,2
4.20000,2
4.20833,3
4.21667,4
4.22500,4
4.23333,5
4.24167,5
4.25000,6
4.25833,6
4.26667,7
4.27500,7
4.28333,8
4.29167,8
4.30000,8
4.30833,8
4.31667,8
4.32500,8
4.33333,9
4.34167,9
4.35000,9
4.35833,9
4.36667,9
4.37500,9
4.38333,9
4.39167,9
4.40000,10
4.40833,9
4.41667,10
4.42500,10
4.43333,9
4.44167,9
4.45000,9
4.45833,9
4.46667,9
4.47500,9
4.48333,8
4.49167,8
4.50000,8
4.50833,8
4.51667,7
4.52500,7
4.53333,7
4.54167,6
4.55000,6
4.55833,6
4.56667,6
4.57500,5
4.58333,5
4.59167,5
4.60000,4
4.60833,4
4.61667,3
4.62500,3
4.63333,3
4.64167,3
4.65000,3
4.65833,3
4.66667,3
4.67500,4
4.68333,4
4.69167,4
4.70000,4
4.70833,5
4.71667,5
4.72500,5
4.73333,5
4.74167,6
4.75000,6
4.75833,6
4.76667,6
4.77500,6
4.78333,6
4.79167,6
4.80000,5
4.80833,5
4.81667,5
4.82500,5
4.83333,5
4.84167,4
4.85000,4
4.85833,5
4.86667,5
4.87500,5
4.88333,5
4.89167,5
4.90000,6
4.90833,6
4.91667,6
4.92500,6
4.93333,6
4.94167,6
4.95000,6
4.95833,6
4.96667,6
4.97500,6
4.98333,6
4.99167,6
5.00000,5
5.00833,5
5.01667,5
5.02500,4
5.03333,3
5.04167,2
5.05000,2
5.05833,1
5.06667,1
5.07500,1
5.08333,1
5.09167,1
5.10000,1
5.10833,1
5.11667,1
5.12500,1
5.13333,0
5.14167,-0
5.15000,-1
5.15833,-1
5.16667,-1
5.17500,-2
5.18333,-2
5.19167,-2
5.20000,-3
5.20833,-3
5.21667,-3
5.22500,-4
5.23333,-5
5.24167,-5
5.25000,-6
5.25833,-6
5.26667,-6
5.27500,-6
5.28333,-7
5.29167,-7
5.30000,-7
5.30833,-8
5.31667,-8
5.32500,-8
5.33333,-8
5.34167,-8
5.35000,-8
5.35833,-9
5.36667,-9
5.37500,-9
5.38333,-9
5.39167,-9
5.40000,-9
5.40833,-9
5.41667,-9
5.42500,-9
5.43333,-8
5.44167,-8
5.45000,-8
5.45833,-8
5.46667,-7
5.47500,-7
5.48333,-6
5.49167,-6
5.50000,-5
5.50833,-4
5.51667,-4
5.52500,-3
5.53333,-3
5.54167,-2
5.55000,-1
5.55833,-1
5.56667,0
5.57500,1
5.58333,2
5.59167,3
5.60000,3
5.60833,4
5.61667,5
5.62500,5
5.63333,6
5.64167,7
5.65000,9
5.65833,10
5.66667,11
5.67500,11
5.68333,12
5.69167,12
5.70000,13
5.70833,14
5.71667,15
5.72500,16
5.73333,17
5.74167,19
5.75000,20
5.75833,22
5.76667,23
5.77500,25
5.78333,27
5.79167,28
5.80000,29
5.80833,31
5.81667,32
5.82500,34
5.83333,35
5.84167,37
5.85000,38
5.85833,40
5.86667,41
5.87500,43
5.88333,44
5.89167,45
5.90000,47
5.90833,48
5.91667,49
5.92500,51
5.93333,53
5.94167,54
5.95000,55
5.95833,56
5.96667,58
5.97500,59
5.98333,60
5.99167,61
6.00000,62
6.00833,63
6.01667,65
6.02500,66
6.03333,67
6.04167,68
6.05000,69
6.05833,71
6.06667,72
6.07500,73
6.08333,73
6.09167,74
6.10000,74
6.10833,75
6.11667,75
6.12500,76
6.13333,76
6.14167,77
6.15000,77
6.15833,77
6.16667,77
6.17500,77
6.18333,77
6.19167,77
6.20000,76
6.20833,76
6.21667,75
6.22500,75
6.23333,75
6.24167,74
6.25000,73
6.25833,72
6.26667,71
6.27500,70
6.28333,69
6.29167,68
6.30000,66
6.30833,65
6.31667,64
6.32500,63
6.33333,62
6.34167,61
6.35000,60
6.35833,59
6.36667,58
6.37500,56
6.38333,55
6.39167,54
6.40000,52
6.40833,51
6.41667,50
6.42500,48
6.43333,47
6.44167,46
6.45000,44
6.45833,43
6.46667,42
6.47500,41
6.48333,40
6.49167,40
6.50000,39
6.50833,38
6.51667,37
6.52500,36
6.53333,35
6.54167,34
6.55000,34
6.55833,33
6.56667,33
6.57500,32
6.58333,32
6.59167,32
6.60000,32
6.60833,31
6.61667,31
6.62500,31
6.63333,31
6.64167,30
6.65000,30
6.65833,30
6.66667,29
6.67500,29
6.68333,29
6.69167,29
6.70000,29
6.70833,29
6.71667,29
6.72500,30
6.73333,30
6.74167,30
6.75000,30
6.75833,30
6.76667,31
6.77500,31
6.78333,31
6.79167,30
6.80000,31
6.80833,31
6.81667,31
6.82500,32
6.83333,32
6.84167,32
6.85000,32
6.85833,32
6.86667,32
6.87500,32
6.88333,32
6.89167,33
6.90000,32
6.90833,32
6.91667,32
6.92500,32
6.93333,32
6.94167,32
6.95000,32
6.95833,32
6.96667,32
6.97500,32
6.98333,32
6.99167,32
7.00000,32
7.00833,32
7.01667,31
7.02500,31
7.03333,31
7.04167,30
7.05000,30
7.05833,29
7.06667,29
7.07500,28
7.08333,28
7.09167,27
7.10000,27
7.10833,26
7.11667,25
7.12500,24
7.13333,24
7.14167,23
7.15000,22
7.15833,22
7.16667,22
7.17500,21
7.18333,21
7.19167,20
7.20000,20
7.20833,19
7.21667,18
7.22500,18
7.23333,17
7.24167,16
7.25000,16
7.25833,15
7.26667,14
7.27500,13
7.28333,12
7.29167,11
7.30000,11
7.30833,10
7.31667,10
7.32500,9
7.33333,8
7.34167,7
7.35000,6
7.35833,6
7.36667,5
7.37500,4
7.38333,2
7.39167,1
7.40000,0
7.40833,-0
7.41667,-1
7.42500,-1
7.43333,-2
7.44167,-3
7.45000,-3
7.45833,-3
7.46667,-4
7.47500,-4
7.48333,-5
7.49167,-6
7.50000,-6
7.50833,-6
7.51667,-7
7.52500,-7
7.53333,-8
7.54167,-8
7.55000,-8
7.55833,-8
7.56667,-9
7.57500,-9
7.58333,-9
7.59167,-8
7.60000,-8
7.60833,-8
7.61667,-8
7.62500,-8
7.63333,-8
7.64167,-7
7.65000,-7
7.65833,-7
7.66667,-7
7.67500,-6
7.68333,-6
7.69167,-5
7.70000,-4
7.70833,-4
7.71667,-4
7.72500,-3
7.73333,-3
7.74167,-2
7.75000,-2
7.75833,-1
7.76667,0
7.77500,1
7.78333,2
7.79167,2
7.80000,3
7.80833,3
7.81667,4
7.82500,4
7.83333,4
7.84167,5
7.85000,5
7.85833,6
7.86667,6
7.87500,7
7.88333,8
7.89167,9
7.90000,10
7.90833,10
7.91667,11
7.92500,12
7.93333,12
7.94167,13
7.95000,13
7.95833,13
7.96667,14
7.97500,15
7.98333,15
7.99167,15
8.00000,16
8.00833,16
8.01667,17
8.02500,17
8.03333,18
8.04167,18
8.05000,18
8.05833,18
8.06667,18
8.07500,19
8.08333,19
8.09167,20
8.10000,20
8.10833,21
8.11667,22
8.12500,22
8.13333,22
8.14167,22
8.15000,22
8.15833,22
8.16667,22
8.17500,22
8.18333,23
8.19167,23
8.20000,23
8.20833,23
8.21667,23
8.22500,23
8.23333,22
8.24167,22
8.25000,22
8.25833,21
8.26667,21
8.27500,21
8.28333,21
8.29167,20
8.30000,20
8.30833,20
8.31667,19
8.32500,18
8.33333,17
8.34167,17
8.35000,16
8.35833,16
8.36667,15
8.37500,15
8.38333,14
8.39167,13
8.40000,12
8.40833,12
8.41667,11
8.42500,10
8.43333,9
8.44167,9
8.45000,9
8.45833,8
8.46667,7
8.47500,6
8.48333,6
8.49167,5
8.50000,4
8.50833,3
8.51667,3
8.52500,2
8.53333,2
8.54167,1
8.55000,0
8.55833,-0
8.56667,-1
8.57500,-2
8.58333,-2
8.59167,-3
8.60000,-4
8.60833,-4
8.61667,-5
8.62500,-5
8.63333,-6
8.64167,-6
8.65000,-7
8.65833,-7
8.66667,-8
8.67500,-8
8.68333,-9
8.69167,-9
8.70000,-9
8.70833,-10
8.71667,-10
8.72500,-9
8.73333,-9
8.74167,-9
8.75000,-9
8.75833,-9
8.76667,-9
8.77500,-9
8.78333,-9
8.79167,-8
8.80000,-8
8.80833,-8
8.81667,-8
8.82500,-8
8.83333,-8
8.84167,-8
8.85000,-7
8.85833,-6
8.86667,-6
8.87500,-5
8.88333,-4
8.89167,-4
8.90000,-3
8.90833,-3
8.91667,-3
8.92500,-2
8.93333,-1
8.94167,0
8.95000,1
8.95833,2
8.96667,2
8.97500,3
8.98333,4
8.99167,4
9.00000,5
9.00833,6
9.01667,6
9.02500,7
9.03333,8
9.04167,8
9.05000,9
9.05833,10
9.06667,11
9.07500,11
9.08333,12
9.09167,12
9.10000,13
9.10833,14
9.11667,14
9.12500,14
9.13333,14
9.14167,14
9.15000,14
9.15833,15
9.16667,15
9.17500,15
9.18333,15
9.19167,15
9.20000,15
9.20833,15
9.21667,15
9.22500,15
9.23333,14
9.24167,14
9.25000,13
9.25833,13
9.26667,13
9.27500,13
9.28333,13
9.29167,13
9.30000,13
9.30833,12
9.31667,12
9.32500,12
9.33333,12
9.34167,11
9.35000,10
9.35833,10
9.36667,9
9.37500,8
9.38333,8
9.39167,7
9.40000,7
9.40833,7
9.41667,6
9.42500,6
9.43333,5
9.44167,5
9.45000,5
9.45833,5
9.46667,4
9.47500,4
9.48333,3
9.49167,3
9.50000,3
9.50833,2
9.51667,2
9.52500,1
9.53333,1
9.54167,1
9.55000,1
9.55833,1
9.56667,1
9.57500,1
9.58333,1
9.59167,2
9.60000,2
9.60833,2
9.61667,2
9.62500,2
9.63333,2
9.64167,2
9.65000,2
9.65833,3
9.66667,3
9.67500,4
9.68333,4
9.69167,5
9.70000,5
9.70833,5
9.71667,5
9.72500,5
9.73333,6
9.74167,6
9.75000,7
9.75833,7
9.76667,7
9.77500,7
9.78333,8
9.79167,8
9.80000,8
9.80833,8
9.81667,8
9.82500,9
9.83333,9
9.84167,10
9.85000,10
9.85833,10
9.86667,11
9.87500,11
9.88333,12
9.89167,12
9.90000,12
9.90833,13
9.91667,13
9.92500,13
9.93333,14
9.94167,14
9.95000,14
9.95833,14
9.96667,15
9.97500,15
9.98333,15
9.99167,15
10.00000,16
10.00833,16
10.01667,16
10.02500,16
10.03333,16
10.04167,16
10.05000,16
10.05833,16
10.06667,16
10.07500,16
10.08333,15
10.09167,15
10.10000,14
10.10833,14
10.11667,13
10.12500,13
10.13333,12
10.14167,12
10.15000,11
10.15833,10
10.16667,10
10.17500,9
10.18333,9
10.19167,8
10.20000,8
10.20833,7
10.21667,6
10.22500,6
10.23333,5
10.24167,4
10.25000,3
10.25833,2
10.26667,1
10.27500,-0
10.28333,-1
10.29167,-1
10.30000,-2
10.30833,-3
10.31667,-4
10.32500,-4
10.33333,-5
10.34167,-5
10.35000,-6
10.35833,-6
10.36667,-7
10.37500,-8
10.38333,-10
10.39167,-11
10.40000,-12
10.40833,-14
10.41667,-15
10.42500,-17
10.43333,-21
10.44167,-25
10.45000,-31
10.45833,-37
10.46667,-46
10.47500,-57
10.48333,-70
10.49167,-86
10.50000,-105
10.50833,-128
10.51667,-154
10.52500,-184
10.53333,-217
10.54167,-254
10.55000,-293
10.55833,-333
10.56667,-373
10.57500,-411
10.58333,-445
10.59167,-473
10.60000,-492
10.60833,-499
10.61667,-492
10.62500,-468
10.63333,-423
10.64167,-355
10.65000,-262
10.65833,-142
10.66667,8
10.67500,187
10.68333,396
10.69167,636
10.70000,904
10.70833,1199
10.71667,1518
10.72500,1860
10.73333,2219
10.74167,2591
10.75000,2972
10.75833,3357
10.76667,3739
10.77500,4114
10.78333,4476
10.79167,4818
10.80000,5136
10.80833,5424
10.81667,5679
10.82500,5895
10.83333,6071
10.84167,6204
10.85000,6292
10.85833,6336
10.86667,6335
10.87500,6290
10.88333,6204
10.89167,6080
10.90000,5920
10.90833,5728
10.91667,5510
10.92500,5268
10.93333,5008
10.94167,4735
10.95000,4452
10.95833,4164
10.96667,3874
10.97500,3587
10.98333,3305
10.99167,3031
11.00000,2767
11.00833,2515
11.01667,2276
11.02500,2052
11.03333,1843
11.04167,1649
11.05000,1470
11.05833,1307
11.06667,1158
11.07500,1023
11.08333,901
11.09167,792
11.10000,694
11.10833,607
11.11667,531
11.12500,463
11.13333,404
11.14167,352
11.15000,307
11.15833,268
11.16667,234
11.17500,204
11.18333,179
11.19167,157
11.20000,139
11.20833,123
11.21667,109
11.22500,97
11.23333,87
11.24167,77
11.25000,70
11.25833,63
11.26667,57
11.27500,52
11.28333,48
11.29167,44
11.30000,40
11.30833,37
11.31667,34
11.32500,32
11.33333,29
11.34167,26
11.35000,24
11.35833,22
11.36667,20
11.37500,18
11.38333,16
11.39167,14
11.40000,12
11.40833,10
11.41667,8
11.42500,6
11.43333,5
11.44167,3
11.45000,2
11.45833,0
11.46667,-1
11.47500,-3
11.48333,-3
11.49167,-4
11.50000,-5
11.50833,-7
11.51667,-8
11.52500,-10
11.53333,-11
11.54167,-12
11.55000,-13
11.55833,-14
11.56667,-16
11.57500,-17
11.58333,-18
11.59167,-19
11.60000,-20
11.60833,-21
11.61667,-22
11.62500,-23
11.63333,-24
11.64167,-25
11.65000,-25
11.65833,-26
11.66667,-26
11.67500,-26
11.68333,-26
11.69167,-26
11.70000,-27
11.70833,-27
11.71667,-27
11.72500,-28
11.73333,-28
11.74167,-28
11.75000,-28
11.75833,-28
11.76667,-28
11.77500,-27
11.78333,-27
11.79167,-27
11.80000,-27
11.80833,-27
11.81667,-26
11.82500,-25
11.83333,-24
11.84167,-24
11.85000,-23
11.85833,-23
11.86667,-22
11.87500,-21
11.88333,-20
11.89167,-20
11.90000,-19
11.90833,-17
11.91667,-16
11.92500,-15
11.93333,-14
11.94167,-13
11.95000,-12
11.95833,-11
11.96667,-10
11.97500,-10
11.98333,-9
11.99167,-7
12.00000,-7
12.00833,-6
12.01667,-5
12.02500,-4
12.03333,-3
12.04167,-3
12.05000,-2
12.05833,-1
12.06667,-0
12.07500,0
12.08333,1
12.09167,1
12.10000,2
12.10833,3
12.11667,3
12.12500,4
12.13333,4
12.14167,4
12.15000,5
12.15833,5
12.16667,5
12.17500,5
12.18333,5
12.19167,5
12.20000,5
12.20833,6
12.21667,6
12.22500,6
12.23333,5
12.24167,6
12.25000,6
12.25833,5
12.26667,5
12.27500,5
12.28333,5
12.29167,4
12.30000,4
12.30833,4
12.31667,4
12.32500,4
12.33333,4
12.34167,4
12.35000,4
12.35833,5
12.36667,5
12.37500,5
12.38333,5
12.39167,5
12.40000,5
12.40833,5
12.41667,5
12.42500,5
12.43333,4
12.44167,5
12.45000,5
12.45833,6
12.46667,7
12.47500,7
12.48333,8
12.49167,8
12.50000,9
12.50833,10
12.51667,10
12.52500,11
12.53333,12
12.54167,13
12.55000,14
12.55833,16
12.56667,18
12.57500,20
12.58333,22
12.59167,26
12.60000,29
12.60833,34
12.61667,39
12.62500,44
12.63333,51
12.64167,60
12.65000,70
12.65833,81
12.66667,95
12.67500,112
12.68333,131
12.69167,154
12.70000,181
12.70833,211
12.71667,246
12.72500,285
12.73333,329
12.74167,379
12.75000,435
12.75833,497
12.76667,565
12.77500,640
12.78333,722
12.79167,811
12.80000,907
12.80833,1010
12.81667,1120
12.82500,1237
12.83333,1361
12.84167,1493
12.85000,1631
12.85833,1776
12.86667,1927
12.87500,2084
12.88333,2248
12.89167,2418
12.90000,2593
12.90833,2774
12.91667,2960
12.92500,3151
12.93333,3347
12.94167,3548
12.95000,3753
12.95833,3962
12.96667,4176
12.97500,4393
12.98333,4615
12.99167,4839
13.00000,5068
13.00833,5300
13.01667,5535
13.02500,5773
13.03333,6014
13.04167,6258
13.05000,6504
13.05833,6754
13.06667,7006
13.07500,7261
13.08333,7518
13.09167,7778
13.10000,8040
13.10833,8304
13.11667,8570
13.12500,8839
13.13333,9109
13.14167,9382
13.15000,9656
13.15833,9933
13.16667,10212
13.17500,10493
13.18333,10775
13.19167,11059
13.20000,11345
13.20833,11633
13.21667,11922
13.22500,12212
13.23333,12503
13.24167,12795
13.25000,13087
13.25833,13379
13.26667,13671
13.27500,13960
13.28333,14245
13.29167,14524
13.30000,14793
13.30833,15045
13.31667,15275
13.32500,15473
13.33333,15629
13.34167,15730
13.35000,15765
13.35833,15720
13.36667,15585
13.37500,15350
13.38333,15013
13.39167,14571
13.40000,14029
13.40833,13396
13.41667,12684
13.42500,11911
13.43333,11095
13.44167,10253
13.45000,9404
13.45833,8566
13.46667,7752
13.47500,6974
13.48333,6242
13.49167,5561
13.50000,4935
13.50833,4366
13.51667,3852
13.52500,3391
13.53333,2982
13.54167,2621
13.55000,2302
13.55833,2023
13.56667,1780
13.57500,1568
13.58333,1384
13.59167,1224
13.60000,1086
13.60833,966
13.61667,862
13.62500,772
13.63333,695
13.64167,627
13.65000,569
13.65833,518
13.66667,474
13.67500,435
13.68333,402
13.69167,372
13.70000,346
13.70833,323
13.71667,303
13.72500,285
13.73333,269
13.74167,255
13.75000,243
13.75833,231
13.76667,221
13.77500,212
13.78333,203
13.79167,195
13.80000,188
13.80833,182
13.81667,176
13.82500,171
13.83333,166
13.84167,161
13.85000,157
13.85833,153
13.86667,149
13.87500,146
13.88333,142
13.89167,140
13.90000,137
13.90833,134
13.91667,131
13.92500,129
13.93333,127
13.94167,125
13.95000,123
13.95833,121
13.96667,119
13.97500,117
13.98333,115
13.99167,114
14.00000,112
14.00833,111
14.01667,109
14.02500,107
14.03333,106
14.04167,105
14.05000,103
14.05833,102
14.06667,100
14.07500,99
14.08333,97
14.09167,96
14.10000,95
14.10833,94
14.11667,92
14.12500,91
14.13333,90
14.14167,89
14.15000,87
14.15833,86
14.16667,84
14.17500,83
14.18333,81
14.19167,80
14.20000,78
14.20833,77
14.21667,75
14.22500,73
14.23333,71
14.24167,70
14.25000,68
14.25833,66
14.26667,65
14.27500,63
14.28333,62
14.29167,60
14.30000,59
14.30833,58
14.31667,56
14.32500,55
14.33333,53
14.34167,52
14.35000,51
14.35833,49
14.36667,48
14.37500,47
14.38333,46
14.39167,45
14.40000,43
14.40833,42
14.41667,42
14.42500,41
14.43333,40
14.44167,39
14.45000,38
14.45833,37
14.46667,36
14.47500,36
14.48333,35
14.49167,34
14.50000,34
14.50833,33
14.51667,33
14.52500,32
14.53333,31
14.54167,31
14.55000,30
14.55833,30
14.56667,30
14.57500,30
14.58333,30
14.59167,29
14.60000,29
14.60833,29
14.61667,28
14.62500,28
14.63333,28
14.64167,28
14.65000,27
14.65833,27
14.66667,27
14.67500,28
14.68333,28
14.69167,28
14.70000,29
14.70833,29
14.71667,30
14.72500,30
14.73333,30
14.74167,30
14.75000,30
14.75833,30
14.76667,30
14.77500,30
14.78333,30
14.79167,30
14.80000,30
14.80833,30
14.81667,31
14.82500,31
14.83333,31
14.84167,32
14.85000,32
14.85833,32
14.86667,32
14.87500,32
14.88333,33
14.89167,34
14.90000,34
14.90833,35
14.91667,35
14.92500,35
14.93333,35
14.94167,36
14.95000,36
14.95833,37
14.96667,38
14.97500,39
14.98333,40
14.99167,41
15.00000,42
15.00833,43
15.01667,44
15.02500,45
15.03333,47
15.04167,48
15.05000,50
15.05833,52
15.06667,54
15.07500,57
15.08333,61
15.09167,64
15.10000,69
15.10833,73
15.11667,79
15.12500,86
15.13333,94
15.14167,103
15.15000,114
15.15833,127
15.16667,142
15.17500,159
15.18333,179
15.19167,202
15.20000,228
15.20833,258
15.21667,292
15.22500,330
15.23333,374
15.24167,422
15.25000,476
15.25833,536
15.26667,603
15.27500,676
15.28333,757
15.29167,844
15.30000,939
15.30833,1040
15.31667,1149
15.32500,1265
15.33333,1388
15.34167,1517
15.35000,1652
15.35833,1792
15.36667,1937
15.37500,2086
15.38333,2238
15.39167,2392
15.40000,2546
15.40833,2700
15.41667,2852
15.42500,3003
15.43333,3149
15.44167,3291
15.45000,3426
15.45833,3554
15.46667,3673
15.47500,3783
15.48333,3883
15.49167,3971
15.50000,4048
15.50833,4112
15.51667,4163
15.52500,4202
15.53333,4227
15.54167,4239
15.55000,4237
15.55833,4222
15.56667,4195
15.57500,4156
15.58333,4105
15.59167,4042
15.60000,3970
15.60833,3888
15.61667,3797
15.62500,3699
15.63333,3594
15.64167,3483
15.65000,3367
15.65833,3246
15.66667,3123
15.67500,2997
15.68333,2870
15.69167,2742
15.70000,2614
15.70833,2487
15.71667,2361
15.72500,2237
15.73333,2115
15.74167,1996
15.75000,1881
15.75833,1769
15.76667,1662
15.77500,1558
15.78333,1458
15.79167,1363
15.80000,1272
15.80833,1186
15.81667,1104
15.82500,1026
15.83333,953
15.84167,884
15.85000,819
15.85833,759
15.86667,703
15.87500,651
15.88333,602
15.89167,556
15.90000,514
15.90833,475
15.91667,440
15.92500,406
15.93333,375
15.94167,347
15.95000,321
15.95833,297
15.96667,275
15.97500,255
15.98333,236
15.99167,220
16.00000,204
16.00833,190
16.01667,177
16.02500,166
16.03333,155
16.04167,146
16.05000,137
16.05833,129
16.06667,122
16.07500,115
16.08333,108
16.09167,102
16.10000,97
16.10833,92
16.11667,88
16.12500,83
16.13333,79
16.14167,76
16.15000,73
16.15833,70
16.16667,67
16.17500,64
16.18333,61
16.19167,59
16.20000,56
16.20833,54
16.21667,52
16.22500,51
16.23333,49
16.24167,48
16.25000,46
16.25833,44
16.26667,43
16.27500,42
16.28333,40
16.29167,39
16.30000,38
16.30833,37
16.31667,35
16.32500,34
16.33333,33
16.34167,32
16.35000,31
16.35833,30
16.36667,30
16.37500,29
16.38333,28
16.39167,28
16.40000,28
16.40833,27
16.41667,27
16.42500,26
16.43333,25
16.44167,25
16.45000,24
16.45833,24
16.46667,23
16.47500,23
16.48333,23
16.49167,23
16.50000,23
16.50833,23
16.51667,23
16.52500,23
16.53333,23
16.54167,24
16.55000,24
16.55833,24
16.56667,25
16.57500,26
16.58333,26
16.59167,27
16.60000,27
16.60833,28
16.61667,28
16.62500,29
16.63333,29
16.64167,30
16.65000,31
16.65833,32
16.66667,33
16.67500,33
16.68333,34
16.69167,35
16.70000,36
16.70833,36
16.71667,36
16.72500,36
16.73333,37
16.74167,37
16.75000,38
16.75833,38
16.76667,38
16.77500,38
16.78333,38
16.79167,38
16.80000,39
16.80833,39
16.81667,38
16.82500,38
16.83333,38
16.84167,38
16.85000,37
16.85833,37
16.86667,36
16.87500,36
16.88333,36
16.89167,36
16.90000,35
16.90833,35
16.91667,34
16.92500,34
16.93333,33
16.94167,33
16.95000,32
16.95833,31
16.96667,30
16.97500,29
16.98333,28
16.99167,27
17.00000,26
17.00833,25
17.01667,24
17.02500,23
17.03333,22
17.04167,22
17.05000,21
17.05833,21
17.06667,20
17.07500,19
17.08333,19
17.09167,18
17.10000,18
17.10833,17
17.11667,17
17.12500,16
17.13333,15
17.14167,14
17.15000,13
17.15833,13
17.16667,12
17.17500,11
17.18333,10
17.19167,10
17.20000,9
17.20833,9
17.21667,8
17.22500,7
17.23333,6
17.24167,5
17.25000,5
17.25833,4
17.26667,4
17.27500,4
17.28333,4
17.29167,4
17.30000,3
17.30833,3
17.31667,3
17.32500,2
17.33333,2
17.34167,2
17.35000,2
17.35833,1
17.36667,1
17.37500,0
17.38333,-0
17.39167,-1
17.40000,-1
17.40833,-1
17.41667,-1
17.42500,-1
17.43333,-2
17.44167,-2
17.45000,-2
17.45833,-2
17.46667,-2
17.47500,-2
17.48333,-2
17.49167,-2
17.50000,-2
17.50833,-2
17.51667,-1
17.52500,-1
17.53333,-1
17.54167,-0
17.55000,0
17.55833,0
17.56667,0
17.57500,1
17.58333,1
17.59167,1
17.60000,2
17.60833,3
17.61667,4
17.62500,4
17.63333,5
17.64167,5
17.65000,5
17.65833,6
17.66667,6
17.67500,7
17.68333,7
17.69167,8
17.70000,8
17.70833,8
17.71667,9
17.72500,9
17.73333,10
17.74167,10
17.75000,10
17.75833,11
17.76667,11
17.77500,11
17.78333,12
17.79167,12
17.80000,13
17.80833,13
17.81667,14
17.82500,14
17.83333,14
17.84167,14
17.85000,14
17.85833,15
17.86667,15
17.87500,15
17.88333,15
17.89167,15
17.90000,16
17.90833,16
17.91667,16
17.92500,16
17.93333,16
17.94167,16
17.95000,16
17.95833,16
17.96667,16
17.97500,15
17.98333,15
17.99167,15
18.00000,16
18.00833,16
18.01667,16
18.02500,16
18.03333,16
18.04167,16
18.05000,16
18.05833,16
18.06667,16
18.07500,16
18.08333,16
18.09167,16
18.10000,16
18.10833,16
18.11667,16
18.12500,16
18.13333,16
18.14167,16
18.15000,15
18.15833,15
18.16667,15
18.17500,15
18.18333,14
18.19167,14
18.20000,13
18.20833,13
18.21667,12
18.22500,11
18.23333,11
18.24167,11
18.25000,11
18.25833,10
18.26667,10
18.27500,10
18.28333,9
18.29167,9
18.30000,8
18.30833,8
18.31667,7
18.32500,7
18.33333,6
18.34167,5
18.35000,4
18.35833,4
18.36667,4
18.37500,3
18.38333,4
18.39167,4
18.40000,3
18.40833,3
18.41667,2
18.42500,1
18.43333,1
18.44167,1
18.45000,1
18.45833,0
18.46667,-0
18.47500,-1
18.48333,-1
18.49167,-1
18.50000,-1
18.50833,-2
18.51667,-2
18.52500,-3
18.53333,-3
18.54167,-3
18.55000,-3
18.55833,-3
18.56667,-3
18.57500,-3
18.58333,-2
18.59167,-2
18.60000,-1
18.60833,-1
18.61667,-0
18.62500,-0
18.63333,0
18.64167,1
18.65000,1
18.65833,1
18.66667,1
18.67500,1
18.68333,2
18.69167,2
18.70000,2
18.70833,3
18.71667,3
18.72500,4
18.73333,4
18.74167,4
18.75000,5
18.75833,5
18.76667,6
18.77500,6
18.78333,7
18.79167,7
18.80000,8
18.80833,9
18.81667,9
18.82500,9
18.83333,10
18.84167,10
18.85000,10
18.85833,11
18.86667,11
18.87500,11
18.88333,11
18.89167,10
18.90000,10
18.90833,10
18.91667,10
18.92500,9
18.93333,9
18.94167,10
18.95000,10
18.95833,10
18.96667,11
18.97500,11
18.98333,11
18.99167,10
19.00000,10
19.00833,10
19.01667,10
19.02500,10
19.03333,10
19.04167,10
19.05000,10
19.05833,11
19.06667,11
19.07500,10
19.08333,10
19.09167,11
19.10000,11
19.10833,11
19.11667,11
19.12500,12
19.13333,12
19.14167,13
19.15000,13
19.15833,14
19.16667,14
19.17500,14
19.18333,15
19.19167,15
19.20000,15
19.20833,15
19.21667,16
19.22500,17
19.23333,17
19.24167,18
19.25000,18
19.25833,19
19.26667,20
19.27500,20
19.28333,21
19.29167,21
19.30000,22
19.30833,22
19.31667,22
19.32500,23
19.33333,23
19.34167,24
19.35000,24
19.35833,24
19.36667,24
19.37500,24
19.38333,24
19.39167,25
19.40000,25
19.40833,25
19.41667,25
19.42500,25
19.43333,24
19.44167,24
19.45000,24
19.45833,24
19.46667,23
19.47500,23
19.48333,23
19.49167,23
19.50000,23
19.50833,22
19.51667,22
19.52500,22
19.53333,22
19.54167,21
19.55000,21
19.55833,21
19.56667,20
19.57500,20
19.58333,20
19.59167,20
19.60000,19
19.60833,18
19.61667,18
19.62500,17
19.63333,16
19.64167,15
19.65000,15
19.65833,14
19.66667,13
19.67500,11
19.68333,11
19.69167,10
19.70000,10
19.70833,9
19.71667,9
19.72500,8
19.73333,7
19.74167,7
19.75000,6
19.75833,6
19.76667,6
19.77500,5
19.78333,5
19.79167,5
19.80000,4
19.80833,4
19.81667,4
19.82500,3
19.83333,3
19.84167,3
19.85000,3
19.85833,3
19.86667,3
19.87500,2
19.88333,2
19.89167,1
19.90000,1
19.90833,1
19.91667,0
19.92500,-0
19.93333,-1
19.94167,-1
19.95000,-1
19.95833,-1
19.96667,-1
19.97500,-1
19.98333,-1
19.99167,-1
20.00000,-1
20.00833,-1
20.01667,-1
20.02500,-0
20.03333,-1
20.04167,-1
20.05000,-1
20.05833,-1
20.06667,-1
20.07500,-1
20.08333,-0
20.09167,-0
20.10000,0
20.10833,0
20.11667,-0
20.12500,-0
20.13333,-0
20.14167,-0
20.15000,-0
20.15833,-0
20.16667,-0
20.17500,0
20.18333,0
20.19167,1
20.20000,1
20.20833,1
20.21667,1
20.22500,1
20.23333,1
20.24167,1
20.25000,2
20.25833,2
20.26667,2
20.27500,2
20.28333,2
20.29167,2
20.30000,2
20.30833,3
20.31667,3
20.32500,3
20.33333,3
20.34167,3
20.35000,3
20.35833,3
20.36667,4
20.37500,5
20.38333,5
20.39167,6
20.40000,7
20.40833,7
20.41667,8
20.42500,9
20.43333,9
20.44167,10
20.45000,10
20.45833,11
20.46667,11
20.47500,12
20.48333,12
20.49167,13
20.50000,13
20.50833,13
20.51667,13
20.52500,14
20.53333,14
20.54167,15
20.55000,16
20.55833,16
20.56667,17
20.57500,17
20.58333,17
20.59167,17
20.60000,17
20.60833,17
20.61667,18
20.62500,18
20.63333,19
20.64167,19
20.65000,19
20.65833,20
20.66667,20
20.67500,20
20.68333,20
20.69167,20
20.70000,20
20.70833,20
20.71667,20
20.72500,20
20.73333,19
20.74167,19
20.75000,19
20.75833,19
20.76667,19
20.77500,19
20.78333,19
20.79167,19
20.80000,18
20.80833,18
20.81667,18
20.82500,18
20.83333,17
20.84167,17
20.85000,17
20.85833,17
20.86667,17
20.87500,16
20.88333,16
20.89167,16
20.90000,17
20.90833,17
20.91667,17
20.92500,17
20.93333,17
20.94167,17
20.95000,17
20.95833,17
20.96667,17
20.97500,17
20.98333,16
20.99167,16
21.00000,16
21.00833,16
21.01667,16
21.02500,15
21.03333,15
21.04167,15
21.05000,15
21.05833,14
21.06667,14
21.07500,14
21.08333,14
21.09167,13
21.10000,13
21.10833,12
21.11667,11
21.12500,11
21.13333,10
21.14167,10
21.15000,10
21.15833,9
21.16667,9
21.17500,8
21.18333,8
21.19167,8
21.20000,7
21.20833,7
21.21667,7
21.22500,7
21.23333,7
21.24167,7
21.25000,7
21.25833,7
21.26667,7
21.27500,6
21.28333,6
21.29167,6
21.30000,6
21.30833,6
21.31667,6
21.32500,6
21.33333,6
21.34167,7
21.35000,7
21.35833,7
21.36667,7
21.37500,7
21.38333,8
21.39167,7
21.40000,7
21.40833,7
21.41667,8
21.42500,8
21.43333,9
21.44167,9
21.45000,10
21.45833,11
21.46667,11
21.47500,11
21.48333,12
21.49167,12
21.50000,12
21.50833,12
21.51667,12
21.52500,12
21.53333,12
21.54167,12
21.55000,12
21.55833,13
21.56667,13
21.57500,13
21.58333,14
21.59167,14
21.60000,14
21.60833,14
21.61667,15
21.62500,15
21.63333,15
21.64167,16
21.65000,16
21.65833,16
21.66667,17
21.67500,17
21.68333,17
21.69167,17
21.70000,17
21.70833,18
21.71667,18
21.72500,18
21.73333,18
21.74167,18
21.75000,18
21.75833,18
21.76667,18
21.77500,18
21.78333,18
21.79167,18
21.80000,18
21.80833,18
21.81667,17
21.82500,17
21.83333,17
21.84167,17
21.85000,17
21.85833,17
21.86667,17
21.87500,17
21.88333,17
21.89167,16
21.90000,16
21.90833,16
21.91667,16
21.92500,16
21.93333,16
21.94167,15
21.95000,15
21.95833,15
21.96667,15
21.97500,15
21.98333,16
21.99167,16
22.00000,16
22.00833,16
22.01667,16
22.02500,16
22.03333,16
22.04167,16
22.05000,16
22.05833,15
22.06667,15
22.07500,15
22.08333,15
22.09167,14
22.10000,14
22.10833,14
22.11667,14
22.12500,13
22.13333,12
22.14167,12
22.15000,12
22.15833,12
22.16667,11
22.17500,10
22.18333,10
22.19167,9
22.20000,9
22.20833,9
22.21667,9
22.22500,8
22.23333,7
22.24167,7
22.25000,7
22.25833,6
22.26667,6
22.27500,6
22.28333,5
22.29167,4
22.30000,3
22.30833,2
22.31667,2
22.32500,1
22.33333,1
22.34167,1
22.35000,0
22.35833,-0
22.36667,-0
22.37500,-1
22.38333,-1
22.39167,-1
22.40000,-1
22.40833,-2
22.41667,-2
22.42500,-2
22.43333,-2
22.44167,-3
22.45000,-3
22.45833,-3
22.46667,-2
22.47500,-2
22.48333,-2
22.49167,-2
22.50000,-2
22.50833,-2
22.51667,-2
22.52500,-2
22.53333,-1
22.54167,-1
22.55000,-1
22.55833,-1
22.56667,-0
22.57500,-0
22.58333,0
22.59167,1
22.60000,1
22.60833,1
22.61667,2
22.62500,2
22.63333,3
22.64167,3
22.65000,4
22.65833,4
22.66667,4
22.67500,4
22.68333,5
22.69167,5
22.70000,5
22.70833,6
22.71667,6
22.72500,6
22.73333,6
22.74167,6
22.75000,6
22.75833,6
22.76667,6
22.77500,6
22.78333,6
22.79167,6
22.80000,6
22.80833,6
22.81667,6
22.82500,6
22.83333,6
22.84167,6
22.85000,6
22.85833,6
22.86667,6
22.87500,6
22.88333,5
22.89167,5
22.90000,4
22.90833,4
22.91667,4
22.92500,3
22.93333,3
22.94167,2
22.95000,2
22.95833,2
22.96667,2
22.97500,1
22.98333,1
22.99167,1
23.00000,0
23.00833,-0
23.01667,-0
23.02500,-1
23.03333,-1
23.04167,-1
23.05000,-1
23.05833,-1
23.06667,-1
23.07500,-1
23.08333,-2
23.09167,-2
23.10000,-2
23.10833,-2
23.11667,-1
23.12500,-1
23.13333,-1
23.14167,-2
23.15000,-1
23.15833,-2
23.16667,-2
23.17500,-1
23.18333,-1
23.19167,-1
23.20000,-2
23.20833,-2
23.21667,-1
23.22500,-1
23.23333,-1
23.24167,-1
23.25000,-0
23.25833,0
23.26667,0
23.27500,0
23.28333,0
23.29167,1
23.30000,1
23.30833,1
23.31667,2
23.32500,2
23.33333,2
23.34167,2
23.35000,2
23.35833,2
23.36667,2
23.37500,2
23.38333,2
23.39167,2
23.40000,2
23.40833,2
23.41667,2
23.42500,2
23.43333,2
23.44167,2
23.45000,2
23.45833,2
23.46667,2
23.47500,2
23.48333,2
23.49167,2
23.50000,2
23.50833,2
23.51667,1
23.52500,1
23.53333,1
23.54167,1
23.55000,0
23.55833,1
23.56667,1
23.57500,0
23.58333,0
23.59167,-0
23.60000,-0
23.60833,-0
23.61667,-0
23.62500,-0
23.63333,-0
23.64167,-0
23.65000,-0
23.65833,-0
23.66667,-0
23.67500,0
23.68333,-0
23.69167,-0
23.70000,-0
23.70833,0
23.71667,0
23.72500,0
23.73333,1
23.74167,1
23.75000,1
23.75833,1
23.76667,1
23.77500,2
23.78333,2
23.79167,2
23.80000,2
23.80833,2
23.81667,2
23.82500,2
23.83333,2
23.84167,2
23.85000,2
23.85833,2
23.86667,2
23.87500,3
23.88333,3
23.89167,3
23.90000,3
23.90833,4
23.91667,4
23.92500,4
23.93333,4
23.94167,5
23.95000,5
23.95833,6
23.96667,6
23.97500,7
23.98333,7
23.99167,7
24.00000,8
24.00833,8
24.01667,9
24.02500,9
24.03333,10
24.04167,10
24.05000,10
24.05833,11
24.06667,11
24.07500,11
24.08333,12
24.09167,12
24.10000,13
24.10833,13
24.11667,13
24.12500,14
24.13333,14
24.14167,15
24.15000,15
24.15833,16
24.16667,17
24.17500,17
24.18333,17
24.19167,18
24.20000,18
24.20833,18
24.21667,18
24.22500,18
24.23333,18
24.24167,18
24.25000,19
24.25833,19
24.26667,19
24.27500,19
24.28333,18
24.29167,18
24.30000,18
24.30833,18
24.31667,18
24.32500,17
24.33333,17
24.34167,17
24.35000,16
24.35833,16
24.36667,16
24.37500,15
24.38333,15
24.39167,14
24.40000,14
24.40833,13
24.41667,12
24.42500,11
24.43333,10
24.44167,10
24.45000,9
24.45833,9
24.46667,8
24.47500,7
24.48333,7
24.49167,6
24.50000,5
24.50833,4
24.51667,3
24.52500,2
24.53333,1
24.54167,1
24.55000,0
24.55833,0
24.56667,-0
24.57500,-1
24.58333,-1
24.59167,-2
24.60000,-2
24.60833,-3
24.61667,-3
24.62500,-3
24.63333,-4
24.64167,-4
24.65000,-4
24.65833,-5
24.66667,-5
24.67500,-6
24.68333,-6
24.69167,-6
24.70000,-6
24.70833,-5
24.71667,-5
24.72500,-4
24.73333,-4
24.74167,-3
24.75000,-3
24.75833,-2
24.76667,-2
24.77500,-1
24.78333,-0
24.79167,0
24.80000,1
24.80833,1
24.81667,2
24.82500,2
24.83333,2
24.84167,3
24.85000,3
24.85833,3
24.86667,4
24.87500,3
24.88333,4
24.89167,4
24.90000,5
24.90833,5
24.91667,5
24.92500,6
24.93333,6
24.94167,6
24.95000,6
24.95833,7
24.96667,7
24.97500,7
24.98333,8
24.99167,8
25.00000,8
25.00833,9
25.01667,9
25.02500,9
25.03333,9
25.04167,10
25.05000,10
25.05833,10
25.06667,10
25.07500,10
25.08333,11
25.09167,10
25.10000,10
25.10833,10
25.11667,10
25.12500,10
25.13333,10
25.14167,11
25.15000,11
25.15833,11
25.16667,12
25.17500,11
25.18333,11
25.19167,10
25.20000,10
25.20833,10
25.21667,11
25.22500,11
25.23333,11
25.24167,10
25.25000,10
25.25833,10
25.26667,10
25.27500,10
25.28333,10
25.29167,9
25.30000,9
25.30833,9
25.31667,9
25.32500,9
25.33333,9
25.34167,8
25.35000,8
25.35833,8
25.36667,8
25.37500,8
25.38333,8
25.39167,8
25.40000,8
25.40833,8
25.41667,8
25.42500,7
25.43333,7
25.44167,7
25.45000,7
25.45833,7
25.46667,7
25.47500,7
25.48333,7
25.49167,7
25.50000,7
25.50833,7
25.51667,7
25.52500,8
25.53333,8
25.54167,8
25.55000,8
25.55833,8
25.56667,9
25.57500,9
25.58333,9
25.59167,9
25.60000,9
25.60833,8
25.61667,8
25.62500,8
25.63333,8
25.64167,8
25.65000,8
25.65833,8
25.66667,8
25.67500,8
25.68333,8
25.69167,8
25.70000,8
25.70833,8
25.71667,8
25.72500,8
25.73333,8
25.74167,8
25.75000,8
25.75833,9
25.76667,9
25.77500,9
25.78333,10
25.79167,10
25.80000,10
25.80833,10
25.81667,10
25.82500,10
25.83333,10
25.84167,10
25.85000,10
25.85833,10
25.86667,11
25.87500,11
25.88333,12
25.89167,12
25.90000,12
25.90833,12
25.91667,12
25.92500,12
25.93333,12
25.94167,12
25.95000,12
25.95833,12
25.96667,12
25.97500,13
25.98333,13
25.99167,13
26.00000,13
26.00833,13
26.01667,13
26.02500,13
26.03333,13
26.04167,13
26.05000,14
26.05833,14
26.06667,14
26.07500,14
26.08333,14
26.09167,15
26.10000,15
26.10833,16
26.11667,16
26.12500,16
26.13333,16
26.14167,16
26.15000,16
26.15833,16
26.16667,16
26.17500,16
26.18333,16
26.19167,17
26.20000,17
26.20833,17
26.21667,18
26.22500,18
26.23333,19
26.24167,19
26.25000,19
26.25833,20
26.26667,21
26.27500,21
26.28333,22
26.29167,22
26.30000,23
26.30833,23
26.31667,23
26.32500,23
26.33333,23
26.34167,24
26.35000,24
26.35833,24
26.36667,25
26.37500,25
26.38333,25
26.39167,25
26.40000,25
26.40833,25
26.41667,25
26.42500,25
26.43333,25
26.44167,25
26.45000,25
26.45833,24
26.46667,24
26.47500,24
26.48333,23
26.49167,23
26.50000,23
26.50833,23
26.51667,22
26.52500,22
26.53333,21
26.54167,21
26.55000,20
26.55833,20
26.56667,19
26.57500,18
26.58333,17
26.59167,16
26.60000,15
26.60833,15
26.61667,14
26.62500,14
26.63333,13
26.64167,13
26.65000,12
26.65833,11
26.66667,10
26.67500,10
26.68333,9
26.69167,8
26.70000,7
26.70833,6
26.71667,5
26.72500,4
26.73333,3
26.74167,2
26.75000,2
26.75833,1
26.76667,1
26.77500,-0
26.78333,-1
26.79167,-2
26.80000,-3
26.80833,-3
26.81667,-4
26.82500,-5
26.83333,-5
26.84167,-6
26.85000,-6
26.85833,-7
26.86667,-7
26.87500,-8
26.88333,-8
26.89167,-8
26.90000,-8
26.90833,-9
26.91667,-9
26.92500,-10
26.93333,-10
26.94167,-10
26.95000,-10
26.95833,-10
26.96667,-10
26.97500,-10
26.98333,-10
26.99167,-10
27.00000,-10
27.00833,-10
27.01667,-10
27.02500,-10
27.03333,-10
27.04167,-9
27.05000,-9
27.05833,-9
27.06667,-8
27.07500,-7
27.08333,-6
27.09167,-6
27.10000,-5
27.10833,-5
27.11667,-5
27.12500,-5
27.13333,-4
27.14167,-4
27.15000,-3
27.15833,-3
27.16667,-3
27.17500,-2
27.18333,-1
27.19167,0
27.20000,1
27.20833,1
27.21667,2
27.22500,3
27.23333,3
27.24167,4
27.25000,5
27.25833,6
27.26667,6
27.27500,7
27.28333,7
27.29167,8
27.30000,9
27.30833,9
27.31667,10
27.32500,11
27.33333,12
27.34167,13
27.35000,13
27.35833,14
27.36667,13
27.37500,13
27.38333,14
27.39167,14
27.40000,14
27.40833,14
27.41667,14
27.42500,14
27.43333,14
27.44167,14
27.45000,15
27.45833,15
27.46667,15
27.47500,15
27.48333,15
27.49167,14
27.50000,14
27.50833,14
27.51667,14
27.52500,14
27.53333,13
27.54167,13
27.55000,12
27.55833,12
27.56667,12
27.57500,12
27.58333,12
27.59167,11
27.60000,11
27.60833,10
27.61667,10
27.62500,9
27.63333,9
27.64167,8
27.65000,8
27.65833,8
27.66667,7
27.67500,7
27.68333,7
27.69167,6
27.70000,6
27.70833,5
27.71667,5
27.72500,5
27.73333,5
27.74167,5
27.75000,4
27.75833,5
27.76667,5
27.77500,5
27.78333,4
27.79167,4
27.80000,3
27.80833,3
27.81667,2
27.82500,1
27.83333,0
27.84167,-1
27.85000,-2
27.85833,-3
27.86667,-4
27.87500,-5
27.88333,-7
27.89167,-8
27.90000,-10
27.90833,-12
27.91667,-14
27.92500,-15
27.93333,-17
27.94167,-20
27.95000,-22
27.95833,-25
27.96667,-28
27.97500,-31
27.98333,-35
27.99167,-38
28.00000,-42
28.00833,-46
28.01667,-51
28.02500,-56
28.03333,-62
28.04167,-67
28.05000,-73
28.05833,-80
28.06667,-86
28.07500,-94
28.08333,-102
28.09167,-110
28.10000,-118
28.10833,-127
28.11667,-136
28.12500,-145
28.13333,-154
28.14167,-164
28.15000,-175
28.15833,-185
28.16667,-197
28.17500,-208
28.18333,-220
28.19167,-232
28.20000,-245
28.20833,-258
28.21667,-271
28.22500,-284
28.23333,-298
28.24167,-312
28.25000,-326
28.25833,-340
28.26667,-355
28.27500,-369
28.28333,-384
28.29167,-398
28.30000,-413
28.30833,-428
28.31667,-442
28.32500,-457
28.33333,-471
28.34167,-485
28.35000,-499
28.35833,-513
28.36667,-526
28.37500,-540
28.38333,-552
28.39167,-565
28.40000,-577
28.40833,-589
28.41667,-600
28.42500,-611
28.43333,-621
28.44167,-631
28.45000,-640
28.45833,-649
28.46667,-657
28.47500,-665
28.48333,-671
28.49167,-677
28.50000,-683
28.50833,-687
28.51667,-691
28.52500,-695
28.53333,-697
28.54167,-699
28.55000,-701
28.55833,-701
28.56667,-702
28.57500,-702
28.58333,-701
28.59167,-699
28.60000,-696
28.60833,-693
28.61667,-690
28.62500,-686
28.63333,-682
28.64167,-677
28.65000,-672
28.65833,-666
28.66667,-659
28.67500,-652
28.68333,-645
28.69167,-637
28.70000,-629
28.70833,-621
28.71667,-612
28.72500,-604
28.73333,-595
28.74167,-586
28.75000,-577
28.75833,-568
28.76667,-559
28.77500,-551
28.78333,-542
28.79167,-533
28.80000,-523
28.80833,-514
28.81667,-505
28.82500,-496
28.83333,-488
28.84167,-479
28.85000,-471
28.85833,-463
28.86667,-454
28.87500,-446
28.88333,-438
28.89167,-431
28.90000,-424
28.90833,-417
28.91667,-410
28.92500,-403
28.93333,-397
28.94167,-390
28.95000,-384
28.95833,-378
28.96667,-373
28.97500,-368
28.98333,-363
28.99167,-358
29.00000,-354
29.00833,-350
29.01667,-346
29.02500,-342
29.03333,-339
29.04167,-335
29.05000,-332
29.05833,-329
29.06667,-326
29.07500,-324
29.08333,-321
29.09167,-318
29.10000,-315
29.10833,-313
29.11667,-311
29.12500,-309
29.13333,-306
29.14167,-304
29.15000,-303
29.15833,-301
29.16667,-299
29.17500,-298
29.18333,-296
29.19167,-295
29.20000,-294
29.20833,-293
29.21667,-291
29.22500,-290
29.23333,-290
29.24167,-289
29.25000,-288
29.25833,-287
29.26667,-286
29.27500,-285
29.28333,-285
29.29167,-284
29.30000,-283
29.30833,-282
29.31667,-281
29.32500,-280
29.33333,-280
29.34167,-279
29.35000,-278
29.35833,-278
29.36667,-277
29.37500,-276
29.38333,-275
29.39167,-274
29.40000,-274
29.40833,-273
29.41667,-272
29.42500,-271
29.43333,-270
29.44167,-270
29.45000,-269
29.45833,-268
29.46667,-268
29.47500,-267
29.48333,-266
29.49167,-265
29.50000,-265
29.50833,-264
29.51667,-263
29.52500,-262
29.53333,-261
29.54167,-260
29.55000,-259
29.55833,-258
29.56667,-257
29.57500,-256
29.58333,-256
29.59167,-255
29.60000,-254
29.60833,-253
29.61667,-253
29.62500,-252
29.63333,-251
29.64167,-251
29.65000,-250
29.65833,-250
29.66667,-249
29.67500,-249
29.68333,-248
29.69167,-248
29.70000,-248
29.70833,-248
29.71667,-248
29.72500,-249
29.73333,-249
29.74167,-249
29.75000,-249
29.75833,-250
29.76667,-250
29.77500,-250
29.78333,-251
29.79167,-252
29.80000,-254
29.80833,-255
29.81667,-256
29.82500,-258
29.83333,-259
29.84167,-261
29.85000,-262
29.85833,-265
29.86667,-267
29.87500,-270
29.88333,-272
29.89167,-275
29.90000,-278
29.90833,-281
29.91667,-284
29.92500,-287
29.93333,-290
29.94167,-294
29.95000,-297
29.95833,-301
29.96667,-305
29.97500,-310
29.98333,-314
29.99167,-318
30.00000,-323

