[Header]
Application Name,LabSolutions
Version,5.97 SP1
Data File Name,C:\Users\cremerlab\Desktop\griffin\2021-02-15_NCM_diauxie_turnover\2021-02-15_NCM_acetate_glucose_diauxie_turnover_2152021_007.lcd
Output Date,2/16/2021
Output Time,8:55:03 AM

[File Information]
Type,Data File
Generated,2/15/2021 11:27:18 PM
Generated by,System Administrator
Modified,2/15/2021 11:57:37 PM
Modified by,System Administrator

[Sample Information]
Operator Name,System Administrator
Acquired,2/15/2021 11:27:36 PM
Sample Type,0:Unknown
Level,0
Sample Name,NCM diauxic shift timepoint 7
Sample ID,007
ISTD Amount1,1
ISTD Amount2,1
ISTD Amount3,1
ISTD Amount4,1
ISTD Amount5,1
ISTD Amount6,1
ISTD Amount7,1
ISTD Amount8,1
ISTD Amount9,1
ISTD Amount10,1
ISTD Amount11,1
ISTD Amount12,1
ISTD Amount13,1
ISTD Amount14,1
ISTD Amount15,1
ISTD Amount16,1
ISTD Amount17,1
ISTD Amount18,1
ISTD Amount19,1
ISTD Amount20,1
ISTD Amount21,1
ISTD Amount22,1
ISTD Amount23,1
ISTD Amount24,1
ISTD Amount25,1
ISTD Amount26,1
ISTD Amount27,1
ISTD Amount28,1
ISTD Amount29,1
ISTD Amount30,1
ISTD Amount31,1
ISTD Amount32,1
Sample Amount,1
Dilution Factor,1
Vial#,7
Injection Volume,20

[Original Files]
Data File,C:\Users\cremerlab\Desktop\griffin\2021-02-15_NCM_diauxie_turnover\2021-02-15_NCM_acetate_glucose_diauxie_turnover_2152021_007.lcd
Method File,C:\LabSolutions\Data\Project1\organicacidsetc.lcm
Batch File,C:\Users\cremerlab\Desktop\griffin\2021-02-15_NCM_diauxie_turnover\2021-02-15_NCM_acetate_glucose_diauxie_turnover.lcb
Report Format File,c:\LabSolutions\System\DEFAULT.lsr

[File Description]


[Configuration]
Instrument Name,HPLC-PC-Instrument1
Instrument #,1
Line #,1
# of Detectors,2
Detector ID,Detector A,Detector B
Detector Name,Detector A,Detector B
# of Channels,1,1

[Peak Table(Detector A)]
# of Peaks,0

[Peak Table(Detector B)]
# of Peaks,4
Peak#,R.Time,I.Time,F.Time,Area,Height,A/H,Conc.,Mark,ID#,Name,k',Plate #,Plate Ht.,Tailing,Resolution,Sep.Factor,Area Ratio,Height Ratio,Conc. %,Norm Conc.
1,6.210,5.542,6.850,16956,491,34.542,0.000,   ,,,0.000,702,213.653,0.960,0.000,0.000,0,0,0.000,0.000
2,10.876,10.625,11.867,141089,8548,16.506,0.000,   ,,,0.751,10983,13.657,1.426,6.899,0.000,0,0,0.000,0.000
3,13.420,12.525,14.275,468735,18404,25.470,0.000,   ,,,1.161,5726,26.197,0.721,4.526,1.545,0,0,0.000,0.000
4,24.910,24.283,25.992,40717,1421,28.647,0.000,   ,,,3.011,17676,8.486,1.070,15.752,2.594,0,0,0.000,0.000

[Compound Results(Detector A)]
# of IDs,0

[Compound Results(Detector B)]
# of IDs,0

[LC Chromatogram(Detector B-Ch1)]
Interval(msec),500
# of Points,3601
Start Time(min),0.000
End Time(min),30.000
Intensity Units,mV
Intensity Multiplier,0.001
R.Time (min),Intensity
0.00000,-33
0.00833,-33
0.01667,-0
0.02500,0
0.03333,1
0.04167,1
0.05000,-1
0.05833,-2
0.06667,-3
0.07500,-3
0.08333,-2
0.09167,-0
0.10000,2
0.10833,5
0.11667,8
0.12500,12
0.13333,15
0.14167,19
0.15000,23
0.15833,27
0.16667,31
0.17500,34
0.18333,38
0.19167,41
0.20000,44
0.20833,48
0.21667,52
0.22500,56
0.23333,60
0.24167,64
0.25000,68
0.25833,72
0.26667,76
0.27500,80
0.28333,84
0.29167,88
0.30000,92
0.30833,96
0.31667,100
0.32500,104
0.33333,108
0.34167,111
0.35000,115
0.35833,118
0.36667,122
0.37500,126
0.38333,130
0.39167,133
0.40000,137
0.40833,141
0.41667,145
0.42500,148
0.43333,152
0.44167,155
0.45000,159
0.45833,162
0.46667,165
0.47500,167
0.48333,170
0.49167,173
0.50000,176
0.50833,179
0.51667,182
0.52500,184
0.53333,187
0.54167,189
0.55000,192
0.55833,194
0.56667,197
0.57500,199
0.58333,201
0.59167,204
0.60000,206
0.60833,208
0.61667,209
0.62500,211
0.63333,212
0.64167,212
0.65000,213
0.65833,213
0.66667,213
0.67500,214
0.68333,214
0.69167,214
0.70000,214
0.70833,214
0.71667,215
0.72500,215
0.73333,216
0.74167,217
0.75000,218
0.75833,218
0.76667,219
0.77500,220
0.78333,222
0.79167,223
0.80000,225
0.80833,226
0.81667,228
0.82500,229
0.83333,230
0.84167,231
0.85000,233
0.85833,234
0.86667,235
0.87500,236
0.88333,238
0.89167,239
0.90000,240
0.90833,241
0.91667,242
0.92500,243
0.93333,244
0.94167,246
0.95000,247
0.95833,248
0.96667,249
0.97500,250
0.98333,250
0.99167,251
1.00000,252
1.00833,253
1.01667,255
1.02500,256
1.03333,257
1.04167,257
1.05000,258
1.05833,258
1.06667,259
1.07500,260
1.08333,261
1.09167,263
1.10000,264
1.10833,265
1.11667,266
1.12500,267
1.13333,268
1.14167,269
1.15000,270
1.15833,272
1.16667,273
1.17500,274
1.18333,275
1.19167,277
1.20000,278
1.20833,279
1.21667,280
1.22500,281
1.23333,283
1.24167,284
1.25000,285
1.25833,286
1.26667,288
1.27500,289
1.28333,290
1.29167,291
1.30000,293
1.30833,293
1.31667,294
1.32500,295
1.33333,296
1.34167,297
1.35000,297
1.35833,298
1.36667,299
1.37500,300
1.38333,301
1.39167,302
1.40000,302
1.40833,303
1.41667,304
1.42500,304
1.43333,305
1.44167,305
1.45000,306
1.45833,307
1.46667,307
1.47500,307
1.48333,307
1.49167,308
1.50000,308
1.50833,308
1.51667,308
1.52500,308
1.53333,307
1.54167,308
1.55000,308
1.55833,308
1.56667,308
1.57500,309
1.58333,309
1.59167,309
1.60000,310
1.60833,310
1.61667,310
1.62500,311
1.63333,311
1.64167,311
1.65000,312
1.65833,312
1.66667,312
1.67500,312
1.68333,312
1.69167,312
1.70000,313
1.70833,313
1.71667,313
1.72500,313
1.73333,314
1.74167,314
1.75000,315
1.75833,315
1.76667,315
1.77500,315
1.78333,316
1.79167,316
1.80000,317
1.80833,317
1.81667,317
1.82500,318
1.83333,319
1.84167,320
1.85000,321
1.85833,322
1.86667,322
1.87500,323
1.88333,324
1.89167,324
1.90000,325
1.90833,326
1.91667,327
1.92500,328
1.93333,329
1.94167,330
1.95000,331
1.95833,332
1.96667,334
1.97500,335
1.98333,336
1.99167,337
2.00000,338
2.00833,339
2.01667,340
2.02500,341
2.03333,342
2.04167,343
2.05000,344
2.05833,346
2.06667,347
2.07500,348
2.08333,349
2.09167,350
2.10000,351
2.10833,353
2.11667,354
2.12500,355
2.13333,356
2.14167,357
2.15000,358
2.15833,359
2.16667,359
2.17500,360
2.18333,361
2.19167,362
2.20000,363
2.20833,364
2.21667,365
2.22500,366
2.23333,367
2.24167,368
2.25000,369
2.25833,370
2.26667,371
2.27500,371
2.28333,372
2.29167,373
2.30000,374
2.30833,375
2.31667,376
2.32500,377
2.33333,378
2.34167,378
2.35000,379
2.35833,380
2.36667,381
2.37500,382
2.38333,383
2.39167,383
2.40000,384
2.40833,385
2.41667,385
2.42500,386
2.43333,387
2.44167,387
2.45000,388
2.45833,389
2.46667,389
2.47500,390
2.48333,390
2.49167,391
2.50000,392
2.50833,393
2.51667,394
2.52500,394
2.53333,395
2.54167,395
2.55000,396
2.55833,396
2.56667,397
2.57500,398
2.58333,398
2.59167,399
2.60000,400
2.60833,400
2.61667,401
2.62500,401
2.63333,401
2.64167,401
2.65000,402
2.65833,402
2.66667,402
2.67500,402
2.68333,402
2.69167,402
2.70000,403
2.70833,403
2.71667,403
2.72500,403
2.73333,403
2.74167,404
2.75000,404
2.75833,405
2.76667,405
2.77500,405
2.78333,405
2.79167,405
2.80000,405
2.80833,405
2.81667,405
2.82500,406
2.83333,406
2.84167,406
2.85000,407
2.85833,407
2.86667,407
2.87500,407
2.88333,407
2.89167,408
2.90000,408
2.90833,408
2.91667,409
2.92500,409
2.93333,409
2.94167,409
2.95000,409
2.95833,409
2.96667,410
2.97500,410
2.98333,410
2.99167,411
3.00000,411
3.00833,411
3.01667,411
3.02500,412
3.03333,412
3.04167,412
3.05000,413
3.05833,413
3.06667,414
3.07500,414
3.08333,415
3.09167,416
3.10000,416
3.10833,416
3.11667,417
3.12500,418
3.13333,418
3.14167,419
3.15000,419
3.15833,420
3.16667,420
3.17500,421
3.18333,422
3.19167,423
3.20000,424
3.20833,425
3.21667,425
3.22500,427
3.23333,427
3.24167,428
3.25000,430
3.25833,431
3.26667,432
3.27500,433
3.28333,434
3.29167,435
3.30000,436
3.30833,438
3.31667,439
3.32500,440
3.33333,441
3.34167,442
3.35000,442
3.35833,444
3.36667,445
3.37500,446
3.38333,447
3.39167,448
3.40000,449
3.40833,450
3.41667,451
3.42500,452
3.43333,453
3.44167,455
3.45000,456
3.45833,457
3.46667,459
3.47500,460
3.48333,461
3.49167,462
3.50000,463
3.50833,464
3.51667,466
3.52500,467
3.53333,468
3.54167,468
3.55000,469
3.55833,470
3.56667,471
3.57500,472
3.58333,473
3.59167,473
3.60000,473
3.60833,474
3.61667,474
3.62500,474
3.63333,474
3.64167,474
3.65000,474
3.65833,475
3.66667,475
3.67500,476
3.68333,477
3.69167,477
3.70000,477
3.70833,477
3.71667,477
3.72500,477
3.73333,477
3.74167,477
3.75000,477
3.75833,477
3.76667,477
3.77500,477
3.78333,477
3.79167,478
3.80000,478
3.80833,478
3.81667,478
3.82500,478
3.83333,478
3.84167,477
3.85000,477
3.85833,477
3.86667,477
3.87500,477
3.88333,477
3.89167,477
3.90000,476
3.90833,476
3.91667,476
3.92500,476
3.93333,476
3.94167,476
3.95000,476
3.95833,476
3.96667,475
3.97500,475
3.98333,475
3.99167,475
4.00000,475
4.00833,475
4.01667,475
4.02500,474
4.03333,474
4.04167,474
4.05000,474
4.05833,475
4.06667,475
4.07500,475
4.08333,476
4.09167,476
4.10000,477
4.10833,477
4.11667,477
4.12500,478
4.13333,478
4.14167,479
4.15000,479
4.15833,479
4.16667,480
4.17500,480
4.18333,481
4.19167,482
4.20000,483
4.20833,484
4.21667,485
4.22500,486
4.23333,487
4.24167,488
4.25000,488
4.25833,489
4.26667,490
4.27500,490
4.28333,491
4.29167,492
4.30000,493
4.30833,494
4.31667,495
4.32500,496
4.33333,497
4.34167,498
4.35000,499
4.35833,500
4.36667,501
4.37500,502
4.38333,503
4.39167,504
4.40000,505
4.40833,506
4.41667,507
4.42500,508
4.43333,508
4.44167,509
4.45000,510
4.45833,510
4.46667,510
4.47500,510
4.48333,511
4.49167,511
4.50000,512
4.50833,512
4.51667,513
4.52500,513
4.53333,514
4.54167,514
4.55000,514
4.55833,514
4.56667,515
4.57500,515
4.58333,515
4.59167,515
4.60000,515
4.60833,515
4.61667,515
4.62500,515
4.63333,515
4.64167,515
4.65000,515
4.65833,515
4.66667,515
4.67500,515
4.68333,514
4.69167,514
4.70000,514
4.70833,514
4.71667,514
4.72500,513
4.73333,513
4.74167,513
4.75000,513
4.75833,513
4.76667,513
4.77500,513
4.78333,513
4.79167,512
4.80000,512
4.80833,512
4.81667,512
4.82500,512
4.83333,511
4.84167,511
4.85000,511
4.85833,511
4.86667,511
4.87500,511
4.88333,511
4.89167,511
4.90000,512
4.90833,512
4.91667,512
4.92500,512
4.93333,512
4.94167,512
4.95000,513
4.95833,513
4.96667,513
4.97500,514
4.98333,514
4.99167,515
5.00000,516
5.00833,516
5.01667,517
5.02500,518
5.03333,518
5.04167,519
5.05000,521
5.05833,522
5.06667,522
5.07500,523
5.08333,524
5.09167,525
5.10000,526
5.10833,527
5.11667,528
5.12500,529
5.13333,530
5.14167,530
5.15000,531
5.15833,532
5.16667,533
5.17500,534
5.18333,535
5.19167,536
5.20000,537
5.20833,538
5.21667,539
5.22500,540
5.23333,540
5.24167,541
5.25000,542
5.25833,543
5.26667,544
5.27500,545
5.28333,546
5.29167,547
5.30000,548
5.30833,549
5.31667,550
5.32500,550
5.33333,551
5.34167,552
5.35000,553
5.35833,554
5.36667,555
5.37500,556
5.38333,557
5.39167,558
5.40000,559
5.40833,559
5.41667,560
5.42500,561
5.43333,562
5.44167,562
5.45000,563
5.45833,564
5.46667,564
5.47500,565
5.48333,566
5.49167,567
5.50000,568
5.50833,569
5.51667,570
5.52500,570
5.53333,571
5.54167,573
5.55000,574
5.55833,575
5.56667,577
5.57500,578
5.58333,580
5.59167,582
5.60000,584
5.60833,586
5.61667,588
5.62500,590
5.63333,593
5.64167,596
5.65000,599
5.65833,602
5.66667,606
5.67500,610
5.68333,614
5.69167,617
5.70000,622
5.70833,626
5.71667,631
5.72500,636
5.73333,640
5.74167,646
5.75000,651
5.75833,657
5.76667,663
5.77500,669
5.78333,676
5.79167,683
5.80000,691
5.80833,698
5.81667,706
5.82500,714
5.83333,722
5.84167,730
5.85000,739
5.85833,748
5.86667,757
5.87500,766
5.88333,776
5.89167,785
5.90000,795
5.90833,805
5.91667,815
5.92500,825
5.93333,836
5.94167,846
5.95000,857
5.95833,867
5.96667,878
5.97500,888
5.98333,899
5.99167,909
6.00000,919
6.00833,929
6.01667,939
6.02500,949
6.03333,959
6.04167,969
6.05000,978
6.05833,987
6.06667,996
6.07500,1004
6.08333,1012
6.09167,1020
6.10000,1027
6.10833,1034
6.11667,1041
6.12500,1047
6.13333,1052
6.14167,1057
6.15000,1061
6.15833,1065
6.16667,1068
6.17500,1071
6.18333,1073
6.19167,1074
6.20000,1075
6.20833,1075
6.21667,1075
6.22500,1075
6.23333,1074
6.24167,1071
6.25000,1068
6.25833,1065
6.26667,1061
6.27500,1056
6.28333,1051
6.29167,1045
6.30000,1039
6.30833,1033
6.31667,1026
6.32500,1018
6.33333,1011
6.34167,1003
6.35000,994
6.35833,985
6.36667,976
6.37500,966
6.38333,956
6.39167,946
6.40000,935
6.40833,925
6.41667,915
6.42500,904
6.43333,893
6.44167,883
6.45000,872
6.45833,861
6.46667,850
6.47500,839
6.48333,828
6.49167,818
6.50000,807
6.50833,797
6.51667,787
6.52500,777
6.53333,768
6.54167,758
6.55000,749
6.55833,740
6.56667,731
6.57500,722
6.58333,714
6.59167,705
6.60000,698
6.60833,691
6.61667,684
6.62500,677
6.63333,670
6.64167,664
6.65000,658
6.65833,652
6.66667,647
6.67500,642
6.68333,638
6.69167,633
6.70000,629
6.70833,625
6.71667,621
6.72500,618
6.73333,616
6.74167,613
6.75000,610
6.75833,608
6.76667,606
6.77500,605
6.78333,603
6.79167,601
6.80000,600
6.80833,599
6.81667,598
6.82500,597
6.83333,597
6.84167,596
6.85000,596
6.85833,596
6.86667,596
6.87500,597
6.88333,597
6.89167,597
6.90000,597
6.90833,597
6.91667,598
6.92500,598
6.93333,599
6.94167,599
6.95000,600
6.95833,601
6.96667,601
6.97500,602
6.98333,603
6.99167,603
7.00000,604
7.00833,605
7.01667,605
7.02500,606
7.03333,607
7.04167,608
7.05000,610
7.05833,611
7.06667,612
7.07500,613
7.08333,614
7.09167,614
7.10000,615
7.10833,616
7.11667,616
7.12500,617
7.13333,618
7.14167,618
7.15000,619
7.15833,619
7.16667,619
7.17500,619
7.18333,619
7.19167,619
7.20000,619
7.20833,619
7.21667,619
7.22500,618
7.23333,618
7.24167,618
7.25000,618
7.25833,617
7.26667,617
7.27500,616
7.28333,616
7.29167,615
7.30000,615
7.30833,614
7.31667,614
7.32500,613
7.33333,612
7.34167,611
7.35000,610
7.35833,610
7.36667,609
7.37500,608
7.38333,606
7.39167,605
7.40000,603
7.40833,601
7.41667,600
7.42500,599
7.43333,598
7.44167,596
7.45000,595
7.45833,594
7.46667,593
7.47500,591
7.48333,590
7.49167,589
7.50000,588
7.50833,587
7.51667,585
7.52500,584
7.53333,582
7.54167,581
7.55000,579
7.55833,578
7.56667,577
7.57500,575
7.58333,574
7.59167,574
7.60000,573
7.60833,572
7.61667,571
7.62500,570
7.63333,570
7.64167,569
7.65000,569
7.65833,567
7.66667,566
7.67500,565
7.68333,564
7.69167,563
7.70000,563
7.70833,562
7.71667,561
7.72500,561
7.73333,560
7.74167,559
7.75000,559
7.75833,558
7.76667,558
7.77500,557
7.78333,556
7.79167,555
7.80000,554
7.80833,553
7.81667,553
7.82500,552
7.83333,552
7.84167,551
7.85000,551
7.85833,550
7.86667,550
7.87500,549
7.88333,549
7.89167,549
7.90000,548
7.90833,547
7.91667,547
7.92500,546
7.93333,546
7.94167,545
7.95000,545
7.95833,545
7.96667,545
7.97500,544
7.98333,544
7.99167,544
8.00000,543
8.00833,543
8.01667,543
8.02500,542
8.03333,542
8.04167,542
8.05000,542
8.05833,542
8.06667,542
8.07500,542
8.08333,542
8.09167,543
8.10000,543
8.10833,543
8.11667,543
8.12500,543
8.13333,543
8.14167,543
8.15000,543
8.15833,543
8.16667,544
8.17500,544
8.18333,544
8.19167,544
8.20000,545
8.20833,545
8.21667,544
8.22500,544
8.23333,544
8.24167,544
8.25000,545
8.25833,545
8.26667,546
8.27500,546
8.28333,546
8.29167,546
8.30000,546
8.30833,546
8.31667,546
8.32500,546
8.33333,545
8.34167,545
8.35000,545
8.35833,546
8.36667,546
8.37500,546
8.38333,546
8.39167,545
8.40000,545
8.40833,545
8.41667,545
8.42500,544
8.43333,544
8.44167,544
8.45000,544
8.45833,544
8.46667,544
8.47500,543
8.48333,543
8.49167,543
8.50000,543
8.50833,543
8.51667,543
8.52500,542
8.53333,542
8.54167,542
8.55000,541
8.55833,541
8.56667,541
8.57500,541
8.58333,541
8.59167,541
8.60000,541
8.60833,541
8.61667,541
8.62500,541
8.63333,541
8.64167,541
8.65000,541
8.65833,541
8.66667,541
8.67500,541
8.68333,542
8.69167,542
8.70000,543
8.70833,544
8.71667,544
8.72500,544
8.73333,545
8.74167,545
8.75000,545
8.75833,546
8.76667,546
8.77500,545
8.78333,545
8.79167,546
8.80000,546
8.80833,547
8.81667,547
8.82500,547
8.83333,547
8.84167,547
8.85000,548
8.85833,548
8.86667,549
8.87500,549
8.88333,549
8.89167,549
8.90000,549
8.90833,550
8.91667,550
8.92500,551
8.93333,551
8.94167,551
8.95000,551
8.95833,551
8.96667,550
8.97500,551
8.98333,551
8.99167,550
9.00000,550
9.00833,550
9.01667,550
9.02500,550
9.03333,550
9.04167,550
9.05000,550
9.05833,549
9.06667,550
9.07500,550
9.08333,549
9.09167,549
9.10000,549
9.10833,549
9.11667,549
9.12500,549
9.13333,549
9.14167,549
9.15000,548
9.15833,548
9.16667,548
9.17500,547
9.18333,546
9.19167,546
9.20000,546
9.20833,545
9.21667,545
9.22500,545
9.23333,545
9.24167,544
9.25000,544
9.25833,543
9.26667,542
9.27500,542
9.28333,541
9.29167,541
9.30000,541
9.30833,540
9.31667,540
9.32500,540
9.33333,540
9.34167,539
9.35000,539
9.35833,539
9.36667,539
9.37500,539
9.38333,538
9.39167,537
9.40000,536
9.40833,536
9.41667,536
9.42500,535
9.43333,535
9.44167,535
9.45000,535
9.45833,534
9.46667,534
9.47500,533
9.48333,533
9.49167,533
9.50000,533
9.50833,533
9.51667,532
9.52500,532
9.53333,531
9.54167,531
9.55000,530
9.55833,530
9.56667,530
9.57500,530
9.58333,530
9.59167,531
9.60000,531
9.60833,531
9.61667,532
9.62500,532
9.63333,532
9.64167,532
9.65000,532
9.65833,532
9.66667,532
9.67500,533
9.68333,533
9.69167,534
9.70000,534
9.70833,534
9.71667,534
9.72500,534
9.73333,535
9.74167,535
9.75000,536
9.75833,536
9.76667,537
9.77500,537
9.78333,537
9.79167,538
9.80000,539
9.80833,540
9.81667,541
9.82500,542
9.83333,543
9.84167,544
9.85000,545
9.85833,545
9.86667,546
9.87500,546
9.88333,547
9.89167,547
9.90000,548
9.90833,549
9.91667,549
9.92500,550
9.93333,550
9.94167,551
9.95000,551
9.95833,551
9.96667,552
9.97500,552
9.98333,552
9.99167,553
10.00000,553
10.00833,554
10.01667,554
10.02500,554
10.03333,554
10.04167,555
10.05000,555
10.05833,556
10.06667,556
10.07500,556
10.08333,556
10.09167,556
10.10000,556
10.10833,557
10.11667,557
10.12500,557
10.13333,557
10.14167,557
10.15000,557
10.15833,557
10.16667,557
10.17500,557
10.18333,557
10.19167,557
10.20000,557
10.20833,557
10.21667,557
10.22500,557
10.23333,557
10.24167,557
10.25000,557
10.25833,557
10.26667,557
10.27500,557
10.28333,557
10.29167,557
10.30000,556
10.30833,556
10.31667,556
10.32500,555
10.33333,555
10.34167,554
10.35000,554
10.35833,553
10.36667,553
10.37500,552
10.38333,551
10.39167,550
10.40000,549
10.40833,548
10.41667,546
10.42500,544
10.43333,541
10.44167,538
10.45000,534
10.45833,528
10.46667,520
10.47500,511
10.48333,498
10.49167,482
10.50000,463
10.50833,440
10.51667,413
10.52500,382
10.53333,346
10.54167,307
10.55000,263
10.55833,215
10.56667,166
10.57500,117
10.58333,69
10.59167,25
10.60000,-13
10.60833,-41
10.61667,-57
10.62500,-57
10.63333,-37
10.64167,6
10.65000,76
10.65833,175
10.66667,306
10.67500,471
10.68333,672
10.69167,910
10.70000,1185
10.70833,1497
10.71667,1843
10.72500,2223
10.73333,2632
10.74167,3068
10.75000,3524
10.75833,3997
10.76667,4480
10.77500,4965
10.78333,5448
10.79167,5919
10.80000,6372
10.80833,6800
10.81667,7195
10.82500,7551
10.83333,7862
10.84167,8123
10.85000,8330
10.85833,8480
10.86667,8572
10.87500,8605
10.88333,8581
10.89167,8501
10.90000,8368
10.90833,8187
10.91667,7962
10.92500,7698
10.93333,7403
10.94167,7081
10.95000,6739
10.95833,6382
10.96667,6017
10.97500,5649
10.98333,5282
10.99167,4921
11.00000,4569
11.00833,4230
11.01667,3904
11.02500,3595
11.03333,3304
11.04167,3032
11.05000,2778
11.05833,2544
11.06667,2329
11.07500,2133
11.08333,1954
11.09167,1793
11.10000,1647
11.10833,1517
11.11667,1401
11.12500,1297
11.13333,1205
11.14167,1124
11.15000,1053
11.15833,991
11.16667,936
11.17500,889
11.18333,847
11.19167,812
11.20000,780
11.20833,753
11.21667,730
11.22500,710
11.23333,693
11.24167,678
11.25000,665
11.25833,654
11.26667,644
11.27500,636
11.28333,628
11.29167,621
11.30000,615
11.30833,610
11.31667,605
11.32500,600
11.33333,597
11.34167,593
11.35000,590
11.35833,588
11.36667,585
11.37500,583
11.38333,580
11.39167,578
11.40000,576
11.40833,573
11.41667,571
11.42500,569
11.43333,568
11.44167,566
11.45000,564
11.45833,563
11.46667,562
11.47500,561
11.48333,560
11.49167,559
11.50000,557
11.50833,556
11.51667,555
11.52500,555
11.53333,554
11.54167,553
11.55000,553
11.55833,552
11.56667,551
11.57500,550
11.58333,549
11.59167,549
11.60000,548
11.60833,547
11.61667,545
11.62500,544
11.63333,543
11.64167,542
11.65000,541
11.65833,540
11.66667,538
11.67500,537
11.68333,536
11.69167,535
11.70000,534
11.70833,532
11.71667,531
11.72500,530
11.73333,528
11.74167,526
11.75000,525
11.75833,524
11.76667,522
11.77500,521
11.78333,520
11.79167,519
11.80000,518
11.80833,517
11.81667,516
11.82500,515
11.83333,514
11.84167,513
11.85000,513
11.85833,512
11.86667,512
11.87500,512
11.88333,512
11.89167,512
11.90000,512
11.90833,512
11.91667,512
11.92500,513
11.93333,513
11.94167,513
11.95000,514
11.95833,515
11.96667,515
11.97500,516
11.98333,517
11.99167,519
12.00000,520
12.00833,521
12.01667,523
12.02500,524
12.03333,525
12.04167,527
12.05000,528
12.05833,529
12.06667,531
12.07500,532
12.08333,533
12.09167,534
12.10000,535
12.10833,536
12.11667,538
12.12500,539
12.13333,540
12.14167,541
12.15000,542
12.15833,543
12.16667,544
12.17500,545
12.18333,547
12.19167,547
12.20000,548
12.20833,548
12.21667,548
12.22500,548
12.23333,549
12.24167,549
12.25000,550
12.25833,550
12.26667,551
12.27500,551
12.28333,551
12.29167,551
12.30000,551
12.30833,552
12.31667,552
12.32500,553
12.33333,552
12.34167,552
12.35000,553
12.35833,553
12.36667,553
12.37500,552
12.38333,552
12.39167,552
12.40000,552
12.40833,552
12.41667,552
12.42500,552
12.43333,552
12.44167,553
12.45000,553
12.45833,553
12.46667,554
12.47500,554
12.48333,554
12.49167,555
12.50000,556
12.50833,557
12.51667,558
12.52500,559
12.53333,560
12.54167,561
12.55000,562
12.55833,564
12.56667,565
12.57500,567
12.58333,570
12.59167,573
12.60000,576
12.60833,579
12.61667,583
12.62500,588
12.63333,594
12.64167,601
12.65000,609
12.65833,618
12.66667,630
12.67500,643
12.68333,658
12.69167,676
12.70000,698
12.70833,722
12.71667,751
12.72500,783
12.73333,820
12.74167,862
12.75000,910
12.75833,964
12.76667,1024
12.77500,1090
12.78333,1163
12.79167,1242
12.80000,1328
12.80833,1422
12.81667,1522
12.82500,1630
12.83333,1746
12.84167,1868
12.85000,1997
12.85833,2133
12.86667,2276
12.87500,2426
12.88333,2582
12.89167,2744
12.90000,2913
12.90833,3089
12.91667,3270
12.92500,3456
12.93333,3648
12.94167,3845
12.95000,4046
12.95833,4252
12.96667,4463
12.97500,4678
12.98333,4897
12.99167,5121
13.00000,5348
13.00833,5579
13.01667,5813
13.02500,6052
13.03333,6293
13.04167,6538
13.05000,6785
13.05833,7036
13.06667,7289
13.07500,7545
13.08333,7805
13.09167,8066
13.10000,8330
13.10833,8597
13.11667,8866
13.12500,9137
13.13333,9410
13.14167,9687
13.15000,9965
13.15833,10246
13.16667,10530
13.17500,10815
13.18333,11103
13.19167,11393
13.20000,11684
13.20833,11978
13.21667,12273
13.22500,12571
13.23333,12870
13.24167,13171
13.25000,13475
13.25833,13779
13.26667,14086
13.27500,14394
13.28333,14704
13.29167,15016
13.30000,15329
13.30833,15643
13.31667,15957
13.32500,16271
13.33333,16586
13.34167,16899
13.35000,17209
13.35833,17515
13.36667,17811
13.37500,18095
13.38333,18358
13.39167,18593
13.40000,18788
13.40833,18931
13.41667,19006
13.42500,19000
13.43333,18898
13.44167,18689
13.45000,18363
13.45833,17917
13.46667,17351
13.47500,16674
13.48333,15895
13.49167,15033
13.50000,14106
13.50833,13136
13.51667,12145
13.52500,11154
13.53333,10180
13.54167,9241
13.55000,8349
13.55833,7513
13.56667,6739
13.57500,6031
13.58333,5388
13.59167,4811
13.60000,4295
13.60833,3837
13.61667,3434
13.62500,3079
13.63333,2769
13.64167,2499
13.65000,2264
13.65833,2060
13.66667,1883
13.67500,1730
13.68333,1598
13.69167,1483
13.70000,1384
13.70833,1299
13.71667,1224
13.72500,1160
13.73333,1104
13.74167,1056
13.75000,1013
13.75833,976
13.76667,943
13.77500,914
13.78333,889
13.79167,866
13.80000,846
13.80833,829
13.81667,813
13.82500,799
13.83333,786
13.84167,775
13.85000,765
13.85833,756
13.86667,747
13.87500,740
13.88333,733
13.89167,726
13.90000,720
13.90833,715
13.91667,710
13.92500,705
13.93333,701
13.94167,697
13.95000,692
13.95833,689
13.96667,685
13.97500,682
13.98333,679
13.99167,677
14.00000,675
14.00833,673
14.01667,671
14.02500,669
14.03333,667
14.04167,665
14.05000,664
14.05833,662
14.06667,661
14.07500,660
14.08333,659
14.09167,658
14.10000,657
14.10833,656
14.11667,655
14.12500,655
14.13333,654
14.14167,653
14.15000,652
14.15833,651
14.16667,651
14.17500,650
14.18333,650
14.19167,649
14.20000,649
14.20833,648
14.21667,648
14.22500,648
14.23333,647
14.24167,646
14.25000,646
14.25833,645
14.26667,645
14.27500,645
14.28333,644
14.29167,644
14.30000,644
14.30833,643
14.31667,643
14.32500,642
14.33333,641
14.34167,640
14.35000,640
14.35833,640
14.36667,639
14.37500,639
14.38333,639
14.39167,638
14.40000,638
14.40833,637
14.41667,637
14.42500,637
14.43333,636
14.44167,636
14.45000,636
14.45833,635
14.46667,634
14.47500,634
14.48333,633
14.49167,633
14.50000,632
14.50833,631
14.51667,631
14.52500,630
14.53333,629
14.54167,629
14.55000,628
14.55833,628
14.56667,627
14.57500,627
14.58333,626
14.59167,626
14.60000,626
14.60833,625
14.61667,624
14.62500,623
14.63333,622
14.64167,622
14.65000,621
14.65833,620
14.66667,619
14.67500,619
14.68333,618
14.69167,618
14.70000,618
14.70833,618
14.71667,617
14.72500,617
14.73333,616
14.74167,615
14.75000,615
14.75833,615
14.76667,614
14.77500,614
14.78333,614
14.79167,613
14.80000,613
14.80833,613
14.81667,613
14.82500,612
14.83333,612
14.84167,612
14.85000,611
14.85833,611
14.86667,611
14.87500,611
14.88333,611
14.89167,611
14.90000,611
14.90833,611
14.91667,611
14.92500,611
14.93333,611
14.94167,611
14.95000,611
14.95833,611
14.96667,611
14.97500,611
14.98333,611
14.99167,611
15.00000,611
15.00833,611
15.01667,610
15.02500,610
15.03333,610
15.04167,610
15.05000,609
15.05833,609
15.06667,609
15.07500,609
15.08333,608
15.09167,608
15.10000,607
15.10833,607
15.11667,606
15.12500,605
15.13333,604
15.14167,603
15.15000,601
15.15833,600
15.16667,599
15.17500,599
15.18333,598
15.19167,597
15.20000,596
15.20833,596
15.21667,595
15.22500,594
15.23333,594
15.24167,593
15.25000,593
15.25833,592
15.26667,592
15.27500,591
15.28333,591
15.29167,590
15.30000,590
15.30833,590
15.31667,589
15.32500,589
15.33333,589
15.34167,589
15.35000,589
15.35833,589
15.36667,589
15.37500,589
15.38333,590
15.39167,589
15.40000,589
15.40833,589
15.41667,589
15.42500,589
15.43333,589
15.44167,589
15.45000,589
15.45833,589
15.46667,588
15.47500,588
15.48333,587
15.49167,587
15.50000,587
15.50833,587
15.51667,586
15.52500,586
15.53333,585
15.54167,585
15.55000,584
15.55833,584
15.56667,583
15.57500,583
15.58333,582
15.59167,582
15.60000,581
15.60833,581
15.61667,581
15.62500,580
15.63333,580
15.64167,579
15.65000,578
15.65833,578
15.66667,577
15.67500,577
15.68333,577
15.69167,576
15.70000,576
15.70833,575
15.71667,575
15.72500,575
15.73333,575
15.74167,575
15.75000,574
15.75833,574
15.76667,573
15.77500,573
15.78333,572
15.79167,572
15.80000,571
15.80833,571
15.81667,571
15.82500,571
15.83333,571
15.84167,571
15.85000,571
15.85833,570
15.86667,570
15.87500,570
15.88333,570
15.89167,570
15.90000,569
15.90833,569
15.91667,568
15.92500,568
15.93333,568
15.94167,568
15.95000,568
15.95833,568
15.96667,568
15.97500,568
15.98333,568
15.99167,568
16.00000,568
16.00833,568
16.01667,568
16.02500,568
16.03333,568
16.04167,568
16.05000,568
16.05833,568
16.06667,568
16.07500,568
16.08333,568
16.09167,568
16.10000,568
16.10833,568
16.11667,569
16.12500,570
16.13333,570
16.14167,570
16.15000,571
16.15833,571
16.16667,571
16.17500,571
16.18333,570
16.19167,570
16.20000,570
16.20833,571
16.21667,571
16.22500,571
16.23333,572
16.24167,572
16.25000,573
16.25833,573
16.26667,573
16.27500,574
16.28333,574
16.29167,574
16.30000,575
16.30833,575
16.31667,576
16.32500,576
16.33333,577
16.34167,578
16.35000,578
16.35833,579
16.36667,579
16.37500,579
16.38333,579
16.39167,580
16.40000,580
16.40833,580
16.41667,580
16.42500,580
16.43333,580
16.44167,580
16.45000,581
16.45833,581
16.46667,581
16.47500,581
16.48333,581
16.49167,581
16.50000,581
16.50833,581
16.51667,582
16.52500,582
16.53333,581
16.54167,581
16.55000,580
16.55833,579
16.56667,579
16.57500,579
16.58333,578
16.59167,578
16.60000,578
16.60833,577
16.61667,577
16.62500,577
16.63333,576
16.64167,576
16.65000,576
16.65833,576
16.66667,575
16.67500,575
16.68333,575
16.69167,574
16.70000,574
16.70833,574
16.71667,573
16.72500,573
16.73333,573
16.74167,572
16.75000,572
16.75833,572
16.76667,571
16.77500,571
16.78333,570
16.79167,570
16.80000,570
16.80833,570
16.81667,569
16.82500,569
16.83333,569
16.84167,569
16.85000,569
16.85833,569
16.86667,569
16.87500,569
16.88333,569
16.89167,569
16.90000,569
16.90833,569
16.91667,569
16.92500,569
16.93333,569
16.94167,569
16.95000,569
16.95833,569
16.96667,569
16.97500,568
16.98333,568
16.99167,568
17.00000,568
17.00833,568
17.01667,568
17.02500,568
17.03333,568
17.04167,567
17.05000,567
17.05833,567
17.06667,567
17.07500,566
17.08333,566
17.09167,566
17.10000,566
17.10833,566
17.11667,567
17.12500,567
17.13333,567
17.14167,567
17.15000,567
17.15833,566
17.16667,566
17.17500,566
17.18333,565
17.19167,565
17.20000,564
17.20833,564
17.21667,564
17.22500,564
17.23333,564
17.24167,563
17.25000,563
17.25833,563
17.26667,563
17.27500,563
17.28333,563
17.29167,563
17.30000,562
17.30833,562
17.31667,562
17.32500,562
17.33333,562
17.34167,563
17.35000,563
17.35833,563
17.36667,563
17.37500,563
17.38333,563
17.39167,563
17.40000,563
17.40833,563
17.41667,564
17.42500,564
17.43333,565
17.44167,565
17.45000,566
17.45833,566
17.46667,567
17.47500,567
17.48333,567
17.49167,567
17.50000,568
17.50833,568
17.51667,568
17.52500,569
17.53333,569
17.54167,569
17.55000,570
17.55833,570
17.56667,570
17.57500,570
17.58333,570
17.59167,570
17.60000,570
17.60833,570
17.61667,570
17.62500,569
17.63333,569
17.64167,569
17.65000,568
17.65833,568
17.66667,568
17.67500,567
17.68333,566
17.69167,566
17.70000,565
17.70833,564
17.71667,564
17.72500,564
17.73333,563
17.74167,563
17.75000,563
17.75833,562
17.76667,562
17.77500,561
17.78333,560
17.79167,560
17.80000,559
17.80833,558
17.81667,558
17.82500,557
17.83333,556
17.84167,556
17.85000,555
17.85833,555
17.86667,554
17.87500,553
17.88333,553
17.89167,552
17.90000,552
17.90833,551
17.91667,550
17.92500,550
17.93333,549
17.94167,548
17.95000,548
17.95833,547
17.96667,547
17.97500,546
17.98333,545
17.99167,545
18.00000,544
18.00833,544
18.01667,544
18.02500,543
18.03333,543
18.04167,543
18.05000,543
18.05833,543
18.06667,543
18.07500,542
18.08333,542
18.09167,542
18.10000,542
18.10833,542
18.11667,542
18.12500,542
18.13333,542
18.14167,542
18.15000,543
18.15833,543
18.16667,543
18.17500,544
18.18333,544
18.19167,544
18.20000,545
18.20833,545
18.21667,546
18.22500,547
18.23333,548
18.24167,549
18.25000,550
18.25833,551
18.26667,552
18.27500,552
18.28333,553
18.29167,554
18.30000,555
18.30833,555
18.31667,556
18.32500,557
18.33333,558
18.34167,558
18.35000,559
18.35833,561
18.36667,562
18.37500,562
18.38333,563
18.39167,564
18.40000,564
18.40833,565
18.41667,565
18.42500,566
18.43333,567
18.44167,567
18.45000,567
18.45833,567
18.46667,568
18.47500,568
18.48333,568
18.49167,568
18.50000,569
18.50833,569
18.51667,569
18.52500,569
18.53333,569
18.54167,569
18.55000,569
18.55833,569
18.56667,569
18.57500,569
18.58333,569
18.59167,568
18.60000,567
18.60833,567
18.61667,567
18.62500,567
18.63333,567
18.64167,567
18.65000,567
18.65833,567
18.66667,567
18.67500,567
18.68333,568
18.69167,568
18.70000,568
18.70833,568
18.71667,568
18.72500,569
18.73333,569
18.74167,569
18.75000,570
18.75833,571
18.76667,571
18.77500,572
18.78333,573
18.79167,573
18.80000,574
18.80833,575
18.81667,575
18.82500,576
18.83333,576
18.84167,577
18.85000,577
18.85833,578
18.86667,578
18.87500,579
18.88333,579
18.89167,580
18.90000,580
18.90833,580
18.91667,580
18.92500,580
18.93333,580
18.94167,580
18.95000,580
18.95833,580
18.96667,581
18.97500,581
18.98333,581
18.99167,581
19.00000,581
19.00833,581
19.01667,581
19.02500,581
19.03333,582
19.04167,581
19.05000,581
19.05833,581
19.06667,581
19.07500,581
19.08333,581
19.09167,581
19.10000,582
19.10833,582
19.11667,582
19.12500,582
19.13333,582
19.14167,582
19.15000,582
19.15833,582
19.16667,582
19.17500,582
19.18333,582
19.19167,582
19.20000,583
19.20833,583
19.21667,583
19.22500,583
19.23333,583
19.24167,583
19.25000,583
19.25833,583
19.26667,583
19.27500,583
19.28333,583
19.29167,583
19.30000,583
19.30833,582
19.31667,582
19.32500,582
19.33333,582
19.34167,581
19.35000,581
19.35833,581
19.36667,581
19.37500,581
19.38333,580
19.39167,580
19.40000,579
19.40833,579
19.41667,578
19.42500,578
19.43333,578
19.44167,577
19.45000,576
19.45833,576
19.46667,575
19.47500,575
19.48333,574
19.49167,574
19.50000,573
19.50833,573
19.51667,572
19.52500,572
19.53333,571
19.54167,570
19.55000,570
19.55833,569
19.56667,569
19.57500,568
19.58333,568
19.59167,567
19.60000,567
19.60833,566
19.61667,566
19.62500,565
19.63333,565
19.64167,564
19.65000,564
19.65833,564
19.66667,564
19.67500,563
19.68333,563
19.69167,563
19.70000,562
19.70833,562
19.71667,561
19.72500,561
19.73333,561
19.74167,561
19.75000,561
19.75833,561
19.76667,560
19.77500,560
19.78333,559
19.79167,559
19.80000,559
19.80833,559
19.81667,559
19.82500,558
19.83333,558
19.84167,557
19.85000,556
19.85833,556
19.86667,556
19.87500,556
19.88333,556
19.89167,556
19.90000,555
19.90833,555
19.91667,555
19.92500,554
19.93333,554
19.94167,553
19.95000,553
19.95833,553
19.96667,553
19.97500,553
19.98333,553
19.99167,552
20.00000,553
20.00833,553
20.01667,552
20.02500,552
20.03333,552
20.04167,552
20.05000,552
20.05833,553
20.06667,553
20.07500,553
20.08333,554
20.09167,554
20.10000,554
20.10833,555
20.11667,555
20.12500,556
20.13333,557
20.14167,557
20.15000,558
20.15833,559
20.16667,560
20.17500,560
20.18333,561
20.19167,562
20.20000,562
20.20833,563
20.21667,564
20.22500,564
20.23333,565
20.24167,566
20.25000,566
20.25833,567
20.26667,567
20.27500,567
20.28333,567
20.29167,567
20.30000,568
20.30833,568
20.31667,568
20.32500,568
20.33333,567
20.34167,567
20.35000,567
20.35833,567
20.36667,566
20.37500,566
20.38333,566
20.39167,565
20.40000,565
20.40833,564
20.41667,564
20.42500,563
20.43333,562
20.44167,562
20.45000,561
20.45833,560
20.46667,560
20.47500,559
20.48333,558
20.49167,557
20.50000,557
20.50833,556
20.51667,556
20.52500,555
20.53333,554
20.54167,553
20.55000,552
20.55833,550
20.56667,549
20.57500,548
20.58333,548
20.59167,547
20.60000,547
20.60833,546
20.61667,546
20.62500,545
20.63333,545
20.64167,545
20.65000,545
20.65833,545
20.66667,544
20.67500,544
20.68333,544
20.69167,544
20.70000,545
20.70833,545
20.71667,545
20.72500,546
20.73333,546
20.74167,547
20.75000,548
20.75833,549
20.76667,549
20.77500,549
20.78333,550
20.79167,550
20.80000,550
20.80833,551
20.81667,552
20.82500,553
20.83333,553
20.84167,554
20.85000,555
20.85833,556
20.86667,557
20.87500,558
20.88333,558
20.89167,559
20.90000,560
20.90833,561
20.91667,561
20.92500,562
20.93333,563
20.94167,564
20.95000,565
20.95833,565
20.96667,566
20.97500,567
20.98333,567
20.99167,568
21.00000,569
21.00833,570
21.01667,571
21.02500,572
21.03333,572
21.04167,573
21.05000,573
21.05833,574
21.06667,574
21.07500,575
21.08333,575
21.09167,576
21.10000,576
21.10833,576
21.11667,577
21.12500,577
21.13333,578
21.14167,578
21.15000,578
21.15833,577
21.16667,578
21.17500,578
21.18333,578
21.19167,578
21.20000,578
21.20833,578
21.21667,577
21.22500,577
21.23333,577
21.24167,576
21.25000,575
21.25833,574
21.26667,574
21.27500,573
21.28333,573
21.29167,572
21.30000,571
21.30833,571
21.31667,570
21.32500,570
21.33333,569
21.34167,568
21.35000,568
21.35833,567
21.36667,566
21.37500,565
21.38333,564
21.39167,563
21.40000,562
21.40833,561
21.41667,560
21.42500,559
21.43333,557
21.44167,556
21.45000,555
21.45833,554
21.46667,553
21.47500,552
21.48333,551
21.49167,551
21.50000,550
21.50833,549
21.51667,548
21.52500,547
21.53333,547
21.54167,546
21.55000,546
21.55833,545
21.56667,544
21.57500,543
21.58333,543
21.59167,542
21.60000,542
21.60833,542
21.61667,542
21.62500,542
21.63333,541
21.64167,541
21.65000,541
21.65833,540
21.66667,540
21.67500,540
21.68333,540
21.69167,540
21.70000,540
21.70833,540
21.71667,540
21.72500,540
21.73333,540
21.74167,541
21.75000,541
21.75833,541
21.76667,541
21.77500,542
21.78333,542
21.79167,543
21.80000,543
21.80833,543
21.81667,543
21.82500,543
21.83333,543
21.84167,543
21.85000,544
21.85833,544
21.86667,544
21.87500,545
21.88333,545
21.89167,545
21.90000,546
21.90833,547
21.91667,547
21.92500,548
21.93333,548
21.94167,549
21.95000,550
21.95833,551
21.96667,551
21.97500,552
21.98333,553
21.99167,553
22.00000,554
22.00833,555
22.01667,556
22.02500,557
22.03333,558
22.04167,559
22.05000,560
22.05833,560
22.06667,561
22.07500,562
22.08333,563
22.09167,565
22.10000,566
22.10833,567
22.11667,568
22.12500,569
22.13333,569
22.14167,570
22.15000,571
22.15833,572
22.16667,572
22.17500,573
22.18333,574
22.19167,575
22.20000,577
22.20833,578
22.21667,579
22.22500,580
22.23333,581
22.24167,582
22.25000,582
22.25833,583
22.26667,584
22.27500,584
22.28333,585
22.29167,586
22.30000,587
22.30833,588
22.31667,588
22.32500,589
22.33333,589
22.34167,589
22.35000,590
22.35833,590
22.36667,590
22.37500,590
22.38333,590
22.39167,591
22.40000,591
22.40833,591
22.41667,590
22.42500,590
22.43333,589
22.44167,589
22.45000,589
22.45833,589
22.46667,588
22.47500,588
22.48333,587
22.49167,587
22.50000,587
22.50833,586
22.51667,585
22.52500,584
22.53333,584
22.54167,583
22.55000,582
22.55833,582
22.56667,581
22.57500,580
22.58333,580
22.59167,579
22.60000,579
22.60833,578
22.61667,577
22.62500,577
22.63333,576
22.64167,575
22.65000,574
22.65833,574
22.66667,573
22.67500,572
22.68333,571
22.69167,571
22.70000,570
22.70833,570
22.71667,569
22.72500,569
22.73333,569
22.74167,568
22.75000,568
22.75833,567
22.76667,567
22.77500,567
22.78333,567
22.79167,566
22.80000,566
22.80833,566
22.81667,565
22.82500,565
22.83333,566
22.84167,566
22.85000,565
22.85833,565
22.86667,564
22.87500,564
22.88333,564
22.89167,564
22.90000,565
22.90833,565
22.91667,565
22.92500,565
22.93333,565
22.94167,566
22.95000,566
22.95833,565
22.96667,565
22.97500,565
22.98333,565
22.99167,565
23.00000,565
23.00833,565
23.01667,565
23.02500,566
23.03333,566
23.04167,565
23.05000,565
23.05833,565
23.06667,565
23.07500,565
23.08333,565
23.09167,565
23.10000,565
23.10833,565
23.11667,564
23.12500,564
23.13333,564
23.14167,563
23.15000,563
23.15833,562
23.16667,562
23.17500,562
23.18333,562
23.19167,562
23.20000,562
23.20833,561
23.21667,561
23.22500,561
23.23333,560
23.24167,560
23.25000,560
23.25833,560
23.26667,559
23.27500,559
23.28333,558
23.29167,558
23.30000,558
23.30833,558
23.31667,558
23.32500,558
23.33333,557
23.34167,557
23.35000,557
23.35833,558
23.36667,558
23.37500,558
23.38333,558
23.39167,559
23.40000,559
23.40833,560
23.41667,560
23.42500,560
23.43333,560
23.44167,561
23.45000,561
23.45833,562
23.46667,563
23.47500,564
23.48333,565
23.49167,565
23.50000,566
23.50833,566
23.51667,567
23.52500,568
23.53333,568
23.54167,569
23.55000,570
23.55833,571
23.56667,572
23.57500,572
23.58333,573
23.59167,574
23.60000,575
23.60833,575
23.61667,575
23.62500,576
23.63333,576
23.64167,577
23.65000,577
23.65833,577
23.66667,577
23.67500,578
23.68333,578
23.69167,578
23.70000,578
23.70833,578
23.71667,578
23.72500,578
23.73333,579
23.74167,579
23.75000,578
23.75833,578
23.76667,578
23.77500,577
23.78333,577
23.79167,577
23.80000,577
23.80833,576
23.81667,576
23.82500,575
23.83333,575
23.84167,574
23.85000,574
23.85833,573
23.86667,573
23.87500,572
23.88333,571
23.89167,571
23.90000,570
23.90833,569
23.91667,568
23.92500,568
23.93333,567
23.94167,567
23.95000,567
23.95833,566
23.96667,565
23.97500,565
23.98333,564
23.99167,563
24.00000,562
24.00833,561
24.01667,561
24.02500,560
24.03333,559
24.04167,559
24.05000,558
24.05833,558
24.06667,558
24.07500,558
24.08333,557
24.09167,557
24.10000,557
24.10833,556
24.11667,555
24.12500,555
24.13333,554
24.14167,554
24.15000,554
24.15833,554
24.16667,554
24.17500,553
24.18333,553
24.19167,553
24.20000,553
24.20833,554
24.21667,554
24.22500,554
24.23333,555
24.24167,555
24.25000,556
24.25833,557
24.26667,558
24.27500,559
24.28333,559
24.29167,560
24.30000,561
24.30833,562
24.31667,564
24.32500,565
24.33333,567
24.34167,569
24.35000,571
24.35833,574
24.36667,576
24.37500,579
24.38333,582
24.39167,586
24.40000,589
24.40833,594
24.41667,598
24.42500,603
24.43333,609
24.44167,615
24.45000,622
24.45833,630
24.46667,638
24.47500,646
24.48333,656
24.49167,666
24.50000,677
24.50833,689
24.51667,702
24.52500,716
24.53333,731
24.54167,747
24.55000,764
24.55833,783
24.56667,802
24.57500,824
24.58333,846
24.59167,870
24.60000,895
24.60833,921
24.61667,949
24.62500,977
24.63333,1007
24.64167,1038
24.65000,1071
24.65833,1105
24.66667,1140
24.67500,1176
24.68333,1213
24.69167,1251
24.70000,1289
24.70833,1328
24.71667,1367
24.72500,1406
24.73333,1446
24.74167,1485
24.75000,1524
24.75833,1563
24.76667,1601
24.77500,1638
24.78333,1675
24.79167,1710
24.80000,1744
24.80833,1776
24.81667,1806
24.82500,1834
24.83333,1861
24.84167,1885
24.85000,1906
24.85833,1925
24.86667,1942
24.87500,1955
24.88333,1966
24.89167,1973
24.90000,1978
24.90833,1981
24.91667,1980
24.92500,1976
24.93333,1969
24.94167,1960
24.95000,1948
24.95833,1933
24.96667,1915
24.97500,1896
24.98333,1873
24.99167,1849
25.00000,1823
25.00833,1794
25.01667,1764
25.02500,1732
25.03333,1699
25.04167,1665
25.05000,1630
25.05833,1595
25.06667,1559
25.07500,1522
25.08333,1485
25.09167,1449
25.10000,1412
25.10833,1375
25.11667,1338
25.12500,1302
25.13333,1267
25.14167,1232
25.15000,1198
25.15833,1165
25.16667,1132
25.17500,1101
25.18333,1070
25.19167,1041
25.20000,1013
25.20833,986
25.21667,960
25.22500,935
25.23333,912
25.24167,889
25.25000,867
25.25833,847
25.26667,828
25.27500,810
25.28333,792
25.29167,777
25.30000,762
25.30833,748
25.31667,735
25.32500,723
25.33333,712
25.34167,701
25.35000,692
25.35833,682
25.36667,674
25.37500,666
25.38333,659
25.39167,652
25.40000,646
25.40833,641
25.41667,635
25.42500,631
25.43333,626
25.44167,622
25.45000,619
25.45833,615
25.46667,612
25.47500,610
25.48333,607
25.49167,605
25.50000,603
25.50833,601
25.51667,599
25.52500,597
25.53333,595
25.54167,594
25.55000,592
25.55833,591
25.56667,590
25.57500,589
25.58333,588
25.59167,588
25.60000,587
25.60833,587
25.61667,586
25.62500,586
25.63333,586
25.64167,585
25.65000,584
25.65833,584
25.66667,583
25.67500,582
25.68333,581
25.69167,581
25.70000,580
25.70833,579
25.71667,578
25.72500,578
25.73333,577
25.74167,577
25.75000,576
25.75833,576
25.76667,575
25.77500,574
25.78333,574
25.79167,573
25.80000,572
25.80833,571
25.81667,571
25.82500,570
25.83333,569
25.84167,569
25.85000,568
25.85833,568
25.86667,567
25.87500,567
25.88333,566
25.89167,566
25.90000,565
25.90833,564
25.91667,564
25.92500,563
25.93333,563
25.94167,563
25.95000,562
25.95833,561
25.96667,561
25.97500,560
25.98333,560
25.99167,560
26.00000,559
26.00833,559
26.01667,558
26.02500,558
26.03333,558
26.04167,558
26.05000,558
26.05833,557
26.06667,557
26.07500,557
26.08333,557
26.09167,557
26.10000,557
26.10833,558
26.11667,558
26.12500,558
26.13333,558
26.14167,558
26.15000,558
26.15833,558
26.16667,558
26.17500,559
26.18333,559
26.19167,559
26.20000,559
26.20833,559
26.21667,559
26.22500,559
26.23333,560
26.24167,560
26.25000,561
26.25833,561
26.26667,561
26.27500,562
26.28333,562
26.29167,563
26.30000,563
26.30833,564
26.31667,565
26.32500,565
26.33333,566
26.34167,566
26.35000,567
26.35833,568
26.36667,568
26.37500,569
26.38333,569
26.39167,570
26.40000,571
26.40833,572
26.41667,572
26.42500,573
26.43333,574
26.44167,575
26.45000,576
26.45833,577
26.46667,578
26.47500,578
26.48333,579
26.49167,580
26.50000,581
26.50833,582
26.51667,582
26.52500,583
26.53333,584
26.54167,584
26.55000,585
26.55833,585
26.56667,586
26.57500,587
26.58333,587
26.59167,588
26.60000,588
26.60833,588
26.61667,589
26.62500,589
26.63333,589
26.64167,589
26.65000,589
26.65833,589
26.66667,589
26.67500,589
26.68333,589
26.69167,589
26.70000,588
26.70833,588
26.71667,587
26.72500,587
26.73333,587
26.74167,587
26.75000,587
26.75833,587
26.76667,586
26.77500,585
26.78333,585
26.79167,584
26.80000,584
26.80833,584
26.81667,583
26.82500,583
26.83333,582
26.84167,582
26.85000,581
26.85833,581
26.86667,580
26.87500,580
26.88333,579
26.89167,579
26.90000,578
26.90833,578
26.91667,577
26.92500,577
26.93333,576
26.94167,576
26.95000,575
26.95833,575
26.96667,574
26.97500,573
26.98333,573
26.99167,572
27.00000,571
27.00833,571
27.01667,570
27.02500,569
27.03333,569
27.04167,568
27.05000,568
27.05833,568
27.06667,568
27.07500,568
27.08333,568
27.09167,568
27.10000,567
27.10833,567
27.11667,567
27.12500,567
27.13333,567
27.14167,567
27.15000,566
27.15833,566
27.16667,566
27.17500,566
27.18333,565
27.19167,565
27.20000,565
27.20833,565
27.21667,565
27.22500,566
27.23333,566
27.24167,566
27.25000,566
27.25833,566
27.26667,566
27.27500,566
27.28333,566
27.29167,566
27.30000,566
27.30833,567
27.31667,567
27.32500,567
27.33333,567
27.34167,568
27.35000,568
27.35833,568
27.36667,569
27.37500,569
27.38333,569
27.39167,569
27.40000,570
27.40833,570
27.41667,570
27.42500,571
27.43333,572
27.44167,572
27.45000,573
27.45833,573
27.46667,574
27.47500,575
27.48333,576
27.49167,576
27.50000,577
27.50833,577
27.51667,578
27.52500,578
27.53333,579
27.54167,579
27.55000,579
27.55833,579
27.56667,579
27.57500,579
27.58333,579
27.59167,579
27.60000,580
27.60833,580
27.61667,580
27.62500,580
27.63333,580
27.64167,580
27.65000,580
27.65833,580
27.66667,580
27.67500,580
27.68333,580
27.69167,579
27.70000,579
27.70833,578
27.71667,577
27.72500,576
27.73333,576
27.74167,575
27.75000,575
27.75833,574
27.76667,574
27.77500,573
27.78333,573
27.79167,572
27.80000,572
27.80833,571
27.81667,570
27.82500,569
27.83333,568
27.84167,567
27.85000,566
27.85833,564
27.86667,563
27.87500,561
27.88333,559
27.89167,558
27.90000,556
27.90833,553
27.91667,551
27.92500,549
27.93333,546
27.94167,543
27.95000,540
27.95833,537
27.96667,534
27.97500,530
27.98333,526
27.99167,522
28.00000,518
28.00833,514
28.01667,509
28.02500,504
28.03333,498
28.04167,492
28.05000,485
28.05833,478
28.06667,471
28.07500,464
28.08333,456
28.09167,448
28.10000,439
28.10833,431
28.11667,421
28.12500,411
28.13333,401
28.14167,390
28.15000,378
28.15833,366
28.16667,353
28.17500,341
28.18333,328
28.19167,314
28.20000,300
28.20833,285
28.21667,269
28.22500,253
28.23333,237
28.24167,220
28.25000,203
28.25833,186
28.26667,169
28.27500,151
28.28333,133
28.29167,114
28.30000,96
28.30833,78
28.31667,60
28.32500,41
28.33333,22
28.34167,3
28.35000,-15
28.35833,-33
28.36667,-51
28.37500,-69
28.38333,-87
28.39167,-104
28.40000,-121
28.40833,-137
28.41667,-152
28.42500,-168
28.43333,-183
28.44167,-198
28.45000,-212
28.45833,-226
28.46667,-239
28.47500,-251
28.48333,-263
28.49167,-273
28.50000,-283
28.50833,-291
28.51667,-300
28.52500,-307
28.53333,-313
28.54167,-319
28.55000,-324
28.55833,-328
28.56667,-332
28.57500,-334
28.58333,-337
28.59167,-338
28.60000,-338
28.60833,-338
28.61667,-337
28.62500,-335
28.63333,-332
28.64167,-328
28.65000,-324
28.65833,-319
28.66667,-313
28.67500,-307
28.68333,-300
28.69167,-293
28.70000,-286
28.70833,-278
28.71667,-269
28.72500,-261
28.73333,-252
28.74167,-242
28.75000,-233
28.75833,-223
28.76667,-214
28.77500,-204
28.78333,-194
28.79167,-184
28.80000,-175
28.80833,-165
28.81667,-155
28.82500,-145
28.83333,-135
28.84167,-125
28.85000,-115
28.85833,-105
28.86667,-95
28.87500,-86
28.88333,-76
28.89167,-67
28.90000,-58
28.90833,-49
28.91667,-40
28.92500,-32
28.93333,-24
28.94167,-16
28.95000,-7
28.95833,1
28.96667,9
28.97500,16
28.98333,23
28.99167,30
29.00000,37
29.00833,43
29.01667,49
29.02500,55
29.03333,60
29.04167,66
29.05000,72
29.05833,77
29.06667,82
29.07500,87
29.08333,92
29.09167,97
29.10000,101
29.10833,106
29.11667,111
29.12500,115
29.13333,120
29.14167,124
29.15000,128
29.15833,132
29.16667,136
29.17500,140
29.18333,144
29.19167,147
29.20000,151
29.20833,154
29.21667,158
29.22500,161
29.23333,164
29.24167,167
29.25000,170
29.25833,173
29.26667,176
29.27500,179
29.28333,182
29.29167,185
29.30000,187
29.30833,190
29.31667,192
29.32500,194
29.33333,197
29.34167,199
29.35000,201
29.35833,203
29.36667,205
29.37500,207
29.38333,209
29.39167,211
29.40000,212
29.40833,213
29.41667,215
29.42500,215
29.43333,216
29.44167,218
29.45000,219
29.45833,220
29.46667,221
29.47500,222
29.48333,223
29.49167,223
29.50000,224
29.50833,224
29.51667,225
29.52500,225
29.53333,225
29.54167,225
29.55000,225
29.55833,225
29.56667,225
29.57500,225
29.58333,225
29.59167,225
29.60000,225
29.60833,225
29.61667,224
29.62500,224
29.63333,223
29.64167,223
29.65000,223
29.65833,222
29.66667,221
29.67500,220
29.68333,220
29.69167,219
29.70000,218
29.70833,218
29.71667,217
29.72500,216
29.73333,216
29.74167,215
29.75000,214
29.75833,213
29.76667,212
29.77500,211
29.78333,209
29.79167,208
29.80000,206
29.80833,204
29.81667,202
29.82500,200
29.83333,197
29.84167,195
29.85000,193
29.85833,191
29.86667,188
29.87500,185
29.88333,182
29.89167,179
29.90000,175
29.90833,172
29.91667,168
29.92500,164
29.93333,160
29.94167,155
29.95000,151
29.95833,146
29.96667,141
29.97500,136
29.98333,130
29.99167,125
30.00000,119

