[Header]
Application Name,LabSolutions
Version,5.97 SP1
Data File Name,C:\Users\cremerlab\Desktop\griffin\2021-04-05_NC_DM_calibration\2021-04-05_NC_DM_2.5mM_calibration_452021_003_025.lcd
Output Date,4/6/2021
Output Time,10:34:01 AM

[File Information]
Type,Data File
Generated,4/6/2021 9:53:42 AM
Generated by,System Administrator
Modified,4/6/2021 10:34:01 AM
Modified by,System Administrator

[Sample Information]
Operator Name,System Administrator
Acquired,4/6/2021 9:54:00 AM
Sample Type,1:Standard
Level,3
Sample Name,2021-04-05_DM_glucose_glycerol_acetate_0.1mM
Sample ID,003
ISTD Amount1,1
ISTD Amount2,1
ISTD Amount3,1
ISTD Amount4,1
ISTD Amount5,1
ISTD Amount6,1
ISTD Amount7,1
ISTD Amount8,1
ISTD Amount9,1
ISTD Amount10,1
ISTD Amount11,1
ISTD Amount12,1
ISTD Amount13,1
ISTD Amount14,1
ISTD Amount15,1
ISTD Amount16,1
ISTD Amount17,1
ISTD Amount18,1
ISTD Amount19,1
ISTD Amount20,1
ISTD Amount21,1
ISTD Amount22,1
ISTD Amount23,1
ISTD Amount24,1
ISTD Amount25,1
ISTD Amount26,1
ISTD Amount27,1
ISTD Amount28,1
ISTD Amount29,1
ISTD Amount30,1
ISTD Amount31,1
ISTD Amount32,1
Sample Amount,1
Dilution Factor,1
Vial#,30
Injection Volume,20

[Original Files]
Data File,C:\Users\cremerlab\Desktop\griffin\2021-04-05_NC_DM_calibration\2021-04-05_NC_DM_2.5mM_calibration_452021_003_025.lcd
Method File,C:\Users\cremerlab\Desktop\griffin\2021-04-05_NC_DM_calibration\2021-04-05_2.5mM_mobile.lcm
Batch File,C:\Users\cremerlab\Desktop\griffin\2021-04-05_NC_DM_calibration\2021-04-05_NC_DM_2.5mM_calibration.lcb
Report Format File,c:\LabSolutions\System\DEFAULT.lsr

[File Description]


[Configuration]
Instrument Name,HPLC-PC-Instrument1
Instrument #,1
Line #,1
# of Detectors,2
Detector ID,Detector A,Detector B
Detector Name,Detector A,Detector B
# of Channels,1,1

[Peak Table(Detector A)]
# of Peaks,0

[Peak Table(Detector B)]
# of Peaks,6
Peak#,R.Time,I.Time,F.Time,Area,Height,A/H,Conc.,Mark,ID#,Name,k',Plate #,Plate Ht.,Tailing,Resolution,Sep.Factor,Area Ratio,Height Ratio,Conc. %,Norm Conc.
1,10.885,10.433,11.733,228955,13741,16.662,0.000,   ,,,0.000,9590,15.641,1.034,0.000,0.000,0,0,0.000,0.000
2,13.950,12.533,14.217,1751957,46233,37.894,0.000,   ,,,0.282,3120,48.070,0.000,4.246,0.000,0,0,0.000,0.000
3,14.332,14.217,15.000,164453,9723,16.913,0.000, V ,,,0.317,5251,28.565,0.000,0.426,1.124,0,0,0.000,0.000
4,15.668,15.308,16.183,10531,480,21.934,0.000,   ,,,0.439,11039,13.588,1.154,1.926,1.388,0,0,0.000,0.000
5,19.101,18.817,19.517,1147,53,21.467,0.000,   ,,,0.755,17299,8.671,1.184,5.831,1.718,0,0,0.000,0.000
6,22.057,21.642,22.633,3477,130,26.764,0.000,   ,,,1.026,14547,10.311,1.127,4.505,1.360,0,0,0.000,0.000

[LC Chromatogram(Detector B-Ch1)]
Interval(msec),500
# of Points,4801
Start Time(min),0.000
End Time(min),40.000
Intensity Units,mV
Intensity Multiplier,0.001
R.Time (min),Intensity
0.00000,0
0.00833,0
0.01667,0
0.02500,1
0.03333,0
0.04167,0
0.05000,1
0.05833,1
0.06667,1
0.07500,1
0.08333,1
0.09167,2
0.10000,3
0.10833,3
0.11667,3
0.12500,4
0.13333,4
0.14167,4
0.15000,5
0.15833,5
0.16667,5
0.17500,5
0.18333,6
0.19167,6
0.20000,7
0.20833,7
0.21667,7
0.22500,8
0.23333,8
0.24167,8
0.25000,9
0.25833,9
0.26667,9
0.27500,9
0.28333,9
0.29167,10
0.30000,10
0.30833,10
0.31667,9
0.32500,9
0.33333,9
0.34167,10
0.35000,10
0.35833,10
0.36667,10
0.37500,11
0.38333,11
0.39167,10
0.40000,10
0.40833,10
0.41667,10
0.42500,11
0.43333,11
0.44167,11
0.45000,11
0.45833,11
0.46667,11
0.47500,11
0.48333,12
0.49167,12
0.50000,12
0.50833,12
0.51667,12
0.52500,12
0.53333,13
0.54167,13
0.55000,13
0.55833,13
0.56667,13
0.57500,13
0.58333,13
0.59167,13
0.60000,13
0.60833,13
0.61667,13
0.62500,13
0.63333,14
0.64167,14
0.65000,14
0.65833,13
0.66667,13
0.67500,13
0.68333,13
0.69167,13
0.70000,13
0.70833,13
0.71667,13
0.72500,13
0.73333,13
0.74167,13
0.75000,13
0.75833,13
0.76667,13
0.77500,13
0.78333,13
0.79167,13
0.80000,13
0.80833,13
0.81667,13
0.82500,13
0.83333,12
0.84167,12
0.85000,12
0.85833,12
0.86667,12
0.87500,11
0.88333,11
0.89167,11
0.90000,10
0.90833,10
0.91667,9
0.92500,9
0.93333,8
0.94167,8
0.95000,7
0.95833,7
0.96667,7
0.97500,7
0.98333,7
0.99167,6
1.00000,6
1.00833,6
1.01667,5
1.02500,5
1.03333,5
1.04167,4
1.05000,4
1.05833,4
1.06667,3
1.07500,3
1.08333,3
1.09167,2
1.10000,2
1.10833,2
1.11667,2
1.12500,2
1.13333,2
1.14167,2
1.15000,2
1.15833,2
1.16667,2
1.17500,2
1.18333,1
1.19167,1
1.20000,1
1.20833,1
1.21667,1
1.22500,1
1.23333,1
1.24167,1
1.25000,1
1.25833,1
1.26667,1
1.27500,1
1.28333,1
1.29167,1
1.30000,1
1.30833,2
1.31667,2
1.32500,2
1.33333,2
1.34167,2
1.35000,3
1.35833,3
1.36667,3
1.37500,4
1.38333,4
1.39167,4
1.40000,5
1.40833,5
1.41667,5
1.42500,5
1.43333,6
1.44167,6
1.45000,6
1.45833,6
1.46667,6
1.47500,6
1.48333,6
1.49167,6
1.50000,7
1.50833,7
1.51667,8
1.52500,8
1.53333,8
1.54167,8
1.55000,8
1.55833,8
1.56667,8
1.57500,9
1.58333,9
1.59167,9
1.60000,9
1.60833,9
1.61667,9
1.62500,9
1.63333,9
1.64167,9
1.65000,9
1.65833,9
1.66667,9
1.67500,9
1.68333,9
1.69167,9
1.70000,9
1.70833,9
1.71667,9
1.72500,9
1.73333,9
1.74167,9
1.75000,10
1.75833,10
1.76667,10
1.77500,9
1.78333,9
1.79167,9
1.80000,9
1.80833,9
1.81667,9
1.82500,8
1.83333,8
1.84167,8
1.85000,8
1.85833,8
1.86667,7
1.87500,7
1.88333,7
1.89167,7
1.90000,7
1.90833,7
1.91667,7
1.92500,7
1.93333,6
1.94167,7
1.95000,7
1.95833,7
1.96667,6
1.97500,7
1.98333,7
1.99167,7
2.00000,7
2.00833,7
2.01667,7
2.02500,7
2.03333,7
2.04167,7
2.05000,7
2.05833,7
2.06667,7
2.07500,7
2.08333,7
2.09167,8
2.10000,8
2.10833,7
2.11667,7
2.12500,8
2.13333,8
2.14167,9
2.15000,9
2.15833,10
2.16667,10
2.17500,10
2.18333,11
2.19167,11
2.20000,12
2.20833,12
2.21667,13
2.22500,13
2.23333,13
2.24167,13
2.25000,14
2.25833,14
2.26667,15
2.27500,15
2.28333,15
2.29167,15
2.30000,16
2.30833,16
2.31667,16
2.32500,16
2.33333,16
2.34167,16
2.35000,16
2.35833,16
2.36667,16
2.37500,16
2.38333,16
2.39167,15
2.40000,15
2.40833,15
2.41667,15
2.42500,15
2.43333,15
2.44167,14
2.45000,14
2.45833,14
2.46667,13
2.47500,13
2.48333,12
2.49167,12
2.50000,11
2.50833,11
2.51667,11
2.52500,10
2.53333,10
2.54167,9
2.55000,9
2.55833,8
2.56667,8
2.57500,7
2.58333,7
2.59167,6
2.60000,6
2.60833,5
2.61667,5
2.62500,5
2.63333,4
2.64167,4
2.65000,4
2.65833,3
2.66667,3
2.67500,3
2.68333,2
2.69167,2
2.70000,1
2.70833,1
2.71667,1
2.72500,1
2.73333,1
2.74167,1
2.75000,1
2.75833,0
2.76667,0
2.77500,-0
2.78333,-0
2.79167,-0
2.80000,-1
2.80833,-1
2.81667,-1
2.82500,-1
2.83333,-0
2.84167,-0
2.85000,-0
2.85833,-0
2.86667,-0
2.87500,-0
2.88333,-0
2.89167,0
2.90000,1
2.90833,2
2.91667,2
2.92500,2
2.93333,3
2.94167,3
2.95000,3
2.95833,4
2.96667,4
2.97500,5
2.98333,5
2.99167,6
3.00000,6
3.00833,7
3.01667,7
3.02500,7
3.03333,8
3.04167,8
3.05000,8
3.05833,9
3.06667,10
3.07500,10
3.08333,11
3.09167,11
3.10000,11
3.10833,11
3.11667,12
3.12500,12
3.13333,12
3.14167,13
3.15000,13
3.15833,14
3.16667,14
3.17500,14
3.18333,15
3.19167,15
3.20000,15
3.20833,15
3.21667,15
3.22500,15
3.23333,15
3.24167,15
3.25000,15
3.25833,15
3.26667,15
3.27500,14
3.28333,14
3.29167,14
3.30000,14
3.30833,14
3.31667,14
3.32500,14
3.33333,13
3.34167,13
3.35000,13
3.35833,12
3.36667,12
3.37500,12
3.38333,12
3.39167,12
3.40000,12
3.40833,12
3.41667,11
3.42500,11
3.43333,11
3.44167,11
3.45000,10
3.45833,10
3.46667,10
3.47500,10
3.48333,9
3.49167,9
3.50000,9
3.50833,8
3.51667,8
3.52500,8
3.53333,8
3.54167,8
3.55000,8
3.55833,8
3.56667,8
3.57500,8
3.58333,8
3.59167,8
3.60000,8
3.60833,8
3.61667,9
3.62500,9
3.63333,9
3.64167,10
3.65000,10
3.65833,10
3.66667,10
3.67500,10
3.68333,11
3.69167,11
3.70000,11
3.70833,11
3.71667,10
3.72500,10
3.73333,10
3.74167,10
3.75000,10
3.75833,11
3.76667,11
3.77500,11
3.78333,11
3.79167,11
3.80000,11
3.80833,11
3.81667,11
3.82500,11
3.83333,11
3.84167,11
3.85000,11
3.85833,11
3.86667,11
3.87500,11
3.88333,12
3.89167,12
3.90000,13
3.90833,13
3.91667,13
3.92500,13
3.93333,13
3.94167,12
3.95000,12
3.95833,12
3.96667,12
3.97500,12
3.98333,12
3.99167,12
4.00000,12
4.00833,12
4.01667,12
4.02500,12
4.03333,12
4.04167,12
4.05000,12
4.05833,12
4.06667,11
4.07500,12
4.08333,12
4.09167,12
4.10000,12
4.10833,12
4.11667,12
4.12500,12
4.13333,12
4.14167,12
4.15000,12
4.15833,12
4.16667,12
4.17500,11
4.18333,11
4.19167,12
4.20000,12
4.20833,12
4.21667,13
4.22500,13
4.23333,13
4.24167,13
4.25000,12
4.25833,13
4.26667,13
4.27500,13
4.28333,13
4.29167,13
4.30000,13
4.30833,13
4.31667,13
4.32500,12
4.33333,12
4.34167,12
4.35000,11
4.35833,10
4.36667,10
4.37500,10
4.38333,10
4.39167,10
4.40000,10
4.40833,9
4.41667,9
4.42500,10
4.43333,10
4.44167,10
4.45000,10
4.45833,9
4.46667,9
4.47500,9
4.48333,8
4.49167,8
4.50000,8
4.50833,7
4.51667,7
4.52500,7
4.53333,7
4.54167,7
4.55000,7
4.55833,7
4.56667,7
4.57500,7
4.58333,7
4.59167,7
4.60000,7
4.60833,7
4.61667,7
4.62500,8
4.63333,8
4.64167,8
4.65000,9
4.65833,9
4.66667,9
4.67500,10
4.68333,10
4.69167,10
4.70000,11
4.70833,11
4.71667,12
4.72500,12
4.73333,13
4.74167,13
4.75000,13
4.75833,14
4.76667,14
4.77500,15
4.78333,15
4.79167,16
4.80000,17
4.80833,17
4.81667,18
4.82500,18
4.83333,19
4.84167,19
4.85000,20
4.85833,20
4.86667,21
4.87500,21
4.88333,21
4.89167,21
4.90000,22
4.90833,23
4.91667,23
4.92500,24
4.93333,24
4.94167,24
4.95000,24
4.95833,24
4.96667,25
4.97500,25
4.98333,25
4.99167,25
5.00000,25
5.00833,25
5.01667,25
5.02500,25
5.03333,25
5.04167,25
5.05000,24
5.05833,24
5.06667,24
5.07500,23
5.08333,23
5.09167,23
5.10000,22
5.10833,22
5.11667,21
5.12500,21
5.13333,21
5.14167,20
5.15000,20
5.15833,20
5.16667,19
5.17500,18
5.18333,18
5.19167,17
5.20000,17
5.20833,17
5.21667,17
5.22500,17
5.23333,17
5.24167,17
5.25000,16
5.25833,16
5.26667,15
5.27500,15
5.28333,14
5.29167,14
5.30000,14
5.30833,13
5.31667,13
5.32500,13
5.33333,13
5.34167,13
5.35000,12
5.35833,12
5.36667,12
5.37500,11
5.38333,11
5.39167,11
5.40000,11
5.40833,11
5.41667,11
5.42500,10
5.43333,10
5.44167,10
5.45000,10
5.45833,10
5.46667,10
5.47500,10
5.48333,10
5.49167,10
5.50000,10
5.50833,9
5.51667,9
5.52500,8
5.53333,8
5.54167,8
5.55000,8
5.55833,8
5.56667,8
5.57500,8
5.58333,9
5.59167,9
5.60000,8
5.60833,8
5.61667,8
5.62500,8
5.63333,8
5.64167,7
5.65000,7
5.65833,7
5.66667,6
5.67500,6
5.68333,6
5.69167,5
5.70000,5
5.70833,5
5.71667,5
5.72500,5
5.73333,5
5.74167,5
5.75000,4
5.75833,4
5.76667,4
5.77500,4
5.78333,4
5.79167,3
5.80000,3
5.80833,3
5.81667,3
5.82500,3
5.83333,3
5.84167,3
5.85000,3
5.85833,3
5.86667,3
5.87500,4
5.88333,4
5.89167,4
5.90000,3
5.90833,3
5.91667,3
5.92500,3
5.93333,3
5.94167,3
5.95000,3
5.95833,2
5.96667,2
5.97500,2
5.98333,2
5.99167,2
6.00000,2
6.00833,2
6.01667,3
6.02500,3
6.03333,3
6.04167,3
6.05000,3
6.05833,3
6.06667,3
6.07500,4
6.08333,4
6.09167,5
6.10000,5
6.10833,5
6.11667,5
6.12500,6
6.13333,6
6.14167,7
6.15000,7
6.15833,7
6.16667,8
6.17500,8
6.18333,8
6.19167,8
6.20000,8
6.20833,9
6.21667,9
6.22500,10
6.23333,11
6.24167,11
6.25000,12
6.25833,13
6.26667,13
6.27500,14
6.28333,14
6.29167,15
6.30000,15
6.30833,16
6.31667,16
6.32500,17
6.33333,17
6.34167,18
6.35000,18
6.35833,18
6.36667,18
6.37500,19
6.38333,19
6.39167,19
6.40000,19
6.40833,20
6.41667,20
6.42500,20
6.43333,20
6.44167,21
6.45000,21
6.45833,20
6.46667,21
6.47500,21
6.48333,20
6.49167,20
6.50000,20
6.50833,20
6.51667,20
6.52500,20
6.53333,21
6.54167,21
6.55000,21
6.55833,21
6.56667,21
6.57500,21
6.58333,21
6.59167,21
6.60000,21
6.60833,21
6.61667,21
6.62500,21
6.63333,21
6.64167,20
6.65000,20
6.65833,19
6.66667,19
6.67500,19
6.68333,19
6.69167,18
6.70000,18
6.70833,18
6.71667,18
6.72500,18
6.73333,18
6.74167,18
6.75000,18
6.75833,18
6.76667,17
6.77500,17
6.78333,17
6.79167,17
6.80000,17
6.80833,17
6.81667,17
6.82500,17
6.83333,17
6.84167,17
6.85000,17
6.85833,17
6.86667,17
6.87500,17
6.88333,16
6.89167,16
6.90000,16
6.90833,16
6.91667,16
6.92500,16
6.93333,16
6.94167,16
6.95000,15
6.95833,15
6.96667,15
6.97500,15
6.98333,15
6.99167,15
7.00000,14
7.00833,15
7.01667,15
7.02500,14
7.03333,14
7.04167,14
7.05000,13
7.05833,13
7.06667,13
7.07500,12
7.08333,13
7.09167,13
7.10000,13
7.10833,13
7.11667,13
7.12500,13
7.13333,12
7.14167,12
7.15000,12
7.15833,12
7.16667,12
7.17500,11
7.18333,11
7.19167,11
7.20000,11
7.20833,12
7.21667,12
7.22500,12
7.23333,12
7.24167,13
7.25000,13
7.25833,13
7.26667,13
7.27500,14
7.28333,14
7.29167,14
7.30000,14
7.30833,14
7.31667,14
7.32500,15
7.33333,15
7.34167,15
7.35000,15
7.35833,16
7.36667,16
7.37500,16
7.38333,16
7.39167,16
7.40000,16
7.40833,17
7.41667,17
7.42500,17
7.43333,18
7.44167,18
7.45000,18
7.45833,19
7.46667,19
7.47500,19
7.48333,20
7.49167,20
7.50000,21
7.50833,21
7.51667,21
7.52500,22
7.53333,22
7.54167,23
7.55000,23
7.55833,24
7.56667,24
7.57500,24
7.58333,24
7.59167,24
7.60000,24
7.60833,24
7.61667,25
7.62500,25
7.63333,25
7.64167,25
7.65000,25
7.65833,26
7.66667,26
7.67500,26
7.68333,26
7.69167,26
7.70000,26
7.70833,26
7.71667,26
7.72500,26
7.73333,26
7.74167,26
7.75000,27
7.75833,27
7.76667,27
7.77500,27
7.78333,26
7.79167,26
7.80000,26
7.80833,26
7.81667,26
7.82500,26
7.83333,25
7.84167,25
7.85000,25
7.85833,25
7.86667,25
7.87500,25
7.88333,25
7.89167,25
7.90000,25
7.90833,24
7.91667,24
7.92500,24
7.93333,23
7.94167,23
7.95000,23
7.95833,23
7.96667,23
7.97500,23
7.98333,23
7.99167,23
8.00000,23
8.00833,22
8.01667,22
8.02500,22
8.03333,22
8.04167,22
8.05000,21
8.05833,21
8.06667,21
8.07500,21
8.08333,20
8.09167,20
8.10000,20
8.10833,21
8.11667,20
8.12500,21
8.13333,20
8.14167,20
8.15000,20
8.15833,20
8.16667,20
8.17500,20
8.18333,20
8.19167,19
8.20000,19
8.20833,19
8.21667,19
8.22500,19
8.23333,19
8.24167,19
8.25000,18
8.25833,18
8.26667,17
8.27500,17
8.28333,17
8.29167,17
8.30000,17
8.30833,16
8.31667,16
8.32500,15
8.33333,15
8.34167,14
8.35000,14
8.35833,14
8.36667,13
8.37500,13
8.38333,13
8.39167,12
8.40000,12
8.40833,11
8.41667,11
8.42500,11
8.43333,10
8.44167,10
8.45000,9
8.45833,8
8.46667,7
8.47500,7
8.48333,6
8.49167,6
8.50000,5
8.50833,5
8.51667,5
8.52500,5
8.53333,5
8.54167,4
8.55000,4
8.55833,4
8.56667,4
8.57500,4
8.58333,3
8.59167,3
8.60000,3
8.60833,3
8.61667,3
8.62500,2
8.63333,2
8.64167,2
8.65000,2
8.65833,2
8.66667,2
8.67500,2
8.68333,3
8.69167,3
8.70000,3
8.70833,3
8.71667,3
8.72500,3
8.73333,4
8.74167,4
8.75000,5
8.75833,5
8.76667,6
8.77500,6
8.78333,7
8.79167,7
8.80000,8
8.80833,8
8.81667,9
8.82500,9
8.83333,9
8.84167,10
8.85000,10
8.85833,10
8.86667,10
8.87500,10
8.88333,11
8.89167,11
8.90000,11
8.90833,11
8.91667,11
8.92500,12
8.93333,12
8.94167,12
8.95000,13
8.95833,13
8.96667,13
8.97500,13
8.98333,13
8.99167,13
9.00000,14
9.00833,14
9.01667,14
9.02500,14
9.03333,14
9.04167,14
9.05000,13
9.05833,13
9.06667,13
9.07500,13
9.08333,13
9.09167,13
9.10000,13
9.10833,13
9.11667,14
9.12500,13
9.13333,13
9.14167,13
9.15000,13
9.15833,13
9.16667,13
9.17500,13
9.18333,13
9.19167,12
9.20000,13
9.20833,13
9.21667,13
9.22500,13
9.23333,13
9.24167,13
9.25000,13
9.25833,12
9.26667,12
9.27500,12
9.28333,12
9.29167,12
9.30000,12
9.30833,12
9.31667,12
9.32500,12
9.33333,11
9.34167,11
9.35000,11
9.35833,11
9.36667,10
9.37500,10
9.38333,10
9.39167,10
9.40000,10
9.40833,10
9.41667,10
9.42500,10
9.43333,10
9.44167,10
9.45000,10
9.45833,10
9.46667,10
9.47500,10
9.48333,10
9.49167,11
9.50000,11
9.50833,11
9.51667,12
9.52500,12
9.53333,12
9.54167,13
9.55000,13
9.55833,13
9.56667,13
9.57500,13
9.58333,14
9.59167,14
9.60000,14
9.60833,14
9.61667,15
9.62500,15
9.63333,15
9.64167,16
9.65000,16
9.65833,17
9.66667,17
9.67500,17
9.68333,18
9.69167,18
9.70000,19
9.70833,20
9.71667,20
9.72500,21
9.73333,21
9.74167,21
9.75000,22
9.75833,22
9.76667,22
9.77500,23
9.78333,23
9.79167,24
9.80000,24
9.80833,25
9.81667,25
9.82500,25
9.83333,26
9.84167,26
9.85000,26
9.85833,27
9.86667,27
9.87500,27
9.88333,27
9.89167,28
9.90000,28
9.90833,29
9.91667,29
9.92500,29
9.93333,29
9.94167,29
9.95000,29
9.95833,29
9.96667,29
9.97500,29
9.98333,29
9.99167,29
10.00000,29
10.00833,29
10.01667,29
10.02500,29
10.03333,29
10.04167,29
10.05000,29
10.05833,29
10.06667,29
10.07500,29
10.08333,28
10.09167,28
10.10000,29
10.10833,29
10.11667,29
10.12500,28
10.13333,28
10.14167,28
10.15000,28
10.15833,28
10.16667,27
10.17500,27
10.18333,27
10.19167,27
10.20000,27
10.20833,27
10.21667,27
10.22500,27
10.23333,28
10.24167,27
10.25000,27
10.25833,27
10.26667,27
10.27500,27
10.28333,27
10.29167,27
10.30000,27
10.30833,28
10.31667,28
10.32500,28
10.33333,28
10.34167,28
10.35000,28
10.35833,28
10.36667,28
10.37500,28
10.38333,29
10.39167,29
10.40000,29
10.40833,29
10.41667,30
10.42500,30
10.43333,30
10.44167,30
10.45000,31
10.45833,32
10.46667,34
10.47500,36
10.48333,38
10.49167,42
10.50000,48
10.50833,54
10.51667,63
10.52500,75
10.53333,90
10.54167,109
10.55000,134
10.55833,165
10.56667,204
10.57500,252
10.58333,311
10.59167,383
10.60000,470
10.60833,573
10.61667,695
10.62500,837
10.63333,1002
10.64167,1193
10.65000,1411
10.65833,1658
10.66667,1936
10.67500,2246
10.68333,2589
10.69167,2966
10.70000,3377
10.70833,3821
10.71667,4298
10.72500,4805
10.73333,5342
10.74167,5904
10.75000,6489
10.75833,7092
10.76667,7707
10.77500,8330
10.78333,8953
10.79167,9571
10.80000,10175
10.80833,10757
10.81667,11310
10.82500,11825
10.83333,12295
10.84167,12711
10.85000,13067
10.85833,13356
10.86667,13573
10.87500,13712
10.88333,13772
10.89167,13751
10.90000,13648
10.90833,13464
10.91667,13204
10.92500,12871
10.93333,12472
10.94167,12013
10.95000,11503
10.95833,10951
10.96667,10366
10.97500,9757
10.98333,9133
10.99167,8504
11.00000,7876
11.00833,7258
11.01667,6656
11.02500,6075
11.03333,5520
11.04167,4994
11.05000,4500
11.05833,4040
11.06667,3613
11.07500,3221
11.08333,2861
11.09167,2534
11.10000,2238
11.10833,1971
11.11667,1732
11.12500,1519
11.13333,1329
11.14167,1161
11.15000,1012
11.15833,882
11.16667,767
11.17500,666
11.18333,579
11.19167,503
11.20000,437
11.20833,380
11.21667,331
11.22500,289
11.23333,253
11.24167,222
11.25000,196
11.25833,174
11.26667,156
11.27500,140
11.28333,126
11.29167,115
11.30000,106
11.30833,99
11.31667,93
11.32500,88
11.33333,84
11.34167,80
11.35000,78
11.35833,75
11.36667,74
11.37500,72
11.38333,70
11.39167,69
11.40000,67
11.40833,66
11.41667,65
11.42500,65
11.43333,64
11.44167,63
11.45000,62
11.45833,61
11.46667,59
11.47500,58
11.48333,57
11.49167,56
11.50000,55
11.50833,55
11.51667,54
11.52500,53
11.53333,52
11.54167,51
11.55000,50
11.55833,49
11.56667,48
11.57500,47
11.58333,46
11.59167,45
11.60000,44
11.60833,43
11.61667,42
11.62500,42
11.63333,41
11.64167,40
11.65000,39
11.65833,38
11.66667,38
11.67500,37
11.68333,37
11.69167,36
11.70000,36
11.70833,35
11.71667,35
11.72500,34
11.73333,34
11.74167,34
11.75000,33
11.75833,33
11.76667,32
11.77500,31
11.78333,30
11.79167,30
11.80000,29
11.80833,29
11.81667,28
11.82500,28
11.83333,27
11.84167,26
11.85000,26
11.85833,25
11.86667,25
11.87500,24
11.88333,23
11.89167,22
11.90000,21
11.90833,20
11.91667,19
11.92500,18
11.93333,18
11.94167,17
11.95000,16
11.95833,16
11.96667,15
11.97500,15
11.98333,14
11.99167,14
12.00000,14
12.00833,13
12.01667,12
12.02500,12
12.03333,11
12.04167,10
12.05000,10
12.05833,9
12.06667,8
12.07500,8
12.08333,7
12.09167,7
12.10000,6
12.10833,5
12.11667,4
12.12500,4
12.13333,3
12.14167,2
12.15000,2
12.15833,1
12.16667,1
12.17500,0
12.18333,-0
12.19167,-1
12.20000,-2
12.20833,-2
12.21667,-3
12.22500,-4
12.23333,-5
12.24167,-5
12.25000,-6
12.25833,-6
12.26667,-6
12.27500,-7
12.28333,-7
12.29167,-8
12.30000,-8
12.30833,-8
12.31667,-9
12.32500,-9
12.33333,-9
12.34167,-9
12.35000,-8
12.35833,-8
12.36667,-9
12.37500,-8
12.38333,-8
12.39167,-8
12.40000,-7
12.40833,-7
12.41667,-7
12.42500,-7
12.43333,-6
12.44167,-6
12.45000,-5
12.45833,-4
12.46667,-4
12.47500,-3
12.48333,-2
12.49167,-1
12.50000,-0
12.50833,1
12.51667,2
12.52500,2
12.53333,4
12.54167,5
12.55000,6
12.55833,8
12.56667,9
12.57500,11
12.58333,13
12.59167,15
12.60000,18
12.60833,21
12.61667,24
12.62500,29
12.63333,34
12.64167,40
12.65000,48
12.65833,58
12.66667,69
12.67500,82
12.68333,98
12.69167,116
12.70000,137
12.70833,162
12.71667,190
12.72500,223
12.73333,260
12.74167,302
12.75000,349
12.75833,401
12.76667,459
12.77500,523
12.78333,594
12.79167,670
12.80000,753
12.80833,843
12.81667,939
12.82500,1043
12.83333,1153
12.84167,1270
12.85000,1394
12.85833,1524
12.86667,1660
12.87500,1803
12.88333,1953
12.89167,2108
12.90000,2269
12.90833,2436
12.91667,2608
12.92500,2786
12.93333,2969
12.94167,3157
12.95000,3350
12.95833,3549
12.96667,3752
12.97500,3959
12.98333,4170
12.99167,4386
13.00000,4605
13.00833,4828
13.01667,5056
13.02500,5287
13.03333,5521
13.04167,5759
13.05000,6000
13.05833,6244
13.06667,6492
13.07500,6742
13.08333,6995
13.09167,7252
13.10000,7511
13.10833,7773
13.11667,8038
13.12500,8305
13.13333,8575
13.14167,8848
13.15000,9123
13.15833,9401
13.16667,9682
13.17500,9965
13.18333,10250
13.19167,10538
13.20000,10828
13.20833,11120
13.21667,11415
13.22500,11712
13.23333,12012
13.24167,12315
13.25000,12619
13.25833,12926
13.26667,13235
13.27500,13547
13.28333,13860
13.29167,14177
13.30000,14496
13.30833,14817
13.31667,15141
13.32500,15468
13.33333,15796
13.34167,16127
13.35000,16461
13.35833,16796
13.36667,17135
13.37500,17475
13.38333,17818
13.39167,18164
13.40000,18512
13.40833,18863
13.41667,19216
13.42500,19571
13.43333,19929
13.44167,20290
13.45000,20653
13.45833,21019
13.46667,21388
13.47500,21759
13.48333,22133
13.49167,22510
13.50000,22889
13.50833,23271
13.51667,23656
13.52500,24043
13.53333,24434
13.54167,24827
13.55000,25222
13.55833,25621
13.56667,26022
13.57500,26426
13.58333,26833
13.59167,27244
13.60000,27657
13.60833,28073
13.61667,28491
13.62500,28913
13.63333,29337
13.64167,29766
13.65000,30197
13.65833,30631
13.66667,31068
13.67500,31508
13.68333,31951
13.69167,32398
13.70000,32848
13.70833,33301
13.71667,33757
13.72500,34217
13.73333,34679
13.74167,35145
13.75000,35614
13.75833,36087
13.76667,36563
13.77500,37042
13.78333,37525
13.79167,38011
13.80000,38500
13.80833,38993
13.81667,39489
13.82500,39989
13.83333,40492
13.84167,40998
13.85000,41508
13.85833,42021
13.86667,42535
13.87500,43048
13.88333,43558
13.89167,44061
13.90000,44550
13.90833,45015
13.91667,45443
13.92500,45816
13.93333,46116
13.94167,46317
13.95000,46393
13.95833,46319
13.96667,46067
13.97500,45613
13.98333,44940
13.99167,44034
14.00000,42891
14.00833,41515
14.01667,39920
14.02500,38129
14.03333,36170
14.04167,34080
14.05000,31899
14.05833,29669
14.06667,27433
14.07500,25231
14.08333,23098
14.09167,21066
14.10000,19161
14.10833,17403
14.11667,15804
14.12500,14372
14.13333,13110
14.14167,12016
14.15000,11085
14.15833,10308
14.16667,9677
14.17500,9179
14.18333,8803
14.19167,8536
14.20000,8366
14.20833,8279
14.21667,8263
14.22500,8307
14.23333,8400
14.24167,8529
14.25000,8685
14.25833,8858
14.26667,9038
14.27500,9218
14.28333,9389
14.29167,9545
14.30000,9680
14.30833,9789
14.31667,9869
14.32500,9915
14.33333,9926
14.34167,9899
14.35000,9836
14.35833,9736
14.36667,9599
14.37500,9429
14.38333,9226
14.39167,8995
14.40000,8737
14.40833,8455
14.41667,8154
14.42500,7836
14.43333,7506
14.44167,7166
14.45000,6821
14.45833,6473
14.46667,6126
14.47500,5782
14.48333,5443
14.49167,5112
14.50000,4791
14.50833,4481
14.51667,4182
14.52500,3897
14.53333,3626
14.54167,3369
14.55000,3126
14.55833,2898
14.56667,2684
14.57500,2485
14.58333,2299
14.59167,2126
14.60000,1966
14.60833,1819
14.61667,1683
14.62500,1557
14.63333,1442
14.64167,1337
14.65000,1240
14.65833,1151
14.66667,1071
14.67500,997
14.68333,929
14.69167,868
14.70000,812
14.70833,761
14.71667,715
14.72500,673
14.73333,634
14.74167,600
14.75000,568
14.75833,539
14.76667,513
14.77500,489
14.78333,467
14.79167,447
14.80000,429
14.80833,413
14.81667,398
14.82500,385
14.83333,373
14.84167,362
14.85000,351
14.85833,342
14.86667,334
14.87500,326
14.88333,319
14.89167,313
14.90000,307
14.90833,303
14.91667,298
14.92500,294
14.93333,291
14.94167,288
14.95000,285
14.95833,282
14.96667,280
14.97500,279
14.98333,277
14.99167,276
15.00000,276
15.00833,276
15.01667,277
15.02500,277
15.03333,278
15.04167,278
15.05000,279
15.05833,281
15.06667,282
15.07500,283
15.08333,285
15.09167,286
15.10000,287
15.10833,289
15.11667,290
15.12500,291
15.13333,292
15.14167,293
15.15000,294
15.15833,295
15.16667,295
15.17500,296
15.18333,296
15.19167,296
15.20000,296
15.20833,295
15.21667,295
15.22500,294
15.23333,293
15.24167,292
15.25000,291
15.25833,289
15.26667,288
15.27500,287
15.28333,286
15.29167,285
15.30000,285
15.30833,284
15.31667,285
15.32500,285
15.33333,286
15.34167,288
15.35000,290
15.35833,293
15.36667,296
15.37500,301
15.38333,306
15.39167,313
15.40000,320
15.40833,328
15.41667,337
15.42500,347
15.43333,358
15.44167,370
15.45000,383
15.45833,396
15.46667,410
15.47500,424
15.48333,440
15.49167,455
15.50000,471
15.50833,488
15.51667,505
15.52500,522
15.53333,539
15.54167,556
15.55000,572
15.55833,588
15.56667,603
15.57500,618
15.58333,632
15.59167,645
15.60000,656
15.60833,667
15.61667,676
15.62500,684
15.63333,691
15.64167,697
15.65000,701
15.65833,703
15.66667,704
15.67500,704
15.68333,702
15.69167,698
15.70000,693
15.70833,687
15.71667,679
15.72500,671
15.73333,661
15.74167,650
15.75000,638
15.75833,625
15.76667,612
15.77500,598
15.78333,583
15.79167,567
15.80000,551
15.80833,535
15.81667,519
15.82500,502
15.83333,486
15.84167,469
15.85000,453
15.85833,437
15.86667,422
15.87500,406
15.88333,391
15.89167,376
15.90000,362
15.90833,348
15.91667,334
15.92500,321
15.93333,309
15.94167,297
15.95000,286
15.95833,275
15.96667,265
15.97500,255
15.98333,245
15.99167,237
16.00000,228
16.00833,220
16.01667,213
16.02500,206
16.03333,200
16.04167,193
16.05000,188
16.05833,183
16.06667,178
16.07500,173
16.08333,169
16.09167,165
16.10000,162
16.10833,159
16.11667,156
16.12500,152
16.13333,150
16.14167,147
16.15000,145
16.15833,143
16.16667,141
16.17500,139
16.18333,138
16.19167,137
16.20000,135
16.20833,133
16.21667,132
16.22500,132
16.23333,131
16.24167,129
16.25000,128
16.25833,127
16.26667,126
16.27500,125
16.28333,124
16.29167,123
16.30000,122
16.30833,121
16.31667,120
16.32500,119
16.33333,118
16.34167,117
16.35000,116
16.35833,115
16.36667,114
16.37500,113
16.38333,112
16.39167,111
16.40000,110
16.40833,110
16.41667,109
16.42500,108
16.43333,107
16.44167,106
16.45000,106
16.45833,105
16.46667,104
16.47500,103
16.48333,102
16.49167,101
16.50000,100
16.50833,99
16.51667,98
16.52500,97
16.53333,97
16.54167,96
16.55000,96
16.55833,95
16.56667,95
16.57500,94
16.58333,94
16.59167,94
16.60000,93
16.60833,93
16.61667,92
16.62500,92
16.63333,92
16.64167,91
16.65000,91
16.65833,91
16.66667,90
16.67500,90
16.68333,90
16.69167,90
16.70000,90
16.70833,90
16.71667,90
16.72500,90
16.73333,90
16.74167,90
16.75000,90
16.75833,90
16.76667,90
16.77500,90
16.78333,91
16.79167,91
16.80000,91
16.80833,91
16.81667,91
16.82500,90
16.83333,90
16.84167,90
16.85000,90
16.85833,90
16.86667,89
16.87500,89
16.88333,89
16.89167,89
16.90000,90
16.90833,90
16.91667,90
16.92500,89
16.93333,89
16.94167,89
16.95000,88
16.95833,88
16.96667,88
16.97500,88
16.98333,88
16.99167,88
17.00000,88
17.00833,87
17.01667,87
17.02500,86
17.03333,86
17.04167,85
17.05000,84
17.05833,84
17.06667,83
17.07500,83
17.08333,82
17.09167,82
17.10000,81
17.10833,80
17.11667,79
17.12500,78
17.13333,77
17.14167,77
17.15000,76
17.15833,76
17.16667,75
17.17500,75
17.18333,74
17.19167,73
17.20000,73
17.20833,72
17.21667,71
17.22500,70
17.23333,69
17.24167,68
17.25000,67
17.25833,67
17.26667,65
17.27500,65
17.28333,65
17.29167,64
17.30000,63
17.30833,63
17.31667,62
17.32500,62
17.33333,61
17.34167,61
17.35000,61
17.35833,60
17.36667,60
17.37500,59
17.38333,59
17.39167,58
17.40000,58
17.40833,58
17.41667,58
17.42500,58
17.43333,58
17.44167,57
17.45000,57
17.45833,57
17.46667,57
17.47500,57
17.48333,57
17.49167,57
17.50000,57
17.50833,56
17.51667,56
17.52500,56
17.53333,55
17.54167,55
17.55000,55
17.55833,55
17.56667,55
17.57500,55
17.58333,55
17.59167,55
17.60000,55
17.60833,55
17.61667,55
17.62500,55
17.63333,55
17.64167,55
17.65000,55
17.65833,55
17.66667,55
17.67500,55
17.68333,55
17.69167,55
17.70000,55
17.70833,55
17.71667,55
17.72500,55
17.73333,55
17.74167,55
17.75000,55
17.75833,55
17.76667,54
17.77500,54
17.78333,53
17.79167,53
17.80000,53
17.80833,53
17.81667,53
17.82500,53
17.83333,53
17.84167,53
17.85000,53
17.85833,52
17.86667,52
17.87500,52
17.88333,52
17.89167,51
17.90000,51
17.90833,50
17.91667,50
17.92500,50
17.93333,50
17.94167,50
17.95000,50
17.95833,49
17.96667,49
17.97500,49
17.98333,49
17.99167,49
18.00000,49
18.00833,49
18.01667,49
18.02500,49
18.03333,49
18.04167,49
18.05000,48
18.05833,48
18.06667,48
18.07500,48
18.08333,49
18.09167,49
18.10000,50
18.10833,50
18.11667,51
18.12500,51
18.13333,52
18.14167,53
18.15000,53
18.15833,54
18.16667,54
18.17500,55
18.18333,55
18.19167,55
18.20000,55
18.20833,56
18.21667,57
18.22500,57
18.23333,58
18.24167,59
18.25000,60
18.25833,61
18.26667,61
18.27500,61
18.28333,62
18.29167,63
18.30000,63
18.30833,64
18.31667,64
18.32500,65
18.33333,65
18.34167,66
18.35000,66
18.35833,66
18.36667,66
18.37500,67
18.38333,67
18.39167,67
18.40000,67
18.40833,66
18.41667,66
18.42500,66
18.43333,66
18.44167,66
18.45000,66
18.45833,66
18.46667,66
18.47500,65
18.48333,65
18.49167,65
18.50000,64
18.50833,64
18.51667,64
18.52500,63
18.53333,63
18.54167,62
18.55000,61
18.55833,60
18.56667,60
18.57500,59
18.58333,59
18.59167,58
18.60000,58
18.60833,57
18.61667,56
18.62500,56
18.63333,55
18.64167,54
18.65000,54
18.65833,53
18.66667,53
18.67500,52
18.68333,52
18.69167,51
18.70000,51
18.70833,51
18.71667,50
18.72500,50
18.73333,50
18.74167,50
18.75000,50
18.75833,50
18.76667,50
18.77500,51
18.78333,51
18.79167,52
18.80000,53
18.80833,53
18.81667,54
18.82500,56
18.83333,57
18.84167,59
18.85000,60
18.85833,62
18.86667,64
18.87500,65
18.88333,67
18.89167,69
18.90000,72
18.90833,74
18.91667,76
18.92500,78
18.93333,80
18.94167,83
18.95000,85
18.95833,87
18.96667,89
18.97500,91
18.98333,93
18.99167,95
19.00000,97
19.00833,99
19.01667,100
19.02500,101
19.03333,103
19.04167,104
19.05000,105
19.05833,105
19.06667,106
19.07500,107
19.08333,107
19.09167,108
19.10000,108
19.10833,108
19.11667,108
19.12500,107
19.13333,107
19.14167,106
19.15000,105
19.15833,105
19.16667,103
19.17500,102
19.18333,101
19.19167,99
19.20000,98
19.20833,97
19.21667,95
19.22500,93
19.23333,92
19.24167,90
19.25000,89
19.25833,87
19.26667,85
19.27500,84
19.28333,82
19.29167,80
19.30000,78
19.30833,77
19.31667,76
19.32500,74
19.33333,73
19.34167,72
19.35000,70
19.35833,68
19.36667,67
19.37500,66
19.38333,65
19.39167,63
19.40000,62
19.40833,62
19.41667,61
19.42500,60
19.43333,59
19.44167,59
19.45000,58
19.45833,57
19.46667,57
19.47500,56
19.48333,56
19.49167,55
19.50000,55
19.50833,54
19.51667,54
19.52500,54
19.53333,54
19.54167,54
19.55000,54
19.55833,54
19.56667,54
19.57500,53
19.58333,53
19.59167,52
19.60000,52
19.60833,52
19.61667,52
19.62500,52
19.63333,52
19.64167,52
19.65000,52
19.65833,52
19.66667,52
19.67500,52
19.68333,52
19.69167,52
19.70000,52
19.70833,51
19.71667,51
19.72500,51
19.73333,51
19.74167,51
19.75000,51
19.75833,51
19.76667,51
19.77500,51
19.78333,50
19.79167,50
19.80000,50
19.80833,50
19.81667,49
19.82500,49
19.83333,48
19.84167,48
19.85000,47
19.85833,47
19.86667,46
19.87500,46
19.88333,46
19.89167,45
19.90000,45
19.90833,44
19.91667,44
19.92500,43
19.93333,43
19.94167,42
19.95000,41
19.95833,41
19.96667,40
19.97500,40
19.98333,40
19.99167,40
20.00000,39
20.00833,39
20.01667,40
20.02500,39
20.03333,39
20.04167,38
20.05000,37
20.05833,36
20.06667,36
20.07500,35
20.08333,35
20.09167,34
20.10000,34
20.10833,34
20.11667,34
20.12500,33
20.13333,33
20.14167,32
20.15000,32
20.15833,32
20.16667,31
20.17500,31
20.18333,31
20.19167,31
20.20000,30
20.20833,30
20.21667,30
20.22500,30
20.23333,29
20.24167,29
20.25000,29
20.25833,30
20.26667,30
20.27500,30
20.28333,30
20.29167,30
20.30000,30
20.30833,29
20.31667,29
20.32500,28
20.33333,28
20.34167,28
20.35000,28
20.35833,28
20.36667,28
20.37500,28
20.38333,28
20.39167,28
20.40000,28
20.40833,28
20.41667,28
20.42500,28
20.43333,28
20.44167,28
20.45000,28
20.45833,28
20.46667,28
20.47500,28
20.48333,28
20.49167,29
20.50000,29
20.50833,29
20.51667,29
20.52500,28
20.53333,28
20.54167,28
20.55000,29
20.55833,29
20.56667,29
20.57500,29
20.58333,30
20.59167,30
20.60000,30
20.60833,30
20.61667,31
20.62500,31
20.63333,32
20.64167,32
20.65000,32
20.65833,32
20.66667,32
20.67500,32
20.68333,32
20.69167,32
20.70000,32
20.70833,33
20.71667,33
20.72500,33
20.73333,33
20.74167,34
20.75000,34
20.75833,35
20.76667,35
20.77500,36
20.78333,36
20.79167,37
20.80000,38
20.80833,39
20.81667,39
20.82500,39
20.83333,39
20.84167,39
20.85000,40
20.85833,40
20.86667,40
20.87500,41
20.88333,41
20.89167,41
20.90000,42
20.90833,42
20.91667,43
20.92500,43
20.93333,43
20.94167,43
20.95000,43
20.95833,43
20.96667,42
20.97500,42
20.98333,42
20.99167,43
21.00000,43
21.00833,43
21.01667,44
21.02500,44
21.03333,44
21.04167,44
21.05000,43
21.05833,43
21.06667,42
21.07500,42
21.08333,41
21.09167,41
21.10000,40
21.10833,40
21.11667,39
21.12500,39
21.13333,38
21.14167,37
21.15000,36
21.15833,36
21.16667,35
21.17500,34
21.18333,34
21.19167,33
21.20000,33
21.20833,31
21.21667,30
21.22500,30
21.23333,29
21.24167,28
21.25000,28
21.25833,27
21.26667,26
21.27500,26
21.28333,25
21.29167,25
21.30000,24
21.30833,23
21.31667,22
21.32500,22
21.33333,21
21.34167,21
21.35000,20
21.35833,20
21.36667,19
21.37500,19
21.38333,18
21.39167,18
21.40000,17
21.40833,17
21.41667,17
21.42500,18
21.43333,18
21.44167,18
21.45000,18
21.45833,18
21.46667,18
21.47500,19
21.48333,19
21.49167,20
21.50000,20
21.50833,21
21.51667,22
21.52500,22
21.53333,23
21.54167,24
21.55000,25
21.55833,26
21.56667,27
21.57500,28
21.58333,29
21.59167,30
21.60000,31
21.60833,32
21.61667,33
21.62500,35
21.63333,37
21.64167,38
21.65000,39
21.65833,41
21.66667,42
21.67500,44
21.68333,46
21.69167,48
21.70000,50
21.70833,52
21.71667,54
21.72500,57
21.73333,59
21.74167,62
21.75000,65
21.75833,67
21.76667,70
21.77500,73
21.78333,76
21.79167,79
21.80000,83
21.80833,86
21.81667,90
21.82500,94
21.83333,97
21.84167,100
21.85000,104
21.85833,108
21.86667,111
21.87500,115
21.88333,119
21.89167,122
21.90000,126
21.90833,130
21.91667,134
21.92500,137
21.93333,141
21.94167,144
21.95000,147
21.95833,149
21.96667,152
21.97500,155
21.98333,157
21.99167,159
22.00000,161
22.00833,162
22.01667,164
22.02500,165
22.03333,165
22.04167,166
22.05000,166
22.05833,166
22.06667,166
22.07500,165
22.08333,164
22.09167,163
22.10000,161
22.10833,159
22.11667,157
22.12500,155
22.13333,152
22.14167,150
22.15000,147
22.15833,144
22.16667,141
22.17500,138
22.18333,135
22.19167,132
22.20000,128
22.20833,125
22.21667,122
22.22500,118
22.23333,115
22.24167,112
22.25000,108
22.25833,105
22.26667,101
22.27500,98
22.28333,95
22.29167,91
22.30000,88
22.30833,85
22.31667,82
22.32500,80
22.33333,77
22.34167,75
22.35000,72
22.35833,70
22.36667,68
22.37500,66
22.38333,63
22.39167,61
22.40000,59
22.40833,57
22.41667,56
22.42500,54
22.43333,53
22.44167,51
22.45000,50
22.45833,49
22.46667,47
22.47500,46
22.48333,45
22.49167,44
22.50000,43
22.50833,42
22.51667,42
22.52500,41
22.53333,40
22.54167,40
22.55000,39
22.55833,38
22.56667,38
22.57500,37
22.58333,36
22.59167,35
22.60000,35
22.60833,34
22.61667,33
22.62500,33
22.63333,33
22.64167,33
22.65000,33
22.65833,33
22.66667,32
22.67500,32
22.68333,31
22.69167,30
22.70000,30
22.70833,29
22.71667,29
22.72500,29
22.73333,29
22.74167,29
22.75000,28
22.75833,28
22.76667,28
22.77500,28
22.78333,27
22.79167,27
22.80000,27
22.80833,27
22.81667,27
22.82500,26
22.83333,26
22.84167,26
22.85000,26
22.85833,26
22.86667,26
22.87500,26
22.88333,26
22.89167,26
22.90000,25
22.90833,25
22.91667,25
22.92500,25
22.93333,25
22.94167,25
22.95000,25
22.95833,25
22.96667,26
22.97500,26
22.98333,27
22.99167,27
23.00000,27
23.00833,27
23.01667,27
23.02500,27
23.03333,27
23.04167,27
23.05000,27
23.05833,28
23.06667,28
23.07500,28
23.08333,28
23.09167,28
23.10000,29
23.10833,29
23.11667,30
23.12500,30
23.13333,30
23.14167,30
23.15000,31
23.15833,31
23.16667,31
23.17500,31
23.18333,31
23.19167,32
23.20000,32
23.20833,33
23.21667,33
23.22500,34
23.23333,34
23.24167,34
23.25000,35
23.25833,35
23.26667,36
23.27500,36
23.28333,37
23.29167,37
23.30000,38
23.30833,39
23.31667,39
23.32500,39
23.33333,39
23.34167,39
23.35000,39
23.35833,40
23.36667,41
23.37500,42
23.38333,42
23.39167,43
23.40000,44
23.40833,44
23.41667,45
23.42500,45
23.43333,45
23.44167,46
23.45000,46
23.45833,46
23.46667,47
23.47500,47
23.48333,47
23.49167,48
23.50000,48
23.50833,49
23.51667,49
23.52500,50
23.53333,50
23.54167,51
23.55000,51
23.55833,51
23.56667,51
23.57500,52
23.58333,52
23.59167,52
23.60000,53
23.60833,53
23.61667,53
23.62500,54
23.63333,54
23.64167,54
23.65000,54
23.65833,55
23.66667,55
23.67500,55
23.68333,55
23.69167,55
23.70000,55
23.70833,55
23.71667,54
23.72500,54
23.73333,54
23.74167,54
23.75000,55
23.75833,55
23.76667,54
23.77500,54
23.78333,54
23.79167,53
23.80000,53
23.80833,53
23.81667,53
23.82500,53
23.83333,53
23.84167,53
23.85000,52
23.85833,52
23.86667,52
23.87500,51
23.88333,50
23.89167,50
23.90000,49
23.90833,49
23.91667,48
23.92500,48
23.93333,47
23.94167,47
23.95000,46
23.95833,45
23.96667,45
23.97500,44
23.98333,44
23.99167,43
24.00000,42
24.00833,41
24.01667,41
24.02500,40
24.03333,40
24.04167,39
24.05000,39
24.05833,38
24.06667,37
24.07500,36
24.08333,35
24.09167,35
24.10000,34
24.10833,33
24.11667,33
24.12500,33
24.13333,33
24.14167,32
24.15000,32
24.15833,32
24.16667,31
24.17500,31
24.18333,30
24.19167,30
24.20000,29
24.20833,29
24.21667,28
24.22500,28
24.23333,28
24.24167,27
24.25000,27
24.25833,27
24.26667,26
24.27500,26
24.28333,25
24.29167,25
24.30000,24
24.30833,24
24.31667,24
24.32500,24
24.33333,24
24.34167,24
24.35000,24
24.35833,23
24.36667,23
24.37500,23
24.38333,23
24.39167,23
24.40000,23
24.40833,23
24.41667,23
24.42500,23
24.43333,24
24.44167,24
24.45000,25
24.45833,25
24.46667,25
24.47500,26
24.48333,26
24.49167,26
24.50000,27
24.50833,27
24.51667,28
24.52500,28
24.53333,29
24.54167,29
24.55000,30
24.55833,31
24.56667,32
24.57500,33
24.58333,34
24.59167,34
24.60000,35
24.60833,36
24.61667,37
24.62500,39
24.63333,40
24.64167,41
24.65000,42
24.65833,43
24.66667,44
24.67500,46
24.68333,47
24.69167,49
24.70000,51
24.70833,52
24.71667,53
24.72500,54
24.73333,55
24.74167,56
24.75000,58
24.75833,59
24.76667,61
24.77500,62
24.78333,64
24.79167,65
24.80000,67
24.80833,69
24.81667,71
24.82500,72
24.83333,73
24.84167,75
24.85000,77
24.85833,79
24.86667,80
24.87500,82
24.88333,83
24.89167,84
24.90000,86
24.90833,87
24.91667,88
24.92500,89
24.93333,90
24.94167,91
24.95000,92
24.95833,92
24.96667,93
24.97500,93
24.98333,94
24.99167,94
25.00000,94
25.00833,95
25.01667,95
25.02500,95
25.03333,95
25.04167,95
25.05000,95
25.05833,95
25.06667,95
25.07500,94
25.08333,94
25.09167,93
25.10000,92
25.10833,92
25.11667,91
25.12500,90
25.13333,89
25.14167,87
25.15000,86
25.15833,85
25.16667,84
25.17500,83
25.18333,82
25.19167,81
25.20000,80
25.20833,79
25.21667,77
25.22500,76
25.23333,75
25.24167,74
25.25000,72
25.25833,71
25.26667,70
25.27500,69
25.28333,68
25.29167,67
25.30000,66
25.30833,65
25.31667,65
25.32500,64
25.33333,63
25.34167,62
25.35000,61
25.35833,61
25.36667,60
25.37500,59
25.38333,59
25.39167,59
25.40000,58
25.40833,58
25.41667,57
25.42500,57
25.43333,56
25.44167,56
25.45000,55
25.45833,55
25.46667,55
25.47500,54
25.48333,54
25.49167,54
25.50000,55
25.50833,55
25.51667,55
25.52500,55
25.53333,55
25.54167,55
25.55000,54
25.55833,54
25.56667,54
25.57500,54
25.58333,54
25.59167,54
25.60000,54
25.60833,53
25.61667,53
25.62500,53
25.63333,53
25.64167,53
25.65000,53
25.65833,53
25.66667,52
25.67500,52
25.68333,52
25.69167,51
25.70000,51
25.70833,51
25.71667,51
25.72500,51
25.73333,51
25.74167,51
25.75000,50
25.75833,50
25.76667,49
25.77500,49
25.78333,49
25.79167,50
25.80000,49
25.80833,49
25.81667,49
25.82500,49
25.83333,49
25.84167,49
25.85000,48
25.85833,48
25.86667,48
25.87500,48
25.88333,48
25.89167,48
25.90000,47
25.90833,47
25.91667,47
25.92500,47
25.93333,46
25.94167,46
25.95000,45
25.95833,45
25.96667,46
25.97500,45
25.98333,45
25.99167,45
26.00000,45
26.00833,45
26.01667,45
26.02500,45
26.03333,45
26.04167,45
26.05000,44
26.05833,44
26.06667,44
26.07500,44
26.08333,44
26.09167,44
26.10000,44
26.10833,44
26.11667,43
26.12500,43
26.13333,43
26.14167,42
26.15000,42
26.15833,42
26.16667,42
26.17500,42
26.18333,42
26.19167,42
26.20000,42
26.20833,42
26.21667,41
26.22500,41
26.23333,41
26.24167,41
26.25000,41
26.25833,42
26.26667,42
26.27500,41
26.28333,41
26.29167,41
26.30000,41
26.30833,41
26.31667,41
26.32500,41
26.33333,41
26.34167,41
26.35000,41
26.35833,41
26.36667,41
26.37500,41
26.38333,41
26.39167,41
26.40000,42
26.40833,42
26.41667,41
26.42500,41
26.43333,41
26.44167,40
26.45000,40
26.45833,40
26.46667,40
26.47500,40
26.48333,40
26.49167,39
26.50000,39
26.50833,39
26.51667,39
26.52500,39
26.53333,39
26.54167,38
26.55000,38
26.55833,39
26.56667,39
26.57500,39
26.58333,39
26.59167,39
26.60000,39
26.60833,38
26.61667,38
26.62500,38
26.63333,39
26.64167,39
26.65000,39
26.65833,38
26.66667,38
26.67500,38
26.68333,38
26.69167,38
26.70000,38
26.70833,38
26.71667,38
26.72500,38
26.73333,37
26.74167,37
26.75000,37
26.75833,37
26.76667,38
26.77500,38
26.78333,38
26.79167,38
26.80000,38
26.80833,38
26.81667,38
26.82500,38
26.83333,37
26.84167,37
26.85000,37
26.85833,37
26.86667,37
26.87500,36
26.88333,36
26.89167,36
26.90000,35
26.90833,35
26.91667,35
26.92500,35
26.93333,35
26.94167,35
26.95000,35
26.95833,35
26.96667,35
26.97500,34
26.98333,34
26.99167,34
27.00000,34
27.00833,34
27.01667,34
27.02500,34
27.03333,34
27.04167,34
27.05000,34
27.05833,34
27.06667,34
27.07500,34
27.08333,33
27.09167,33
27.10000,33
27.10833,33
27.11667,33
27.12500,33
27.13333,33
27.14167,33
27.15000,34
27.15833,34
27.16667,34
27.17500,34
27.18333,34
27.19167,34
27.20000,35
27.20833,35
27.21667,35
27.22500,35
27.23333,35
27.24167,36
27.25000,37
27.25833,37
27.26667,38
27.27500,38
27.28333,38
27.29167,38
27.30000,39
27.30833,39
27.31667,40
27.32500,40
27.33333,41
27.34167,41
27.35000,41
27.35833,42
27.36667,42
27.37500,43
27.38333,43
27.39167,44
27.40000,44
27.40833,45
27.41667,45
27.42500,45
27.43333,45
27.44167,46
27.45000,46
27.45833,47
27.46667,47
27.47500,47
27.48333,48
27.49167,48
27.50000,48
27.50833,49
27.51667,50
27.52500,50
27.53333,50
27.54167,51
27.55000,51
27.55833,51
27.56667,51
27.57500,51
27.58333,51
27.59167,51
27.60000,51
27.60833,50
27.61667,50
27.62500,50
27.63333,50
27.64167,50
27.65000,50
27.65833,49
27.66667,49
27.67500,49
27.68333,49
27.69167,49
27.70000,49
27.70833,48
27.71667,48
27.72500,47
27.73333,46
27.74167,46
27.75000,45
27.75833,44
27.76667,44
27.77500,43
27.78333,42
27.79167,41
27.80000,40
27.80833,40
27.81667,39
27.82500,38
27.83333,36
27.84167,35
27.85000,34
27.85833,32
27.86667,30
27.87500,29
27.88333,27
27.89167,25
27.90000,23
27.90833,21
27.91667,19
27.92500,17
27.93333,15
27.94167,13
27.95000,11
27.95833,8
27.96667,6
27.97500,3
27.98333,0
27.99167,-2
28.00000,-5
28.00833,-8
28.01667,-11
28.02500,-14
28.03333,-17
28.04167,-20
28.05000,-23
28.05833,-27
28.06667,-30
28.07500,-34
28.08333,-37
28.09167,-41
28.10000,-44
28.10833,-48
28.11667,-51
28.12500,-55
28.13333,-58
28.14167,-62
28.15000,-66
28.15833,-69
28.16667,-73
28.17500,-77
28.18333,-80
28.19167,-83
28.20000,-86
28.20833,-89
28.21667,-92
28.22500,-94
28.23333,-97
28.24167,-99
28.25000,-101
28.25833,-103
28.26667,-105
28.27500,-107
28.28333,-108
28.29167,-110
28.30000,-111
28.30833,-112
28.31667,-113
28.32500,-114
28.33333,-114
28.34167,-115
28.35000,-115
28.35833,-115
28.36667,-115
28.37500,-115
28.38333,-115
28.39167,-114
28.40000,-113
28.40833,-112
28.41667,-111
28.42500,-109
28.43333,-108
28.44167,-106
28.45000,-105
28.45833,-103
28.46667,-101
28.47500,-99
28.48333,-97
28.49167,-94
28.50000,-92
28.50833,-89
28.51667,-87
28.52500,-84
28.53333,-82
28.54167,-80
28.55000,-77
28.55833,-74
28.56667,-71
28.57500,-68
28.58333,-65
28.59167,-62
28.60000,-60
28.60833,-57
28.61667,-53
28.62500,-51
28.63333,-48
28.64167,-45
28.65000,-42
28.65833,-40
28.66667,-37
28.67500,-35
28.68333,-32
28.69167,-29
28.70000,-26
28.70833,-24
28.71667,-22
28.72500,-19
28.73333,-17
28.74167,-15
28.75000,-13
28.75833,-11
28.76667,-9
28.77500,-7
28.78333,-5
28.79167,-3
28.80000,-1
28.80833,0
28.81667,2
28.82500,3
28.83333,5
28.84167,7
28.85000,8
28.85833,10
28.86667,11
28.87500,12
28.88333,13
28.89167,14
28.90000,15
28.90833,16
28.91667,16
28.92500,17
28.93333,18
28.94167,19
28.95000,20
28.95833,21
28.96667,22
28.97500,23
28.98333,23
28.99167,23
29.00000,24
29.00833,24
29.01667,24
29.02500,24
29.03333,24
29.04167,25
29.05000,25
29.05833,26
29.06667,26
29.07500,26
29.08333,26
29.09167,26
29.10000,27
29.10833,27
29.11667,27
29.12500,27
29.13333,27
29.14167,27
29.15000,27
29.15833,27
29.16667,27
29.17500,27
29.18333,27
29.19167,27
29.20000,27
29.20833,27
29.21667,27
29.22500,27
29.23333,27
29.24167,27
29.25000,27
29.25833,27
29.26667,27
29.27500,28
29.28333,28
29.29167,28
29.30000,28
29.30833,28
29.31667,29
29.32500,29
29.33333,29
29.34167,30
29.35000,30
29.35833,31
29.36667,31
29.37500,31
29.38333,32
29.39167,32
29.40000,32
29.40833,32
29.41667,32
29.42500,33
29.43333,33
29.44167,34
29.45000,34
29.45833,34
29.46667,35
29.47500,35
29.48333,35
29.49167,35
29.50000,35
29.50833,35
29.51667,35
29.52500,35
29.53333,35
29.54167,35
29.55000,35
29.55833,35
29.56667,34
29.57500,34
29.58333,34
29.59167,33
29.60000,33
29.60833,32
29.61667,31
29.62500,31
29.63333,30
29.64167,30
29.65000,29
29.65833,28
29.66667,27
29.67500,26
29.68333,25
29.69167,24
29.70000,23
29.70833,22
29.71667,21
29.72500,20
29.73333,18
29.74167,17
29.75000,15
29.75833,14
29.76667,12
29.77500,10
29.78333,9
29.79167,7
29.80000,6
29.80833,4
29.81667,3
29.82500,2
29.83333,0
29.84167,-2
29.85000,-3
29.85833,-5
29.86667,-7
29.87500,-8
29.88333,-10
29.89167,-11
29.90000,-12
29.90833,-14
29.91667,-15
29.92500,-16
29.93333,-18
29.94167,-19
29.95000,-21
29.95833,-22
29.96667,-23
29.97500,-24
29.98333,-25
29.99167,-25
30.00000,-26
30.00833,-27
30.01667,-28
30.02500,-29
30.03333,-30
30.04167,-30
30.05000,-31
30.05833,-32
30.06667,-32
30.07500,-33
30.08333,-34
30.09167,-34
30.10000,-35
30.10833,-35
30.11667,-35
30.12500,-35
30.13333,-35
30.14167,-34
30.15000,-33
30.15833,-32
30.16667,-31
30.17500,-30
30.18333,-29
30.19167,-29
30.20000,-28
30.20833,-27
30.21667,-26
30.22500,-24
30.23333,-23
30.24167,-21
30.25000,-20
30.25833,-19
30.26667,-17
30.27500,-16
30.28333,-15
30.29167,-13
30.30000,-12
30.30833,-10
30.31667,-8
30.32500,-6
30.33333,-5
30.34167,-3
30.35000,-1
30.35833,0
30.36667,2
30.37500,4
30.38333,6
30.39167,7
30.40000,9
30.40833,11
30.41667,12
30.42500,14
30.43333,15
30.44167,17
30.45000,18
30.45833,20
30.46667,21
30.47500,22
30.48333,23
30.49167,25
30.50000,26
30.50833,27
30.51667,28
30.52500,29
30.53333,30
30.54167,31
30.55000,32
30.55833,33
30.56667,34
30.57500,35
30.58333,35
30.59167,36
30.60000,37
30.60833,38
30.61667,38
30.62500,39
30.63333,39
30.64167,40
30.65000,40
30.65833,40
30.66667,41
30.67500,41
30.68333,42
30.69167,42
30.70000,42
30.70833,43
30.71667,43
30.72500,43
30.73333,43
30.74167,44
30.75000,44
30.75833,44
30.76667,44
30.77500,44
30.78333,45
30.79167,45
30.80000,46
30.80833,47
30.81667,47
30.82500,47
30.83333,48
30.84167,48
30.85000,49
30.85833,49
30.86667,49
30.87500,49
30.88333,49
30.89167,50
30.90000,50
30.90833,50
30.91667,50
30.92500,50
30.93333,50
30.94167,50
30.95000,50
30.95833,51
30.96667,51
30.97500,51
30.98333,51
30.99167,51
31.00000,51
31.00833,51
31.01667,51
31.02500,51
31.03333,51
31.04167,51
31.05000,50
31.05833,50
31.06667,50
31.07500,50
31.08333,49
31.09167,49
31.10000,49
31.10833,49
31.11667,49
31.12500,49
31.13333,49
31.14167,48
31.15000,48
31.15833,47
31.16667,47
31.17500,46
31.18333,45
31.19167,44
31.20000,44
31.20833,43
31.21667,43
31.22500,42
31.23333,42
31.24167,41
31.25000,41
31.25833,40
31.26667,39
31.27500,38
31.28333,38
31.29167,38
31.30000,37
31.30833,37
31.31667,37
31.32500,36
31.33333,36
31.34167,36
31.35000,35
31.35833,34
31.36667,34
31.37500,33
31.38333,32
31.39167,32
31.40000,32
31.40833,31
31.41667,31
31.42500,31
31.43333,31
31.44167,31
31.45000,31
31.45833,30
31.46667,30
31.47500,30
31.48333,30
31.49167,30
31.50000,30
31.50833,30
31.51667,30
31.52500,30
31.53333,30
31.54167,30
31.55000,31
31.55833,31
31.56667,31
31.57500,31
31.58333,32
31.59167,32
31.60000,32
31.60833,32
31.61667,33
31.62500,34
31.63333,34
31.64167,34
31.65000,35
31.65833,36
31.66667,36
31.67500,37
31.68333,37
31.69167,38
31.70000,38
31.70833,39
31.71667,39
31.72500,40
31.73333,41
31.74167,41
31.75000,42
31.75833,43
31.76667,43
31.77500,43
31.78333,44
31.79167,44
31.80000,45
31.80833,46
31.81667,46
31.82500,47
31.83333,47
31.84167,47
31.85000,48
31.85833,48
31.86667,49
31.87500,49
31.88333,49
31.89167,50
31.90000,50
31.90833,50
31.91667,51
31.92500,51
31.93333,51
31.94167,51
31.95000,51
31.95833,51
31.96667,52
31.97500,52
31.98333,52
31.99167,52
32.00000,52
32.00833,52
32.01667,53
32.02500,53
32.03333,54
32.04167,54
32.05000,55
32.05833,56
32.06667,56
32.07500,56
32.08333,56
32.09167,56
32.10000,56
32.10833,56
32.11667,56
32.12500,56
32.13333,57
32.14167,57
32.15000,57
32.15833,57
32.16667,57
32.17500,58
32.18333,58
32.19167,59
32.20000,59
32.20833,60
32.21667,60
32.22500,60
32.23333,60
32.24167,60
32.25000,60
32.25833,60
32.26667,60
32.27500,59
32.28333,60
32.29167,60
32.30000,60
32.30833,60
32.31667,59
32.32500,59
32.33333,59
32.34167,59
32.35000,58
32.35833,58
32.36667,58
32.37500,58
32.38333,58
32.39167,57
32.40000,57
32.40833,56
32.41667,56
32.42500,55
32.43333,55
32.44167,55
32.45000,55
32.45833,54
32.46667,54
32.47500,54
32.48333,53
32.49167,53
32.50000,52
32.50833,52
32.51667,52
32.52500,51
32.53333,51
32.54167,50
32.55000,50
32.55833,49
32.56667,49
32.57500,48
32.58333,48
32.59167,47
32.60000,47
32.60833,47
32.61667,47
32.62500,47
32.63333,47
32.64167,47
32.65000,47
32.65833,46
32.66667,47
32.67500,46
32.68333,46
32.69167,46
32.70000,46
32.70833,46
32.71667,46
32.72500,46
32.73333,46
32.74167,46
32.75000,46
32.75833,46
32.76667,46
32.77500,46
32.78333,46
32.79167,45
32.80000,45
32.80833,45
32.81667,45
32.82500,45
32.83333,45
32.84167,45
32.85000,45
32.85833,46
32.86667,46
32.87500,45
32.88333,45
32.89167,45
32.90000,45
32.90833,45
32.91667,45
32.92500,45
32.93333,45
32.94167,45
32.95000,44
32.95833,44
32.96667,44
32.97500,44
32.98333,43
32.99167,44
33.00000,44
33.00833,44
33.01667,43
33.02500,43
33.03333,43
33.04167,43
33.05000,43
33.05833,42
33.06667,42
33.07500,41
33.08333,41
33.09167,40
33.10000,40
33.10833,40
33.11667,40
33.12500,40
33.13333,40
33.14167,40
33.15000,40
33.15833,40
33.16667,40
33.17500,40
33.18333,39
33.19167,39
33.20000,39
33.20833,39
33.21667,39
33.22500,39
33.23333,39
33.24167,39
33.25000,39
33.25833,39
33.26667,39
33.27500,39
33.28333,38
33.29167,38
33.30000,38
33.30833,38
33.31667,38
33.32500,38
33.33333,38
33.34167,38
33.35000,38
33.35833,37
33.36667,37
33.37500,37
33.38333,36
33.39167,36
33.40000,36
33.40833,37
33.41667,37
33.42500,37
33.43333,37
33.44167,37
33.45000,37
33.45833,37
33.46667,37
33.47500,38
33.48333,38
33.49167,38
33.50000,38
33.50833,38
33.51667,38
33.52500,38
33.53333,38
33.54167,39
33.55000,39
33.55833,39
33.56667,38
33.57500,38
33.58333,39
33.59167,39
33.60000,39
33.60833,39
33.61667,39
33.62500,39
33.63333,40
33.64167,40
33.65000,40
33.65833,40
33.66667,40
33.67500,40
33.68333,40
33.69167,41
33.70000,41
33.70833,41
33.71667,41
33.72500,41
33.73333,41
33.74167,41
33.75000,41
33.75833,41
33.76667,41
33.77500,41
33.78333,41
33.79167,41
33.80000,41
33.80833,42
33.81667,42
33.82500,42
33.83333,42
33.84167,42
33.85000,42
33.85833,42
33.86667,42
33.87500,42
33.88333,42
33.89167,42
33.90000,42
33.90833,42
33.91667,42
33.92500,42
33.93333,42
33.94167,42
33.95000,42
33.95833,41
33.96667,42
33.97500,42
33.98333,43
33.99167,43
34.00000,43
34.00833,43
34.01667,43
34.02500,43
34.03333,44
34.04167,44
34.05000,44
34.05833,44
34.06667,44
34.07500,44
34.08333,44
34.09167,44
34.10000,44
34.10833,44
34.11667,44
34.12500,44
34.13333,44
34.14167,44
34.15000,44
34.15833,44
34.16667,44
34.17500,44
34.18333,44
34.19167,44
34.20000,44
34.20833,45
34.21667,45
34.22500,45
34.23333,45
34.24167,45
34.25000,45
34.25833,45
34.26667,45
34.27500,45
34.28333,45
34.29167,45
34.30000,44
34.30833,44
34.31667,45
34.32500,45
34.33333,46
34.34167,46
34.35000,46
34.35833,47
34.36667,47
34.37500,47
34.38333,47
34.39167,47
34.40000,48
34.40833,48
34.41667,49
34.42500,48
34.43333,49
34.44167,49
34.45000,49
34.45833,50
34.46667,50
34.47500,51
34.48333,51
34.49167,51
34.50000,51
34.50833,51
34.51667,51
34.52500,52
34.53333,52
34.54167,52
34.55000,52
34.55833,52
34.56667,53
34.57500,53
34.58333,54
34.59167,55
34.60000,55
34.60833,56
34.61667,56
34.62500,57
34.63333,57
34.64167,57
34.65000,57
34.65833,57
34.66667,57
34.67500,57
34.68333,57
34.69167,57
34.70000,57
34.70833,58
34.71667,58
34.72500,58
34.73333,58
34.74167,58
34.75000,58
34.75833,58
34.76667,58
34.77500,58
34.78333,58
34.79167,58
34.80000,58
34.80833,58
34.81667,58
34.82500,58
34.83333,58
34.84167,59
34.85000,59
34.85833,59
34.86667,59
34.87500,58
34.88333,58
34.89167,58
34.90000,58
34.90833,57
34.91667,57
34.92500,56
34.93333,56
34.94167,56
34.95000,56
34.95833,56
34.96667,56
34.97500,56
34.98333,55
34.99167,55
35.00000,55
35.00833,54
35.01667,53
35.02500,53
35.03333,53
35.04167,53
35.05000,52
35.05833,52
35.06667,51
35.07500,50
35.08333,50
35.09167,50
35.10000,49
35.10833,49
35.11667,49
35.12500,48
35.13333,48
35.14167,48
35.15000,47
35.15833,47
35.16667,47
35.17500,46
35.18333,46
35.19167,45
35.20000,45
35.20833,45
35.21667,45
35.22500,44
35.23333,43
35.24167,43
35.25000,43
35.25833,42
35.26667,42
35.27500,42
35.28333,42
35.29167,41
35.30000,41
35.30833,41
35.31667,41
35.32500,41
35.33333,41
35.34167,41
35.35000,41
35.35833,41
35.36667,40
35.37500,40
35.38333,40
35.39167,39
35.40000,39
35.40833,40
35.41667,40
35.42500,40
35.43333,40
35.44167,40
35.45000,40
35.45833,40
35.46667,40
35.47500,40
35.48333,40
35.49167,41
35.50000,41
35.50833,42
35.51667,42
35.52500,42
35.53333,42
35.54167,42
35.55000,42
35.55833,43
35.56667,43
35.57500,44
35.58333,43
35.59167,44
35.60000,44
35.60833,44
35.61667,44
35.62500,45
35.63333,45
35.64167,45
35.65000,45
35.65833,45
35.66667,46
35.67500,46
35.68333,46
35.69167,46
35.70000,46
35.70833,46
35.71667,46
35.72500,45
35.73333,45
35.74167,45
35.75000,45
35.75833,45
35.76667,45
35.77500,44
35.78333,44
35.79167,44
35.80000,44
35.80833,44
35.81667,43
35.82500,43
35.83333,42
35.84167,42
35.85000,42
35.85833,41
35.86667,41
35.87500,41
35.88333,40
35.89167,40
35.90000,39
35.90833,39
35.91667,38
35.92500,38
35.93333,37
35.94167,37
35.95000,37
35.95833,37
35.96667,36
35.97500,36
35.98333,35
35.99167,35
36.00000,34
36.00833,34
36.01667,34
36.02500,34
36.03333,34
36.04167,34
36.05000,34
36.05833,33
36.06667,33
36.07500,33
36.08333,33
36.09167,33
36.10000,33
36.10833,33
36.11667,33
36.12500,33
36.13333,32
36.14167,32
36.15000,32
36.15833,32
36.16667,32
36.17500,33
36.18333,33
36.19167,33
36.20000,32
36.20833,32
36.21667,33
36.22500,33
36.23333,33
36.24167,33
36.25000,33
36.25833,33
36.26667,34
36.27500,35
36.28333,35
36.29167,35
36.30000,36
36.30833,36
36.31667,36
36.32500,37
36.33333,38
36.34167,38
36.35000,39
36.35833,40
36.36667,40
36.37500,40
36.38333,40
36.39167,41
36.40000,41
36.40833,42
36.41667,42
36.42500,43
36.43333,43
36.44167,44
36.45000,45
36.45833,45
36.46667,46
36.47500,46
36.48333,47
36.49167,47
36.50000,48
36.50833,49
36.51667,49
36.52500,50
36.53333,51
36.54167,52
36.55000,52
36.55833,53
36.56667,54
36.57500,54
36.58333,54
36.59167,55
36.60000,56
36.60833,56
36.61667,57
36.62500,57
36.63333,58
36.64167,58
36.65000,59
36.65833,59
36.66667,60
36.67500,60
36.68333,61
36.69167,61
36.70000,61
36.70833,62
36.71667,62
36.72500,62
36.73333,63
36.74167,63
36.75000,63
36.75833,64
36.76667,65
36.77500,65
36.78333,65
36.79167,65
36.80000,65
36.80833,65
36.81667,66
36.82500,66
36.83333,66
36.84167,66
36.85000,66
36.85833,66
36.86667,66
36.87500,66
36.88333,65
36.89167,65
36.90000,65
36.90833,65
36.91667,65
36.92500,64
36.93333,64
36.94167,64
36.95000,63
36.95833,63
36.96667,63
36.97500,62
36.98333,62
36.99167,61
37.00000,61
37.00833,60
37.01667,60
37.02500,59
37.03333,59
37.04167,59
37.05000,58
37.05833,58
37.06667,58
37.07500,58
37.08333,57
37.09167,57
37.10000,57
37.10833,56
37.11667,56
37.12500,55
37.13333,54
37.14167,54
37.15000,53
37.15833,53
37.16667,53
37.17500,53
37.18333,53
37.19167,53
37.20000,53
37.20833,52
37.21667,52
37.22500,51
37.23333,51
37.24167,51
37.25000,51
37.25833,50
37.26667,50
37.27500,49
37.28333,50
37.29167,50
37.30000,50
37.30833,50
37.31667,50
37.32500,49
37.33333,49
37.34167,48
37.35000,48
37.35833,48
37.36667,48
37.37500,48
37.38333,48
37.39167,48
37.40000,48
37.40833,48
37.41667,49
37.42500,49
37.43333,50
37.44167,50
37.45000,50
37.45833,50
37.46667,50
37.47500,50
37.48333,50
37.49167,50
37.50000,50
37.50833,51
37.51667,51
37.52500,51
37.53333,51
37.54167,51
37.55000,52
37.55833,52
37.56667,52
37.57500,52
37.58333,52
37.59167,52
37.60000,52
37.60833,52
37.61667,52
37.62500,52
37.63333,52
37.64167,52
37.65000,52
37.65833,52
37.66667,52
37.67500,52
37.68333,52
37.69167,52
37.70000,52
37.70833,53
37.71667,52
37.72500,52
37.73333,52
37.74167,52
37.75000,52
37.75833,52
37.76667,52
37.77500,51
37.78333,51
37.79167,51
37.80000,50
37.80833,50
37.81667,50
37.82500,50
37.83333,50
37.84167,50
37.85000,50
37.85833,50
37.86667,49
37.87500,49
37.88333,48
37.89167,48
37.90000,47
37.90833,46
37.91667,46
37.92500,45
37.93333,45
37.94167,46
37.95000,46
37.95833,45
37.96667,45
37.97500,45
37.98333,45
37.99167,44
38.00000,44
38.00833,44
38.01667,43
38.02500,43
38.03333,43
38.04167,43
38.05000,43
38.05833,43
38.06667,44
38.07500,44
38.08333,45
38.09167,45
38.10000,45
38.10833,45
38.11667,45
38.12500,45
38.13333,46
38.14167,46
38.15000,47
38.15833,47
38.16667,47
38.17500,47
38.18333,48
38.19167,48
38.20000,49
38.20833,49
38.21667,50
38.22500,50
38.23333,51
38.24167,51
38.25000,52
38.25833,53
38.26667,54
38.27500,54
38.28333,55
38.29167,55
38.30000,56
38.30833,56
38.31667,56
38.32500,57
38.33333,57
38.34167,57
38.35000,58
38.35833,58
38.36667,58
38.37500,59
38.38333,59
38.39167,59
38.40000,59
38.40833,59
38.41667,59
38.42500,59
38.43333,59
38.44167,59
38.45000,59
38.45833,59
38.46667,59
38.47500,60
38.48333,60
38.49167,59
38.50000,59
38.50833,58
38.51667,57
38.52500,57
38.53333,57
38.54167,56
38.55000,56
38.55833,55
38.56667,55
38.57500,55
38.58333,54
38.59167,53
38.60000,53
38.60833,52
38.61667,51
38.62500,50
38.63333,50
38.64167,49
38.65000,49
38.65833,48
38.66667,48
38.67500,48
38.68333,47
38.69167,47
38.70000,46
38.70833,46
38.71667,46
38.72500,46
38.73333,45
38.74167,44
38.75000,44
38.75833,44
38.76667,43
38.77500,43
38.78333,43
38.79167,43
38.80000,42
38.80833,42
38.81667,41
38.82500,41
38.83333,41
38.84167,42
38.85000,42
38.85833,42
38.86667,42
38.87500,42
38.88333,42
38.89167,42
38.90000,42
38.90833,42
38.91667,42
38.92500,42
38.93333,43
38.94167,43
38.95000,43
38.95833,43
38.96667,44
38.97500,44
38.98333,44
38.99167,44
39.00000,44
39.00833,45
39.01667,45
39.02500,45
39.03333,45
39.04167,45
39.05000,46
39.05833,46
39.06667,46
39.07500,45
39.08333,46
39.09167,46
39.10000,46
39.10833,47
39.11667,47
39.12500,47
39.13333,48
39.14167,48
39.15000,48
39.15833,49
39.16667,49
39.17500,49
39.18333,49
39.19167,50
39.20000,50
39.20833,51
39.21667,51
39.22500,51
39.23333,51
39.24167,52
39.25000,52
39.25833,52
39.26667,53
39.27500,53
39.28333,54
39.29167,54
39.30000,54
39.30833,54
39.31667,54
39.32500,54
39.33333,55
39.34167,55
39.35000,55
39.35833,56
39.36667,56
39.37500,56
39.38333,56
39.39167,57
39.40000,57
39.40833,57
39.41667,57
39.42500,57
39.43333,57
39.44167,58
39.45000,58
39.45833,59
39.46667,59
39.47500,59
39.48333,59
39.49167,59
39.50000,59
39.50833,59
39.51667,59
39.52500,59
39.53333,59
39.54167,59
39.55000,59
39.55833,59
39.56667,59
39.57500,60
39.58333,60
39.59167,60
39.60000,60
39.60833,60
39.61667,60
39.62500,59
39.63333,59
39.64167,59
39.65000,59
39.65833,59
39.66667,59
39.67500,58
39.68333,58
39.69167,58
39.70000,58
39.70833,57
39.71667,57
39.72500,57
39.73333,57
39.74167,58
39.75000,58
39.75833,57
39.76667,57
39.77500,57
39.78333,57
39.79167,57
39.80000,57
39.80833,57
39.81667,56
39.82500,56
39.83333,55
39.84167,55
39.85000,55
39.85833,55
39.86667,55
39.87500,55
39.88333,55
39.89167,55
39.90000,55
39.90833,55
39.91667,55
39.92500,55
39.93333,55
39.94167,55
39.95000,55
39.95833,54
39.96667,54
39.97500,54
39.98333,54
39.99167,53
40.00000,53

