[Header]
Application Name,LabSolutions
Version,5.97 SP1
Data File Name,C:\Users\cremerlab\Desktop\griffin\2021-04-05_NC_DM_calibration\2021-04-05_NC_DM_2.5mM_calibration_452021_002_024.lcd
Output Date,4/6/2021
Output Time,9:53:41 AM

[File Information]
Type,Data File
Generated,4/6/2021 9:13:21 AM
Generated by,System Administrator
Modified,4/6/2021 9:53:41 AM
Modified by,System Administrator

[Sample Information]
Operator Name,System Administrator
Acquired,4/6/2021 9:13:40 AM
Sample Type,1:Standard
Level,2
Sample Name,2021-04-05_DM_glucose_glycerol_acetate_0.3mM
Sample ID,002
ISTD Amount1,1
ISTD Amount2,1
ISTD Amount3,1
ISTD Amount4,1
ISTD Amount5,1
ISTD Amount6,1
ISTD Amount7,1
ISTD Amount8,1
ISTD Amount9,1
ISTD Amount10,1
ISTD Amount11,1
ISTD Amount12,1
ISTD Amount13,1
ISTD Amount14,1
ISTD Amount15,1
ISTD Amount16,1
ISTD Amount17,1
ISTD Amount18,1
ISTD Amount19,1
ISTD Amount20,1
ISTD Amount21,1
ISTD Amount22,1
ISTD Amount23,1
ISTD Amount24,1
ISTD Amount25,1
ISTD Amount26,1
ISTD Amount27,1
ISTD Amount28,1
ISTD Amount29,1
ISTD Amount30,1
ISTD Amount31,1
ISTD Amount32,1
Sample Amount,1
Dilution Factor,1
Vial#,29
Injection Volume,20

[Original Files]
Data File,C:\Users\cremerlab\Desktop\griffin\2021-04-05_NC_DM_calibration\2021-04-05_NC_DM_2.5mM_calibration_452021_002_024.lcd
Method File,C:\Users\cremerlab\Desktop\griffin\2021-04-05_NC_DM_calibration\2021-04-05_2.5mM_mobile.lcm
Batch File,C:\Users\cremerlab\Desktop\griffin\2021-04-05_NC_DM_calibration\2021-04-05_NC_DM_2.5mM_calibration.lcb
Report Format File,c:\LabSolutions\System\DEFAULT.lsr

[File Description]


[Configuration]
Instrument Name,HPLC-PC-Instrument1
Instrument #,1
Line #,1
# of Detectors,2
Detector ID,Detector A,Detector B
Detector Name,Detector A,Detector B
# of Channels,1,1

[Peak Table(Detector A)]
# of Peaks,0

[Peak Table(Detector B)]
# of Peaks,6
Peak#,R.Time,I.Time,F.Time,Area,Height,A/H,Conc.,Mark,ID#,Name,k',Plate #,Plate Ht.,Tailing,Resolution,Sep.Factor,Area Ratio,Height Ratio,Conc. %,Norm Conc.
1,10.890,10.442,12.017,241680,14383,16.803,0.000,   ,,,0.000,9518,15.759,1.035,0.000,0.000,0,0,0.000,0.000
2,13.973,12.583,14.233,1820179,47578,38.257,0.000,   ,,,0.283,3081,48.692,0.000,4.242,0.000,0,0,0.000,0.000
3,14.337,14.233,15.033,170732,10359,16.482,0.000, V ,,,0.317,3743,40.071,0.000,0.375,1.118,0,0,0.000,0.000
4,15.675,15.233,16.292,34835,1489,23.395,0.000,   ,,,0.439,9942,15.087,1.142,1.708,1.388,0,0,0.000,0.000
5,22.066,21.592,22.717,10141,375,27.070,0.000,   ,,,1.026,14848,10.102,1.140,9.446,2.336,0,0,0.000,0.000
6,25.050,24.617,25.617,3779,135,28.009,0.000,   ,,,1.300,17116,8.764,1.102,4.005,1.267,0,0,0.000,0.000

[LC Chromatogram(Detector B-Ch1)]
Interval(msec),500
# of Points,4801
Start Time(min),0.000
End Time(min),40.000
Intensity Units,mV
Intensity Multiplier,0.001
R.Time (min),Intensity
0.00000,-11
0.00833,-11
0.01667,-0
0.02500,-0
0.03333,-1
0.04167,-2
0.05000,-2
0.05833,-3
0.06667,-3
0.07500,-4
0.08333,-4
0.09167,-4
0.10000,-5
0.10833,-5
0.11667,-6
0.12500,-6
0.13333,-7
0.14167,-7
0.15000,-7
0.15833,-7
0.16667,-7
0.17500,-7
0.18333,-7
0.19167,-8
0.20000,-8
0.20833,-8
0.21667,-8
0.22500,-7
0.23333,-7
0.24167,-7
0.25000,-7
0.25833,-7
0.26667,-7
0.27500,-7
0.28333,-7
0.29167,-7
0.30000,-7
0.30833,-7
0.31667,-7
0.32500,-7
0.33333,-6
0.34167,-6
0.35000,-5
0.35833,-5
0.36667,-4
0.37500,-4
0.38333,-3
0.39167,-3
0.40000,-3
0.40833,-3
0.41667,-3
0.42500,-2
0.43333,-2
0.44167,-2
0.45000,-2
0.45833,-2
0.46667,-2
0.47500,-1
0.48333,-1
0.49167,-1
0.50000,-1
0.50833,-0
0.51667,-0
0.52500,-0
0.53333,-0
0.54167,0
0.55000,0
0.55833,0
0.56667,1
0.57500,1
0.58333,0
0.59167,0
0.60000,1
0.60833,1
0.61667,1
0.62500,1
0.63333,1
0.64167,2
0.65000,2
0.65833,2
0.66667,3
0.67500,3
0.68333,3
0.69167,3
0.70000,3
0.70833,4
0.71667,4
0.72500,4
0.73333,5
0.74167,6
0.75000,6
0.75833,7
0.76667,7
0.77500,8
0.78333,9
0.79167,9
0.80000,9
0.80833,10
0.81667,10
0.82500,11
0.83333,11
0.84167,11
0.85000,12
0.85833,12
0.86667,12
0.87500,12
0.88333,12
0.89167,13
0.90000,13
0.90833,14
0.91667,14
0.92500,15
0.93333,15
0.94167,16
0.95000,16
0.95833,16
0.96667,16
0.97500,16
0.98333,16
0.99167,16
1.00000,16
1.00833,16
1.01667,15
1.02500,15
1.03333,15
1.04167,15
1.05000,15
1.05833,15
1.06667,15
1.07500,15
1.08333,15
1.09167,15
1.10000,14
1.10833,14
1.11667,13
1.12500,13
1.13333,12
1.14167,12
1.15000,11
1.15833,11
1.16667,10
1.17500,10
1.18333,10
1.19167,10
1.20000,9
1.20833,9
1.21667,9
1.22500,9
1.23333,8
1.24167,8
1.25000,8
1.25833,7
1.26667,6
1.27500,6
1.28333,5
1.29167,5
1.30000,5
1.30833,5
1.31667,5
1.32500,5
1.33333,5
1.34167,5
1.35000,4
1.35833,4
1.36667,4
1.37500,4
1.38333,4
1.39167,4
1.40000,4
1.40833,3
1.41667,3
1.42500,3
1.43333,3
1.44167,3
1.45000,3
1.45833,3
1.46667,3
1.47500,2
1.48333,2
1.49167,2
1.50000,3
1.50833,3
1.51667,3
1.52500,3
1.53333,4
1.54167,4
1.55000,4
1.55833,3
1.56667,3
1.57500,3
1.58333,3
1.59167,3
1.60000,3
1.60833,3
1.61667,3
1.62500,3
1.63333,3
1.64167,3
1.65000,3
1.65833,3
1.66667,4
1.67500,4
1.68333,4
1.69167,4
1.70000,4
1.70833,4
1.71667,4
1.72500,4
1.73333,5
1.74167,5
1.75000,5
1.75833,5
1.76667,5
1.77500,5
1.78333,6
1.79167,6
1.80000,7
1.80833,7
1.81667,7
1.82500,7
1.83333,7
1.84167,7
1.85000,7
1.85833,8
1.86667,8
1.87500,8
1.88333,8
1.89167,8
1.90000,8
1.90833,8
1.91667,8
1.92500,8
1.93333,8
1.94167,8
1.95000,7
1.95833,7
1.96667,7
1.97500,7
1.98333,8
1.99167,8
2.00000,8
2.00833,8
2.01667,8
2.02500,7
2.03333,7
2.04167,7
2.05000,6
2.05833,6
2.06667,6
2.07500,6
2.08333,6
2.09167,5
2.10000,6
2.10833,6
2.11667,5
2.12500,5
2.13333,5
2.14167,5
2.15000,5
2.15833,5
2.16667,4
2.17500,4
2.18333,4
2.19167,4
2.20000,4
2.20833,4
2.21667,4
2.22500,4
2.23333,3
2.24167,3
2.25000,3
2.25833,3
2.26667,4
2.27500,4
2.28333,4
2.29167,4
2.30000,4
2.30833,4
2.31667,4
2.32500,5
2.33333,5
2.34167,5
2.35000,5
2.35833,5
2.36667,5
2.37500,5
2.38333,5
2.39167,5
2.40000,5
2.40833,5
2.41667,5
2.42500,5
2.43333,5
2.44167,5
2.45000,5
2.45833,5
2.46667,4
2.47500,4
2.48333,4
2.49167,5
2.50000,4
2.50833,4
2.51667,4
2.52500,4
2.53333,4
2.54167,4
2.55000,4
2.55833,3
2.56667,3
2.57500,3
2.58333,2
2.59167,2
2.60000,1
2.60833,1
2.61667,1
2.62500,1
2.63333,1
2.64167,1
2.65000,0
2.65833,0
2.66667,-0
2.67500,-1
2.68333,-1
2.69167,-1
2.70000,-1
2.70833,-1
2.71667,-2
2.72500,-2
2.73333,-3
2.74167,-4
2.75000,-4
2.75833,-5
2.76667,-6
2.77500,-6
2.78333,-7
2.79167,-7
2.80000,-7
2.80833,-7
2.81667,-7
2.82500,-7
2.83333,-7
2.84167,-7
2.85000,-7
2.85833,-7
2.86667,-7
2.87500,-7
2.88333,-7
2.89167,-7
2.90000,-7
2.90833,-7
2.91667,-7
2.92500,-7
2.93333,-6
2.94167,-6
2.95000,-6
2.95833,-6
2.96667,-5
2.97500,-5
2.98333,-5
2.99167,-5
3.00000,-5
3.00833,-5
3.01667,-4
3.02500,-4
3.03333,-4
3.04167,-3
3.05000,-2
3.05833,-2
3.06667,-1
3.07500,0
3.08333,1
3.09167,1
3.10000,1
3.10833,2
3.11667,2
3.12500,3
3.13333,4
3.14167,4
3.15000,5
3.15833,5
3.16667,6
3.17500,6
3.18333,7
3.19167,7
3.20000,8
3.20833,8
3.21667,8
3.22500,9
3.23333,9
3.24167,10
3.25000,10
3.25833,11
3.26667,11
3.27500,11
3.28333,12
3.29167,12
3.30000,12
3.30833,12
3.31667,12
3.32500,13
3.33333,13
3.34167,13
3.35000,13
3.35833,14
3.36667,14
3.37500,15
3.38333,14
3.39167,14
3.40000,14
3.40833,14
3.41667,13
3.42500,13
3.43333,13
3.44167,13
3.45000,13
3.45833,13
3.46667,13
3.47500,14
3.48333,14
3.49167,14
3.50000,14
3.50833,14
3.51667,13
3.52500,13
3.53333,13
3.54167,12
3.55000,12
3.55833,11
3.56667,11
3.57500,11
3.58333,11
3.59167,11
3.60000,11
3.60833,11
3.61667,11
3.62500,11
3.63333,11
3.64167,11
3.65000,11
3.65833,11
3.66667,11
3.67500,11
3.68333,11
3.69167,10
3.70000,10
3.70833,10
3.71667,10
3.72500,10
3.73333,10
3.74167,10
3.75000,10
3.75833,10
3.76667,9
3.77500,9
3.78333,9
3.79167,8
3.80000,8
3.80833,8
3.81667,8
3.82500,8
3.83333,8
3.84167,8
3.85000,8
3.85833,7
3.86667,7
3.87500,7
3.88333,7
3.89167,6
3.90000,6
3.90833,6
3.91667,5
3.92500,5
3.93333,5
3.94167,5
3.95000,5
3.95833,5
3.96667,5
3.97500,5
3.98333,5
3.99167,5
4.00000,4
4.00833,4
4.01667,4
4.02500,4
4.03333,3
4.04167,3
4.05000,3
4.05833,3
4.06667,3
4.07500,3
4.08333,2
4.09167,2
4.10000,2
4.10833,2
4.11667,2
4.12500,2
4.13333,1
4.14167,1
4.15000,1
4.15833,0
4.16667,0
4.17500,-0
4.18333,-0
4.19167,-1
4.20000,-0
4.20833,-0
4.21667,-1
4.22500,-1
4.23333,-1
4.24167,-1
4.25000,-1
4.25833,-1
4.26667,-1
4.27500,-1
4.28333,-1
4.29167,-1
4.30000,-2
4.30833,-2
4.31667,-2
4.32500,-3
4.33333,-3
4.34167,-2
4.35000,-2
4.35833,-3
4.36667,-3
4.37500,-3
4.38333,-3
4.39167,-3
4.40000,-3
4.40833,-4
4.41667,-4
4.42500,-4
4.43333,-4
4.44167,-4
4.45000,-3
4.45833,-3
4.46667,-3
4.47500,-3
4.48333,-3
4.49167,-3
4.50000,-3
4.50833,-3
4.51667,-3
4.52500,-3
4.53333,-3
4.54167,-3
4.55000,-2
4.55833,-2
4.56667,-2
4.57500,-2
4.58333,-1
4.59167,-1
4.60000,-1
4.60833,-1
4.61667,-0
4.62500,-0
4.63333,0
4.64167,0
4.65000,1
4.65833,2
4.66667,2
4.67500,2
4.68333,3
4.69167,3
4.70000,3
4.70833,4
4.71667,4
4.72500,5
4.73333,5
4.74167,6
4.75000,6
4.75833,6
4.76667,6
4.77500,7
4.78333,7
4.79167,7
4.80000,8
4.80833,8
4.81667,8
4.82500,8
4.83333,8
4.84167,8
4.85000,9
4.85833,9
4.86667,9
4.87500,9
4.88333,9
4.89167,9
4.90000,9
4.90833,9
4.91667,9
4.92500,9
4.93333,9
4.94167,9
4.95000,9
4.95833,9
4.96667,8
4.97500,8
4.98333,8
4.99167,8
5.00000,7
5.00833,7
5.01667,6
5.02500,6
5.03333,6
5.04167,6
5.05000,5
5.05833,5
5.06667,4
5.07500,4
5.08333,4
5.09167,4
5.10000,3
5.10833,3
5.11667,2
5.12500,2
5.13333,2
5.14167,2
5.15000,2
5.15833,2
5.16667,1
5.17500,1
5.18333,1
5.19167,1
5.20000,0
5.20833,0
5.21667,0
5.22500,0
5.23333,0
5.24167,0
5.25000,-0
5.25833,-0
5.26667,-0
5.27500,-0
5.28333,0
5.29167,0
5.30000,-0
5.30833,0
5.31667,0
5.32500,0
5.33333,0
5.34167,1
5.35000,1
5.35833,1
5.36667,1
5.37500,1
5.38333,1
5.39167,1
5.40000,1
5.40833,1
5.41667,1
5.42500,2
5.43333,2
5.44167,2
5.45000,2
5.45833,3
5.46667,3
5.47500,3
5.48333,3
5.49167,3
5.50000,4
5.50833,4
5.51667,4
5.52500,4
5.53333,4
5.54167,5
5.55000,4
5.55833,4
5.56667,5
5.57500,5
5.58333,5
5.59167,5
5.60000,5
5.60833,5
5.61667,5
5.62500,5
5.63333,6
5.64167,6
5.65000,6
5.65833,6
5.66667,5
5.67500,5
5.68333,5
5.69167,5
5.70000,5
5.70833,5
5.71667,5
5.72500,4
5.73333,4
5.74167,3
5.75000,3
5.75833,4
5.76667,4
5.77500,3
5.78333,3
5.79167,3
5.80000,3
5.80833,3
5.81667,3
5.82500,3
5.83333,3
5.84167,3
5.85000,3
5.85833,3
5.86667,3
5.87500,3
5.88333,3
5.89167,4
5.90000,4
5.90833,4
5.91667,4
5.92500,3
5.93333,3
5.94167,3
5.95000,3
5.95833,4
5.96667,3
5.97500,3
5.98333,4
5.99167,4
6.00000,4
6.00833,4
6.01667,5
6.02500,5
6.03333,6
6.04167,7
6.05000,7
6.05833,8
6.06667,8
6.07500,9
6.08333,9
6.09167,10
6.10000,11
6.10833,11
6.11667,11
6.12500,11
6.13333,12
6.14167,13
6.15000,13
6.15833,14
6.16667,14
6.17500,15
6.18333,15
6.19167,15
6.20000,15
6.20833,16
6.21667,16
6.22500,17
6.23333,17
6.24167,17
6.25000,18
6.25833,18
6.26667,18
6.27500,18
6.28333,18
6.29167,18
6.30000,18
6.30833,18
6.31667,18
6.32500,19
6.33333,19
6.34167,19
6.35000,19
6.35833,19
6.36667,19
6.37500,18
6.38333,18
6.39167,17
6.40000,17
6.40833,17
6.41667,17
6.42500,17
6.43333,16
6.44167,16
6.45000,15
6.45833,15
6.46667,15
6.47500,15
6.48333,15
6.49167,15
6.50000,14
6.50833,14
6.51667,14
6.52500,13
6.53333,13
6.54167,13
6.55000,13
6.55833,12
6.56667,12
6.57500,11
6.58333,11
6.59167,10
6.60000,10
6.60833,10
6.61667,10
6.62500,10
6.63333,10
6.64167,10
6.65000,11
6.65833,11
6.66667,11
6.67500,11
6.68333,10
6.69167,10
6.70000,10
6.70833,10
6.71667,11
6.72500,11
6.73333,12
6.74167,12
6.75000,12
6.75833,11
6.76667,11
6.77500,12
6.78333,12
6.79167,13
6.80000,13
6.80833,13
6.81667,14
6.82500,14
6.83333,14
6.84167,14
6.85000,15
6.85833,16
6.86667,16
6.87500,17
6.88333,17
6.89167,17
6.90000,17
6.90833,17
6.91667,17
6.92500,17
6.93333,17
6.94167,18
6.95000,18
6.95833,18
6.96667,18
6.97500,18
6.98333,19
6.99167,19
7.00000,19
7.00833,19
7.01667,19
7.02500,19
7.03333,19
7.04167,19
7.05000,19
7.05833,19
7.06667,18
7.07500,18
7.08333,18
7.09167,19
7.10000,19
7.10833,19
7.11667,19
7.12500,19
7.13333,19
7.14167,19
7.15000,19
7.15833,19
7.16667,19
7.17500,19
7.18333,19
7.19167,19
7.20000,18
7.20833,18
7.21667,18
7.22500,18
7.23333,18
7.24167,18
7.25000,18
7.25833,18
7.26667,18
7.27500,17
7.28333,17
7.29167,17
7.30000,17
7.30833,17
7.31667,17
7.32500,16
7.33333,16
7.34167,16
7.35000,15
7.35833,15
7.36667,14
7.37500,14
7.38333,14
7.39167,14
7.40000,14
7.40833,14
7.41667,13
7.42500,13
7.43333,13
7.44167,13
7.45000,13
7.45833,13
7.46667,13
7.47500,13
7.48333,13
7.49167,13
7.50000,12
7.50833,12
7.51667,12
7.52500,11
7.53333,11
7.54167,11
7.55000,11
7.55833,10
7.56667,10
7.57500,10
7.58333,10
7.59167,9
7.60000,8
7.60833,8
7.61667,8
7.62500,8
7.63333,8
7.64167,8
7.65000,7
7.65833,7
7.66667,6
7.67500,6
7.68333,6
7.69167,5
7.70000,5
7.70833,5
7.71667,4
7.72500,4
7.73333,4
7.74167,4
7.75000,3
7.75833,3
7.76667,3
7.77500,3
7.78333,3
7.79167,2
7.80000,2
7.80833,2
7.81667,1
7.82500,1
7.83333,1
7.84167,1
7.85000,1
7.85833,2
7.86667,2
7.87500,2
7.88333,2
7.89167,2
7.90000,2
7.90833,3
7.91667,3
7.92500,2
7.93333,2
7.94167,2
7.95000,2
7.95833,3
7.96667,3
7.97500,3
7.98333,3
7.99167,3
8.00000,3
8.00833,4
8.01667,4
8.02500,4
8.03333,4
8.04167,5
8.05000,5
8.05833,5
8.06667,4
8.07500,4
8.08333,4
8.09167,5
8.10000,5
8.10833,5
8.11667,5
8.12500,5
8.13333,5
8.14167,4
8.15000,4
8.15833,4
8.16667,4
8.17500,4
8.18333,4
8.19167,4
8.20000,4
8.20833,4
8.21667,3
8.22500,3
8.23333,3
8.24167,3
8.25000,2
8.25833,3
8.26667,3
8.27500,3
8.28333,3
8.29167,3
8.30000,3
8.30833,3
8.31667,3
8.32500,3
8.33333,3
8.34167,3
8.35000,3
8.35833,3
8.36667,3
8.37500,3
8.38333,3
8.39167,4
8.40000,5
8.40833,5
8.41667,5
8.42500,5
8.43333,5
8.44167,5
8.45000,5
8.45833,6
8.46667,6
8.47500,6
8.48333,7
8.49167,7
8.50000,8
8.50833,8
8.51667,9
8.52500,9
8.53333,9
8.54167,10
8.55000,10
8.55833,11
8.56667,11
8.57500,11
8.58333,12
8.59167,13
8.60000,13
8.60833,14
8.61667,14
8.62500,14
8.63333,14
8.64167,15
8.65000,16
8.65833,16
8.66667,16
8.67500,16
8.68333,16
8.69167,17
8.70000,17
8.70833,17
8.71667,17
8.72500,17
8.73333,17
8.74167,17
8.75000,17
8.75833,17
8.76667,17
8.77500,16
8.78333,16
8.79167,15
8.80000,15
8.80833,15
8.81667,15
8.82500,15
8.83333,15
8.84167,14
8.85000,14
8.85833,13
8.86667,12
8.87500,11
8.88333,11
8.89167,11
8.90000,10
8.90833,9
8.91667,8
8.92500,8
8.93333,7
8.94167,6
8.95000,5
8.95833,5
8.96667,4
8.97500,4
8.98333,4
8.99167,4
9.00000,3
9.00833,3
9.01667,3
9.02500,2
9.03333,1
9.04167,1
9.05000,-0
9.05833,-1
9.06667,-1
9.07500,-2
9.08333,-2
9.09167,-2
9.10000,-2
9.10833,-3
9.11667,-3
9.12500,-3
9.13333,-3
9.14167,-4
9.15000,-5
9.15833,-5
9.16667,-6
9.17500,-6
9.18333,-6
9.19167,-6
9.20000,-6
9.20833,-6
9.21667,-6
9.22500,-6
9.23333,-6
9.24167,-6
9.25000,-6
9.25833,-6
9.26667,-6
9.27500,-6
9.28333,-6
9.29167,-6
9.30000,-6
9.30833,-6
9.31667,-6
9.32500,-6
9.33333,-6
9.34167,-6
9.35000,-6
9.35833,-6
9.36667,-5
9.37500,-5
9.38333,-5
9.39167,-5
9.40000,-5
9.40833,-5
9.41667,-5
9.42500,-5
9.43333,-5
9.44167,-5
9.45000,-4
9.45833,-5
9.46667,-4
9.47500,-5
9.48333,-5
9.49167,-5
9.50000,-5
9.50833,-5
9.51667,-5
9.52500,-4
9.53333,-4
9.54167,-4
9.55000,-4
9.55833,-3
9.56667,-3
9.57500,-3
9.58333,-4
9.59167,-4
9.60000,-3
9.60833,-3
9.61667,-3
9.62500,-2
9.63333,-2
9.64167,-2
9.65000,-1
9.65833,-1
9.66667,-1
9.67500,-0
9.68333,0
9.69167,1
9.70000,1
9.70833,2
9.71667,2
9.72500,3
9.73333,4
9.74167,4
9.75000,5
9.75833,5
9.76667,6
9.77500,6
9.78333,7
9.79167,7
9.80000,8
9.80833,9
9.81667,10
9.82500,10
9.83333,11
9.84167,12
9.85000,13
9.85833,13
9.86667,14
9.87500,14
9.88333,15
9.89167,16
9.90000,16
9.90833,17
9.91667,17
9.92500,18
9.93333,19
9.94167,19
9.95000,20
9.95833,20
9.96667,21
9.97500,21
9.98333,22
9.99167,22
10.00000,23
10.00833,23
10.01667,23
10.02500,24
10.03333,24
10.04167,24
10.05000,25
10.05833,24
10.06667,25
10.07500,25
10.08333,25
10.09167,26
10.10000,26
10.10833,26
10.11667,26
10.12500,26
10.13333,25
10.14167,25
10.15000,25
10.15833,25
10.16667,25
10.17500,25
10.18333,25
10.19167,25
10.20000,25
10.20833,25
10.21667,25
10.22500,24
10.23333,24
10.24167,24
10.25000,24
10.25833,23
10.26667,23
10.27500,23
10.28333,23
10.29167,23
10.30000,22
10.30833,22
10.31667,22
10.32500,22
10.33333,22
10.34167,21
10.35000,21
10.35833,21
10.36667,21
10.37500,21
10.38333,21
10.39167,21
10.40000,21
10.40833,21
10.41667,21
10.42500,22
10.43333,23
10.44167,24
10.45000,24
10.45833,25
10.46667,26
10.47500,27
10.48333,29
10.49167,33
10.50000,37
10.50833,44
10.51667,53
10.52500,64
10.53333,78
10.54167,97
10.55000,120
10.55833,150
10.56667,187
10.57500,233
10.58333,289
10.59167,358
10.60000,441
10.60833,540
10.61667,657
10.62500,795
10.63333,957
10.64167,1144
10.65000,1358
10.65833,1600
10.66667,1874
10.67500,2180
10.68333,2521
10.69167,2895
10.70000,3305
10.70833,3750
10.71667,4230
10.72500,4742
10.73333,5285
10.74167,5857
10.75000,6453
10.75833,7071
10.76667,7704
10.77500,8349
10.78333,8998
10.79167,9645
10.80000,10283
10.80833,10902
10.81667,11496
10.82500,12056
10.83333,12573
10.84167,13039
10.85000,13448
10.85833,13791
10.86667,14062
10.87500,14256
10.88333,14369
10.89167,14398
10.90000,14342
10.90833,14202
10.91667,13980
10.92500,13679
10.93333,13305
10.94167,12864
10.95000,12365
10.95833,11816
10.96667,11226
10.97500,10604
10.98333,9961
10.99167,9306
11.00000,8649
11.00833,7996
11.01667,7356
11.02500,6734
11.03333,6137
11.04167,5568
11.05000,5030
11.05833,4527
11.06667,4059
11.07500,3625
11.08333,3228
11.09167,2865
11.10000,2535
11.10833,2238
11.11667,1970
11.12500,1730
11.13333,1516
11.14167,1326
11.15000,1158
11.15833,1009
11.16667,879
11.17500,764
11.18333,665
11.19167,578
11.20000,503
11.20833,437
11.21667,380
11.22500,332
11.23333,290
11.24167,254
11.25000,223
11.25833,197
11.26667,175
11.27500,157
11.28333,141
11.29167,128
11.30000,117
11.30833,108
11.31667,100
11.32500,94
11.33333,89
11.34167,84
11.35000,81
11.35833,78
11.36667,76
11.37500,74
11.38333,72
11.39167,70
11.40000,69
11.40833,67
11.41667,66
11.42500,65
11.43333,64
11.44167,63
11.45000,62
11.45833,61
11.46667,60
11.47500,59
11.48333,58
11.49167,57
11.50000,56
11.50833,55
11.51667,54
11.52500,53
11.53333,52
11.54167,50
11.55000,48
11.55833,47
11.56667,46
11.57500,44
11.58333,43
11.59167,42
11.60000,41
11.60833,40
11.61667,39
11.62500,38
11.63333,37
11.64167,36
11.65000,35
11.65833,34
11.66667,33
11.67500,32
11.68333,31
11.69167,30
11.70000,28
11.70833,27
11.71667,26
11.72500,25
11.73333,24
11.74167,23
11.75000,22
11.75833,21
11.76667,20
11.77500,19
11.78333,18
11.79167,17
11.80000,16
11.80833,15
11.81667,14
11.82500,13
11.83333,12
11.84167,11
11.85000,10
11.85833,9
11.86667,8
11.87500,7
11.88333,6
11.89167,5
11.90000,3
11.90833,2
11.91667,1
11.92500,0
11.93333,-0
11.94167,-1
11.95000,-1
11.95833,-2
11.96667,-2
11.97500,-3
11.98333,-3
11.99167,-4
12.00000,-4
12.00833,-5
12.01667,-5
12.02500,-5
12.03333,-5
12.04167,-5
12.05000,-5
12.05833,-5
12.06667,-4
12.07500,-4
12.08333,-4
12.09167,-4
12.10000,-4
12.10833,-4
12.11667,-4
12.12500,-3
12.13333,-3
12.14167,-2
12.15000,-2
12.15833,-1
12.16667,-0
12.17500,0
12.18333,1
12.19167,2
12.20000,2
12.20833,3
12.21667,3
12.22500,4
12.23333,5
12.24167,5
12.25000,6
12.25833,6
12.26667,7
12.27500,8
12.28333,9
12.29167,9
12.30000,10
12.30833,10
12.31667,10
12.32500,11
12.33333,12
12.34167,12
12.35000,13
12.35833,13
12.36667,13
12.37500,14
12.38333,14
12.39167,15
12.40000,15
12.40833,15
12.41667,16
12.42500,16
12.43333,16
12.44167,16
12.45000,17
12.45833,17
12.46667,17
12.47500,17
12.48333,17
12.49167,17
12.50000,18
12.50833,18
12.51667,18
12.52500,18
12.53333,18
12.54167,19
12.55000,19
12.55833,20
12.56667,20
12.57500,21
12.58333,21
12.59167,22
12.60000,24
12.60833,26
12.61667,29
12.62500,32
12.63333,35
12.64167,40
12.65000,46
12.65833,53
12.66667,62
12.67500,73
12.68333,87
12.69167,103
12.70000,121
12.70833,143
12.71667,169
12.72500,198
12.73333,231
12.74167,270
12.75000,314
12.75833,362
12.76667,417
12.77500,477
12.78333,543
12.79167,616
12.80000,695
12.80833,781
12.81667,873
12.82500,972
12.83333,1077
12.84167,1190
12.85000,1310
12.85833,1436
12.86667,1569
12.87500,1708
12.88333,1854
12.89167,2006
12.90000,2163
12.90833,2327
12.91667,2496
12.92500,2671
12.93333,2852
12.94167,3037
12.95000,3228
12.95833,3424
12.96667,3624
12.97500,3829
12.98333,4038
12.99167,4252
13.00000,4469
13.00833,4691
13.01667,4916
13.02500,5145
13.03333,5378
13.04167,5614
13.05000,5854
13.05833,6097
13.06667,6343
13.07500,6593
13.08333,6845
13.09167,7100
13.10000,7358
13.10833,7620
13.11667,7884
13.12500,8151
13.13333,8420
13.14167,8693
13.15000,8968
13.15833,9245
13.16667,9525
13.17500,9807
13.18333,10092
13.19167,10380
13.20000,10670
13.20833,10962
13.21667,11257
13.22500,11555
13.23333,11855
13.24167,12157
13.25000,12462
13.25833,12769
13.26667,13078
13.27500,13390
13.28333,13704
13.29167,14021
13.30000,14341
13.30833,14662
13.31667,14986
13.32500,15312
13.33333,15640
13.34167,15971
13.35000,16305
13.35833,16641
13.36667,16979
13.37500,17320
13.38333,17663
13.39167,18009
13.40000,18357
13.40833,18707
13.41667,19060
13.42500,19416
13.43333,19774
13.44167,20135
13.45000,20498
13.45833,20864
13.46667,21233
13.47500,21604
13.48333,21978
13.49167,22355
13.50000,22734
13.50833,23115
13.51667,23499
13.52500,23886
13.53333,24276
13.54167,24669
13.55000,25064
13.55833,25463
13.56667,25864
13.57500,26269
13.58333,26676
13.59167,27086
13.60000,27498
13.60833,27914
13.61667,28332
13.62500,28753
13.63333,29177
13.64167,29605
13.65000,30036
13.65833,30469
13.66667,30907
13.67500,31347
13.68333,31790
13.69167,32237
13.70000,32686
13.70833,33139
13.71667,33595
13.72500,34053
13.73333,34516
13.74167,34981
13.75000,35450
13.75833,35923
13.76667,36399
13.77500,36878
13.78333,37361
13.79167,37847
13.80000,38337
13.80833,38830
13.81667,39328
13.82500,39828
13.83333,40332
13.84167,40840
13.85000,41350
13.85833,41864
13.86667,42382
13.87500,42902
13.88333,43425
13.89167,43949
13.90000,44473
13.90833,44992
13.91667,45503
13.92500,45997
13.93333,46463
13.94167,46887
13.95000,47251
13.95833,47533
13.96667,47708
13.97500,47749
13.98333,47627
13.99167,47316
14.00000,46794
14.00833,46042
14.01667,45051
14.02500,43818
14.03333,42350
14.04167,40663
14.05000,38782
14.05833,36741
14.06667,34578
14.07500,32335
14.08333,30056
14.09167,27784
14.10000,25559
14.10833,23418
14.11667,21393
14.12500,19506
14.13333,17777
14.14167,16218
14.15000,14835
14.15833,13628
14.16667,12593
14.17500,11725
14.18333,11013
14.19167,10446
14.20000,10012
14.20833,9696
14.21667,9485
14.22500,9365
14.23333,9321
14.24167,9341
14.25000,9411
14.25833,9518
14.26667,9652
14.27500,9802
14.28333,9956
14.29167,10108
14.30000,10248
14.30833,10369
14.31667,10466
14.32500,10534
14.33333,10569
14.34167,10567
14.35000,10529
14.35833,10452
14.36667,10337
14.37500,10184
14.38333,9995
14.39167,9773
14.40000,9519
14.40833,9239
14.41667,8934
14.42500,8609
14.43333,8267
14.44167,7912
14.45000,7548
14.45833,7178
14.46667,6806
14.47500,6436
14.48333,6069
14.49167,5709
14.50000,5357
14.50833,5016
14.51667,4687
14.52500,4372
14.53333,4071
14.54167,3785
14.55000,3514
14.55833,3259
14.56667,3019
14.57500,2795
14.58333,2586
14.59167,2392
14.60000,2212
14.60833,2045
14.61667,1891
14.62500,1750
14.63333,1619
14.64167,1499
14.65000,1390
14.65833,1290
14.66667,1198
14.67500,1115
14.68333,1038
14.69167,969
14.70000,905
14.70833,847
14.71667,794
14.72500,746
14.73333,703
14.74167,663
14.75000,627
14.75833,594
14.76667,564
14.77500,537
14.78333,512
14.79167,489
14.80000,469
14.80833,450
14.81667,433
14.82500,417
14.83333,403
14.84167,390
14.85000,379
14.85833,368
14.86667,358
14.87500,349
14.88333,341
14.89167,334
14.90000,327
14.90833,321
14.91667,316
14.92500,311
14.93333,306
14.94167,302
14.95000,299
14.95833,296
14.96667,294
14.97500,291
14.98333,289
14.99167,287
15.00000,286
15.00833,285
15.01667,285
15.02500,285
15.03333,284
15.04167,285
15.05000,285
15.05833,286
15.06667,287
15.07500,287
15.08333,288
15.09167,289
15.10000,289
15.10833,290
15.11667,291
15.12500,292
15.13333,293
15.14167,294
15.15000,294
15.15833,294
15.16667,295
15.17500,295
15.18333,295
15.19167,295
15.20000,295
15.20833,295
15.21667,295
15.22500,295
15.23333,295
15.24167,295
15.25000,296
15.25833,297
15.26667,299
15.27500,301
15.28333,303
15.29167,307
15.30000,311
15.30833,317
15.31667,323
15.32500,331
15.33333,341
15.34167,352
15.35000,364
15.35833,379
15.36667,395
15.37500,414
15.38333,436
15.39167,459
15.40000,484
15.40833,513
15.41667,543
15.42500,577
15.43333,613
15.44167,651
15.45000,691
15.45833,733
15.46667,778
15.47500,825
15.48333,873
15.49167,922
15.50000,972
15.50833,1024
15.51667,1076
15.52500,1129
15.53333,1180
15.54167,1232
15.55000,1282
15.55833,1332
15.56667,1379
15.57500,1425
15.58333,1469
15.59167,1509
15.60000,1547
15.60833,1581
15.61667,1612
15.62500,1639
15.63333,1662
15.64167,1681
15.65000,1696
15.65833,1707
15.66667,1714
15.67500,1716
15.68333,1713
15.69167,1707
15.70000,1697
15.70833,1683
15.71667,1665
15.72500,1643
15.73333,1618
15.74167,1590
15.75000,1559
15.75833,1525
15.76667,1490
15.77500,1452
15.78333,1412
15.79167,1370
15.80000,1328
15.80833,1284
15.81667,1240
15.82500,1195
15.83333,1150
15.84167,1105
15.85000,1060
15.85833,1015
15.86667,971
15.87500,928
15.88333,885
15.89167,844
15.90000,803
15.90833,764
15.91667,726
15.92500,690
15.93333,655
15.94167,622
15.95000,590
15.95833,559
15.96667,530
15.97500,502
15.98333,475
15.99167,450
16.00000,426
16.00833,404
16.01667,383
16.02500,364
16.03333,345
16.04167,328
16.05000,312
16.05833,297
16.06667,283
16.07500,270
16.08333,258
16.09167,247
16.10000,237
16.10833,227
16.11667,218
16.12500,209
16.13333,201
16.14167,194
16.15000,188
16.15833,182
16.16667,176
16.17500,171
16.18333,166
16.19167,162
16.20000,158
16.20833,154
16.21667,151
16.22500,148
16.23333,145
16.24167,142
16.25000,140
16.25833,137
16.26667,136
16.27500,134
16.28333,133
16.29167,131
16.30000,130
16.30833,129
16.31667,127
16.32500,126
16.33333,125
16.34167,124
16.35000,123
16.35833,123
16.36667,123
16.37500,122
16.38333,122
16.39167,121
16.40000,121
16.40833,120
16.41667,119
16.42500,119
16.43333,119
16.44167,119
16.45000,119
16.45833,119
16.46667,119
16.47500,118
16.48333,118
16.49167,119
16.50000,118
16.50833,118
16.51667,118
16.52500,118
16.53333,118
16.54167,117
16.55000,117
16.55833,117
16.56667,118
16.57500,118
16.58333,118
16.59167,117
16.60000,117
16.60833,117
16.61667,116
16.62500,116
16.63333,116
16.64167,116
16.65000,115
16.65833,115
16.66667,114
16.67500,114
16.68333,114
16.69167,114
16.70000,113
16.70833,113
16.71667,112
16.72500,111
16.73333,111
16.74167,110
16.75000,109
16.75833,108
16.76667,107
16.77500,107
16.78333,106
16.79167,105
16.80000,104
16.80833,103
16.81667,102
16.82500,101
16.83333,99
16.84167,98
16.85000,97
16.85833,96
16.86667,95
16.87500,94
16.88333,93
16.89167,92
16.90000,91
16.90833,89
16.91667,88
16.92500,87
16.93333,86
16.94167,85
16.95000,84
16.95833,82
16.96667,81
16.97500,80
16.98333,79
16.99167,78
17.00000,76
17.00833,75
17.01667,74
17.02500,73
17.03333,72
17.04167,70
17.05000,69
17.05833,68
17.06667,67
17.07500,66
17.08333,65
17.09167,65
17.10000,65
17.10833,64
17.11667,63
17.12500,63
17.13333,62
17.14167,61
17.15000,60
17.15833,60
17.16667,59
17.17500,59
17.18333,58
17.19167,58
17.20000,57
17.20833,57
17.21667,57
17.22500,57
17.23333,56
17.24167,56
17.25000,56
17.25833,56
17.26667,55
17.27500,55
17.28333,54
17.29167,54
17.30000,53
17.30833,53
17.31667,53
17.32500,53
17.33333,53
17.34167,53
17.35000,53
17.35833,53
17.36667,52
17.37500,52
17.38333,52
17.39167,52
17.40000,52
17.40833,52
17.41667,52
17.42500,52
17.43333,52
17.44167,52
17.45000,52
17.45833,52
17.46667,52
17.47500,52
17.48333,52
17.49167,52
17.50000,52
17.50833,52
17.51667,52
17.52500,52
17.53333,52
17.54167,52
17.55000,52
17.55833,52
17.56667,52
17.57500,53
17.58333,53
17.59167,54
17.60000,55
17.60833,55
17.61667,56
17.62500,57
17.63333,57
17.64167,57
17.65000,57
17.65833,58
17.66667,58
17.67500,58
17.68333,59
17.69167,59
17.70000,59
17.70833,60
17.71667,60
17.72500,61
17.73333,61
17.74167,62
17.75000,62
17.75833,62
17.76667,63
17.77500,63
17.78333,63
17.79167,64
17.80000,64
17.80833,64
17.81667,64
17.82500,64
17.83333,64
17.84167,65
17.85000,65
17.85833,65
17.86667,65
17.87500,65
17.88333,65
17.89167,65
17.90000,65
17.90833,65
17.91667,64
17.92500,64
17.93333,64
17.94167,64
17.95000,64
17.95833,64
17.96667,64
17.97500,63
17.98333,63
17.99167,62
18.00000,62
18.00833,62
18.01667,62
18.02500,62
18.03333,62
18.04167,62
18.05000,61
18.05833,61
18.06667,61
18.07500,61
18.08333,61
18.09167,61
18.10000,61
18.10833,61
18.11667,60
18.12500,60
18.13333,60
18.14167,60
18.15000,60
18.15833,60
18.16667,60
18.17500,60
18.18333,60
18.19167,60
18.20000,60
18.20833,59
18.21667,59
18.22500,59
18.23333,59
18.24167,59
18.25000,59
18.25833,59
18.26667,59
18.27500,59
18.28333,59
18.29167,59
18.30000,59
18.30833,59
18.31667,59
18.32500,58
18.33333,58
18.34167,58
18.35000,57
18.35833,57
18.36667,56
18.37500,57
18.38333,56
18.39167,56
18.40000,56
18.40833,56
18.41667,55
18.42500,55
18.43333,55
18.44167,55
18.45000,54
18.45833,54
18.46667,54
18.47500,53
18.48333,53
18.49167,52
18.50000,52
18.50833,51
18.51667,51
18.52500,51
18.53333,50
18.54167,50
18.55000,50
18.55833,50
18.56667,49
18.57500,49
18.58333,48
18.59167,49
18.60000,49
18.60833,49
18.61667,48
18.62500,48
18.63333,48
18.64167,48
18.65000,48
18.65833,48
18.66667,48
18.67500,48
18.68333,48
18.69167,49
18.70000,49
18.70833,49
18.71667,49
18.72500,49
18.73333,49
18.74167,49
18.75000,49
18.75833,50
18.76667,50
18.77500,51
18.78333,52
18.79167,53
18.80000,54
18.80833,54
18.81667,55
18.82500,57
18.83333,58
18.84167,59
18.85000,60
18.85833,61
18.86667,63
18.87500,64
18.88333,66
18.89167,67
18.90000,69
18.90833,71
18.91667,73
18.92500,74
18.93333,76
18.94167,77
18.95000,79
18.95833,80
18.96667,82
18.97500,84
18.98333,85
18.99167,87
19.00000,88
19.00833,90
19.01667,91
19.02500,91
19.03333,92
19.04167,93
19.05000,94
19.05833,94
19.06667,95
19.07500,95
19.08333,95
19.09167,95
19.10000,95
19.10833,95
19.11667,95
19.12500,94
19.13333,93
19.14167,93
19.15000,93
19.15833,92
19.16667,90
19.17500,89
19.18333,88
19.19167,87
19.20000,86
19.20833,85
19.21667,83
19.22500,82
19.23333,81
19.24167,80
19.25000,78
19.25833,77
19.26667,75
19.27500,74
19.28333,72
19.29167,71
19.30000,69
19.30833,67
19.31667,66
19.32500,65
19.33333,64
19.34167,64
19.35000,63
19.35833,61
19.36667,60
19.37500,59
19.38333,58
19.39167,56
19.40000,55
19.40833,54
19.41667,52
19.42500,51
19.43333,51
19.44167,50
19.45000,50
19.45833,49
19.46667,49
19.47500,48
19.48333,47
19.49167,46
19.50000,46
19.50833,45
19.51667,44
19.52500,43
19.53333,43
19.54167,42
19.55000,42
19.55833,41
19.56667,40
19.57500,40
19.58333,39
19.59167,38
19.60000,37
19.60833,36
19.61667,35
19.62500,34
19.63333,34
19.64167,34
19.65000,34
19.65833,33
19.66667,33
19.67500,33
19.68333,32
19.69167,32
19.70000,31
19.70833,31
19.71667,30
19.72500,29
19.73333,28
19.74167,28
19.75000,28
19.75833,28
19.76667,28
19.77500,28
19.78333,27
19.79167,27
19.80000,27
19.80833,27
19.81667,26
19.82500,26
19.83333,26
19.84167,26
19.85000,25
19.85833,25
19.86667,24
19.87500,24
19.88333,24
19.89167,24
19.90000,24
19.90833,24
19.91667,24
19.92500,23
19.93333,23
19.94167,23
19.95000,23
19.95833,23
19.96667,23
19.97500,24
19.98333,24
19.99167,24
20.00000,24
20.00833,25
20.01667,25
20.02500,25
20.03333,25
20.04167,26
20.05000,26
20.05833,27
20.06667,27
20.07500,28
20.08333,28
20.09167,28
20.10000,29
20.10833,29
20.11667,30
20.12500,30
20.13333,31
20.14167,31
20.15000,32
20.15833,32
20.16667,33
20.17500,33
20.18333,34
20.19167,34
20.20000,34
20.20833,35
20.21667,35
20.22500,35
20.23333,36
20.24167,37
20.25000,37
20.25833,38
20.26667,39
20.27500,39
20.28333,40
20.29167,41
20.30000,42
20.30833,42
20.31667,43
20.32500,43
20.33333,44
20.34167,45
20.35000,45
20.35833,46
20.36667,46
20.37500,47
20.38333,47
20.39167,48
20.40000,48
20.40833,48
20.41667,49
20.42500,49
20.43333,50
20.44167,50
20.45000,50
20.45833,50
20.46667,50
20.47500,50
20.48333,51
20.49167,51
20.50000,51
20.50833,52
20.51667,52
20.52500,52
20.53333,52
20.54167,51
20.55000,51
20.55833,50
20.56667,50
20.57500,50
20.58333,50
20.59167,49
20.60000,49
20.60833,49
20.61667,49
20.62500,48
20.63333,48
20.64167,47
20.65000,47
20.65833,46
20.66667,46
20.67500,45
20.68333,45
20.69167,44
20.70000,43
20.70833,43
20.71667,42
20.72500,40
20.73333,40
20.74167,39
20.75000,38
20.75833,37
20.76667,36
20.77500,35
20.78333,34
20.79167,33
20.80000,33
20.80833,32
20.81667,31
20.82500,30
20.83333,29
20.84167,28
20.85000,27
20.85833,26
20.86667,25
20.87500,25
20.88333,24
20.89167,23
20.90000,23
20.90833,22
20.91667,21
20.92500,21
20.93333,20
20.94167,20
20.95000,19
20.95833,19
20.96667,19
20.97500,18
20.98333,18
20.99167,17
21.00000,17
21.00833,17
21.01667,17
21.02500,18
21.03333,17
21.04167,17
21.05000,17
21.05833,16
21.06667,16
21.07500,16
21.08333,17
21.09167,17
21.10000,17
21.10833,17
21.11667,17
21.12500,18
21.13333,18
21.14167,19
21.15000,19
21.15833,20
21.16667,20
21.17500,21
21.18333,21
21.19167,21
21.20000,21
21.20833,21
21.21667,21
21.22500,21
21.23333,21
21.24167,22
21.25000,22
21.25833,22
21.26667,23
21.27500,23
21.28333,23
21.29167,24
21.30000,24
21.30833,25
21.31667,25
21.32500,25
21.33333,25
21.34167,25
21.35000,25
21.35833,25
21.36667,25
21.37500,24
21.38333,25
21.39167,25
21.40000,25
21.40833,25
21.41667,26
21.42500,26
21.43333,26
21.44167,26
21.45000,26
21.45833,25
21.46667,25
21.47500,25
21.48333,25
21.49167,25
21.50000,25
21.50833,25
21.51667,25
21.52500,26
21.53333,26
21.54167,26
21.55000,26
21.55833,27
21.56667,27
21.57500,28
21.58333,29
21.59167,30
21.60000,31
21.60833,32
21.61667,34
21.62500,35
21.63333,37
21.64167,39
21.65000,41
21.65833,44
21.66667,47
21.67500,50
21.68333,54
21.69167,58
21.70000,62
21.70833,66
21.71667,71
21.72500,76
21.73333,82
21.74167,88
21.75000,94
21.75833,101
21.76667,109
21.77500,117
21.78333,125
21.79167,133
21.80000,143
21.80833,152
21.81667,162
21.82500,172
21.83333,183
21.84167,193
21.85000,205
21.85833,216
21.86667,227
21.87500,239
21.88333,250
21.89167,262
21.90000,273
21.90833,285
21.91667,296
21.92500,307
21.93333,318
21.94167,329
21.95000,339
21.95833,349
21.96667,358
21.97500,367
21.98333,375
21.99167,383
22.00000,390
22.00833,396
22.01667,402
22.02500,407
22.03333,411
22.04167,414
22.05000,416
22.05833,417
22.06667,417
22.07500,417
22.08333,416
22.09167,414
22.10000,411
22.10833,408
22.11667,405
22.12500,400
22.13333,395
22.14167,389
22.15000,383
22.15833,376
22.16667,369
22.17500,362
22.18333,354
22.19167,345
22.20000,336
22.20833,327
22.21667,318
22.22500,309
22.23333,299
22.24167,289
22.25000,280
22.25833,271
22.26667,261
22.27500,252
22.28333,242
22.29167,233
22.30000,224
22.30833,216
22.31667,207
22.32500,199
22.33333,190
22.34167,183
22.35000,176
22.35833,169
22.36667,162
22.37500,155
22.38333,149
22.39167,142
22.40000,137
22.40833,131
22.41667,126
22.42500,121
22.43333,117
22.44167,112
22.45000,108
22.45833,104
22.46667,101
22.47500,97
22.48333,94
22.49167,91
22.50000,89
22.50833,86
22.51667,84
22.52500,82
22.53333,80
22.54167,78
22.55000,77
22.55833,75
22.56667,74
22.57500,73
22.58333,71
22.59167,70
22.60000,69
22.60833,68
22.61667,67
22.62500,66
22.63333,65
22.64167,65
22.65000,64
22.65833,64
22.66667,63
22.67500,62
22.68333,62
22.69167,61
22.70000,61
22.70833,60
22.71667,60
22.72500,60
22.73333,60
22.74167,60
22.75000,59
22.75833,59
22.76667,59
22.77500,59
22.78333,59
22.79167,59
22.80000,59
22.80833,59
22.81667,58
22.82500,58
22.83333,58
22.84167,58
22.85000,57
22.85833,57
22.86667,56
22.87500,56
22.88333,56
22.89167,55
22.90000,55
22.90833,55
22.91667,55
22.92500,55
22.93333,54
22.94167,53
22.95000,53
22.95833,52
22.96667,52
22.97500,52
22.98333,52
22.99167,51
23.00000,51
23.00833,51
23.01667,51
23.02500,50
23.03333,50
23.04167,49
23.05000,49
23.05833,48
23.06667,48
23.07500,48
23.08333,48
23.09167,48
23.10000,47
23.10833,47
23.11667,47
23.12500,46
23.13333,46
23.14167,46
23.15000,46
23.15833,46
23.16667,46
23.17500,46
23.18333,46
23.19167,46
23.20000,46
23.20833,45
23.21667,45
23.22500,45
23.23333,45
23.24167,45
23.25000,45
23.25833,45
23.26667,45
23.27500,44
23.28333,44
23.29167,45
23.30000,45
23.30833,44
23.31667,44
23.32500,44
23.33333,44
23.34167,43
23.35000,43
23.35833,43
23.36667,43
23.37500,43
23.38333,43
23.39167,42
23.40000,42
23.40833,42
23.41667,42
23.42500,42
23.43333,42
23.44167,42
23.45000,42
23.45833,42
23.46667,42
23.47500,41
23.48333,41
23.49167,41
23.50000,41
23.50833,40
23.51667,40
23.52500,39
23.53333,39
23.54167,39
23.55000,39
23.55833,39
23.56667,39
23.57500,39
23.58333,38
23.59167,38
23.60000,38
23.60833,38
23.61667,38
23.62500,38
23.63333,38
23.64167,37
23.65000,37
23.65833,37
23.66667,37
23.67500,37
23.68333,37
23.69167,37
23.70000,37
23.70833,37
23.71667,37
23.72500,37
23.73333,36
23.74167,36
23.75000,36
23.75833,36
23.76667,36
23.77500,36
23.78333,36
23.79167,36
23.80000,36
23.80833,36
23.81667,36
23.82500,37
23.83333,37
23.84167,37
23.85000,37
23.85833,37
23.86667,37
23.87500,37
23.88333,36
23.89167,37
23.90000,37
23.90833,37
23.91667,37
23.92500,37
23.93333,37
23.94167,37
23.95000,37
23.95833,37
23.96667,38
23.97500,38
23.98333,38
23.99167,38
24.00000,38
24.00833,38
24.01667,38
24.02500,38
24.03333,38
24.04167,37
24.05000,37
24.05833,37
24.06667,37
24.07500,37
24.08333,37
24.09167,37
24.10000,36
24.10833,36
24.11667,36
24.12500,36
24.13333,36
24.14167,36
24.15000,36
24.15833,36
24.16667,36
24.17500,36
24.18333,36
24.19167,36
24.20000,36
24.20833,35
24.21667,35
24.22500,35
24.23333,35
24.24167,34
24.25000,34
24.25833,34
24.26667,34
24.27500,34
24.28333,34
24.29167,34
24.30000,34
24.30833,34
24.31667,34
24.32500,34
24.33333,34
24.34167,34
24.35000,34
24.35833,34
24.36667,33
24.37500,33
24.38333,33
24.39167,33
24.40000,33
24.40833,33
24.41667,33
24.42500,33
24.43333,33
24.44167,33
24.45000,34
24.45833,34
24.46667,34
24.47500,35
24.48333,35
24.49167,35
24.50000,35
24.50833,36
24.51667,36
24.52500,36
24.53333,36
24.54167,37
24.55000,37
24.55833,38
24.56667,38
24.57500,39
24.58333,40
24.59167,41
24.60000,42
24.60833,42
24.61667,44
24.62500,45
24.63333,46
24.64167,47
24.65000,49
24.65833,50
24.66667,53
24.67500,55
24.68333,57
24.69167,58
24.70000,61
24.70833,63
24.71667,65
24.72500,68
24.73333,71
24.74167,73
24.75000,76
24.75833,79
24.76667,83
24.77500,86
24.78333,89
24.79167,93
24.80000,96
24.80833,100
24.81667,104
24.82500,108
24.83333,112
24.84167,116
24.85000,120
24.85833,123
24.86667,127
24.87500,131
24.88333,135
24.89167,139
24.90000,142
24.90833,146
24.91667,149
24.92500,153
24.93333,156
24.94167,159
24.95000,162
24.95833,165
24.96667,167
24.97500,169
24.98333,172
24.99167,174
25.00000,175
25.00833,177
25.01667,178
25.02500,179
25.03333,179
25.04167,180
25.05000,180
25.05833,180
25.06667,179
25.07500,178
25.08333,177
25.09167,176
25.10000,175
25.10833,173
25.11667,172
25.12500,170
25.13333,168
25.14167,166
25.15000,164
25.15833,161
25.16667,159
25.17500,156
25.18333,153
25.19167,150
25.20000,146
25.20833,143
25.21667,140
25.22500,136
25.23333,133
25.24167,130
25.25000,126
25.25833,123
25.26667,120
25.27500,117
25.28333,113
25.29167,110
25.30000,106
25.30833,103
25.31667,100
25.32500,98
25.33333,95
25.34167,93
25.35000,90
25.35833,88
25.36667,85
25.37500,82
25.38333,80
25.39167,77
25.40000,75
25.40833,73
25.41667,71
25.42500,69
25.43333,67
25.44167,65
25.45000,63
25.45833,62
25.46667,61
25.47500,59
25.48333,58
25.49167,57
25.50000,55
25.50833,54
25.51667,53
25.52500,52
25.53333,51
25.54167,51
25.55000,50
25.55833,49
25.56667,49
25.57500,48
25.58333,48
25.59167,47
25.60000,47
25.60833,46
25.61667,46
25.62500,46
25.63333,46
25.64167,46
25.65000,46
25.65833,46
25.66667,46
25.67500,46
25.68333,46
25.69167,46
25.70000,46
25.70833,47
25.71667,47
25.72500,47
25.73333,47
25.74167,47
25.75000,47
25.75833,48
25.76667,49
25.77500,49
25.78333,50
25.79167,50
25.80000,50
25.80833,50
25.81667,50
25.82500,50
25.83333,50
25.84167,50
25.85000,50
25.85833,50
25.86667,50
25.87500,50
25.88333,50
25.89167,50
25.90000,50
25.90833,51
25.91667,51
25.92500,51
25.93333,51
25.94167,51
25.95000,51
25.95833,50
25.96667,50
25.97500,50
25.98333,50
25.99167,49
26.00000,49
26.00833,48
26.01667,48
26.02500,47
26.03333,46
26.04167,46
26.05000,45
26.05833,44
26.06667,44
26.07500,43
26.08333,43
26.09167,43
26.10000,42
26.10833,42
26.11667,41
26.12500,40
26.13333,40
26.14167,39
26.15000,38
26.15833,37
26.16667,37
26.17500,36
26.18333,35
26.19167,34
26.20000,34
26.20833,33
26.21667,33
26.22500,32
26.23333,32
26.24167,31
26.25000,31
26.25833,30
26.26667,30
26.27500,29
26.28333,29
26.29167,28
26.30000,28
26.30833,28
26.31667,28
26.32500,27
26.33333,27
26.34167,27
26.35000,27
26.35833,27
26.36667,26
26.37500,26
26.38333,27
26.39167,27
26.40000,27
26.40833,28
26.41667,28
26.42500,28
26.43333,29
26.44167,29
26.45000,29
26.45833,29
26.46667,29
26.47500,29
26.48333,30
26.49167,30
26.50000,31
26.50833,31
26.51667,32
26.52500,32
26.53333,33
26.54167,33
26.55000,34
26.55833,35
26.56667,36
26.57500,37
26.58333,37
26.59167,38
26.60000,39
26.60833,40
26.61667,40
26.62500,41
26.63333,41
26.64167,42
26.65000,43
26.65833,43
26.66667,44
26.67500,45
26.68333,46
26.69167,47
26.70000,48
26.70833,48
26.71667,49
26.72500,50
26.73333,50
26.74167,51
26.75000,52
26.75833,52
26.76667,53
26.77500,53
26.78333,54
26.79167,55
26.80000,56
26.80833,56
26.81667,57
26.82500,57
26.83333,57
26.84167,58
26.85000,58
26.85833,58
26.86667,58
26.87500,59
26.88333,59
26.89167,59
26.90000,60
26.90833,60
26.91667,60
26.92500,60
26.93333,60
26.94167,60
26.95000,60
26.95833,60
26.96667,60
26.97500,60
26.98333,60
26.99167,61
27.00000,61
27.00833,61
27.01667,61
27.02500,60
27.03333,60
27.04167,60
27.05000,60
27.05833,60
27.06667,60
27.07500,60
27.08333,59
27.09167,59
27.10000,59
27.10833,59
27.11667,59
27.12500,59
27.13333,59
27.14167,59
27.15000,58
27.15833,57
27.16667,57
27.17500,57
27.18333,57
27.19167,57
27.20000,56
27.20833,56
27.21667,56
27.22500,56
27.23333,55
27.24167,55
27.25000,55
27.25833,55
27.26667,55
27.27500,55
27.28333,54
27.29167,53
27.30000,53
27.30833,52
27.31667,52
27.32500,52
27.33333,52
27.34167,52
27.35000,51
27.35833,51
27.36667,51
27.37500,51
27.38333,51
27.39167,51
27.40000,51
27.40833,51
27.41667,51
27.42500,51
27.43333,51
27.44167,51
27.45000,51
27.45833,51
27.46667,51
27.47500,51
27.48333,51
27.49167,50
27.50000,50
27.50833,50
27.51667,49
27.52500,49
27.53333,49
27.54167,49
27.55000,49
27.55833,49
27.56667,49
27.57500,48
27.58333,48
27.59167,48
27.60000,48
27.60833,48
27.61667,48
27.62500,47
27.63333,47
27.64167,47
27.65000,47
27.65833,47
27.66667,47
27.67500,46
27.68333,46
27.69167,46
27.70000,46
27.70833,45
27.71667,45
27.72500,44
27.73333,43
27.74167,43
27.75000,42
27.75833,41
27.76667,40
27.77500,39
27.78333,39
27.79167,38
27.80000,37
27.80833,36
27.81667,35
27.82500,34
27.83333,33
27.84167,32
27.85000,31
27.85833,30
27.86667,28
27.87500,27
27.88333,25
27.89167,24
27.90000,22
27.90833,20
27.91667,19
27.92500,17
27.93333,15
27.94167,14
27.95000,12
27.95833,10
27.96667,8
27.97500,6
27.98333,4
27.99167,1
28.00000,-1
28.00833,-4
28.01667,-6
28.02500,-9
28.03333,-11
28.04167,-14
28.05000,-17
28.05833,-20
28.06667,-22
28.07500,-25
28.08333,-28
28.09167,-31
28.10000,-35
28.10833,-38
28.11667,-41
28.12500,-44
28.13333,-47
28.14167,-51
28.15000,-54
28.15833,-57
28.16667,-60
28.17500,-63
28.18333,-66
28.19167,-69
28.20000,-72
28.20833,-75
28.21667,-79
28.22500,-81
28.23333,-84
28.24167,-87
28.25000,-89
28.25833,-92
28.26667,-94
28.27500,-96
28.28333,-98
28.29167,-100
28.30000,-102
28.30833,-104
28.31667,-105
28.32500,-106
28.33333,-107
28.34167,-108
28.35000,-109
28.35833,-110
28.36667,-110
28.37500,-110
28.38333,-111
28.39167,-111
28.40000,-110
28.40833,-110
28.41667,-109
28.42500,-109
28.43333,-108
28.44167,-106
28.45000,-105
28.45833,-104
28.46667,-102
28.47500,-101
28.48333,-99
28.49167,-97
28.50000,-95
28.50833,-93
28.51667,-90
28.52500,-88
28.53333,-85
28.54167,-83
28.55000,-80
28.55833,-77
28.56667,-74
28.57500,-72
28.58333,-69
28.59167,-67
28.60000,-64
28.60833,-61
28.61667,-59
28.62500,-56
28.63333,-53
28.64167,-50
28.65000,-47
28.65833,-44
28.66667,-41
28.67500,-39
28.68333,-36
28.69167,-33
28.70000,-31
28.70833,-28
28.71667,-26
28.72500,-23
28.73333,-21
28.74167,-18
28.75000,-16
28.75833,-14
28.76667,-11
28.77500,-9
28.78333,-7
28.79167,-5
28.80000,-3
28.80833,-1
28.81667,0
28.82500,2
28.83333,3
28.84167,5
28.85000,6
28.85833,8
28.86667,9
28.87500,10
28.88333,12
28.89167,13
28.90000,14
28.90833,16
28.91667,17
28.92500,18
28.93333,19
28.94167,20
28.95000,21
28.95833,22
28.96667,23
28.97500,24
28.98333,26
28.99167,26
29.00000,27
29.00833,28
29.01667,28
29.02500,29
29.03333,29
29.04167,30
29.05000,30
29.05833,31
29.06667,32
29.07500,32
29.08333,33
29.09167,33
29.10000,33
29.10833,34
29.11667,35
29.12500,36
29.13333,36
29.14167,36
29.15000,36
29.15833,37
29.16667,37
29.17500,37
29.18333,37
29.19167,38
29.20000,38
29.20833,38
29.21667,39
29.22500,39
29.23333,40
29.24167,40
29.25000,40
29.25833,40
29.26667,41
29.27500,41
29.28333,41
29.29167,42
29.30000,42
29.30833,42
29.31667,43
29.32500,43
29.33333,43
29.34167,44
29.35000,44
29.35833,44
29.36667,44
29.37500,44
29.38333,44
29.39167,44
29.40000,45
29.40833,45
29.41667,45
29.42500,45
29.43333,45
29.44167,45
29.45000,45
29.45833,45
29.46667,45
29.47500,45
29.48333,45
29.49167,44
29.50000,44
29.50833,44
29.51667,43
29.52500,43
29.53333,43
29.54167,42
29.55000,42
29.55833,41
29.56667,41
29.57500,40
29.58333,40
29.59167,39
29.60000,39
29.60833,38
29.61667,38
29.62500,37
29.63333,36
29.64167,35
29.65000,34
29.65833,34
29.66667,32
29.67500,31
29.68333,30
29.69167,29
29.70000,28
29.70833,27
29.71667,26
29.72500,26
29.73333,25
29.74167,24
29.75000,23
29.75833,22
29.76667,21
29.77500,19
29.78333,18
29.79167,16
29.80000,15
29.80833,14
29.81667,12
29.82500,11
29.83333,9
29.84167,7
29.85000,6
29.85833,4
29.86667,3
29.87500,2
29.88333,0
29.89167,-1
29.90000,-2
29.90833,-4
29.91667,-5
29.92500,-6
29.93333,-7
29.94167,-9
29.95000,-10
29.95833,-11
29.96667,-12
29.97500,-13
29.98333,-14
29.99167,-15
30.00000,-16
30.00833,-17
30.01667,-18
30.02500,-19
30.03333,-19
30.04167,-20
30.05000,-21
30.05833,-22
30.06667,-23
30.07500,-23
30.08333,-24
30.09167,-24
30.10000,-24
30.10833,-24
30.11667,-24
30.12500,-24
30.13333,-24
30.14167,-24
30.15000,-24
30.15833,-24
30.16667,-24
30.17500,-24
30.18333,-23
30.19167,-23
30.20000,-23
30.20833,-22
30.21667,-22
30.22500,-21
30.23333,-20
30.24167,-19
30.25000,-19
30.25833,-18
30.26667,-17
30.27500,-16
30.28333,-15
30.29167,-14
30.30000,-13
30.30833,-12
30.31667,-12
30.32500,-11
30.33333,-10
30.34167,-9
30.35000,-8
30.35833,-7
30.36667,-6
30.37500,-4
30.38333,-3
30.39167,-1
30.40000,0
30.40833,1
30.41667,2
30.42500,3
30.43333,5
30.44167,6
30.45000,7
30.45833,8
30.46667,9
30.47500,10
30.48333,11
30.49167,12
30.50000,13
30.50833,14
30.51667,15
30.52500,16
30.53333,17
30.54167,17
30.55000,18
30.55833,18
30.56667,19
30.57500,20
30.58333,20
30.59167,21
30.60000,21
30.60833,22
30.61667,22
30.62500,23
30.63333,23
30.64167,23
30.65000,24
30.65833,24
30.66667,24
30.67500,24
30.68333,24
30.69167,24
30.70000,24
30.70833,25
30.71667,25
30.72500,24
30.73333,24
30.74167,25
30.75000,25
30.75833,25
30.76667,25
30.77500,25
30.78333,25
30.79167,25
30.80000,24
30.80833,25
30.81667,25
30.82500,25
30.83333,25
30.84167,25
30.85000,26
30.85833,26
30.86667,27
30.87500,27
30.88333,28
30.89167,28
30.90000,28
30.90833,29
30.91667,30
30.92500,30
30.93333,31
30.94167,31
30.95000,32
30.95833,33
30.96667,33
30.97500,34
30.98333,34
30.99167,35
31.00000,36
31.00833,36
31.01667,37
31.02500,38
31.03333,39
31.04167,40
31.05000,41
31.05833,42
31.06667,42
31.07500,43
31.08333,44
31.09167,46
31.10000,47
31.10833,48
31.11667,49
31.12500,49
31.13333,51
31.14167,52
31.15000,53
31.15833,54
31.16667,54
31.17500,55
31.18333,56
31.19167,57
31.20000,58
31.20833,60
31.21667,61
31.22500,62
31.23333,63
31.24167,63
31.25000,64
31.25833,64
31.26667,65
31.27500,66
31.28333,66
31.29167,67
31.30000,68
31.30833,68
31.31667,68
31.32500,68
31.33333,69
31.34167,69
31.35000,69
31.35833,70
31.36667,70
31.37500,70
31.38333,70
31.39167,70
31.40000,70
31.40833,70
31.41667,70
31.42500,71
31.43333,71
31.44167,71
31.45000,71
31.45833,71
31.46667,70
31.47500,70
31.48333,70
31.49167,70
31.50000,70
31.50833,70
31.51667,70
31.52500,70
31.53333,69
31.54167,69
31.55000,68
31.55833,68
31.56667,68
31.57500,67
31.58333,67
31.59167,66
31.60000,66
31.60833,65
31.61667,64
31.62500,64
31.63333,63
31.64167,63
31.65000,63
31.65833,62
31.66667,61
31.67500,61
31.68333,60
31.69167,60
31.70000,59
31.70833,59
31.71667,58
31.72500,57
31.73333,57
31.74167,56
31.75000,55
31.75833,55
31.76667,54
31.77500,53
31.78333,53
31.79167,52
31.80000,52
31.80833,51
31.81667,51
31.82500,50
31.83333,50
31.84167,49
31.85000,49
31.85833,48
31.86667,48
31.87500,47
31.88333,47
31.89167,46
31.90000,46
31.90833,46
31.91667,46
31.92500,46
31.93333,46
31.94167,46
31.95000,45
31.95833,45
31.96667,45
31.97500,45
31.98333,45
31.99167,45
32.00000,46
32.00833,46
32.01667,46
32.02500,47
32.03333,47
32.04167,47
32.05000,48
32.05833,48
32.06667,48
32.07500,48
32.08333,48
32.09167,49
32.10000,49
32.10833,49
32.11667,49
32.12500,50
32.13333,50
32.14167,50
32.15000,51
32.15833,52
32.16667,52
32.17500,53
32.18333,54
32.19167,54
32.20000,55
32.20833,56
32.21667,56
32.22500,57
32.23333,57
32.24167,58
32.25000,58
32.25833,58
32.26667,59
32.27500,59
32.28333,60
32.29167,60
32.30000,60
32.30833,61
32.31667,62
32.32500,63
32.33333,64
32.34167,65
32.35000,65
32.35833,66
32.36667,67
32.37500,67
32.38333,67
32.39167,67
32.40000,67
32.40833,66
32.41667,66
32.42500,66
32.43333,66
32.44167,66
32.45000,66
32.45833,66
32.46667,66
32.47500,66
32.48333,66
32.49167,66
32.50000,66
32.50833,66
32.51667,66
32.52500,66
32.53333,66
32.54167,66
32.55000,66
32.55833,66
32.56667,66
32.57500,66
32.58333,66
32.59167,66
32.60000,66
32.60833,65
32.61667,64
32.62500,64
32.63333,64
32.64167,63
32.65000,63
32.65833,63
32.66667,63
32.67500,63
32.68333,63
32.69167,62
32.70000,62
32.70833,61
32.71667,61
32.72500,60
32.73333,60
32.74167,61
32.75000,61
32.75833,60
32.76667,60
32.77500,59
32.78333,59
32.79167,59
32.80000,58
32.80833,58
32.81667,58
32.82500,58
32.83333,58
32.84167,57
32.85000,57
32.85833,57
32.86667,57
32.87500,56
32.88333,56
32.89167,56
32.90000,56
32.90833,55
32.91667,55
32.92500,55
32.93333,55
32.94167,54
32.95000,54
32.95833,54
32.96667,54
32.97500,54
32.98333,54
32.99167,53
33.00000,53
33.00833,53
33.01667,53
33.02500,53
33.03333,53
33.04167,53
33.05000,53
33.05833,53
33.06667,52
33.07500,52
33.08333,51
33.09167,51
33.10000,50
33.10833,49
33.11667,49
33.12500,49
33.13333,48
33.14167,48
33.15000,48
33.15833,48
33.16667,48
33.17500,48
33.18333,47
33.19167,47
33.20000,47
33.20833,47
33.21667,47
33.22500,47
33.23333,47
33.24167,46
33.25000,46
33.25833,46
33.26667,45
33.27500,45
33.28333,45
33.29167,44
33.30000,44
33.30833,44
33.31667,44
33.32500,44
33.33333,44
33.34167,44
33.35000,44
33.35833,44
33.36667,44
33.37500,44
33.38333,44
33.39167,43
33.40000,43
33.40833,43
33.41667,43
33.42500,43
33.43333,43
33.44167,43
33.45000,43
33.45833,43
33.46667,43
33.47500,44
33.48333,44
33.49167,44
33.50000,44
33.50833,44
33.51667,44
33.52500,44
33.53333,44
33.54167,44
33.55000,44
33.55833,45
33.56667,44
33.57500,44
33.58333,44
33.59167,44
33.60000,44
33.60833,44
33.61667,44
33.62500,44
33.63333,44
33.64167,44
33.65000,44
33.65833,43
33.66667,43
33.67500,43
33.68333,44
33.69167,44
33.70000,45
33.70833,45
33.71667,45
33.72500,44
33.73333,44
33.74167,44
33.75000,44
33.75833,44
33.76667,44
33.77500,44
33.78333,43
33.79167,43
33.80000,43
33.80833,43
33.81667,42
33.82500,42
33.83333,42
33.84167,42
33.85000,42
33.85833,42
33.86667,42
33.87500,41
33.88333,41
33.89167,41
33.90000,40
33.90833,40
33.91667,40
33.92500,40
33.93333,40
33.94167,40
33.95000,40
33.95833,40
33.96667,40
33.97500,40
33.98333,40
33.99167,41
34.00000,41
34.00833,41
34.01667,41
34.02500,40
34.03333,40
34.04167,39
34.05000,39
34.05833,39
34.06667,39
34.07500,40
34.08333,40
34.09167,40
34.10000,40
34.10833,40
34.11667,40
34.12500,40
34.13333,41
34.14167,41
34.15000,40
34.15833,40
34.16667,40
34.17500,40
34.18333,40
34.19167,40
34.20000,40
34.20833,40
34.21667,40
34.22500,41
34.23333,41
34.24167,41
34.25000,41
34.25833,41
34.26667,40
34.27500,40
34.28333,41
34.29167,40
34.30000,40
34.30833,40
34.31667,40
34.32500,40
34.33333,40
34.34167,40
34.35000,40
34.35833,40
34.36667,40
34.37500,40
34.38333,40
34.39167,40
34.40000,40
34.40833,40
34.41667,40
34.42500,39
34.43333,39
34.44167,38
34.45000,38
34.45833,37
34.46667,36
34.47500,36
34.48333,36
34.49167,36
34.50000,35
34.50833,35
34.51667,35
34.52500,35
34.53333,34
34.54167,34
34.55000,34
34.55833,34
34.56667,33
34.57500,33
34.58333,33
34.59167,33
34.60000,33
34.60833,33
34.61667,33
34.62500,33
34.63333,33
34.64167,33
34.65000,33
34.65833,32
34.66667,32
34.67500,32
34.68333,32
34.69167,32
34.70000,32
34.70833,32
34.71667,32
34.72500,32
34.73333,32
34.74167,32
34.75000,32
34.75833,32
34.76667,32
34.77500,33
34.78333,33
34.79167,33
34.80000,34
34.80833,34
34.81667,34
34.82500,34
34.83333,34
34.84167,34
34.85000,35
34.85833,35
34.86667,36
34.87500,36
34.88333,37
34.89167,37
34.90000,37
34.90833,38
34.91667,38
34.92500,39
34.93333,40
34.94167,40
34.95000,41
34.95833,41
34.96667,42
34.97500,42
34.98333,43
34.99167,44
35.00000,45
35.00833,45
35.01667,46
35.02500,47
35.03333,48
35.04167,48
35.05000,49
35.05833,50
35.06667,51
35.07500,52
35.08333,52
35.09167,53
35.10000,54
35.10833,55
35.11667,56
35.12500,57
35.13333,57
35.14167,58
35.15000,59
35.15833,59
35.16667,60
35.17500,61
35.18333,61
35.19167,62
35.20000,63
35.20833,63
35.21667,64
35.22500,65
35.23333,65
35.24167,66
35.25000,66
35.25833,67
35.26667,68
35.27500,68
35.28333,68
35.29167,69
35.30000,69
35.30833,69
35.31667,69
35.32500,69
35.33333,69
35.34167,69
35.35000,70
35.35833,70
35.36667,70
35.37500,71
35.38333,70
35.39167,70
35.40000,70
35.40833,70
35.41667,70
35.42500,69
35.43333,69
35.44167,69
35.45000,69
35.45833,69
35.46667,69
35.47500,68
35.48333,68
35.49167,68
35.50000,67
35.50833,67
35.51667,66
35.52500,66
35.53333,65
35.54167,65
35.55000,64
35.55833,63
35.56667,63
35.57500,62
35.58333,62
35.59167,61
35.60000,61
35.60833,60
35.61667,60
35.62500,59
35.63333,59
35.64167,58
35.65000,58
35.65833,58
35.66667,58
35.67500,57
35.68333,57
35.69167,56
35.70000,56
35.70833,55
35.71667,55
35.72500,54
35.73333,54
35.74167,53
35.75000,53
35.75833,53
35.76667,53
35.77500,53
35.78333,52
35.79167,52
35.80000,52
35.80833,52
35.81667,52
35.82500,52
35.83333,51
35.84167,51
35.85000,51
35.85833,51
35.86667,52
35.87500,51
35.88333,51
35.89167,51
35.90000,50
35.90833,50
35.91667,50
35.92500,49
35.93333,49
35.94167,49
35.95000,49
35.95833,49
35.96667,49
35.97500,49
35.98333,49
35.99167,49
36.00000,49
36.00833,49
36.01667,49
36.02500,49
36.03333,49
36.04167,49
36.05000,49
36.05833,50
36.06667,50
36.07500,49
36.08333,49
36.09167,49
36.10000,49
36.10833,49
36.11667,49
36.12500,49
36.13333,49
36.14167,49
36.15000,49
36.15833,48
36.16667,48
36.17500,48
36.18333,48
36.19167,48
36.20000,48
36.20833,48
36.21667,47
36.22500,47
36.23333,47
36.24167,47
36.25000,46
36.25833,46
36.26667,46
36.27500,46
36.28333,46
36.29167,46
36.30000,46
36.30833,46
36.31667,45
36.32500,45
36.33333,45
36.34167,45
36.35000,44
36.35833,44
36.36667,44
36.37500,44
36.38333,44
36.39167,44
36.40000,43
36.40833,43
36.41667,43
36.42500,43
36.43333,43
36.44167,42
36.45000,42
36.45833,42
36.46667,42
36.47500,43
36.48333,43
36.49167,43
36.50000,43
36.50833,42
36.51667,42
36.52500,42
36.53333,42
36.54167,42
36.55000,42
36.55833,42
36.56667,42
36.57500,41
36.58333,41
36.59167,41
36.60000,41
36.60833,41
36.61667,41
36.62500,41
36.63333,41
36.64167,41
36.65000,41
36.65833,41
36.66667,42
36.67500,42
36.68333,42
36.69167,42
36.70000,41
36.70833,41
36.71667,41
36.72500,42
36.73333,42
36.74167,43
36.75000,43
36.75833,43
36.76667,44
36.77500,44
36.78333,44
36.79167,45
36.80000,45
36.80833,46
36.81667,47
36.82500,48
36.83333,49
36.84167,50
36.85000,50
36.85833,51
36.86667,51
36.87500,51
36.88333,51
36.89167,52
36.90000,52
36.90833,53
36.91667,53
36.92500,54
36.93333,55
36.94167,56
36.95000,56
36.95833,57
36.96667,57
36.97500,58
36.98333,58
36.99167,59
37.00000,59
37.00833,60
37.01667,60
37.02500,60
37.03333,61
37.04167,61
37.05000,60
37.05833,60
37.06667,60
37.07500,61
37.08333,61
37.09167,61
37.10000,61
37.10833,61
37.11667,60
37.12500,60
37.13333,59
37.14167,59
37.15000,59
37.15833,59
37.16667,59
37.17500,59
37.18333,59
37.19167,58
37.20000,58
37.20833,58
37.21667,58
37.22500,57
37.23333,57
37.24167,56
37.25000,55
37.25833,55
37.26667,55
37.27500,54
37.28333,53
37.29167,52
37.30000,52
37.30833,51
37.31667,50
37.32500,50
37.33333,49
37.34167,48
37.35000,48
37.35833,48
37.36667,47
37.37500,47
37.38333,47
37.39167,47
37.40000,46
37.40833,46
37.41667,46
37.42500,45
37.43333,45
37.44167,45
37.45000,45
37.45833,44
37.46667,44
37.47500,44
37.48333,44
37.49167,44
37.50000,44
37.50833,44
37.51667,43
37.52500,43
37.53333,43
37.54167,43
37.55000,43
37.55833,43
37.56667,43
37.57500,43
37.58333,43
37.59167,43
37.60000,43
37.60833,43
37.61667,43
37.62500,43
37.63333,44
37.64167,43
37.65000,44
37.65833,44
37.66667,44
37.67500,44
37.68333,44
37.69167,44
37.70000,44
37.70833,45
37.71667,45
37.72500,45
37.73333,45
37.74167,45
37.75000,45
37.75833,45
37.76667,45
37.77500,45
37.78333,45
37.79167,45
37.80000,46
37.80833,46
37.81667,46
37.82500,47
37.83333,47
37.84167,47
37.85000,47
37.85833,47
37.86667,47
37.87500,47
37.88333,48
37.89167,48
37.90000,48
37.90833,48
37.91667,48
37.92500,48
37.93333,48
37.94167,49
37.95000,49
37.95833,50
37.96667,50
37.97500,50
37.98333,51
37.99167,51
38.00000,51
38.00833,51
38.01667,51
38.02500,51
38.03333,51
38.04167,51
38.05000,52
38.05833,52
38.06667,52
38.07500,52
38.08333,52
38.09167,52
38.10000,52
38.10833,52
38.11667,52
38.12500,52
38.13333,52
38.14167,52
38.15000,52
38.15833,51
38.16667,51
38.17500,51
38.18333,51
38.19167,51
38.20000,51
38.20833,51
38.21667,51
38.22500,50
38.23333,50
38.24167,50
38.25000,50
38.25833,49
38.26667,49
38.27500,48
38.28333,48
38.29167,47
38.30000,46
38.30833,46
38.31667,46
38.32500,45
38.33333,45
38.34167,45
38.35000,44
38.35833,44
38.36667,44
38.37500,44
38.38333,44
38.39167,44
38.40000,43
38.40833,43
38.41667,43
38.42500,43
38.43333,43
38.44167,43
38.45000,43
38.45833,43
38.46667,43
38.47500,43
38.48333,43
38.49167,43
38.50000,43
38.50833,43
38.51667,44
38.52500,43
38.53333,43
38.54167,43
38.55000,44
38.55833,44
38.56667,45
38.57500,45
38.58333,45
38.59167,46
38.60000,46
38.60833,47
38.61667,47
38.62500,48
38.63333,48
38.64167,49
38.65000,49
38.65833,50
38.66667,50
38.67500,51
38.68333,52
38.69167,52
38.70000,53
38.70833,53
38.71667,54
38.72500,55
38.73333,56
38.74167,56
38.75000,57
38.75833,58
38.76667,58
38.77500,58
38.78333,58
38.79167,59
38.80000,59
38.80833,59
38.81667,60
38.82500,60
38.83333,61
38.84167,61
38.85000,61
38.85833,61
38.86667,62
38.87500,62
38.88333,62
38.89167,62
38.90000,62
38.90833,62
38.91667,62
38.92500,63
38.93333,63
38.94167,63
38.95000,63
38.95833,63
38.96667,62
38.97500,62
38.98333,62
38.99167,62
39.00000,62
39.00833,62
39.01667,61
39.02500,61
39.03333,60
39.04167,60
39.05000,59
39.05833,59
39.06667,59
39.07500,59
39.08333,59
39.09167,59
39.10000,59
39.10833,59
39.11667,58
39.12500,58
39.13333,57
39.14167,57
39.15000,56
39.15833,56
39.16667,56
39.17500,55
39.18333,55
39.19167,55
39.20000,54
39.20833,54
39.21667,54
39.22500,53
39.23333,53
39.24167,53
39.25000,53
39.25833,53
39.26667,53
39.27500,53
39.28333,53
39.29167,53
39.30000,52
39.30833,52
39.31667,52
39.32500,52
39.33333,51
39.34167,51
39.35000,51
39.35833,52
39.36667,52
39.37500,52
39.38333,51
39.39167,51
39.40000,51
39.40833,51
39.41667,51
39.42500,51
39.43333,51
39.44167,51
39.45000,51
39.45833,51
39.46667,50
39.47500,51
39.48333,51
39.49167,51
39.50000,50
39.50833,50
39.51667,50
39.52500,50
39.53333,50
39.54167,50
39.55000,50
39.55833,50
39.56667,50
39.57500,50
39.58333,50
39.59167,50
39.60000,49
39.60833,49
39.61667,49
39.62500,49
39.63333,50
39.64167,50
39.65000,49
39.65833,49
39.66667,49
39.67500,49
39.68333,49
39.69167,49
39.70000,49
39.70833,49
39.71667,49
39.72500,49
39.73333,49
39.74167,49
39.75000,49
39.75833,49
39.76667,50
39.77500,50
39.78333,50
39.79167,50
39.80000,50
39.80833,50
39.81667,50
39.82500,50
39.83333,51
39.84167,51
39.85000,50
39.85833,50
39.86667,50
39.87500,50
39.88333,51
39.89167,50
39.90000,50
39.90833,50
39.91667,50
39.92500,50
39.93333,50
39.94167,50
39.95000,50
39.95833,50
39.96667,50
39.97500,50
39.98333,49
39.99167,49
40.00000,48

