[Header]
Application Name,LabSolutions
Version,5.97 SP1
Data File Name,C:\Users\cremerlab\Desktop\griffin\2021-04-05_NC_DM_calibration\2021-04-05_NC_DM_2.5mM_calibration_452021_005_018.lcd
Output Date,4/6/2021
Output Time,5:51:40 AM

[File Information]
Type,Data File
Generated,4/6/2021 5:11:20 AM
Generated by,System Administrator
Modified,4/6/2021 5:51:40 AM
Modified by,System Administrator

[Sample Information]
Operator Name,System Administrator
Acquired,4/6/2021 5:11:39 AM
Sample Type,1:Standard
Level,5
Sample Name,2021-04-05_DM_glucose_glycerol_acetate_10mM
Sample ID,005
ISTD Amount1,1
ISTD Amount2,1
ISTD Amount3,1
ISTD Amount4,1
ISTD Amount5,1
ISTD Amount6,1
ISTD Amount7,1
ISTD Amount8,1
ISTD Amount9,1
ISTD Amount10,1
ISTD Amount11,1
ISTD Amount12,1
ISTD Amount13,1
ISTD Amount14,1
ISTD Amount15,1
ISTD Amount16,1
ISTD Amount17,1
ISTD Amount18,1
ISTD Amount19,1
ISTD Amount20,1
ISTD Amount21,1
ISTD Amount22,1
ISTD Amount23,1
ISTD Amount24,1
ISTD Amount25,1
ISTD Amount26,1
ISTD Amount27,1
ISTD Amount28,1
ISTD Amount29,1
ISTD Amount30,1
ISTD Amount31,1
ISTD Amount32,1
Sample Amount,1
Dilution Factor,1
Vial#,23
Injection Volume,20

[Original Files]
Data File,C:\Users\cremerlab\Desktop\griffin\2021-04-05_NC_DM_calibration\2021-04-05_NC_DM_2.5mM_calibration_452021_005_018.lcd
Method File,C:\Users\cremerlab\Desktop\griffin\2021-04-05_NC_DM_calibration\2021-04-05_2.5mM_mobile.lcm
Batch File,C:\Users\cremerlab\Desktop\griffin\2021-04-05_NC_DM_calibration\2021-04-05_NC_DM_2.5mM_calibration.lcb
Report Format File,c:\LabSolutions\System\DEFAULT.lsr

[File Description]


[Configuration]
Instrument Name,HPLC-PC-Instrument1
Instrument #,1
Line #,1
# of Detectors,2
Detector ID,Detector A,Detector B
Detector Name,Detector A,Detector B
# of Channels,1,1

[Peak Table(Detector A)]
# of Peaks,0

[Peak Table(Detector B)]
# of Peaks,7
Peak#,R.Time,I.Time,F.Time,Area,Height,A/H,Conc.,Mark,ID#,Name,k',Plate #,Plate Ht.,Tailing,Resolution,Sep.Factor,Area Ratio,Height Ratio,Conc. %,Norm Conc.
1,10.887,10.433,11.792,261045,15436,16.911,0.000,   ,,,0.000,9354,16.035,1.034,0.000,0.000,0,0,0.000,0.000
2,13.989,12.558,14.250,1910998,49196,38.844,0.000,   ,,,0.285,3017,49.726,0.000,4.222,0.000,0,0,0.000,0.000
3,14.332,14.250,15.025,180597,11211,16.110,0.000, V ,,,0.316,1816,82.616,0.000,0.290,1.111,0,0,0.000,0.000
4,15.673,15.025,17.683,1268240,51159,24.790,0.000, V ,,,0.440,9384,15.984,1.151,1.346,1.389,0,0,0.000,0.000
5,19.080,18.800,19.533,1193,57,20.822,0.000,   ,,,0.752,18185,8.249,1.224,5.616,1.712,0,0,0.000,0.000
6,22.062,21.375,23.100,341390,12400,27.531,0.000,   ,,,1.026,14705,10.201,1.097,4.611,1.364,0,0,0.000,0.000
7,25.033,24.333,25.967,132814,4461,29.769,0.000,   ,,,1.299,16074,9.332,1.069,3.915,1.266,0,0,0.000,0.000

[LC Chromatogram(Detector B-Ch1)]
Interval(msec),500
# of Points,4801
Start Time(min),0.000
End Time(min),40.000
Intensity Units,mV
Intensity Multiplier,0.001
R.Time (min),Intensity
0.00000,4
0.00833,4
0.01667,0
0.02500,1
0.03333,1
0.04167,1
0.05000,2
0.05833,2
0.06667,2
0.07500,2
0.08333,2
0.09167,2
0.10000,2
0.10833,2
0.11667,2
0.12500,2
0.13333,2
0.14167,2
0.15000,2
0.15833,2
0.16667,2
0.17500,2
0.18333,2
0.19167,1
0.20000,1
0.20833,1
0.21667,-0
0.22500,-1
0.23333,-1
0.24167,-1
0.25000,-1
0.25833,-2
0.26667,-2
0.27500,-2
0.28333,-3
0.29167,-3
0.30000,-4
0.30833,-5
0.31667,-6
0.32500,-7
0.33333,-8
0.34167,-9
0.35000,-9
0.35833,-10
0.36667,-10
0.37500,-11
0.38333,-11
0.39167,-11
0.40000,-11
0.40833,-12
0.41667,-12
0.42500,-12
0.43333,-12
0.44167,-12
0.45000,-12
0.45833,-13
0.46667,-13
0.47500,-13
0.48333,-13
0.49167,-13
0.50000,-13
0.50833,-13
0.51667,-13
0.52500,-13
0.53333,-13
0.54167,-13
0.55000,-14
0.55833,-14
0.56667,-14
0.57500,-14
0.58333,-14
0.59167,-14
0.60000,-14
0.60833,-14
0.61667,-14
0.62500,-15
0.63333,-14
0.64167,-14
0.65000,-14
0.65833,-14
0.66667,-14
0.67500,-14
0.68333,-14
0.69167,-13
0.70000,-13
0.70833,-13
0.71667,-13
0.72500,-13
0.73333,-13
0.74167,-13
0.75000,-13
0.75833,-13
0.76667,-13
0.77500,-13
0.78333,-13
0.79167,-13
0.80000,-12
0.80833,-12
0.81667,-11
0.82500,-11
0.83333,-11
0.84167,-11
0.85000,-11
0.85833,-11
0.86667,-11
0.87500,-11
0.88333,-11
0.89167,-11
0.90000,-11
0.90833,-12
0.91667,-12
0.92500,-11
0.93333,-11
0.94167,-11
0.95000,-11
0.95833,-11
0.96667,-11
0.97500,-11
0.98333,-11
0.99167,-11
1.00000,-11
1.00833,-11
1.01667,-12
1.02500,-12
1.03333,-12
1.04167,-12
1.05000,-13
1.05833,-12
1.06667,-12
1.07500,-12
1.08333,-12
1.09167,-13
1.10000,-13
1.10833,-14
1.11667,-15
1.12500,-16
1.13333,-16
1.14167,-16
1.15000,-16
1.15833,-17
1.16667,-17
1.17500,-18
1.18333,-18
1.19167,-18
1.20000,-19
1.20833,-19
1.21667,-20
1.22500,-21
1.23333,-22
1.24167,-22
1.25000,-22
1.25833,-23
1.26667,-23
1.27500,-24
1.28333,-24
1.29167,-25
1.30000,-25
1.30833,-25
1.31667,-26
1.32500,-26
1.33333,-27
1.34167,-27
1.35000,-27
1.35833,-28
1.36667,-29
1.37500,-29
1.38333,-30
1.39167,-30
1.40000,-30
1.40833,-31
1.41667,-31
1.42500,-32
1.43333,-32
1.44167,-32
1.45000,-32
1.45833,-32
1.46667,-32
1.47500,-32
1.48333,-32
1.49167,-33
1.50000,-33
1.50833,-32
1.51667,-32
1.52500,-32
1.53333,-32
1.54167,-32
1.55000,-31
1.55833,-31
1.56667,-30
1.57500,-30
1.58333,-29
1.59167,-28
1.60000,-27
1.60833,-26
1.61667,-25
1.62500,-24
1.63333,-24
1.64167,-23
1.65000,-22
1.65833,-22
1.66667,-21
1.67500,-20
1.68333,-19
1.69167,-18
1.70000,-17
1.70833,-16
1.71667,-15
1.72500,-14
1.73333,-13
1.74167,-12
1.75000,-11
1.75833,-10
1.76667,-8
1.77500,-7
1.78333,-6
1.79167,-5
1.80000,-4
1.80833,-3
1.81667,-2
1.82500,-1
1.83333,-1
1.84167,0
1.85000,1
1.85833,2
1.86667,3
1.87500,4
1.88333,4
1.89167,5
1.90000,6
1.90833,6
1.91667,6
1.92500,7
1.93333,7
1.94167,8
1.95000,8
1.95833,8
1.96667,8
1.97500,8
1.98333,8
1.99167,8
2.00000,8
2.00833,8
2.01667,8
2.02500,8
2.03333,8
2.04167,8
2.05000,7
2.05833,7
2.06667,6
2.07500,6
2.08333,6
2.09167,5
2.10000,5
2.10833,5
2.11667,4
2.12500,4
2.13333,4
2.14167,3
2.15000,3
2.15833,2
2.16667,2
2.17500,1
2.18333,1
2.19167,1
2.20000,0
2.20833,-1
2.21667,-1
2.22500,-1
2.23333,-2
2.24167,-2
2.25000,-2
2.25833,-3
2.26667,-3
2.27500,-3
2.28333,-3
2.29167,-3
2.30000,-3
2.30833,-4
2.31667,-4
2.32500,-4
2.33333,-4
2.34167,-4
2.35000,-4
2.35833,-4
2.36667,-4
2.37500,-4
2.38333,-3
2.39167,-3
2.40000,-3
2.40833,-3
2.41667,-3
2.42500,-3
2.43333,-3
2.44167,-3
2.45000,-3
2.45833,-3
2.46667,-2
2.47500,-2
2.48333,-2
2.49167,-2
2.50000,-2
2.50833,-2
2.51667,-2
2.52500,-2
2.53333,-2
2.54167,-2
2.55000,-3
2.55833,-3
2.56667,-3
2.57500,-3
2.58333,-3
2.59167,-4
2.60000,-4
2.60833,-4
2.61667,-5
2.62500,-6
2.63333,-7
2.64167,-7
2.65000,-7
2.65833,-8
2.66667,-8
2.67500,-9
2.68333,-9
2.69167,-10
2.70000,-10
2.70833,-11
2.71667,-11
2.72500,-11
2.73333,-12
2.74167,-13
2.75000,-14
2.75833,-15
2.76667,-15
2.77500,-16
2.78333,-16
2.79167,-16
2.80000,-17
2.80833,-18
2.81667,-19
2.82500,-19
2.83333,-20
2.84167,-20
2.85000,-20
2.85833,-20
2.86667,-20
2.87500,-20
2.88333,-21
2.89167,-21
2.90000,-22
2.90833,-22
2.91667,-23
2.92500,-23
2.93333,-23
2.94167,-23
2.95000,-23
2.95833,-23
2.96667,-23
2.97500,-22
2.98333,-22
2.99167,-22
3.00000,-21
3.00833,-21
3.01667,-21
3.02500,-21
3.03333,-21
3.04167,-21
3.05000,-21
3.05833,-21
3.06667,-21
3.07500,-20
3.08333,-20
3.09167,-20
3.10000,-20
3.10833,-20
3.11667,-19
3.12500,-19
3.13333,-19
3.14167,-19
3.15000,-19
3.15833,-19
3.16667,-19
3.17500,-19
3.18333,-19
3.19167,-18
3.20000,-18
3.20833,-17
3.21667,-17
3.22500,-17
3.23333,-17
3.24167,-17
3.25000,-17
3.25833,-17
3.26667,-16
3.27500,-16
3.28333,-16
3.29167,-16
3.30000,-16
3.30833,-16
3.31667,-15
3.32500,-15
3.33333,-15
3.34167,-15
3.35000,-15
3.35833,-15
3.36667,-15
3.37500,-14
3.38333,-14
3.39167,-14
3.40000,-14
3.40833,-14
3.41667,-13
3.42500,-13
3.43333,-13
3.44167,-13
3.45000,-13
3.45833,-13
3.46667,-13
3.47500,-13
3.48333,-13
3.49167,-13
3.50000,-13
3.50833,-13
3.51667,-12
3.52500,-12
3.53333,-12
3.54167,-11
3.55000,-11
3.55833,-11
3.56667,-11
3.57500,-11
3.58333,-10
3.59167,-10
3.60000,-10
3.60833,-9
3.61667,-9
3.62500,-9
3.63333,-8
3.64167,-8
3.65000,-7
3.65833,-7
3.66667,-6
3.67500,-6
3.68333,-5
3.69167,-5
3.70000,-5
3.70833,-4
3.71667,-4
3.72500,-4
3.73333,-3
3.74167,-3
3.75000,-3
3.75833,-2
3.76667,-1
3.77500,-1
3.78333,-0
3.79167,0
3.80000,1
3.80833,1
3.81667,1
3.82500,2
3.83333,3
3.84167,4
3.85000,4
3.85833,5
3.86667,5
3.87500,6
3.88333,7
3.89167,7
3.90000,8
3.90833,8
3.91667,7
3.92500,7
3.93333,8
3.94167,8
3.95000,8
3.95833,8
3.96667,8
3.97500,8
3.98333,9
3.99167,9
4.00000,9
4.00833,9
4.01667,9
4.02500,8
4.03333,9
4.04167,9
4.05000,8
4.05833,8
4.06667,8
4.07500,7
4.08333,7
4.09167,7
4.10000,6
4.10833,6
4.11667,6
4.12500,6
4.13333,6
4.14167,5
4.15000,5
4.15833,5
4.16667,4
4.17500,4
4.18333,4
4.19167,3
4.20000,3
4.20833,3
4.21667,3
4.22500,2
4.23333,2
4.24167,2
4.25000,2
4.25833,2
4.26667,2
4.27500,1
4.28333,1
4.29167,1
4.30000,1
4.30833,1
4.31667,0
4.32500,0
4.33333,0
4.34167,0
4.35000,0
4.35833,0
4.36667,-0
4.37500,-0
4.38333,0
4.39167,-0
4.40000,-0
4.40833,-0
4.41667,-0
4.42500,-0
4.43333,-0
4.44167,-0
4.45000,-0
4.45833,-0
4.46667,0
4.47500,0
4.48333,0
4.49167,0
4.50000,0
4.50833,-0
4.51667,-0
4.52500,-0
4.53333,0
4.54167,-0
4.55000,-0
4.55833,-0
4.56667,-0
4.57500,-0
4.58333,0
4.59167,0
4.60000,0
4.60833,1
4.61667,1
4.62500,1
4.63333,1
4.64167,1
4.65000,0
4.65833,0
4.66667,0
4.67500,0
4.68333,0
4.69167,-0
4.70000,-1
4.70833,-1
4.71667,-1
4.72500,-1
4.73333,-1
4.74167,-1
4.75000,-1
4.75833,-2
4.76667,-2
4.77500,-3
4.78333,-3
4.79167,-3
4.80000,-3
4.80833,-3
4.81667,-4
4.82500,-4
4.83333,-5
4.84167,-5
4.85000,-6
4.85833,-6
4.86667,-6
4.87500,-7
4.88333,-7
4.89167,-7
4.90000,-7
4.90833,-7
4.91667,-8
4.92500,-8
4.93333,-8
4.94167,-8
4.95000,-8
4.95833,-8
4.96667,-8
4.97500,-8
4.98333,-9
4.99167,-9
5.00000,-9
5.00833,-9
5.01667,-8
5.02500,-8
5.03333,-8
5.04167,-8
5.05000,-8
5.05833,-7
5.06667,-7
5.07500,-7
5.08333,-6
5.09167,-6
5.10000,-6
5.10833,-6
5.11667,-6
5.12500,-5
5.13333,-5
5.14167,-4
5.15000,-3
5.15833,-3
5.16667,-2
5.17500,-2
5.18333,-2
5.19167,-1
5.20000,-0
5.20833,0
5.21667,1
5.22500,2
5.23333,3
5.24167,3
5.25000,4
5.25833,4
5.26667,5
5.27500,5
5.28333,5
5.29167,6
5.30000,6
5.30833,7
5.31667,7
5.32500,7
5.33333,8
5.34167,8
5.35000,9
5.35833,10
5.36667,10
5.37500,10
5.38333,11
5.39167,11
5.40000,11
5.40833,11
5.41667,11
5.42500,12
5.43333,12
5.44167,12
5.45000,12
5.45833,12
5.46667,12
5.47500,12
5.48333,12
5.49167,13
5.50000,13
5.50833,13
5.51667,13
5.52500,13
5.53333,12
5.54167,12
5.55000,11
5.55833,11
5.56667,11
5.57500,11
5.58333,11
5.59167,11
5.60000,11
5.60833,11
5.61667,10
5.62500,9
5.63333,8
5.64167,8
5.65000,7
5.65833,6
5.66667,5
5.67500,4
5.68333,4
5.69167,3
5.70000,3
5.70833,2
5.71667,1
5.72500,1
5.73333,-0
5.74167,-1
5.75000,-2
5.75833,-3
5.76667,-3
5.77500,-4
5.78333,-5
5.79167,-5
5.80000,-6
5.80833,-7
5.81667,-8
5.82500,-9
5.83333,-10
5.84167,-11
5.85000,-11
5.85833,-12
5.86667,-12
5.87500,-13
5.88333,-13
5.89167,-14
5.90000,-15
5.90833,-15
5.91667,-15
5.92500,-16
5.93333,-16
5.94167,-17
5.95000,-17
5.95833,-17
5.96667,-17
5.97500,-18
5.98333,-18
5.99167,-18
6.00000,-18
6.00833,-18
6.01667,-18
6.02500,-18
6.03333,-18
6.04167,-18
6.05000,-18
6.05833,-18
6.06667,-18
6.07500,-18
6.08333,-18
6.09167,-17
6.10000,-17
6.10833,-17
6.11667,-17
6.12500,-16
6.13333,-16
6.14167,-16
6.15000,-15
6.15833,-15
6.16667,-14
6.17500,-14
6.18333,-14
6.19167,-13
6.20000,-13
6.20833,-13
6.21667,-12
6.22500,-11
6.23333,-10
6.24167,-9
6.25000,-9
6.25833,-8
6.26667,-7
6.27500,-6
6.28333,-5
6.29167,-5
6.30000,-5
6.30833,-4
6.31667,-4
6.32500,-4
6.33333,-3
6.34167,-3
6.35000,-2
6.35833,-2
6.36667,-1
6.37500,-1
6.38333,0
6.39167,0
6.40000,1
6.40833,1
6.41667,1
6.42500,2
6.43333,2
6.44167,3
6.45000,3
6.45833,3
6.46667,4
6.47500,4
6.48333,5
6.49167,5
6.50000,5
6.50833,6
6.51667,6
6.52500,6
6.53333,7
6.54167,7
6.55000,7
6.55833,7
6.56667,7
6.57500,7
6.58333,8
6.59167,8
6.60000,8
6.60833,8
6.61667,9
6.62500,9
6.63333,9
6.64167,9
6.65000,9
6.65833,8
6.66667,8
6.67500,7
6.68333,7
6.69167,7
6.70000,7
6.70833,7
6.71667,7
6.72500,7
6.73333,7
6.74167,7
6.75000,7
6.75833,7
6.76667,6
6.77500,6
6.78333,6
6.79167,5
6.80000,5
6.80833,4
6.81667,4
6.82500,3
6.83333,3
6.84167,3
6.85000,3
6.85833,3
6.86667,3
6.87500,3
6.88333,3
6.89167,4
6.90000,4
6.90833,4
6.91667,4
6.92500,4
6.93333,4
6.94167,4
6.95000,4
6.95833,4
6.96667,5
6.97500,5
6.98333,5
6.99167,4
7.00000,4
7.00833,5
7.01667,5
7.02500,5
7.03333,6
7.04167,6
7.05000,6
7.05833,7
7.06667,7
7.07500,7
7.08333,8
7.09167,8
7.10000,8
7.10833,8
7.11667,8
7.12500,8
7.13333,8
7.14167,8
7.15000,8
7.15833,8
7.16667,8
7.17500,8
7.18333,8
7.19167,8
7.20000,9
7.20833,8
7.21667,8
7.22500,9
7.23333,9
7.24167,9
7.25000,9
7.25833,9
7.26667,9
7.27500,9
7.28333,10
7.29167,10
7.30000,10
7.30833,10
7.31667,10
7.32500,10
7.33333,10
7.34167,10
7.35000,10
7.35833,10
7.36667,10
7.37500,10
7.38333,10
7.39167,10
7.40000,10
7.40833,10
7.41667,10
7.42500,10
7.43333,9
7.44167,9
7.45000,9
7.45833,9
7.46667,9
7.47500,8
7.48333,8
7.49167,8
7.50000,8
7.50833,8
7.51667,7
7.52500,7
7.53333,6
7.54167,6
7.55000,6
7.55833,6
7.56667,5
7.57500,4
7.58333,4
7.59167,3
7.60000,3
7.60833,3
7.61667,3
7.62500,3
7.63333,2
7.64167,2
7.65000,2
7.65833,2
7.66667,1
7.67500,1
7.68333,1
7.69167,1
7.70000,1
7.70833,1
7.71667,1
7.72500,0
7.73333,0
7.74167,0
7.75000,0
7.75833,0
7.76667,0
7.77500,0
7.78333,0
7.79167,0
7.80000,0
7.80833,0
7.81667,1
7.82500,1
7.83333,1
7.84167,1
7.85000,1
7.85833,0
7.86667,0
7.87500,1
7.88333,1
7.89167,1
7.90000,2
7.90833,2
7.91667,2
7.92500,3
7.93333,3
7.94167,3
7.95000,4
7.95833,4
7.96667,4
7.97500,4
7.98333,4
7.99167,4
8.00000,5
8.00833,5
8.01667,5
8.02500,6
8.03333,6
8.04167,6
8.05000,7
8.05833,7
8.06667,7
8.07500,7
8.08333,7
8.09167,7
8.10000,8
8.10833,8
8.11667,8
8.12500,8
8.13333,9
8.14167,9
8.15000,9
8.15833,9
8.16667,9
8.17500,9
8.18333,9
8.19167,10
8.20000,10
8.20833,10
8.21667,11
8.22500,11
8.23333,11
8.24167,11
8.25000,12
8.25833,12
8.26667,12
8.27500,12
8.28333,12
8.29167,12
8.30000,12
8.30833,12
8.31667,13
8.32500,13
8.33333,13
8.34167,13
8.35000,13
8.35833,13
8.36667,13
8.37500,13
8.38333,14
8.39167,14
8.40000,14
8.40833,14
8.41667,14
8.42500,14
8.43333,14
8.44167,14
8.45000,14
8.45833,14
8.46667,14
8.47500,14
8.48333,14
8.49167,14
8.50000,14
8.50833,14
8.51667,14
8.52500,14
8.53333,13
8.54167,13
8.55000,13
8.55833,13
8.56667,13
8.57500,13
8.58333,13
8.59167,12
8.60000,12
8.60833,12
8.61667,11
8.62500,11
8.63333,10
8.64167,10
8.65000,10
8.65833,9
8.66667,9
8.67500,8
8.68333,7
8.69167,6
8.70000,5
8.70833,5
8.71667,4
8.72500,3
8.73333,2
8.74167,1
8.75000,0
8.75833,-0
8.76667,-1
8.77500,-1
8.78333,-2
8.79167,-3
8.80000,-4
8.80833,-5
8.81667,-6
8.82500,-6
8.83333,-7
8.84167,-7
8.85000,-8
8.85833,-8
8.86667,-8
8.87500,-9
8.88333,-9
8.89167,-9
8.90000,-10
8.90833,-10
8.91667,-11
8.92500,-11
8.93333,-11
8.94167,-11
8.95000,-11
8.95833,-11
8.96667,-12
8.97500,-12
8.98333,-11
8.99167,-11
9.00000,-11
9.00833,-11
9.01667,-11
9.02500,-11
9.03333,-11
9.04167,-11
9.05000,-11
9.05833,-10
9.06667,-10
9.07500,-10
9.08333,-9
9.09167,-9
9.10000,-9
9.10833,-8
9.11667,-8
9.12500,-8
9.13333,-7
9.14167,-7
9.15000,-7
9.15833,-7
9.16667,-6
9.17500,-6
9.18333,-6
9.19167,-5
9.20000,-5
9.20833,-5
9.21667,-5
9.22500,-5
9.23333,-5
9.24167,-5
9.25000,-4
9.25833,-3
9.26667,-3
9.27500,-2
9.28333,-2
9.29167,-2
9.30000,-1
9.30833,-1
9.31667,-1
9.32500,-1
9.33333,-0
9.34167,0
9.35000,1
9.35833,1
9.36667,1
9.37500,1
9.38333,1
9.39167,1
9.40000,1
9.40833,2
9.41667,2
9.42500,3
9.43333,4
9.44167,4
9.45000,5
9.45833,5
9.46667,6
9.47500,6
9.48333,6
9.49167,7
9.50000,7
9.50833,7
9.51667,8
9.52500,8
9.53333,8
9.54167,9
9.55000,9
9.55833,9
9.56667,10
9.57500,10
9.58333,10
9.59167,11
9.60000,11
9.60833,12
9.61667,12
9.62500,13
9.63333,13
9.64167,13
9.65000,13
9.65833,13
9.66667,13
9.67500,13
9.68333,13
9.69167,14
9.70000,14
9.70833,14
9.71667,14
9.72500,15
9.73333,15
9.74167,14
9.75000,14
9.75833,14
9.76667,15
9.77500,15
9.78333,15
9.79167,15
9.80000,16
9.80833,16
9.81667,16
9.82500,16
9.83333,16
9.84167,16
9.85000,16
9.85833,16
9.86667,16
9.87500,16
9.88333,16
9.89167,16
9.90000,16
9.90833,16
9.91667,16
9.92500,17
9.93333,17
9.94167,17
9.95000,17
9.95833,16
9.96667,16
9.97500,15
9.98333,15
9.99167,16
10.00000,16
10.00833,16
10.01667,16
10.02500,16
10.03333,16
10.04167,16
10.05000,16
10.05833,16
10.06667,15
10.07500,15
10.08333,15
10.09167,15
10.10000,15
10.10833,15
10.11667,15
10.12500,15
10.13333,15
10.14167,15
10.15000,15
10.15833,15
10.16667,15
10.17500,15
10.18333,15
10.19167,15
10.20000,15
10.20833,15
10.21667,15
10.22500,15
10.23333,15
10.24167,16
10.25000,16
10.25833,16
10.26667,16
10.27500,17
10.28333,17
10.29167,17
10.30000,18
10.30833,18
10.31667,18
10.32500,19
10.33333,19
10.34167,20
10.35000,20
10.35833,21
10.36667,21
10.37500,22
10.38333,22
10.39167,22
10.40000,23
10.40833,23
10.41667,24
10.42500,25
10.43333,26
10.44167,26
10.45000,27
10.45833,28
10.46667,30
10.47500,32
10.48333,35
10.49167,39
10.50000,45
10.50833,53
10.51667,64
10.52500,78
10.53333,97
10.54167,121
10.55000,151
10.55833,189
10.56667,236
10.57500,294
10.58333,365
10.59167,450
10.60000,552
10.60833,673
10.61667,815
10.62500,980
10.63333,1172
10.64167,1391
10.65000,1640
10.65833,1922
10.66667,2237
10.67500,2587
10.68333,2973
10.69167,3395
10.70000,3854
10.70833,4349
10.71667,4879
10.72500,5442
10.73333,6036
10.74167,6658
10.75000,7304
10.75833,7969
10.76667,8648
10.77500,9335
10.78333,10022
10.79167,10703
10.80000,11370
10.80833,12015
10.81667,12629
10.82500,13204
10.83333,13730
10.84167,14200
10.85000,14606
10.85833,14940
10.86667,15196
10.87500,15369
10.88333,15456
10.89167,15453
10.90000,15361
10.90833,15180
10.91667,14913
10.92500,14565
10.93333,14141
10.94167,13648
10.95000,13096
10.95833,12494
10.96667,11852
10.97500,11179
10.98333,10486
10.99167,9783
11.00000,9080
11.00833,8384
11.01667,7704
11.02500,7045
11.03333,6414
11.04167,5815
11.05000,5250
11.05833,4722
11.06667,4232
11.07500,3780
11.08333,3366
11.09167,2989
11.10000,2647
11.10833,2338
11.11667,2062
11.12500,1815
11.13333,1594
11.14167,1398
11.15000,1225
11.15833,1072
11.16667,938
11.17500,820
11.18333,716
11.19167,626
11.20000,548
11.20833,479
11.21667,420
11.22500,368
11.23333,324
11.24167,285
11.25000,252
11.25833,223
11.26667,199
11.27500,178
11.28333,160
11.29167,145
11.30000,132
11.30833,121
11.31667,111
11.32500,103
11.33333,96
11.34167,90
11.35000,84
11.35833,79
11.36667,75
11.37500,72
11.38333,69
11.39167,66
11.40000,63
11.40833,61
11.41667,59
11.42500,57
11.43333,55
11.44167,53
11.45000,51
11.45833,49
11.46667,47
11.47500,46
11.48333,44
11.49167,43
11.50000,41
11.50833,40
11.51667,38
11.52500,37
11.53333,35
11.54167,33
11.55000,32
11.55833,31
11.56667,29
11.57500,28
11.58333,27
11.59167,25
11.60000,24
11.60833,22
11.61667,21
11.62500,21
11.63333,20
11.64167,20
11.65000,19
11.65833,18
11.66667,17
11.67500,16
11.68333,15
11.69167,14
11.70000,13
11.70833,13
11.71667,12
11.72500,12
11.73333,12
11.74167,11
11.75000,10
11.75833,10
11.76667,9
11.77500,9
11.78333,9
11.79167,8
11.80000,8
11.80833,8
11.81667,8
11.82500,7
11.83333,7
11.84167,8
11.85000,8
11.85833,8
11.86667,8
11.87500,8
11.88333,7
11.89167,7
11.90000,7
11.90833,6
11.91667,6
11.92500,6
11.93333,6
11.94167,7
11.95000,7
11.95833,7
11.96667,7
11.97500,7
11.98333,7
11.99167,7
12.00000,7
12.00833,7
12.01667,7
12.02500,7
12.03333,7
12.04167,7
12.05000,7
12.05833,8
12.06667,8
12.07500,8
12.08333,8
12.09167,8
12.10000,9
12.10833,9
12.11667,9
12.12500,9
12.13333,9
12.14167,9
12.15000,10
12.15833,10
12.16667,10
12.17500,10
12.18333,11
12.19167,12
12.20000,12
12.20833,12
12.21667,12
12.22500,12
12.23333,12
12.24167,12
12.25000,12
12.25833,12
12.26667,12
12.27500,13
12.28333,13
12.29167,14
12.30000,15
12.30833,15
12.31667,16
12.32500,17
12.33333,17
12.34167,17
12.35000,18
12.35833,18
12.36667,19
12.37500,19
12.38333,20
12.39167,21
12.40000,21
12.40833,22
12.41667,22
12.42500,23
12.43333,24
12.44167,24
12.45000,24
12.45833,24
12.46667,25
12.47500,25
12.48333,26
12.49167,26
12.50000,26
12.50833,26
12.51667,27
12.52500,28
12.53333,28
12.54167,29
12.55000,29
12.55833,30
12.56667,30
12.57500,31
12.58333,32
12.59167,34
12.60000,36
12.60833,38
12.61667,40
12.62500,44
12.63333,48
12.64167,54
12.65000,60
12.65833,69
12.66667,78
12.67500,90
12.68333,104
12.69167,121
12.70000,141
12.70833,165
12.71667,192
12.72500,223
12.73333,258
12.74167,299
12.75000,344
12.75833,395
12.76667,452
12.77500,514
12.78333,583
12.79167,658
12.80000,740
12.80833,828
12.81667,923
12.82500,1026
12.83333,1135
12.84167,1251
12.85000,1373
12.85833,1502
12.86667,1638
12.87500,1779
12.88333,1928
12.89167,2082
12.90000,2243
12.90833,2410
12.91667,2583
12.92500,2761
12.93333,2945
12.94167,3134
12.95000,3327
12.95833,3526
12.96667,3729
12.97500,3937
12.98333,4149
12.99167,4365
13.00000,4585
13.00833,4810
13.01667,5037
13.02500,5269
13.03333,5505
13.04167,5744
13.05000,5986
13.05833,6231
13.06667,6480
13.07500,6732
13.08333,6987
13.09167,7245
13.10000,7506
13.10833,7770
13.11667,8036
13.12500,8306
13.13333,8578
13.14167,8852
13.15000,9130
13.15833,9410
13.16667,9692
13.17500,9977
13.18333,10265
13.19167,10555
13.20000,10848
13.20833,11143
13.21667,11440
13.22500,11740
13.23333,12043
13.24167,12348
13.25000,12655
13.25833,12964
13.26667,13276
13.27500,13591
13.28333,13907
13.29167,14226
13.30000,14548
13.30833,14871
13.31667,15198
13.32500,15526
13.33333,15857
13.34167,16191
13.35000,16526
13.35833,16864
13.36667,17205
13.37500,17548
13.38333,17893
13.39167,18241
13.40000,18592
13.40833,18944
13.41667,19299
13.42500,19657
13.43333,20017
13.44167,20380
13.45000,20745
13.45833,21114
13.46667,21484
13.47500,21858
13.48333,22234
13.49167,22613
13.50000,22994
13.50833,23379
13.51667,23766
13.52500,24155
13.53333,24547
13.54167,24943
13.55000,25341
13.55833,25741
13.56667,26145
13.57500,26551
13.58333,26961
13.59167,27373
13.60000,27788
13.60833,28207
13.61667,28629
13.62500,29053
13.63333,29480
13.64167,29910
13.65000,30344
13.65833,30781
13.66667,31220
13.67500,31663
13.68333,32109
13.69167,32558
13.70000,33011
13.70833,33467
13.71667,33926
13.72500,34388
13.73333,34854
13.74167,35323
13.75000,35796
13.75833,36272
13.76667,36751
13.77500,37234
13.78333,37719
13.79167,38209
13.80000,38701
13.80833,39197
13.81667,39698
13.82500,40201
13.83333,40709
13.84167,41220
13.85000,41734
13.85833,42252
13.86667,42774
13.87500,43299
13.88333,43828
13.89167,44359
13.90000,44893
13.90833,45428
13.91667,45963
13.92500,46493
13.93333,47013
13.94167,47516
13.95000,47989
13.95833,48419
13.96667,48784
13.97500,49063
13.98333,49229
13.99167,49256
14.00000,49114
14.00833,48776
14.01667,48220
14.02500,47428
14.03333,46390
14.04167,45107
14.05000,43585
14.05833,41843
14.06667,39909
14.07500,37816
14.08333,35604
14.09167,33318
14.10000,31001
14.10833,28699
14.11667,26452
14.12500,24298
14.13333,22267
14.14167,20385
14.15000,18668
14.15833,17127
14.16667,15770
14.17500,14594
14.18333,13595
14.19167,12765
14.20000,12092
14.20833,11565
14.21667,11167
14.22500,10884
14.23333,10699
14.24167,10599
14.25000,10567
14.25833,10590
14.26667,10653
14.27500,10742
14.28333,10848
14.29167,10958
14.30000,11062
14.30833,11153
14.31667,11223
14.32500,11266
14.33333,11278
14.34167,11254
14.35000,11193
14.35833,11094
14.36667,10956
14.37500,10780
14.38333,10567
14.39167,10320
14.40000,10042
14.40833,9735
14.41667,9404
14.42500,9053
14.43333,8685
14.44167,8305
14.45000,7916
14.45833,7522
14.46667,7127
14.47500,6733
14.48333,6345
14.49167,5964
14.50000,5594
14.50833,5235
14.51667,4889
14.52500,4558
14.53333,4243
14.54167,3944
14.55000,3662
14.55833,3396
14.56667,3147
14.57500,2915
14.58333,2699
14.59167,2498
14.60000,2312
14.60833,2141
14.61667,1984
14.62500,1838
14.63333,1705
14.64167,1583
14.65000,1471
14.65833,1369
14.66667,1276
14.67500,1191
14.68333,1113
14.69167,1042
14.70000,977
14.70833,918
14.71667,864
14.72500,815
14.73333,770
14.74167,730
14.75000,693
14.75833,659
14.76667,628
14.77500,600
14.78333,574
14.79167,550
14.80000,528
14.80833,509
14.81667,490
14.82500,474
14.83333,458
14.84167,443
14.85000,430
14.85833,418
14.86667,407
14.87500,397
14.88333,387
14.89167,379
14.90000,371
14.90833,363
14.91667,357
14.92500,351
14.93333,346
14.94167,341
14.95000,336
14.95833,332
14.96667,328
14.97500,325
14.98333,323
14.99167,321
15.00000,319
15.00833,318
15.01667,317
15.02500,317
15.03333,317
15.04167,317
15.05000,318
15.05833,319
15.06667,321
15.07500,323
15.08333,325
15.09167,328
15.10000,332
15.10833,337
15.11667,342
15.12500,349
15.13333,357
15.14167,367
15.15000,379
15.15833,393
15.16667,410
15.17500,431
15.18333,456
15.19167,486
15.20000,522
15.20833,566
15.21667,619
15.22500,682
15.23333,756
15.24167,845
15.25000,950
15.25833,1073
15.26667,1218
15.27500,1388
15.28333,1585
15.29167,1813
15.30000,2075
15.30833,2376
15.31667,2720
15.32500,3109
15.33333,3550
15.34167,4044
15.35000,4598
15.35833,5214
15.36667,5897
15.37500,6649
15.38333,7474
15.39167,8374
15.40000,9350
15.40833,10406
15.41667,11539
15.42500,12751
15.43333,14040
15.44167,15404
15.45000,16839
15.45833,18342
15.46667,19906
15.47500,21527
15.48333,23196
15.49167,24905
15.50000,26644
15.50833,28405
15.51667,30177
15.52500,31947
15.53333,33705
15.54167,35438
15.55000,37134
15.55833,38782
15.56667,40369
15.57500,41885
15.58333,43317
15.59167,44655
15.60000,45890
15.60833,47013
15.61667,48016
15.62500,48891
15.63333,49634
15.64167,50241
15.65000,50707
15.65833,51031
15.66667,51213
15.67500,51254
15.68333,51155
15.69167,50919
15.70000,50551
15.70833,50054
15.71667,49436
15.72500,48703
15.73333,47862
15.74167,46921
15.75000,45888
15.75833,44772
15.76667,43583
15.77500,42329
15.78333,41021
15.79167,39666
15.80000,38274
15.80833,36854
15.81667,35414
15.82500,33961
15.83333,32504
15.84167,31049
15.85000,29604
15.85833,28174
15.86667,26765
15.87500,25382
15.88333,24030
15.89167,22712
15.90000,21433
15.90833,20194
15.91667,18999
15.92500,17848
15.93333,16743
15.94167,15686
15.95000,14677
15.95833,13715
15.96667,12802
15.97500,11937
15.98333,11119
15.99167,10346
16.00000,9619
16.00833,8935
16.01667,8293
16.02500,7693
16.03333,7131
16.04167,6607
16.05000,6119
16.05833,5665
16.06667,5244
16.07500,4852
16.08333,4489
16.09167,4154
16.10000,3844
16.10833,3559
16.11667,3295
16.12500,3052
16.13333,2828
16.14167,2622
16.15000,2433
16.15833,2259
16.16667,2100
16.17500,1954
16.18333,1820
16.19167,1697
16.20000,1584
16.20833,1481
16.21667,1386
16.22500,1300
16.23333,1220
16.24167,1147
16.25000,1081
16.25833,1019
16.26667,963
16.27500,912
16.28333,865
16.29167,821
16.30000,781
16.30833,745
16.31667,711
16.32500,680
16.33333,651
16.34167,625
16.35000,601
16.35833,578
16.36667,557
16.37500,537
16.38333,519
16.39167,502
16.40000,487
16.40833,473
16.41667,460
16.42500,447
16.43333,435
16.44167,424
16.45000,414
16.45833,404
16.46667,395
16.47500,387
16.48333,379
16.49167,372
16.50000,365
16.50833,359
16.51667,352
16.52500,347
16.53333,341
16.54167,336
16.55000,332
16.55833,327
16.56667,323
16.57500,319
16.58333,315
16.59167,312
16.60000,308
16.60833,305
16.61667,302
16.62500,299
16.63333,296
16.64167,294
16.65000,291
16.65833,289
16.66667,287
16.67500,285
16.68333,283
16.69167,282
16.70000,280
16.70833,278
16.71667,277
16.72500,275
16.73333,274
16.74167,272
16.75000,271
16.75833,270
16.76667,269
16.77500,267
16.78333,266
16.79167,265
16.80000,263
16.80833,262
16.81667,261
16.82500,260
16.83333,259
16.84167,258
16.85000,257
16.85833,255
16.86667,254
16.87500,253
16.88333,252
16.89167,251
16.90000,250
16.90833,249
16.91667,248
16.92500,247
16.93333,246
16.94167,244
16.95000,244
16.95833,242
16.96667,241
16.97500,240
16.98333,238
16.99167,237
17.00000,236
17.00833,235
17.01667,233
17.02500,232
17.03333,231
17.04167,230
17.05000,229
17.05833,228
17.06667,227
17.07500,226
17.08333,225
17.09167,224
17.10000,222
17.10833,221
17.11667,220
17.12500,219
17.13333,217
17.14167,216
17.15000,215
17.15833,213
17.16667,212
17.17500,210
17.18333,209
17.19167,207
17.20000,206
17.20833,205
17.21667,203
17.22500,202
17.23333,201
17.24167,199
17.25000,198
17.25833,196
17.26667,195
17.27500,193
17.28333,192
17.29167,190
17.30000,189
17.30833,187
17.31667,185
17.32500,183
17.33333,182
17.34167,180
17.35000,179
17.35833,177
17.36667,175
17.37500,174
17.38333,172
17.39167,171
17.40000,170
17.40833,168
17.41667,167
17.42500,165
17.43333,164
17.44167,162
17.45000,161
17.45833,160
17.46667,158
17.47500,157
17.48333,156
17.49167,155
17.50000,154
17.50833,153
17.51667,151
17.52500,150
17.53333,149
17.54167,148
17.55000,147
17.55833,146
17.56667,145
17.57500,144
17.58333,144
17.59167,143
17.60000,142
17.60833,142
17.61667,142
17.62500,141
17.63333,141
17.64167,140
17.65000,139
17.65833,139
17.66667,138
17.67500,138
17.68333,138
17.69167,138
17.70000,137
17.70833,137
17.71667,136
17.72500,136
17.73333,136
17.74167,135
17.75000,135
17.75833,135
17.76667,135
17.77500,134
17.78333,134
17.79167,134
17.80000,133
17.80833,133
17.81667,132
17.82500,132
17.83333,131
17.84167,131
17.85000,130
17.85833,130
17.86667,129
17.87500,128
17.88333,127
17.89167,127
17.90000,126
17.90833,125
17.91667,124
17.92500,123
17.93333,122
17.94167,122
17.95000,121
17.95833,120
17.96667,119
17.97500,118
17.98333,117
17.99167,116
18.00000,115
18.00833,114
18.01667,113
18.02500,113
18.03333,112
18.04167,111
18.05000,111
18.05833,110
18.06667,110
18.07500,109
18.08333,107
18.09167,106
18.10000,105
18.10833,104
18.11667,103
18.12500,103
18.13333,102
18.14167,102
18.15000,102
18.15833,102
18.16667,101
18.17500,101
18.18333,100
18.19167,100
18.20000,99
18.20833,99
18.21667,99
18.22500,99
18.23333,98
18.24167,98
18.25000,98
18.25833,97
18.26667,97
18.27500,96
18.28333,96
18.29167,96
18.30000,96
18.30833,96
18.31667,96
18.32500,96
18.33333,96
18.34167,96
18.35000,96
18.35833,95
18.36667,95
18.37500,95
18.38333,94
18.39167,94
18.40000,94
18.40833,94
18.41667,93
18.42500,93
18.43333,93
18.44167,92
18.45000,92
18.45833,92
18.46667,92
18.47500,91
18.48333,91
18.49167,91
18.50000,91
18.50833,90
18.51667,90
18.52500,89
18.53333,89
18.54167,88
18.55000,88
18.55833,87
18.56667,87
18.57500,87
18.58333,86
18.59167,86
18.60000,86
18.60833,85
18.61667,85
18.62500,84
18.63333,84
18.64167,83
18.65000,83
18.65833,82
18.66667,81
18.67500,81
18.68333,81
18.69167,80
18.70000,81
18.70833,81
18.71667,81
18.72500,82
18.73333,82
18.74167,82
18.75000,82
18.75833,82
18.76667,83
18.77500,84
18.78333,85
18.79167,86
18.80000,86
18.80833,87
18.81667,88
18.82500,89
18.83333,91
18.84167,93
18.85000,95
18.85833,97
18.86667,99
18.87500,100
18.88333,102
18.89167,104
18.90000,106
18.90833,108
18.91667,110
18.92500,112
18.93333,114
18.94167,116
18.95000,118
18.95833,121
18.96667,123
18.97500,125
18.98333,127
18.99167,128
19.00000,129
19.00833,131
19.01667,132
19.02500,133
19.03333,134
19.04167,135
19.05000,136
19.05833,137
19.06667,137
19.07500,137
19.08333,137
19.09167,137
19.10000,137
19.10833,136
19.11667,135
19.12500,134
19.13333,133
19.14167,132
19.15000,131
19.15833,129
19.16667,128
19.17500,126
19.18333,124
19.19167,122
19.20000,120
19.20833,118
19.21667,116
19.22500,114
19.23333,112
19.24167,110
19.25000,108
19.25833,106
19.26667,104
19.27500,102
19.28333,100
19.29167,98
19.30000,97
19.30833,95
19.31667,94
19.32500,93
19.33333,91
19.34167,90
19.35000,88
19.35833,86
19.36667,84
19.37500,83
19.38333,82
19.39167,81
19.40000,80
19.40833,79
19.41667,78
19.42500,77
19.43333,76
19.44167,76
19.45000,75
19.45833,75
19.46667,74
19.47500,73
19.48333,73
19.49167,72
19.50000,72
19.50833,71
19.51667,71
19.52500,70
19.53333,70
19.54167,70
19.55000,70
19.55833,69
19.56667,69
19.57500,68
19.58333,68
19.59167,68
19.60000,68
19.60833,68
19.61667,67
19.62500,67
19.63333,67
19.64167,67
19.65000,67
19.65833,67
19.66667,66
19.67500,66
19.68333,66
19.69167,65
19.70000,65
19.70833,65
19.71667,64
19.72500,64
19.73333,64
19.74167,64
19.75000,64
19.75833,63
19.76667,63
19.77500,63
19.78333,62
19.79167,62
19.80000,62
19.80833,62
19.81667,61
19.82500,61
19.83333,61
19.84167,60
19.85000,60
19.85833,60
19.86667,60
19.87500,59
19.88333,59
19.89167,59
19.90000,59
19.90833,59
19.91667,58
19.92500,58
19.93333,57
19.94167,57
19.95000,56
19.95833,55
19.96667,55
19.97500,55
19.98333,54
19.99167,54
20.00000,53
20.00833,53
20.01667,52
20.02500,52
20.03333,51
20.04167,51
20.05000,50
20.05833,49
20.06667,48
20.07500,47
20.08333,46
20.09167,45
20.10000,44
20.10833,44
20.11667,44
20.12500,43
20.13333,43
20.14167,42
20.15000,42
20.15833,41
20.16667,41
20.17500,40
20.18333,39
20.19167,39
20.20000,38
20.20833,38
20.21667,38
20.22500,38
20.23333,37
20.24167,37
20.25000,37
20.25833,37
20.26667,37
20.27500,36
20.28333,37
20.29167,37
20.30000,37
20.30833,38
20.31667,38
20.32500,38
20.33333,38
20.34167,39
20.35000,39
20.35833,40
20.36667,40
20.37500,40
20.38333,41
20.39167,41
20.40000,42
20.40833,43
20.41667,43
20.42500,44
20.43333,45
20.44167,46
20.45000,47
20.45833,48
20.46667,48
20.47500,49
20.48333,50
20.49167,51
20.50000,52
20.50833,52
20.51667,53
20.52500,54
20.53333,55
20.54167,56
20.55000,56
20.55833,57
20.56667,58
20.57500,58
20.58333,59
20.59167,60
20.60000,60
20.60833,61
20.61667,61
20.62500,62
20.63333,62
20.64167,62
20.65000,63
20.65833,63
20.66667,63
20.67500,63
20.68333,64
20.69167,64
20.70000,64
20.70833,64
20.71667,64
20.72500,64
20.73333,64
20.74167,65
20.75000,65
20.75833,65
20.76667,65
20.77500,65
20.78333,66
20.79167,66
20.80000,66
20.80833,66
20.81667,66
20.82500,66
20.83333,66
20.84167,66
20.85000,66
20.85833,66
20.86667,66
20.87500,66
20.88333,66
20.89167,66
20.90000,65
20.90833,65
20.91667,65
20.92500,66
20.93333,66
20.94167,67
20.95000,67
20.95833,67
20.96667,67
20.97500,67
20.98333,67
20.99167,67
21.00000,67
21.00833,67
21.01667,67
21.02500,67
21.03333,67
21.04167,67
21.05000,67
21.05833,67
21.06667,67
21.07500,67
21.08333,67
21.09167,67
21.10000,68
21.10833,68
21.11667,68
21.12500,68
21.13333,68
21.14167,68
21.15000,68
21.15833,68
21.16667,68
21.17500,68
21.18333,68
21.19167,68
21.20000,68
21.20833,68
21.21667,68
21.22500,68
21.23333,67
21.24167,67
21.25000,67
21.25833,66
21.26667,66
21.27500,66
21.28333,65
21.29167,65
21.30000,65
21.30833,65
21.31667,65
21.32500,64
21.33333,65
21.34167,65
21.35000,65
21.35833,65
21.36667,66
21.37500,66
21.38333,67
21.39167,68
21.40000,69
21.40833,70
21.41667,72
21.42500,74
21.43333,76
21.44167,79
21.45000,82
21.45833,86
21.46667,91
21.47500,96
21.48333,102
21.49167,109
21.50000,117
21.50833,126
21.51667,137
21.52500,150
21.53333,164
21.54167,180
21.55000,199
21.55833,220
21.56667,244
21.57500,272
21.58333,304
21.59167,340
21.60000,380
21.60833,425
21.61667,475
21.62500,530
21.63333,593
21.64167,662
21.65000,739
21.65833,824
21.66667,918
21.67500,1021
21.68333,1134
21.69167,1257
21.70000,1392
21.70833,1538
21.71667,1696
21.72500,1866
21.73333,2049
21.74167,2245
21.75000,2454
21.75833,2678
21.76667,2915
21.77500,3165
21.78333,3429
21.79167,3705
21.80000,3995
21.80833,4297
21.81667,4610
21.82500,4935
21.83333,5270
21.84167,5614
21.85000,5965
21.85833,6323
21.86667,6686
21.87500,7052
21.88333,7420
21.89167,7787
21.90000,8153
21.90833,8516
21.91667,8874
21.92500,9224
21.93333,9565
21.94167,9895
21.95000,10213
21.95833,10515
21.96667,10801
21.97500,11069
21.98333,11317
21.99167,11544
22.00000,11749
22.00833,11930
22.01667,12086
22.02500,12218
22.03333,12323
22.04167,12401
22.05000,12453
22.05833,12479
22.06667,12477
22.07500,12449
22.08333,12395
22.09167,12315
22.10000,12210
22.10833,12081
22.11667,11930
22.12500,11756
22.13333,11562
22.14167,11349
22.15000,11119
22.15833,10871
22.16667,10610
22.17500,10335
22.18333,10049
22.19167,9753
22.20000,9448
22.20833,9136
22.21667,8819
22.22500,8498
22.23333,8175
22.24167,7851
22.25000,7527
22.25833,7205
22.26667,6886
22.27500,6571
22.28333,6260
22.29167,5955
22.30000,5656
22.30833,5365
22.31667,5081
22.32500,4806
22.33333,4540
22.34167,4283
22.35000,4036
22.35833,3798
22.36667,3570
22.37500,3352
22.38333,3144
22.39167,2946
22.40000,2758
22.40833,2579
22.41667,2410
22.42500,2250
22.43333,2099
22.44167,1958
22.45000,1825
22.45833,1700
22.46667,1583
22.47500,1473
22.48333,1371
22.49167,1275
22.50000,1186
22.50833,1103
22.51667,1026
22.52500,955
22.53333,888
22.54167,827
22.55000,770
22.55833,718
22.56667,669
22.57500,624
22.58333,583
22.59167,546
22.60000,511
22.60833,479
22.61667,450
22.62500,423
22.63333,398
22.64167,375
22.65000,354
22.65833,334
22.66667,316
22.67500,300
22.68333,285
22.69167,271
22.70000,258
22.70833,246
22.71667,235
22.72500,225
22.73333,216
22.74167,207
22.75000,199
22.75833,192
22.76667,185
22.77500,179
22.78333,173
22.79167,168
22.80000,162
22.80833,158
22.81667,153
22.82500,149
22.83333,145
22.84167,141
22.85000,138
22.85833,135
22.86667,132
22.87500,129
22.88333,127
22.89167,125
22.90000,122
22.90833,120
22.91667,119
22.92500,117
22.93333,116
22.94167,114
22.95000,112
22.95833,111
22.96667,109
22.97500,108
22.98333,107
22.99167,105
23.00000,104
23.00833,103
23.01667,102
23.02500,102
23.03333,101
23.04167,100
23.05000,100
23.05833,99
23.06667,98
23.07500,98
23.08333,97
23.09167,97
23.10000,97
23.10833,96
23.11667,96
23.12500,96
23.13333,95
23.14167,95
23.15000,95
23.15833,95
23.16667,95
23.17500,94
23.18333,94
23.19167,94
23.20000,94
23.20833,94
23.21667,94
23.22500,94
23.23333,94
23.24167,94
23.25000,95
23.25833,95
23.26667,95
23.27500,94
23.28333,94
23.29167,94
23.30000,94
23.30833,93
23.31667,93
23.32500,93
23.33333,92
23.34167,92
23.35000,92
23.35833,92
23.36667,92
23.37500,92
23.38333,92
23.39167,91
23.40000,91
23.40833,90
23.41667,90
23.42500,90
23.43333,89
23.44167,89
23.45000,89
23.45833,88
23.46667,87
23.47500,87
23.48333,87
23.49167,86
23.50000,86
23.50833,85
23.51667,84
23.52500,84
23.53333,83
23.54167,82
23.55000,82
23.55833,81
23.56667,81
23.57500,80
23.58333,80
23.59167,79
23.60000,79
23.60833,79
23.61667,79
23.62500,79
23.63333,78
23.64167,78
23.65000,78
23.65833,77
23.66667,76
23.67500,76
23.68333,76
23.69167,76
23.70000,76
23.70833,76
23.71667,76
23.72500,76
23.73333,76
23.74167,76
23.75000,76
23.75833,76
23.76667,76
23.77500,76
23.78333,76
23.79167,76
23.80000,76
23.80833,76
23.81667,76
23.82500,76
23.83333,76
23.84167,76
23.85000,76
23.85833,77
23.86667,77
23.87500,78
23.88333,78
23.89167,78
23.90000,77
23.90833,77
23.91667,78
23.92500,78
23.93333,78
23.94167,78
23.95000,78
23.95833,78
23.96667,78
23.97500,78
23.98333,79
23.99167,79
24.00000,79
24.00833,78
24.01667,78
24.02500,78
24.03333,77
24.04167,77
24.05000,77
24.05833,77
24.06667,77
24.07500,77
24.08333,76
24.09167,76
24.10000,76
24.10833,76
24.11667,75
24.12500,75
24.13333,74
24.14167,74
24.15000,74
24.15833,74
24.16667,74
24.17500,74
24.18333,74
24.19167,73
24.20000,73
24.20833,73
24.21667,73
24.22500,72
24.23333,72
24.24167,72
24.25000,72
24.25833,73
24.26667,72
24.27500,72
24.28333,72
24.29167,72
24.30000,73
24.30833,74
24.31667,74
24.32500,75
24.33333,76
24.34167,76
24.35000,77
24.35833,77
24.36667,78
24.37500,80
24.38333,82
24.39167,84
24.40000,87
24.40833,90
24.41667,93
24.42500,96
24.43333,100
24.44167,104
24.45000,110
24.45833,116
24.46667,123
24.47500,130
24.48333,138
24.49167,146
24.50000,156
24.50833,167
24.51667,180
24.52500,193
24.53333,208
24.54167,225
24.55000,243
24.55833,264
24.56667,286
24.57500,310
24.58333,337
24.59167,366
24.60000,397
24.60833,431
24.61667,468
24.62500,509
24.63333,552
24.64167,599
24.65000,649
24.65833,703
24.66667,760
24.67500,821
24.68333,885
24.69167,954
24.70000,1027
24.70833,1104
24.71667,1186
24.72500,1271
24.73333,1359
24.74167,1452
24.75000,1549
24.75833,1648
24.76667,1751
24.77500,1858
24.78333,1967
24.79167,2079
24.80000,2194
24.80833,2310
24.81667,2428
24.82500,2547
24.83333,2667
24.84167,2787
24.85000,2907
24.85833,3026
24.86667,3145
24.87500,3261
24.88333,3375
24.89167,3486
24.90000,3594
24.90833,3699
24.91667,3799
24.92500,3895
24.93333,3986
24.94167,4071
24.95000,4150
24.95833,4222
24.96667,4288
24.97500,4346
24.98333,4397
24.99167,4440
25.00000,4475
25.00833,4502
25.01667,4522
25.02500,4533
25.03333,4537
25.04167,4532
25.05000,4519
25.05833,4498
25.06667,4469
25.07500,4432
25.08333,4389
25.09167,4338
25.10000,4281
25.10833,4217
25.11667,4147
25.12500,4072
25.13333,3991
25.14167,3906
25.15000,3816
25.15833,3723
25.16667,3626
25.17500,3526
25.18333,3424
25.19167,3319
25.20000,3213
25.20833,3106
25.21667,2998
25.22500,2889
25.23333,2780
25.24167,2671
25.25000,2563
25.25833,2456
25.26667,2351
25.27500,2247
25.28333,2144
25.29167,2044
25.30000,1947
25.30833,1851
25.31667,1758
25.32500,1668
25.33333,1581
25.34167,1497
25.35000,1416
25.35833,1338
25.36667,1264
25.37500,1192
25.38333,1123
25.39167,1058
25.40000,995
25.40833,935
25.41667,878
25.42500,825
25.43333,774
25.44167,726
25.45000,681
25.45833,638
25.46667,598
25.47500,560
25.48333,525
25.49167,491
25.50000,460
25.50833,431
25.51667,404
25.52500,380
25.53333,357
25.54167,335
25.55000,315
25.55833,296
25.56667,279
25.57500,262
25.58333,247
25.59167,233
25.60000,220
25.60833,208
25.61667,197
25.62500,186
25.63333,177
25.64167,169
25.65000,161
25.65833,154
25.66667,147
25.67500,141
25.68333,136
25.69167,130
25.70000,125
25.70833,120
25.71667,116
25.72500,112
25.73333,109
25.74167,106
25.75000,103
25.75833,101
25.76667,99
25.77500,97
25.78333,95
25.79167,93
25.80000,91
25.80833,89
25.81667,88
25.82500,87
25.83333,86
25.84167,85
25.85000,84
25.85833,83
25.86667,82
25.87500,81
25.88333,80
25.89167,80
25.90000,79
25.90833,78
25.91667,78
25.92500,77
25.93333,77
25.94167,76
25.95000,76
25.95833,75
25.96667,75
25.97500,75
25.98333,74
25.99167,74
26.00000,74
26.00833,74
26.01667,74
26.02500,74
26.03333,74
26.04167,74
26.05000,74
26.05833,74
26.06667,75
26.07500,75
26.08333,75
26.09167,74
26.10000,74
26.10833,74
26.11667,74
26.12500,75
26.13333,75
26.14167,74
26.15000,74
26.15833,74
26.16667,74
26.17500,74
26.18333,74
26.19167,74
26.20000,74
26.20833,74
26.21667,74
26.22500,74
26.23333,74
26.24167,74
26.25000,74
26.25833,75
26.26667,75
26.27500,75
26.28333,74
26.29167,74
26.30000,74
26.30833,74
26.31667,74
26.32500,74
26.33333,74
26.34167,74
26.35000,74
26.35833,74
26.36667,74
26.37500,74
26.38333,74
26.39167,74
26.40000,74
26.40833,74
26.41667,74
26.42500,74
26.43333,74
26.44167,73
26.45000,73
26.45833,72
26.46667,72
26.47500,72
26.48333,71
26.49167,71
26.50000,72
26.50833,72
26.51667,72
26.52500,72
26.53333,72
26.54167,72
26.55000,73
26.55833,73
26.56667,72
26.57500,72
26.58333,72
26.59167,72
26.60000,72
26.60833,73
26.61667,73
26.62500,73
26.63333,73
26.64167,73
26.65000,73
26.65833,73
26.66667,73
26.67500,74
26.68333,74
26.69167,74
26.70000,74
26.70833,74
26.71667,74
26.72500,74
26.73333,74
26.74167,74
26.75000,75
26.75833,75
26.76667,76
26.77500,76
26.78333,76
26.79167,76
26.80000,76
26.80833,75
26.81667,75
26.82500,75
26.83333,74
26.84167,74
26.85000,74
26.85833,74
26.86667,74
26.87500,74
26.88333,74
26.89167,74
26.90000,74
26.90833,74
26.91667,74
26.92500,74
26.93333,73
26.94167,73
26.95000,72
26.95833,72
26.96667,71
26.97500,71
26.98333,71
26.99167,71
27.00000,70
27.00833,70
27.01667,69
27.02500,69
27.03333,69
27.04167,68
27.05000,68
27.05833,67
27.06667,67
27.07500,67
27.08333,66
27.09167,66
27.10000,66
27.10833,66
27.11667,65
27.12500,65
27.13333,65
27.14167,65
27.15000,65
27.15833,64
27.16667,64
27.17500,64
27.18333,64
27.19167,64
27.20000,63
27.20833,63
27.21667,63
27.22500,63
27.23333,63
27.24167,63
27.25000,63
27.25833,63
27.26667,63
27.27500,62
27.28333,62
27.29167,62
27.30000,62
27.30833,62
27.31667,62
27.32500,62
27.33333,62
27.34167,62
27.35000,62
27.35833,62
27.36667,62
27.37500,62
27.38333,62
27.39167,62
27.40000,62
27.40833,62
27.41667,62
27.42500,62
27.43333,61
27.44167,61
27.45000,61
27.45833,61
27.46667,61
27.47500,61
27.48333,61
27.49167,61
27.50000,61
27.50833,61
27.51667,61
27.52500,60
27.53333,60
27.54167,60
27.55000,60
27.55833,60
27.56667,60
27.57500,60
27.58333,60
27.59167,60
27.60000,60
27.60833,60
27.61667,60
27.62500,60
27.63333,60
27.64167,59
27.65000,59
27.65833,59
27.66667,59
27.67500,60
27.68333,60
27.69167,60
27.70000,59
27.70833,59
27.71667,59
27.72500,58
27.73333,58
27.74167,58
27.75000,57
27.75833,57
27.76667,57
27.77500,56
27.78333,56
27.79167,56
27.80000,55
27.80833,54
27.81667,53
27.82500,52
27.83333,51
27.84167,51
27.85000,50
27.85833,49
27.86667,48
27.87500,47
27.88333,46
27.89167,44
27.90000,42
27.90833,40
27.91667,39
27.92500,37
27.93333,35
27.94167,33
27.95000,30
27.95833,28
27.96667,25
27.97500,23
27.98333,20
27.99167,18
28.00000,16
28.00833,13
28.01667,10
28.02500,8
28.03333,5
28.04167,2
28.05000,-1
28.05833,-4
28.06667,-7
28.07500,-10
28.08333,-13
28.09167,-16
28.10000,-19
28.10833,-23
28.11667,-25
28.12500,-28
28.13333,-31
28.14167,-35
28.15000,-37
28.15833,-40
28.16667,-43
28.17500,-45
28.18333,-48
28.19167,-51
28.20000,-53
28.20833,-56
28.21667,-58
28.22500,-60
28.23333,-62
28.24167,-64
28.25000,-66
28.25833,-68
28.26667,-69
28.27500,-70
28.28333,-72
28.29167,-73
28.30000,-74
28.30833,-75
28.31667,-76
28.32500,-76
28.33333,-76
28.34167,-76
28.35000,-76
28.35833,-76
28.36667,-76
28.37500,-75
28.38333,-74
28.39167,-74
28.40000,-73
28.40833,-72
28.41667,-71
28.42500,-70
28.43333,-68
28.44167,-67
28.45000,-65
28.45833,-63
28.46667,-60
28.47500,-58
28.48333,-56
28.49167,-54
28.50000,-51
28.50833,-49
28.51667,-46
28.52500,-44
28.53333,-42
28.54167,-39
28.55000,-37
28.55833,-34
28.56667,-32
28.57500,-29
28.58333,-27
28.59167,-24
28.60000,-21
28.60833,-18
28.61667,-16
28.62500,-13
28.63333,-11
28.64167,-8
28.65000,-6
28.65833,-4
28.66667,-2
28.67500,-0
28.68333,2
28.69167,4
28.70000,6
28.70833,8
28.71667,9
28.72500,11
28.73333,13
28.74167,14
28.75000,16
28.75833,17
28.76667,18
28.77500,19
28.78333,20
28.79167,21
28.80000,22
28.80833,23
28.81667,24
28.82500,24
28.83333,25
28.84167,25
28.85000,26
28.85833,27
28.86667,27
28.87500,28
28.88333,28
28.89167,28
28.90000,28
28.90833,28
28.91667,28
28.92500,28
28.93333,28
28.94167,29
28.95000,29
28.95833,29
28.96667,29
28.97500,29
28.98333,29
28.99167,30
29.00000,30
29.00833,30
29.01667,30
29.02500,30
29.03333,31
29.04167,31
29.05000,31
29.05833,31
29.06667,31
29.07500,32
29.08333,32
29.09167,33
29.10000,33
29.10833,34
29.11667,35
29.12500,35
29.13333,35
29.14167,36
29.15000,36
29.15833,37
29.16667,37
29.17500,38
29.18333,38
29.19167,39
29.20000,39
29.20833,40
29.21667,41
29.22500,42
29.23333,43
29.24167,44
29.25000,45
29.25833,46
29.26667,47
29.27500,48
29.28333,49
29.29167,50
29.30000,51
29.30833,51
29.31667,52
29.32500,52
29.33333,53
29.34167,54
29.35000,54
29.35833,54
29.36667,55
29.37500,56
29.38333,57
29.39167,57
29.40000,58
29.40833,59
29.41667,60
29.42500,60
29.43333,60
29.44167,60
29.45000,60
29.45833,61
29.46667,61
29.47500,60
29.48333,61
29.49167,61
29.50000,61
29.50833,61
29.51667,60
29.52500,60
29.53333,60
29.54167,60
29.55000,60
29.55833,60
29.56667,60
29.57500,59
29.58333,59
29.59167,58
29.60000,57
29.60833,57
29.61667,56
29.62500,55
29.63333,55
29.64167,54
29.65000,54
29.65833,53
29.66667,52
29.67500,51
29.68333,50
29.69167,48
29.70000,47
29.70833,46
29.71667,44
29.72500,43
29.73333,42
29.74167,40
29.75000,39
29.75833,38
29.76667,36
29.77500,34
29.78333,33
29.79167,31
29.80000,29
29.80833,28
29.81667,26
29.82500,25
29.83333,23
29.84167,21
29.85000,20
29.85833,18
29.86667,16
29.87500,14
29.88333,12
29.89167,10
29.90000,9
29.90833,7
29.91667,5
29.92500,3
29.93333,2
29.94167,-0
29.95000,-2
29.95833,-4
29.96667,-5
29.97500,-7
29.98333,-8
29.99167,-9
30.00000,-10
30.00833,-11
30.01667,-12
30.02500,-13
30.03333,-14
30.04167,-15
30.05000,-16
30.05833,-17
30.06667,-17
30.07500,-18
30.08333,-18
30.09167,-18
30.10000,-19
30.10833,-19
30.11667,-19
30.12500,-19
30.13333,-19
30.14167,-19
30.15000,-19
30.15833,-18
30.16667,-18
30.17500,-17
30.18333,-17
30.19167,-16
30.20000,-15
30.20833,-14
30.21667,-13
30.22500,-12
30.23333,-12
30.24167,-10
30.25000,-9
30.25833,-8
30.26667,-6
30.27500,-5
30.28333,-4
30.29167,-3
30.30000,-1
30.30833,0
30.31667,2
30.32500,3
30.33333,5
30.34167,7
30.35000,8
30.35833,10
30.36667,11
30.37500,13
30.38333,14
30.39167,15
30.40000,17
30.40833,18
30.41667,20
30.42500,20
30.43333,22
30.44167,23
30.45000,25
30.45833,26
30.46667,27
30.47500,28
30.48333,29
30.49167,30
30.50000,31
30.50833,32
30.51667,33
30.52500,34
30.53333,35
30.54167,36
30.55000,37
30.55833,38
30.56667,39
30.57500,39
30.58333,40
30.59167,41
30.60000,41
30.60833,42
30.61667,42
30.62500,43
30.63333,44
30.64167,44
30.65000,45
30.65833,45
30.66667,45
30.67500,46
30.68333,46
30.69167,47
30.70000,47
30.70833,47
30.71667,48
30.72500,48
30.73333,47
30.74167,47
30.75000,47
30.75833,47
30.76667,47
30.77500,47
30.78333,47
30.79167,47
30.80000,47
30.80833,47
30.81667,48
30.82500,48
30.83333,48
30.84167,48
30.85000,48
30.85833,48
30.86667,48
30.87500,48
30.88333,49
30.89167,49
30.90000,49
30.90833,49
30.91667,49
30.92500,49
30.93333,49
30.94167,49
30.95000,49
30.95833,50
30.96667,50
30.97500,51
30.98333,51
30.99167,51
31.00000,52
31.00833,52
31.01667,53
31.02500,53
31.03333,54
31.04167,54
31.05000,55
31.05833,55
31.06667,56
31.07500,57
31.08333,57
31.09167,57
31.10000,58
31.10833,58
31.11667,58
31.12500,59
31.13333,59
31.14167,59
31.15000,60
31.15833,61
31.16667,62
31.17500,62
31.18333,62
31.19167,62
31.20000,63
31.20833,63
31.21667,64
31.22500,64
31.23333,64
31.24167,64
31.25000,64
31.25833,65
31.26667,65
31.27500,65
31.28333,65
31.29167,65
31.30000,65
31.30833,65
31.31667,65
31.32500,65
31.33333,65
31.34167,65
31.35000,65
31.35833,65
31.36667,64
31.37500,64
31.38333,63
31.39167,63
31.40000,63
31.40833,62
31.41667,62
31.42500,62
31.43333,62
31.44167,62
31.45000,62
31.45833,62
31.46667,62
31.47500,62
31.48333,62
31.49167,63
31.50000,62
31.50833,62
31.51667,62
31.52500,62
31.53333,62
31.54167,62
31.55000,62
31.55833,63
31.56667,63
31.57500,63
31.58333,63
31.59167,63
31.60000,64
31.60833,64
31.61667,64
31.62500,65
31.63333,65
31.64167,66
31.65000,67
31.65833,67
31.66667,68
31.67500,69
31.68333,69
31.69167,70
31.70000,70
31.70833,70
31.71667,71
31.72500,72
31.73333,72
31.74167,73
31.75000,74
31.75833,74
31.76667,75
31.77500,75
31.78333,76
31.79167,76
31.80000,77
31.80833,77
31.81667,76
31.82500,76
31.83333,77
31.84167,77
31.85000,77
31.85833,77
31.86667,77
31.87500,78
31.88333,78
31.89167,78
31.90000,79
31.90833,79
31.91667,79
31.92500,78
31.93333,78
31.94167,79
31.95000,78
31.95833,78
31.96667,78
31.97500,77
31.98333,77
31.99167,77
32.00000,77
32.00833,76
32.01667,76
32.02500,76
32.03333,76
32.04167,76
32.05000,75
32.05833,74
32.06667,74
32.07500,73
32.08333,73
32.09167,73
32.10000,72
32.10833,72
32.11667,72
32.12500,72
32.13333,72
32.14167,72
32.15000,72
32.15833,71
32.16667,71
32.17500,71
32.18333,71
32.19167,70
32.20000,70
32.20833,70
32.21667,70
32.22500,70
32.23333,69
32.24167,69
32.25000,68
32.25833,68
32.26667,68
32.27500,67
32.28333,67
32.29167,67
32.30000,67
32.30833,66
32.31667,66
32.32500,66
32.33333,65
32.34167,65
32.35000,65
32.35833,66
32.36667,66
32.37500,66
32.38333,66
32.39167,66
32.40000,66
32.40833,66
32.41667,65
32.42500,66
32.43333,66
32.44167,66
32.45000,66
32.45833,66
32.46667,67
32.47500,67
32.48333,67
32.49167,67
32.50000,68
32.50833,68
32.51667,68
32.52500,68
32.53333,68
32.54167,69
32.55000,69
32.55833,69
32.56667,69
32.57500,69
32.58333,69
32.59167,69
32.60000,69
32.60833,69
32.61667,69
32.62500,70
32.63333,70
32.64167,70
32.65000,70
32.65833,70
32.66667,70
32.67500,71
32.68333,71
32.69167,71
32.70000,71
32.70833,72
32.71667,72
32.72500,72
32.73333,72
32.74167,72
32.75000,72
32.75833,71
32.76667,71
32.77500,71
32.78333,71
32.79167,71
32.80000,70
32.80833,70
32.81667,70
32.82500,70
32.83333,69
32.84167,69
32.85000,68
32.85833,68
32.86667,68
32.87500,68
32.88333,68
32.89167,68
32.90000,68
32.90833,68
32.91667,67
32.92500,67
32.93333,66
32.94167,66
32.95000,65
32.95833,65
32.96667,64
32.97500,64
32.98333,63
32.99167,63
33.00000,63
33.00833,62
33.01667,61
33.02500,61
33.03333,61
33.04167,61
33.05000,61
33.05833,61
33.06667,61
33.07500,60
33.08333,60
33.09167,60
33.10000,59
33.10833,59
33.11667,59
33.12500,59
33.13333,59
33.14167,58
33.15000,57
33.15833,57
33.16667,57
33.17500,57
33.18333,57
33.19167,56
33.20000,56
33.20833,56
33.21667,56
33.22500,56
33.23333,56
33.24167,56
33.25000,55
33.25833,55
33.26667,55
33.27500,54
33.28333,54
33.29167,54
33.30000,53
33.30833,52
33.31667,52
33.32500,52
33.33333,51
33.34167,51
33.35000,51
33.35833,50
33.36667,50
33.37500,49
33.38333,49
33.39167,49
33.40000,48
33.40833,48
33.41667,47
33.42500,47
33.43333,47
33.44167,47
33.45000,47
33.45833,46
33.46667,46
33.47500,45
33.48333,45
33.49167,44
33.50000,44
33.50833,43
33.51667,43
33.52500,43
33.53333,42
33.54167,42
33.55000,42
33.55833,42
33.56667,43
33.57500,42
33.58333,42
33.59167,42
33.60000,43
33.60833,43
33.61667,43
33.62500,44
33.63333,44
33.64167,44
33.65000,45
33.65833,45
33.66667,45
33.67500,45
33.68333,46
33.69167,46
33.70000,46
33.70833,47
33.71667,48
33.72500,48
33.73333,49
33.74167,50
33.75000,50
33.75833,51
33.76667,51
33.77500,52
33.78333,53
33.79167,53
33.80000,54
33.80833,54
33.81667,55
33.82500,55
33.83333,55
33.84167,56
33.85000,57
33.85833,58
33.86667,58
33.87500,59
33.88333,59
33.89167,60
33.90000,60
33.90833,60
33.91667,60
33.92500,60
33.93333,60
33.94167,60
33.95000,60
33.95833,60
33.96667,61
33.97500,61
33.98333,61
33.99167,61
34.00000,61
34.00833,61
34.01667,60
34.02500,60
34.03333,59
34.04167,59
34.05000,59
34.05833,59
34.06667,59
34.07500,60
34.08333,60
34.09167,60
34.10000,60
34.10833,60
34.11667,59
34.12500,58
34.13333,57
34.14167,57
34.15000,57
34.15833,56
34.16667,56
34.17500,56
34.18333,55
34.19167,55
34.20000,54
34.20833,54
34.21667,54
34.22500,54
34.23333,54
34.24167,53
34.25000,53
34.25833,53
34.26667,53
34.27500,53
34.28333,52
34.29167,52
34.30000,52
34.30833,52
34.31667,52
34.32500,52
34.33333,52
34.34167,52
34.35000,52
34.35833,52
34.36667,53
34.37500,53
34.38333,53
34.39167,54
34.40000,54
34.40833,55
34.41667,55
34.42500,56
34.43333,56
34.44167,57
34.45000,57
34.45833,58
34.46667,59
34.47500,59
34.48333,60
34.49167,61
34.50000,62
34.50833,62
34.51667,63
34.52500,64
34.53333,65
34.54167,66
34.55000,66
34.55833,67
34.56667,67
34.57500,68
34.58333,69
34.59167,69
34.60000,70
34.60833,70
34.61667,71
34.62500,72
34.63333,72
34.64167,73
34.65000,74
34.65833,75
34.66667,75
34.67500,76
34.68333,76
34.69167,77
34.70000,78
34.70833,78
34.71667,79
34.72500,79
34.73333,80
34.74167,80
34.75000,80
34.75833,81
34.76667,81
34.77500,81
34.78333,82
34.79167,82
34.80000,82
34.80833,82
34.81667,82
34.82500,82
34.83333,82
34.84167,82
34.85000,82
34.85833,82
34.86667,82
34.87500,82
34.88333,82
34.89167,82
34.90000,82
34.90833,82
34.91667,82
34.92500,82
34.93333,81
34.94167,81
34.95000,81
34.95833,80
34.96667,80
34.97500,79
34.98333,79
34.99167,78
35.00000,78
35.00833,78
35.01667,77
35.02500,77
35.03333,76
35.04167,75
35.05000,75
35.05833,74
35.06667,73
35.07500,73
35.08333,72
35.09167,72
35.10000,71
35.10833,70
35.11667,69
35.12500,68
35.13333,67
35.14167,66
35.15000,66
35.15833,65
35.16667,65
35.17500,64
35.18333,63
35.19167,62
35.20000,61
35.20833,61
35.21667,60
35.22500,60
35.23333,59
35.24167,59
35.25000,58
35.25833,57
35.26667,56
35.27500,56
35.28333,55
35.29167,55
35.30000,54
35.30833,54
35.31667,53
35.32500,52
35.33333,52
35.34167,52
35.35000,51
35.35833,51
35.36667,51
35.37500,51
35.38333,51
35.39167,50
35.40000,50
35.40833,50
35.41667,50
35.42500,51
35.43333,51
35.44167,51
35.45000,50
35.45833,51
35.46667,51
35.47500,51
35.48333,51
35.49167,51
35.50000,52
35.50833,52
35.51667,52
35.52500,52
35.53333,52
35.54167,52
35.55000,52
35.55833,52
35.56667,52
35.57500,52
35.58333,52
35.59167,52
35.60000,53
35.60833,53
35.61667,53
35.62500,53
35.63333,53
35.64167,54
35.65000,54
35.65833,54
35.66667,54
35.67500,54
35.68333,54
35.69167,54
35.70000,54
35.70833,54
35.71667,54
35.72500,54
35.73333,54
35.74167,53
35.75000,53
35.75833,53
35.76667,54
35.77500,54
35.78333,54
35.79167,54
35.80000,53
35.80833,53
35.81667,53
35.82500,52
35.83333,52
35.84167,52
35.85000,52
35.85833,52
35.86667,52
35.87500,52
35.88333,51
35.89167,51
35.90000,51
35.90833,51
35.91667,51
35.92500,51
35.93333,51
35.94167,52
35.95000,52
35.95833,52
35.96667,52
35.97500,52
35.98333,52
35.99167,52
36.00000,51
36.00833,51
36.01667,51
36.02500,51
36.03333,51
36.04167,52
36.05000,52
36.05833,52
36.06667,52
36.07500,53
36.08333,53
36.09167,54
36.10000,54
36.10833,54
36.11667,54
36.12500,54
36.13333,55
36.14167,55
36.15000,56
36.15833,57
36.16667,57
36.17500,57
36.18333,58
36.19167,58
36.20000,58
36.20833,58
36.21667,57
36.22500,58
36.23333,58
36.24167,58
36.25000,58
36.25833,58
36.26667,58
36.27500,58
36.28333,58
36.29167,58
36.30000,59
36.30833,59
36.31667,59
36.32500,59
36.33333,60
36.34167,60
36.35000,60
36.35833,60
36.36667,60
36.37500,60
36.38333,61
36.39167,61
36.40000,62
36.40833,62
36.41667,62
36.42500,62
36.43333,62
36.44167,62
36.45000,62
36.45833,62
36.46667,62
36.47500,63
36.48333,63
36.49167,63
36.50000,63
36.50833,64
36.51667,64
36.52500,65
36.53333,65
36.54167,65
36.55000,66
36.55833,66
36.56667,67
36.57500,67
36.58333,68
36.59167,68
36.60000,69
36.60833,69
36.61667,70
36.62500,71
36.63333,71
36.64167,71
36.65000,71
36.65833,72
36.66667,72
36.67500,73
36.68333,73
36.69167,74
36.70000,74
36.70833,74
36.71667,75
36.72500,75
36.73333,76
36.74167,76
36.75000,77
36.75833,77
36.76667,78
36.77500,78
36.78333,78
36.79167,78
36.80000,79
36.80833,79
36.81667,79
36.82500,80
36.83333,80
36.84167,80
36.85000,81
36.85833,81
36.86667,82
36.87500,82
36.88333,82
36.89167,83
36.90000,83
36.90833,83
36.91667,82
36.92500,82
36.93333,82
36.94167,82
36.95000,82
36.95833,82
36.96667,82
36.97500,82
36.98333,82
36.99167,82
37.00000,82
37.00833,82
37.01667,82
37.02500,82
37.03333,82
37.04167,82
37.05000,82
37.05833,81
37.06667,81
37.07500,80
37.08333,80
37.09167,80
37.10000,80
37.10833,79
37.11667,79
37.12500,78
37.13333,78
37.14167,77
37.15000,77
37.15833,76
37.16667,76
37.17500,76
37.18333,75
37.19167,75
37.20000,75
37.20833,74
37.21667,74
37.22500,73
37.23333,73
37.24167,72
37.25000,72
37.25833,71
37.26667,71
37.27500,70
37.28333,70
37.29167,69
37.30000,69
37.30833,68
37.31667,67
37.32500,67
37.33333,66
37.34167,65
37.35000,65
37.35833,65
37.36667,65
37.37500,65
37.38333,65
37.39167,65
37.40000,65
37.40833,64
37.41667,64
37.42500,63
37.43333,63
37.44167,63
37.45000,63
37.45833,63
37.46667,63
37.47500,63
37.48333,63
37.49167,63
37.50000,63
37.50833,63
37.51667,64
37.52500,64
37.53333,64
37.54167,65
37.55000,65
37.55833,65
37.56667,65
37.57500,65
37.58333,64
37.59167,64
37.60000,64
37.60833,64
37.61667,64
37.62500,64
37.63333,64
37.64167,64
37.65000,64
37.65833,64
37.66667,65
37.67500,65
37.68333,65
37.69167,65
37.70000,65
37.70833,65
37.71667,65
37.72500,64
37.73333,64
37.74167,64
37.75000,64
37.75833,63
37.76667,63
37.77500,62
37.78333,62
37.79167,62
37.80000,62
37.80833,62
37.81667,62
37.82500,62
37.83333,61
37.84167,62
37.85000,62
37.85833,62
37.86667,62
37.87500,62
37.88333,62
37.89167,62
37.90000,61
37.90833,61
37.91667,61
37.92500,61
37.93333,60
37.94167,60
37.95000,60
37.95833,59
37.96667,59
37.97500,59
37.98333,59
37.99167,59
38.00000,59
38.00833,59
38.01667,59
38.02500,59
38.03333,59
38.04167,59
38.05000,58
38.05833,58
38.06667,58
38.07500,58
38.08333,58
38.09167,58
38.10000,57
38.10833,57
38.11667,57
38.12500,57
38.13333,56
38.14167,56
38.15000,56
38.15833,56
38.16667,56
38.17500,56
38.18333,56
38.19167,56
38.20000,56
38.20833,56
38.21667,57
38.22500,57
38.23333,57
38.24167,57
38.25000,56
38.25833,56
38.26667,56
38.27500,56
38.28333,56
38.29167,56
38.30000,55
38.30833,55
38.31667,55
38.32500,55
38.33333,54
38.34167,55
38.35000,55
38.35833,55
38.36667,55
38.37500,55
38.38333,55
38.39167,55
38.40000,55
38.40833,55
38.41667,56
38.42500,56
38.43333,56
38.44167,55
38.45000,55
38.45833,55
38.46667,55
38.47500,55
38.48333,55
38.49167,55
38.50000,54
38.50833,54
38.51667,55
38.52500,55
38.53333,55
38.54167,56
38.55000,57
38.55833,57
38.56667,57
38.57500,58
38.58333,58
38.59167,58
38.60000,59
38.60833,59
38.61667,60
38.62500,60
38.63333,61
38.64167,61
38.65000,62
38.65833,62
38.66667,63
38.67500,63
38.68333,63
38.69167,64
38.70000,64
38.70833,65
38.71667,66
38.72500,66
38.73333,67
38.74167,68
38.75000,69
38.75833,70
38.76667,71
38.77500,72
38.78333,72
38.79167,73
38.80000,74
38.80833,74
38.81667,75
38.82500,76
38.83333,77
38.84167,78
38.85000,78
38.85833,79
38.86667,80
38.87500,80
38.88333,81
38.89167,81
38.90000,81
38.90833,82
38.91667,82
38.92500,83
38.93333,84
38.94167,84
38.95000,85
38.95833,85
38.96667,85
38.97500,85
38.98333,86
38.99167,85
39.00000,85
39.00833,86
39.01667,86
39.02500,86
39.03333,86
39.04167,86
39.05000,86
39.05833,86
39.06667,86
39.07500,87
39.08333,87
39.09167,87
39.10000,87
39.10833,86
39.11667,86
39.12500,86
39.13333,86
39.14167,87
39.15000,87
39.15833,86
39.16667,86
39.17500,86
39.18333,86
39.19167,86
39.20000,86
39.20833,85
39.21667,85
39.22500,85
39.23333,85
39.24167,85
39.25000,85
39.25833,85
39.26667,85
39.27500,85
39.28333,84
39.29167,84
39.30000,83
39.30833,83
39.31667,83
39.32500,83
39.33333,83
39.34167,83
39.35000,82
39.35833,82
39.36667,82
39.37500,82
39.38333,81
39.39167,81
39.40000,81
39.40833,81
39.41667,80
39.42500,80
39.43333,79
39.44167,79
39.45000,78
39.45833,77
39.46667,77
39.47500,76
39.48333,76
39.49167,75
39.50000,75
39.50833,75
39.51667,75
39.52500,74
39.53333,74
39.54167,73
39.55000,73
39.55833,72
39.56667,72
39.57500,71
39.58333,71
39.59167,71
39.60000,70
39.60833,70
39.61667,69
39.62500,69
39.63333,68
39.64167,68
39.65000,68
39.65833,68
39.66667,68
39.67500,69
39.68333,69
39.69167,68
39.70000,68
39.70833,68
39.71667,68
39.72500,68
39.73333,68
39.74167,68
39.75000,69
39.75833,69
39.76667,69
39.77500,69
39.78333,69
39.79167,69
39.80000,70
39.80833,70
39.81667,70
39.82500,71
39.83333,71
39.84167,71
39.85000,72
39.85833,72
39.86667,73
39.87500,73
39.88333,73
39.89167,73
39.90000,73
39.90833,73
39.91667,74
39.92500,74
39.93333,74
39.94167,75
39.95000,75
39.95833,76
39.96667,76
39.97500,77
39.98333,77
39.99167,77
40.00000,77

