[Header]
Application Name,LabSolutions
Version,5.97 SP1
Data File Name,C:\Users\cremerlab\Desktop\griffin\2021-04-05_NC_DM_calibration\2021-04-05_NC_DM_2.5mM_calibration_452021_009_022.lcd
Output Date,4/6/2021
Output Time,8:33:00 AM

[File Information]
Type,Data File
Generated,4/6/2021 7:52:40 AM
Generated by,System Administrator
Modified,4/6/2021 8:33:00 AM
Modified by,System Administrator

[Sample Information]
Operator Name,System Administrator
Acquired,4/6/2021 7:53:00 AM
Sample Type,1:Standard
Level,9
Sample Name,2021-04-05_DM_glucose_glycerol_acetate_01mM
Sample ID,009
ISTD Amount1,1
ISTD Amount2,1
ISTD Amount3,1
ISTD Amount4,1
ISTD Amount5,1
ISTD Amount6,1
ISTD Amount7,1
ISTD Amount8,1
ISTD Amount9,1
ISTD Amount10,1
ISTD Amount11,1
ISTD Amount12,1
ISTD Amount13,1
ISTD Amount14,1
ISTD Amount15,1
ISTD Amount16,1
ISTD Amount17,1
ISTD Amount18,1
ISTD Amount19,1
ISTD Amount20,1
ISTD Amount21,1
ISTD Amount22,1
ISTD Amount23,1
ISTD Amount24,1
ISTD Amount25,1
ISTD Amount26,1
ISTD Amount27,1
ISTD Amount28,1
ISTD Amount29,1
ISTD Amount30,1
ISTD Amount31,1
ISTD Amount32,1
Sample Amount,1
Dilution Factor,1
Vial#,27
Injection Volume,20

[Original Files]
Data File,C:\Users\cremerlab\Desktop\griffin\2021-04-05_NC_DM_calibration\2021-04-05_NC_DM_2.5mM_calibration_452021_009_022.lcd
Method File,C:\Users\cremerlab\Desktop\griffin\2021-04-05_NC_DM_calibration\2021-04-05_2.5mM_mobile.lcm
Batch File,C:\Users\cremerlab\Desktop\griffin\2021-04-05_NC_DM_calibration\2021-04-05_NC_DM_2.5mM_calibration.lcb
Report Format File,c:\LabSolutions\System\DEFAULT.lsr

[File Description]


[Configuration]
Instrument Name,HPLC-PC-Instrument1
Instrument #,1
Line #,1
# of Detectors,2
Detector ID,Detector A,Detector B
Detector Name,Detector A,Detector B
# of Channels,1,1

[Peak Table(Detector A)]
# of Peaks,0

[Peak Table(Detector B)]
# of Peaks,6
Peak#,R.Time,I.Time,F.Time,Area,Height,A/H,Conc.,Mark,ID#,Name,k',Plate #,Plate Ht.,Tailing,Resolution,Sep.Factor,Area Ratio,Height Ratio,Conc. %,Norm Conc.
1,10.885,10.425,12.033,240921,14339,16.802,10.068,   ,,,0.000,9515,15.765,1.035,0.000,0.000,0,0,0.000,0.000
2,13.960,12.542,14.225,1801832,47178,38.192,75.299,   ,,,0.283,3084,48.635,0.000,4.236,0.000,0,0,0.000,0.000
3,14.330,14.225,15.058,175164,10218,17.142,7.320, V ,,,0.317,4160,36.054,0.000,0.391,1.120,0,0,0.000,0.000
4,15.670,15.058,16.775,129577,5044,25.691,5.415, V ,,,0.440,9156,16.383,1.069,1.736,1.389,0,0,0.000,0.000
5,22.057,21.500,23.025,33027,1201,27.501,1.380,   ,,,1.026,14828,10.116,1.124,9.259,2.335,0,0,0.000,0.000
6,25.029,24.500,25.642,12367,437,28.289,0.517,   ,,,1.300,17054,8.796,1.043,3.986,1.266,0,0,0.000,0.000

[LC Chromatogram(Detector B-Ch1)]
Interval(msec),500
# of Points,4801
Start Time(min),0.000
End Time(min),40.000
Intensity Units,mV
Intensity Multiplier,0.001
R.Time (min),Intensity
0.00000,-0
0.00833,-0
0.01667,-0
0.02500,-0
0.03333,-0
0.04167,-0
0.05000,-0
0.05833,-0
0.06667,-0
0.07500,-1
0.08333,-0
0.09167,-0
0.10000,0
0.10833,0
0.11667,1
0.12500,1
0.13333,1
0.14167,2
0.15000,2
0.15833,2
0.16667,2
0.17500,3
0.18333,3
0.19167,3
0.20000,3
0.20833,4
0.21667,4
0.22500,4
0.23333,5
0.24167,5
0.25000,5
0.25833,5
0.26667,5
0.27500,5
0.28333,5
0.29167,5
0.30000,5
0.30833,5
0.31667,6
0.32500,6
0.33333,6
0.34167,7
0.35000,8
0.35833,8
0.36667,8
0.37500,8
0.38333,8
0.39167,8
0.40000,8
0.40833,8
0.41667,8
0.42500,8
0.43333,8
0.44167,8
0.45000,8
0.45833,8
0.46667,8
0.47500,8
0.48333,8
0.49167,7
0.50000,7
0.50833,7
0.51667,6
0.52500,6
0.53333,6
0.54167,6
0.55000,6
0.55833,6
0.56667,5
0.57500,5
0.58333,4
0.59167,4
0.60000,3
0.60833,2
0.61667,2
0.62500,2
0.63333,1
0.64167,1
0.65000,0
0.65833,-0
0.66667,-1
0.67500,-1
0.68333,-2
0.69167,-2
0.70000,-3
0.70833,-4
0.71667,-4
0.72500,-4
0.73333,-5
0.74167,-5
0.75000,-6
0.75833,-6
0.76667,-7
0.77500,-7
0.78333,-7
0.79167,-8
0.80000,-8
0.80833,-8
0.81667,-8
0.82500,-8
0.83333,-9
0.84167,-9
0.85000,-9
0.85833,-10
0.86667,-10
0.87500,-10
0.88333,-10
0.89167,-9
0.90000,-9
0.90833,-9
0.91667,-9
0.92500,-9
0.93333,-10
0.94167,-9
0.95000,-9
0.95833,-9
0.96667,-9
0.97500,-9
0.98333,-9
0.99167,-8
1.00000,-8
1.00833,-8
1.01667,-7
1.02500,-7
1.03333,-6
1.04167,-6
1.05000,-5
1.05833,-5
1.06667,-4
1.07500,-4
1.08333,-4
1.09167,-3
1.10000,-3
1.10833,-2
1.11667,-1
1.12500,-0
1.13333,0
1.14167,1
1.15000,2
1.15833,2
1.16667,3
1.17500,3
1.18333,5
1.19167,6
1.20000,7
1.20833,7
1.21667,8
1.22500,9
1.23333,10
1.24167,11
1.25000,11
1.25833,12
1.26667,13
1.27500,14
1.28333,14
1.29167,15
1.30000,16
1.30833,16
1.31667,16
1.32500,16
1.33333,17
1.34167,18
1.35000,18
1.35833,18
1.36667,19
1.37500,19
1.38333,19
1.39167,20
1.40000,20
1.40833,20
1.41667,21
1.42500,21
1.43333,21
1.44167,22
1.45000,21
1.45833,21
1.46667,21
1.47500,21
1.48333,21
1.49167,21
1.50000,21
1.50833,21
1.51667,21
1.52500,21
1.53333,21
1.54167,20
1.55000,20
1.55833,19
1.56667,19
1.57500,19
1.58333,18
1.59167,17
1.60000,17
1.60833,16
1.61667,16
1.62500,15
1.63333,15
1.64167,15
1.65000,14
1.65833,14
1.66667,13
1.67500,12
1.68333,12
1.69167,11
1.70000,10
1.70833,10
1.71667,9
1.72500,9
1.73333,8
1.74167,8
1.75000,7
1.75833,7
1.76667,6
1.77500,5
1.78333,4
1.79167,4
1.80000,3
1.80833,3
1.81667,3
1.82500,3
1.83333,2
1.84167,2
1.85000,1
1.85833,1
1.86667,0
1.87500,-0
1.88333,-1
1.89167,-2
1.90000,-3
1.90833,-3
1.91667,-4
1.92500,-4
1.93333,-4
1.94167,-4
1.95000,-4
1.95833,-4
1.96667,-5
1.97500,-5
1.98333,-5
1.99167,-5
2.00000,-6
2.00833,-6
2.01667,-6
2.02500,-6
2.03333,-6
2.04167,-6
2.05000,-6
2.05833,-6
2.06667,-6
2.07500,-6
2.08333,-6
2.09167,-5
2.10000,-5
2.10833,-4
2.11667,-4
2.12500,-4
2.13333,-4
2.14167,-4
2.15000,-4
2.15833,-4
2.16667,-4
2.17500,-3
2.18333,-3
2.19167,-3
2.20000,-2
2.20833,-2
2.21667,-1
2.22500,-1
2.23333,-1
2.24167,-0
2.25000,-0
2.25833,0
2.26667,0
2.27500,0
2.28333,0
2.29167,1
2.30000,1
2.30833,1
2.31667,1
2.32500,1
2.33333,1
2.34167,1
2.35000,1
2.35833,2
2.36667,2
2.37500,2
2.38333,2
2.39167,2
2.40000,2
2.40833,1
2.41667,1
2.42500,2
2.43333,2
2.44167,3
2.45000,3
2.45833,3
2.46667,3
2.47500,3
2.48333,4
2.49167,4
2.50000,3
2.50833,3
2.51667,3
2.52500,3
2.53333,3
2.54167,3
2.55000,2
2.55833,2
2.56667,2
2.57500,2
2.58333,1
2.59167,1
2.60000,1
2.60833,1
2.61667,1
2.62500,1
2.63333,0
2.64167,0
2.65000,-0
2.65833,-1
2.66667,-1
2.67500,-1
2.68333,-1
2.69167,-2
2.70000,-2
2.70833,-2
2.71667,-3
2.72500,-3
2.73333,-4
2.74167,-4
2.75000,-4
2.75833,-5
2.76667,-5
2.77500,-5
2.78333,-5
2.79167,-5
2.80000,-5
2.80833,-6
2.81667,-7
2.82500,-7
2.83333,-7
2.84167,-8
2.85000,-8
2.85833,-8
2.86667,-9
2.87500,-9
2.88333,-9
2.89167,-9
2.90000,-9
2.90833,-9
2.91667,-9
2.92500,-10
2.93333,-10
2.94167,-10
2.95000,-10
2.95833,-10
2.96667,-11
2.97500,-11
2.98333,-11
2.99167,-10
3.00000,-10
3.00833,-10
3.01667,-10
3.02500,-10
3.03333,-10
3.04167,-10
3.05000,-10
3.05833,-10
3.06667,-10
3.07500,-10
3.08333,-10
3.09167,-10
3.10000,-10
3.10833,-10
3.11667,-9
3.12500,-9
3.13333,-9
3.14167,-8
3.15000,-8
3.15833,-7
3.16667,-7
3.17500,-7
3.18333,-6
3.19167,-6
3.20000,-6
3.20833,-5
3.21667,-5
3.22500,-5
3.23333,-5
3.24167,-4
3.25000,-4
3.25833,-4
3.26667,-4
3.27500,-4
3.28333,-3
3.29167,-2
3.30000,-2
3.30833,-1
3.31667,-1
3.32500,-0
3.33333,0
3.34167,1
3.35000,2
3.35833,2
3.36667,3
3.37500,3
3.38333,3
3.39167,4
3.40000,4
3.40833,5
3.41667,6
3.42500,6
3.43333,6
3.44167,7
3.45000,7
3.45833,8
3.46667,9
3.47500,9
3.48333,9
3.49167,10
3.50000,10
3.50833,11
3.51667,11
3.52500,11
3.53333,12
3.54167,12
3.55000,13
3.55833,13
3.56667,13
3.57500,14
3.58333,14
3.59167,14
3.60000,15
3.60833,15
3.61667,15
3.62500,16
3.63333,16
3.64167,16
3.65000,16
3.65833,16
3.66667,16
3.67500,16
3.68333,16
3.69167,16
3.70000,16
3.70833,16
3.71667,16
3.72500,16
3.73333,16
3.74167,16
3.75000,16
3.75833,16
3.76667,16
3.77500,16
3.78333,16
3.79167,15
3.80000,15
3.80833,14
3.81667,14
3.82500,14
3.83333,14
3.84167,13
3.85000,13
3.85833,12
3.86667,12
3.87500,12
3.88333,12
3.89167,11
3.90000,11
3.90833,11
3.91667,11
3.92500,11
3.93333,10
3.94167,10
3.95000,10
3.95833,10
3.96667,10
3.97500,9
3.98333,9
3.99167,8
4.00000,8
4.00833,8
4.01667,8
4.02500,8
4.03333,7
4.04167,7
4.05000,7
4.05833,6
4.06667,6
4.07500,5
4.08333,5
4.09167,5
4.10000,5
4.10833,5
4.11667,4
4.12500,4
4.13333,4
4.14167,4
4.15000,3
4.15833,3
4.16667,3
4.17500,2
4.18333,2
4.19167,1
4.20000,1
4.20833,0
4.21667,-0
4.22500,-1
4.23333,-1
4.24167,-1
4.25000,-2
4.25833,-2
4.26667,-2
4.27500,-3
4.28333,-3
4.29167,-4
4.30000,-5
4.30833,-5
4.31667,-5
4.32500,-5
4.33333,-6
4.34167,-6
4.35000,-6
4.35833,-7
4.36667,-7
4.37500,-7
4.38333,-7
4.39167,-7
4.40000,-7
4.40833,-8
4.41667,-8
4.42500,-8
4.43333,-8
4.44167,-8
4.45000,-8
4.45833,-8
4.46667,-7
4.47500,-7
4.48333,-7
4.49167,-7
4.50000,-6
4.50833,-6
4.51667,-6
4.52500,-5
4.53333,-5
4.54167,-5
4.55000,-5
4.55833,-5
4.56667,-4
4.57500,-4
4.58333,-4
4.59167,-3
4.60000,-3
4.60833,-3
4.61667,-3
4.62500,-2
4.63333,-1
4.64167,-0
4.65000,0
4.65833,1
4.66667,2
4.67500,2
4.68333,3
4.69167,3
4.70000,4
4.70833,4
4.71667,4
4.72500,5
4.73333,5
4.74167,5
4.75000,5
4.75833,6
4.76667,6
4.77500,7
4.78333,7
4.79167,7
4.80000,7
4.80833,7
4.81667,7
4.82500,7
4.83333,7
4.84167,8
4.85000,8
4.85833,8
4.86667,8
4.87500,9
4.88333,9
4.89167,9
4.90000,8
4.90833,8
4.91667,8
4.92500,8
4.93333,9
4.94167,9
4.95000,9
4.95833,9
4.96667,9
4.97500,9
4.98333,9
4.99167,9
5.00000,9
5.00833,8
5.01667,8
5.02500,8
5.03333,8
5.04167,9
5.05000,9
5.05833,9
5.06667,9
5.07500,9
5.08333,9
5.09167,8
5.10000,8
5.10833,8
5.11667,8
5.12500,8
5.13333,8
5.14167,7
5.15000,7
5.15833,7
5.16667,7
5.17500,7
5.18333,6
5.19167,6
5.20000,5
5.20833,5
5.21667,5
5.22500,4
5.23333,4
5.24167,4
5.25000,4
5.25833,3
5.26667,3
5.27500,2
5.28333,1
5.29167,1
5.30000,1
5.30833,0
5.31667,-0
5.32500,-0
5.33333,-1
5.34167,-1
5.35000,-2
5.35833,-2
5.36667,-3
5.37500,-3
5.38333,-3
5.39167,-3
5.40000,-3
5.40833,-4
5.41667,-4
5.42500,-4
5.43333,-4
5.44167,-5
5.45000,-5
5.45833,-5
5.46667,-5
5.47500,-5
5.48333,-5
5.49167,-5
5.50000,-6
5.50833,-6
5.51667,-6
5.52500,-6
5.53333,-6
5.54167,-6
5.55000,-6
5.55833,-6
5.56667,-6
5.57500,-6
5.58333,-6
5.59167,-6
5.60000,-6
5.60833,-6
5.61667,-7
5.62500,-7
5.63333,-7
5.64167,-7
5.65000,-7
5.65833,-7
5.66667,-7
5.67500,-7
5.68333,-7
5.69167,-6
5.70000,-6
5.70833,-6
5.71667,-6
5.72500,-6
5.73333,-6
5.74167,-6
5.75000,-6
5.75833,-5
5.76667,-5
5.77500,-5
5.78333,-4
5.79167,-4
5.80000,-4
5.80833,-4
5.81667,-4
5.82500,-4
5.83333,-3
5.84167,-3
5.85000,-3
5.85833,-3
5.86667,-3
5.87500,-3
5.88333,-3
5.89167,-3
5.90000,-2
5.90833,-2
5.91667,-1
5.92500,-1
5.93333,-0
5.94167,-0
5.95000,-0
5.95833,0
5.96667,0
5.97500,1
5.98333,1
5.99167,2
6.00000,3
6.00833,3
6.01667,4
6.02500,4
6.03333,5
6.04167,5
6.05000,6
6.05833,6
6.06667,6
6.07500,6
6.08333,6
6.09167,7
6.10000,7
6.10833,8
6.11667,8
6.12500,8
6.13333,9
6.14167,10
6.15000,10
6.15833,10
6.16667,10
6.17500,10
6.18333,10
6.19167,10
6.20000,10
6.20833,11
6.21667,11
6.22500,10
6.23333,10
6.24167,9
6.25000,9
6.25833,9
6.26667,9
6.27500,9
6.28333,9
6.29167,9
6.30000,8
6.30833,8
6.31667,8
6.32500,8
6.33333,7
6.34167,7
6.35000,6
6.35833,6
6.36667,6
6.37500,5
6.38333,5
6.39167,6
6.40000,6
6.40833,6
6.41667,5
6.42500,5
6.43333,4
6.44167,4
6.45000,4
6.45833,4
6.46667,4
6.47500,3
6.48333,3
6.49167,4
6.50000,3
6.50833,3
6.51667,3
6.52500,3
6.53333,3
6.54167,3
6.55000,3
6.55833,3
6.56667,3
6.57500,2
6.58333,2
6.59167,2
6.60000,2
6.60833,2
6.61667,1
6.62500,1
6.63333,1
6.64167,1
6.65000,1
6.65833,1
6.66667,1
6.67500,2
6.68333,2
6.69167,2
6.70000,2
6.70833,2
6.71667,2
6.72500,3
6.73333,3
6.74167,3
6.75000,3
6.75833,3
6.76667,3
6.77500,3
6.78333,2
6.79167,2
6.80000,3
6.80833,3
6.81667,3
6.82500,2
6.83333,2
6.84167,3
6.85000,3
6.85833,3
6.86667,3
6.87500,4
6.88333,4
6.89167,4
6.90000,4
6.90833,4
6.91667,4
6.92500,4
6.93333,4
6.94167,5
6.95000,5
6.95833,5
6.96667,5
6.97500,5
6.98333,6
6.99167,6
7.00000,7
7.00833,7
7.01667,7
7.02500,7
7.03333,8
7.04167,8
7.05000,9
7.05833,9
7.06667,9
7.07500,10
7.08333,10
7.09167,10
7.10000,11
7.10833,11
7.11667,12
7.12500,12
7.13333,12
7.14167,12
7.15000,12
7.15833,13
7.16667,13
7.17500,14
7.18333,14
7.19167,14
7.20000,15
7.20833,15
7.21667,16
7.22500,16
7.23333,16
7.24167,16
7.25000,16
7.25833,16
7.26667,16
7.27500,16
7.28333,16
7.29167,15
7.30000,15
7.30833,15
7.31667,15
7.32500,15
7.33333,15
7.34167,16
7.35000,16
7.35833,16
7.36667,16
7.37500,16
7.38333,15
7.39167,15
7.40000,15
7.40833,14
7.41667,14
7.42500,14
7.43333,13
7.44167,13
7.45000,12
7.45833,11
7.46667,11
7.47500,10
7.48333,10
7.49167,9
7.50000,9
7.50833,8
7.51667,8
7.52500,7
7.53333,7
7.54167,6
7.55000,6
7.55833,5
7.56667,5
7.57500,4
7.58333,4
7.59167,4
7.60000,3
7.60833,3
7.61667,2
7.62500,2
7.63333,2
7.64167,1
7.65000,1
7.65833,1
7.66667,0
7.67500,0
7.68333,-0
7.69167,-0
7.70000,-1
7.70833,-1
7.71667,-1
7.72500,-1
7.73333,-1
7.74167,-1
7.75000,-1
7.75833,-1
7.76667,-1
7.77500,-1
7.78333,-1
7.79167,-1
7.80000,-1
7.80833,-1
7.81667,-1
7.82500,-0
7.83333,-0
7.84167,-0
7.85000,-0
7.85833,-0
7.86667,-0
7.87500,0
7.88333,1
7.89167,1
7.90000,1
7.90833,1
7.91667,1
7.92500,1
7.93333,0
7.94167,1
7.95000,1
7.95833,1
7.96667,1
7.97500,1
7.98333,1
7.99167,1
8.00000,1
8.00833,1
8.01667,1
8.02500,1
8.03333,1
8.04167,0
8.05000,0
8.05833,0
8.06667,1
8.07500,1
8.08333,1
8.09167,1
8.10000,1
8.10833,1
8.11667,2
8.12500,2
8.13333,2
8.14167,2
8.15000,2
8.15833,2
8.16667,2
8.17500,2
8.18333,2
8.19167,2
8.20000,3
8.20833,3
8.21667,3
8.22500,3
8.23333,3
8.24167,3
8.25000,3
8.25833,3
8.26667,3
8.27500,3
8.28333,3
8.29167,3
8.30000,3
8.30833,3
8.31667,3
8.32500,3
8.33333,3
8.34167,3
8.35000,4
8.35833,4
8.36667,4
8.37500,4
8.38333,4
8.39167,5
8.40000,5
8.40833,5
8.41667,5
8.42500,5
8.43333,6
8.44167,6
8.45000,5
8.45833,5
8.46667,5
8.47500,5
8.48333,5
8.49167,4
8.50000,4
8.50833,5
8.51667,5
8.52500,5
8.53333,5
8.54167,5
8.55000,5
8.55833,6
8.56667,6
8.57500,6
8.58333,6
8.59167,6
8.60000,6
8.60833,6
8.61667,6
8.62500,6
8.63333,6
8.64167,6
8.65000,7
8.65833,7
8.66667,7
8.67500,7
8.68333,8
8.69167,8
8.70000,8
8.70833,8
8.71667,9
8.72500,9
8.73333,9
8.74167,10
8.75000,10
8.75833,10
8.76667,10
8.77500,11
8.78333,11
8.79167,11
8.80000,11
8.80833,12
8.81667,12
8.82500,12
8.83333,13
8.84167,13
8.85000,13
8.85833,13
8.86667,13
8.87500,14
8.88333,14
8.89167,14
8.90000,14
8.90833,15
8.91667,15
8.92500,15
8.93333,16
8.94167,16
8.95000,16
8.95833,16
8.96667,16
8.97500,16
8.98333,17
8.99167,17
9.00000,17
9.00833,17
9.01667,17
9.02500,18
9.03333,18
9.04167,18
9.05000,19
9.05833,19
9.06667,19
9.07500,19
9.08333,19
9.09167,19
9.10000,19
9.10833,19
9.11667,20
9.12500,20
9.13333,20
9.14167,20
9.15000,20
9.15833,21
9.16667,21
9.17500,21
9.18333,21
9.19167,21
9.20000,21
9.20833,21
9.21667,21
9.22500,21
9.23333,21
9.24167,21
9.25000,20
9.25833,20
9.26667,20
9.27500,20
9.28333,20
9.29167,19
9.30000,19
9.30833,19
9.31667,19
9.32500,18
9.33333,18
9.34167,18
9.35000,18
9.35833,18
9.36667,18
9.37500,18
9.38333,17
9.39167,16
9.40000,16
9.40833,15
9.41667,15
9.42500,15
9.43333,14
9.44167,14
9.45000,13
9.45833,13
9.46667,12
9.47500,11
9.48333,11
9.49167,10
9.50000,9
9.50833,9
9.51667,8
9.52500,8
9.53333,7
9.54167,6
9.55000,6
9.55833,5
9.56667,4
9.57500,3
9.58333,2
9.59167,2
9.60000,2
9.60833,1
9.61667,0
9.62500,-0
9.63333,-0
9.64167,-1
9.65000,-1
9.65833,-1
9.66667,-1
9.67500,-1
9.68333,-1
9.69167,-1
9.70000,-2
9.70833,-2
9.71667,-3
9.72500,-3
9.73333,-3
9.74167,-3
9.75000,-3
9.75833,-3
9.76667,-3
9.77500,-2
9.78333,-2
9.79167,-2
9.80000,-1
9.80833,-2
9.81667,-2
9.82500,-1
9.83333,-1
9.84167,-0
9.85000,-0
9.85833,0
9.86667,0
9.87500,1
9.88333,1
9.89167,1
9.90000,1
9.90833,2
9.91667,2
9.92500,3
9.93333,4
9.94167,4
9.95000,5
9.95833,5
9.96667,6
9.97500,6
9.98333,6
9.99167,6
10.00000,7
10.00833,7
10.01667,8
10.02500,8
10.03333,9
10.04167,10
10.05000,10
10.05833,10
10.06667,11
10.07500,11
10.08333,11
10.09167,11
10.10000,11
10.10833,11
10.11667,12
10.12500,12
10.13333,12
10.14167,12
10.15000,12
10.15833,13
10.16667,13
10.17500,13
10.18333,13
10.19167,13
10.20000,14
10.20833,15
10.21667,15
10.22500,15
10.23333,15
10.24167,15
10.25000,15
10.25833,14
10.26667,14
10.27500,14
10.28333,14
10.29167,15
10.30000,15
10.30833,15
10.31667,16
10.32500,16
10.33333,16
10.34167,16
10.35000,16
10.35833,16
10.36667,16
10.37500,16
10.38333,16
10.39167,16
10.40000,16
10.40833,17
10.41667,17
10.42500,18
10.43333,19
10.44167,19
10.45000,20
10.45833,22
10.46667,24
10.47500,26
10.48333,30
10.49167,34
10.50000,40
10.50833,48
10.51667,57
10.52500,70
10.53333,87
10.54167,108
10.55000,136
10.55833,170
10.56667,213
10.57500,266
10.58333,330
10.59167,408
10.60000,501
10.60833,613
10.61667,744
10.62500,897
10.63333,1074
10.64167,1278
10.65000,1509
10.65833,1772
10.66667,2066
10.67500,2394
10.68333,2756
10.69167,3153
10.70000,3585
10.70833,4051
10.71667,4552
10.72500,5083
10.73333,5645
10.74167,6232
10.75000,6842
10.75833,7469
10.76667,8110
10.77500,8757
10.78333,9403
10.79167,10043
10.80000,10667
10.80833,11269
10.81667,11839
10.82500,12370
10.83333,12853
10.84167,13279
10.85000,13643
10.85833,13937
10.86667,14155
10.87500,14294
10.88333,14349
10.89167,14319
10.90000,14205
10.90833,14007
10.91667,13730
10.92500,13379
10.93333,12958
10.94167,12477
10.95000,11944
10.95833,11366
10.96667,10755
10.97500,10120
10.98333,9469
10.99167,8813
11.00000,8160
11.00833,7518
11.01667,6892
11.02500,6288
11.03333,5712
11.04167,5166
11.05000,4653
11.05833,4176
11.06667,3734
11.07500,3327
11.08333,2955
11.09167,2617
11.10000,2310
11.10833,2035
11.11667,1788
11.12500,1567
11.13333,1371
11.14167,1197
11.15000,1043
11.15833,908
11.16667,789
11.17500,686
11.18333,595
11.19167,516
11.20000,448
11.20833,389
11.21667,338
11.22500,294
11.23333,257
11.24167,225
11.25000,198
11.25833,175
11.26667,155
11.27500,139
11.28333,125
11.29167,113
11.30000,104
11.30833,96
11.31667,89
11.32500,84
11.33333,79
11.34167,75
11.35000,72
11.35833,69
11.36667,67
11.37500,66
11.38333,64
11.39167,62
11.40000,61
11.40833,60
11.41667,59
11.42500,58
11.43333,57
11.44167,56
11.45000,55
11.45833,54
11.46667,53
11.47500,53
11.48333,52
11.49167,52
11.50000,51
11.50833,50
11.51667,49
11.52500,48
11.53333,47
11.54167,45
11.55000,44
11.55833,43
11.56667,42
11.57500,41
11.58333,39
11.59167,38
11.60000,37
11.60833,36
11.61667,35
11.62500,34
11.63333,33
11.64167,33
11.65000,32
11.65833,31
11.66667,30
11.67500,28
11.68333,27
11.69167,26
11.70000,25
11.70833,25
11.71667,24
11.72500,23
11.73333,22
11.74167,22
11.75000,21
11.75833,20
11.76667,18
11.77500,18
11.78333,16
11.79167,15
11.80000,15
11.80833,14
11.81667,13
11.82500,12
11.83333,11
11.84167,10
11.85000,9
11.85833,7
11.86667,6
11.87500,5
11.88333,4
11.89167,2
11.90000,1
11.90833,-0
11.91667,-1
11.92500,-2
11.93333,-3
11.94167,-4
11.95000,-5
11.95833,-6
11.96667,-6
11.97500,-7
11.98333,-8
11.99167,-9
12.00000,-10
12.00833,-10
12.01667,-11
12.02500,-11
12.03333,-11
12.04167,-12
12.05000,-12
12.05833,-13
12.06667,-13
12.07500,-13
12.08333,-14
12.09167,-14
12.10000,-15
12.10833,-15
12.11667,-15
12.12500,-15
12.13333,-16
12.14167,-16
12.15000,-16
12.15833,-16
12.16667,-16
12.17500,-16
12.18333,-16
12.19167,-17
12.20000,-17
12.20833,-17
12.21667,-17
12.22500,-17
12.23333,-18
12.24167,-18
12.25000,-18
12.25833,-18
12.26667,-18
12.27500,-17
12.28333,-17
12.29167,-16
12.30000,-16
12.30833,-16
12.31667,-16
12.32500,-16
12.33333,-16
12.34167,-15
12.35000,-15
12.35833,-15
12.36667,-15
12.37500,-14
12.38333,-14
12.39167,-13
12.40000,-13
12.40833,-12
12.41667,-11
12.42500,-10
12.43333,-9
12.44167,-9
12.45000,-8
12.45833,-8
12.46667,-7
12.47500,-7
12.48333,-6
12.49167,-5
12.50000,-4
12.50833,-3
12.51667,-2
12.52500,-1
12.53333,0
12.54167,1
12.55000,3
12.55833,4
12.56667,5
12.57500,7
12.58333,9
12.59167,11
12.60000,14
12.60833,17
12.61667,20
12.62500,25
12.63333,30
12.64167,37
12.65000,44
12.65833,53
12.66667,64
12.67500,77
12.68333,93
12.69167,112
12.70000,133
12.70833,158
12.71667,187
12.72500,220
12.73333,257
12.74167,300
12.75000,347
12.75833,400
12.76667,458
12.77500,523
12.78333,594
12.79167,671
12.80000,755
12.80833,845
12.81667,943
12.82500,1047
12.83333,1157
12.84167,1274
12.85000,1398
12.85833,1529
12.86667,1667
12.87500,1811
12.88333,1961
12.89167,2117
12.90000,2279
12.90833,2446
12.91667,2619
12.92500,2798
12.93333,2982
12.94167,3171
12.95000,3365
12.95833,3564
12.96667,3767
12.97500,3975
12.98333,4187
12.99167,4403
13.00000,4623
13.00833,4847
13.01667,5074
13.02500,5306
13.03333,5541
13.04167,5780
13.05000,6021
13.05833,6266
13.06667,6515
13.07500,6766
13.08333,7020
13.09167,7277
13.10000,7536
13.10833,7799
13.11667,8065
13.12500,8333
13.13333,8604
13.14167,8878
13.15000,9154
13.15833,9433
13.16667,9714
13.17500,9998
13.18333,10284
13.19167,10573
13.20000,10864
13.20833,11157
13.21667,11453
13.22500,11751
13.23333,12052
13.24167,12355
13.25000,12661
13.25833,12969
13.26667,13279
13.27500,13592
13.28333,13907
13.29167,14225
13.30000,14545
13.30833,14868
13.31667,15193
13.32500,15521
13.33333,15850
13.34167,16182
13.35000,16517
13.35833,16854
13.36667,17193
13.37500,17535
13.38333,17880
13.39167,18227
13.40000,18576
13.40833,18929
13.41667,19284
13.42500,19641
13.43333,20001
13.44167,20363
13.45000,20728
13.45833,21095
13.46667,21465
13.47500,21838
13.48333,22214
13.49167,22592
13.50000,22973
13.50833,23357
13.51667,23743
13.52500,24132
13.53333,24524
13.54167,24918
13.55000,25316
13.55833,25716
13.56667,26120
13.57500,26526
13.58333,26936
13.59167,27348
13.60000,27762
13.60833,28180
13.61667,28601
13.62500,29024
13.63333,29451
13.64167,29881
13.65000,30313
13.65833,30749
13.66667,31188
13.67500,31630
13.68333,32076
13.69167,32524
13.70000,32976
13.70833,33431
13.71667,33889
13.72500,34350
13.73333,34814
13.74167,35283
13.75000,35754
13.75833,36230
13.76667,36708
13.77500,37189
13.78333,37674
13.79167,38162
13.80000,38655
13.80833,39150
13.81667,39649
13.82500,40152
13.83333,40657
13.84167,41166
13.85000,41678
13.85833,42194
13.86667,42712
13.87500,43232
13.88333,43752
13.89167,44269
13.90000,44780
13.90833,45278
13.91667,45753
13.92500,46193
13.93333,46581
13.94167,46896
13.95000,47116
13.95833,47213
13.96667,47162
13.97500,46933
13.98333,46504
13.99167,45854
14.00000,44970
14.00833,43846
14.01667,42484
14.02500,40898
14.03333,39109
14.04167,37146
14.05000,35045
14.05833,32847
14.06667,30594
14.07500,28329
14.08333,26095
14.09167,23929
14.10000,21864
14.10833,19926
14.11667,18137
14.12500,16510
14.13333,15054
14.14167,13772
14.15000,12662
14.15833,11719
14.16667,10935
14.17500,10299
14.18333,9800
14.19167,9425
14.20000,9161
14.20833,8995
14.21667,8912
14.22500,8899
14.23333,8943
14.24167,9034
14.25000,9157
14.25833,9304
14.26667,9463
14.27500,9626
14.28333,9783
14.29167,9928
14.30000,10053
14.30833,10152
14.31667,10223
14.32500,10261
14.33333,10263
14.34167,10228
14.35000,10156
14.35833,10046
14.36667,9900
14.37500,9718
14.38333,9504
14.39167,9259
14.40000,8988
14.40833,8693
14.41667,8377
14.42500,8045
14.43333,7701
14.44167,7348
14.45000,6989
14.45833,6629
14.46667,6269
14.47500,5912
14.48333,5563
14.49167,5221
14.50000,4890
14.50833,4570
14.51667,4263
14.52500,3970
14.53333,3692
14.54167,3429
14.55000,3181
14.55833,2947
14.56667,2729
14.57500,2525
14.58333,2336
14.59167,2161
14.60000,1999
14.60833,1849
14.61667,1711
14.62500,1585
14.63333,1468
14.64167,1362
14.65000,1264
14.65833,1175
14.66667,1093
14.67500,1019
14.68333,951
14.69167,889
14.70000,833
14.70833,782
14.71667,735
14.72500,693
14.73333,654
14.74167,619
14.75000,587
14.75833,557
14.76667,531
14.77500,507
14.78333,485
14.79167,465
14.80000,447
14.80833,430
14.81667,415
14.82500,401
14.83333,388
14.84167,377
14.85000,366
14.85833,356
14.86667,348
14.87500,340
14.88333,333
14.89167,326
14.90000,319
14.90833,313
14.91667,308
14.92500,304
14.93333,299
14.94167,296
14.95000,293
14.95833,290
14.96667,287
14.97500,284
14.98333,282
14.99167,280
15.00000,279
15.00833,278
15.01667,277
15.02500,276
15.03333,276
15.04167,275
15.05000,275
15.05833,275
15.06667,275
15.07500,275
15.08333,275
15.09167,275
15.10000,276
15.10833,276
15.11667,277
15.12500,277
15.13333,278
15.14167,279
15.15000,280
15.15833,281
15.16667,281
15.17500,283
15.18333,284
15.19167,286
15.20000,289
15.20833,292
15.21667,296
15.22500,301
15.23333,308
15.24167,315
15.25000,324
15.25833,334
15.26667,347
15.27500,361
15.28333,379
15.29167,400
15.30000,424
15.30833,452
15.31667,484
15.32500,521
15.33333,562
15.34167,610
15.35000,663
15.35833,723
15.36667,789
15.37500,862
15.38333,942
15.39167,1030
15.40000,1125
15.40833,1228
15.41667,1339
15.42500,1457
15.43333,1582
15.44167,1715
15.45000,1856
15.45833,2002
15.46667,2155
15.47500,2312
15.48333,2475
15.49167,2641
15.50000,2810
15.50833,2981
15.51667,3152
15.52500,3322
15.53333,3491
15.54167,3658
15.55000,3820
15.55833,3977
15.56667,4127
15.57500,4270
15.58333,4405
15.59167,4530
15.60000,4645
15.60833,4750
15.61667,4842
15.62500,4922
15.63333,4989
15.64167,5043
15.65000,5083
15.65833,5109
15.66667,5121
15.67500,5119
15.68333,5104
15.69167,5076
15.70000,5034
15.70833,4981
15.71667,4916
15.72500,4841
15.73333,4755
15.74167,4660
15.75000,4556
15.75833,4444
15.76667,4325
15.77500,4201
15.78333,4071
15.79167,3937
15.80000,3800
15.80833,3661
15.81667,3520
15.82500,3378
15.83333,3235
15.84167,3094
15.85000,2953
15.85833,2814
15.86667,2678
15.87500,2544
15.88333,2413
15.89167,2286
15.90000,2162
15.90833,2043
15.91667,1928
15.92500,1817
15.93333,1711
15.94167,1610
15.95000,1513
15.95833,1421
15.96667,1334
15.97500,1251
15.98333,1173
15.99167,1099
16.00000,1030
16.00833,965
16.01667,904
16.02500,847
16.03333,793
16.04167,744
16.05000,697
16.05833,654
16.06667,614
16.07500,577
16.08333,542
16.09167,511
16.10000,481
16.10833,454
16.11667,429
16.12500,406
16.13333,385
16.14167,365
16.15000,346
16.15833,329
16.16667,314
16.17500,300
16.18333,287
16.19167,275
16.20000,264
16.20833,254
16.21667,245
16.22500,237
16.23333,229
16.24167,222
16.25000,215
16.25833,209
16.26667,203
16.27500,198
16.28333,193
16.29167,188
16.30000,184
16.30833,180
16.31667,176
16.32500,173
16.33333,170
16.34167,167
16.35000,164
16.35833,161
16.36667,158
16.37500,155
16.38333,153
16.39167,150
16.40000,148
16.40833,146
16.41667,144
16.42500,142
16.43333,141
16.44167,139
16.45000,137
16.45833,136
16.46667,134
16.47500,132
16.48333,130
16.49167,129
16.50000,127
16.50833,126
16.51667,124
16.52500,123
16.53333,122
16.54167,121
16.55000,120
16.55833,119
16.56667,118
16.57500,117
16.58333,116
16.59167,116
16.60000,115
16.60833,114
16.61667,114
16.62500,113
16.63333,112
16.64167,112
16.65000,111
16.65833,110
16.66667,110
16.67500,110
16.68333,109
16.69167,108
16.70000,108
16.70833,108
16.71667,107
16.72500,107
16.73333,106
16.74167,105
16.75000,105
16.75833,104
16.76667,104
16.77500,104
16.78333,104
16.79167,103
16.80000,103
16.80833,103
16.81667,103
16.82500,102
16.83333,101
16.84167,101
16.85000,100
16.85833,100
16.86667,99
16.87500,99
16.88333,99
16.89167,98
16.90000,98
16.90833,98
16.91667,97
16.92500,97
16.93333,97
16.94167,96
16.95000,96
16.95833,95
16.96667,95
16.97500,95
16.98333,94
16.99167,94
17.00000,93
17.00833,93
17.01667,93
17.02500,92
17.03333,92
17.04167,92
17.05000,91
17.05833,91
17.06667,90
17.07500,90
17.08333,90
17.09167,89
17.10000,89
17.10833,89
17.11667,88
17.12500,87
17.13333,87
17.14167,86
17.15000,86
17.15833,85
17.16667,85
17.17500,84
17.18333,83
17.19167,83
17.20000,82
17.20833,81
17.21667,80
17.22500,80
17.23333,79
17.24167,79
17.25000,79
17.25833,78
17.26667,78
17.27500,78
17.28333,78
17.29167,77
17.30000,77
17.30833,76
17.31667,76
17.32500,75
17.33333,74
17.34167,73
17.35000,72
17.35833,71
17.36667,71
17.37500,71
17.38333,70
17.39167,70
17.40000,70
17.40833,70
17.41667,69
17.42500,69
17.43333,69
17.44167,68
17.45000,68
17.45833,68
17.46667,67
17.47500,67
17.48333,67
17.49167,66
17.50000,66
17.50833,66
17.51667,66
17.52500,66
17.53333,66
17.54167,66
17.55000,66
17.55833,66
17.56667,65
17.57500,66
17.58333,66
17.59167,66
17.60000,66
17.60833,66
17.61667,66
17.62500,66
17.63333,66
17.64167,66
17.65000,66
17.65833,66
17.66667,66
17.67500,66
17.68333,67
17.69167,67
17.70000,67
17.70833,67
17.71667,67
17.72500,67
17.73333,68
17.74167,68
17.75000,68
17.75833,68
17.76667,68
17.77500,68
17.78333,68
17.79167,68
17.80000,68
17.80833,69
17.81667,69
17.82500,69
17.83333,69
17.84167,69
17.85000,69
17.85833,69
17.86667,69
17.87500,68
17.88333,68
17.89167,68
17.90000,67
17.90833,67
17.91667,66
17.92500,66
17.93333,65
17.94167,65
17.95000,65
17.95833,65
17.96667,64
17.97500,64
17.98333,63
17.99167,63
18.00000,62
18.00833,61
18.01667,61
18.02500,60
18.03333,59
18.04167,59
18.05000,58
18.05833,57
18.06667,57
18.07500,56
18.08333,56
18.09167,56
18.10000,55
18.10833,55
18.11667,55
18.12500,54
18.13333,54
18.14167,54
18.15000,53
18.15833,53
18.16667,52
18.17500,52
18.18333,51
18.19167,51
18.20000,50
18.20833,50
18.21667,50
18.22500,49
18.23333,49
18.24167,49
18.25000,48
18.25833,48
18.26667,47
18.27500,47
18.28333,47
18.29167,46
18.30000,46
18.30833,46
18.31667,45
18.32500,45
18.33333,45
18.34167,45
18.35000,44
18.35833,44
18.36667,43
18.37500,43
18.38333,43
18.39167,43
18.40000,42
18.40833,42
18.41667,41
18.42500,41
18.43333,41
18.44167,41
18.45000,40
18.45833,40
18.46667,40
18.47500,39
18.48333,39
18.49167,38
18.50000,38
18.50833,37
18.51667,37
18.52500,36
18.53333,36
18.54167,36
18.55000,35
18.55833,34
18.56667,34
18.57500,34
18.58333,33
18.59167,33
18.60000,33
18.60833,33
18.61667,33
18.62500,32
18.63333,32
18.64167,32
18.65000,32
18.65833,32
18.66667,32
18.67500,31
18.68333,31
18.69167,31
18.70000,31
18.70833,31
18.71667,31
18.72500,31
18.73333,31
18.74167,32
18.75000,32
18.75833,33
18.76667,34
18.77500,34
18.78333,36
18.79167,37
18.80000,38
18.80833,38
18.81667,39
18.82500,40
18.83333,41
18.84167,43
18.85000,44
18.85833,46
18.86667,47
18.87500,49
18.88333,50
18.89167,52
18.90000,54
18.90833,55
18.91667,58
18.92500,60
18.93333,62
18.94167,64
18.95000,66
18.95833,68
18.96667,70
18.97500,72
18.98333,74
18.99167,75
19.00000,77
19.00833,79
19.01667,80
19.02500,81
19.03333,83
19.04167,83
19.05000,84
19.05833,86
19.06667,87
19.07500,87
19.08333,88
19.09167,88
19.10000,89
19.10833,89
19.11667,88
19.12500,88
19.13333,87
19.14167,87
19.15000,87
19.15833,86
19.16667,85
19.17500,84
19.18333,83
19.19167,82
19.20000,82
19.20833,81
19.21667,79
19.22500,78
19.23333,77
19.24167,76
19.25000,74
19.25833,72
19.26667,71
19.27500,70
19.28333,69
19.29167,68
19.30000,67
19.30833,66
19.31667,65
19.32500,63
19.33333,62
19.34167,61
19.35000,60
19.35833,59
19.36667,58
19.37500,57
19.38333,55
19.39167,54
19.40000,53
19.40833,51
19.41667,51
19.42500,50
19.43333,49
19.44167,48
19.45000,47
19.45833,47
19.46667,46
19.47500,46
19.48333,46
19.49167,45
19.50000,44
19.50833,44
19.51667,43
19.52500,42
19.53333,41
19.54167,41
19.55000,40
19.55833,40
19.56667,39
19.57500,39
19.58333,38
19.59167,38
19.60000,37
19.60833,36
19.61667,36
19.62500,35
19.63333,35
19.64167,35
19.65000,35
19.65833,35
19.66667,34
19.67500,34
19.68333,34
19.69167,34
19.70000,33
19.70833,33
19.71667,33
19.72500,32
19.73333,32
19.74167,32
19.75000,32
19.75833,32
19.76667,32
19.77500,32
19.78333,32
19.79167,33
19.80000,33
19.80833,34
19.81667,34
19.82500,34
19.83333,34
19.84167,34
19.85000,34
19.85833,34
19.86667,34
19.87500,35
19.88333,35
19.89167,35
19.90000,36
19.90833,36
19.91667,36
19.92500,37
19.93333,37
19.94167,37
19.95000,38
19.95833,38
19.96667,38
19.97500,38
19.98333,37
19.99167,37
20.00000,38
20.00833,38
20.01667,38
20.02500,39
20.03333,39
20.04167,39
20.05000,39
20.05833,39
20.06667,40
20.07500,40
20.08333,40
20.09167,39
20.10000,39
20.10833,39
20.11667,40
20.12500,39
20.13333,39
20.14167,39
20.15000,39
20.15833,39
20.16667,39
20.17500,39
20.18333,39
20.19167,39
20.20000,38
20.20833,39
20.21667,38
20.22500,39
20.23333,39
20.24167,38
20.25000,38
20.25833,38
20.26667,37
20.27500,37
20.28333,37
20.29167,36
20.30000,36
20.30833,36
20.31667,35
20.32500,34
20.33333,34
20.34167,34
20.35000,34
20.35833,33
20.36667,33
20.37500,32
20.38333,31
20.39167,30
20.40000,30
20.40833,29
20.41667,29
20.42500,28
20.43333,28
20.44167,28
20.45000,27
20.45833,27
20.46667,27
20.47500,26
20.48333,26
20.49167,25
20.50000,24
20.50833,24
20.51667,24
20.52500,23
20.53333,23
20.54167,22
20.55000,22
20.55833,22
20.56667,21
20.57500,21
20.58333,21
20.59167,21
20.60000,21
20.60833,21
20.61667,21
20.62500,21
20.63333,21
20.64167,21
20.65000,21
20.65833,21
20.66667,21
20.67500,21
20.68333,21
20.69167,22
20.70000,22
20.70833,22
20.71667,22
20.72500,23
20.73333,23
20.74167,23
20.75000,24
20.75833,24
20.76667,25
20.77500,25
20.78333,26
20.79167,26
20.80000,27
20.80833,27
20.81667,28
20.82500,28
20.83333,29
20.84167,29
20.85000,30
20.85833,30
20.86667,31
20.87500,31
20.88333,32
20.89167,33
20.90000,33
20.90833,34
20.91667,34
20.92500,35
20.93333,36
20.94167,36
20.95000,36
20.95833,36
20.96667,36
20.97500,36
20.98333,37
20.99167,37
21.00000,38
21.00833,38
21.01667,38
21.02500,38
21.03333,38
21.04167,39
21.05000,39
21.05833,39
21.06667,40
21.07500,40
21.08333,41
21.09167,41
21.10000,41
21.10833,41
21.11667,41
21.12500,41
21.13333,42
21.14167,42
21.15000,41
21.15833,41
21.16667,42
21.17500,42
21.18333,42
21.19167,42
21.20000,42
21.20833,42
21.21667,42
21.22500,43
21.23333,43
21.24167,43
21.25000,43
21.25833,43
21.26667,43
21.27500,43
21.28333,42
21.29167,42
21.30000,42
21.30833,42
21.31667,42
21.32500,42
21.33333,42
21.34167,43
21.35000,43
21.35833,43
21.36667,43
21.37500,43
21.38333,43
21.39167,43
21.40000,43
21.40833,42
21.41667,42
21.42500,42
21.43333,42
21.44167,42
21.45000,42
21.45833,42
21.46667,43
21.47500,43
21.48333,43
21.49167,43
21.50000,44
21.50833,44
21.51667,45
21.52500,46
21.53333,47
21.54167,49
21.55000,51
21.55833,53
21.56667,55
21.57500,58
21.58333,61
21.59167,64
21.60000,68
21.60833,72
21.61667,77
21.62500,83
21.63333,89
21.64167,96
21.65000,104
21.65833,112
21.66667,122
21.67500,132
21.68333,143
21.69167,156
21.70000,169
21.70833,183
21.71667,199
21.72500,216
21.73333,234
21.74167,254
21.75000,275
21.75833,298
21.76667,322
21.77500,347
21.78333,374
21.79167,401
21.80000,430
21.80833,460
21.81667,492
21.82500,524
21.83333,557
21.84167,590
21.85000,625
21.85833,660
21.86667,696
21.87500,732
21.88333,768
21.89167,804
21.90000,840
21.90833,876
21.91667,910
21.92500,944
21.93333,976
21.94167,1008
21.95000,1038
21.95833,1067
21.96667,1094
21.97500,1118
21.98333,1141
21.99167,1162
22.00000,1181
22.00833,1197
22.01667,1211
22.02500,1223
22.03333,1231
22.04167,1238
22.05000,1241
22.05833,1242
22.06667,1240
22.07500,1236
22.08333,1229
22.09167,1220
22.10000,1208
22.10833,1194
22.11667,1178
22.12500,1160
22.13333,1140
22.14167,1118
22.15000,1095
22.15833,1070
22.16667,1044
22.17500,1017
22.18333,988
22.19167,959
22.20000,929
22.20833,898
22.21667,867
22.22500,837
22.23333,805
22.24167,774
22.25000,743
22.25833,712
22.26667,681
22.27500,651
22.28333,621
22.29167,592
22.30000,564
22.30833,536
22.31667,509
22.32500,483
22.33333,458
22.34167,433
22.35000,410
22.35833,388
22.36667,366
22.37500,346
22.38333,326
22.39167,308
22.40000,291
22.40833,274
22.41667,258
22.42500,244
22.43333,230
22.44167,217
22.45000,204
22.45833,193
22.46667,182
22.47500,172
22.48333,163
22.49167,154
22.50000,146
22.50833,138
22.51667,131
22.52500,125
22.53333,119
22.54167,113
22.55000,108
22.55833,103
22.56667,98
22.57500,95
22.58333,91
22.59167,88
22.60000,85
22.60833,82
22.61667,79
22.62500,76
22.63333,74
22.64167,72
22.65000,70
22.65833,69
22.66667,67
22.67500,65
22.68333,64
22.69167,62
22.70000,61
22.70833,60
22.71667,59
22.72500,58
22.73333,57
22.74167,56
22.75000,56
22.75833,55
22.76667,54
22.77500,53
22.78333,52
22.79167,51
22.80000,51
22.80833,51
22.81667,50
22.82500,49
22.83333,49
22.84167,48
22.85000,47
22.85833,47
22.86667,46
22.87500,46
22.88333,45
22.89167,45
22.90000,44
22.90833,44
22.91667,43
22.92500,42
22.93333,42
22.94167,41
22.95000,41
22.95833,40
22.96667,40
22.97500,40
22.98333,39
22.99167,38
23.00000,38
23.00833,37
23.01667,37
23.02500,37
23.03333,36
23.04167,36
23.05000,36
23.05833,36
23.06667,36
23.07500,36
23.08333,36
23.09167,35
23.10000,35
23.10833,36
23.11667,35
23.12500,35
23.13333,35
23.14167,35
23.15000,35
23.15833,34
23.16667,34
23.17500,34
23.18333,34
23.19167,34
23.20000,34
23.20833,34
23.21667,34
23.22500,34
23.23333,34
23.24167,34
23.25000,34
23.25833,34
23.26667,34
23.27500,35
23.28333,35
23.29167,35
23.30000,35
23.30833,34
23.31667,35
23.32500,35
23.33333,34
23.34167,34
23.35000,34
23.35833,34
23.36667,34
23.37500,34
23.38333,34
23.39167,34
23.40000,34
23.40833,34
23.41667,34
23.42500,34
23.43333,35
23.44167,35
23.45000,35
23.45833,35
23.46667,35
23.47500,35
23.48333,35
23.49167,36
23.50000,36
23.50833,36
23.51667,36
23.52500,36
23.53333,36
23.54167,36
23.55000,36
23.55833,36
23.56667,37
23.57500,37
23.58333,37
23.59167,38
23.60000,38
23.60833,39
23.61667,39
23.62500,39
23.63333,40
23.64167,40
23.65000,40
23.65833,40
23.66667,41
23.67500,41
23.68333,42
23.69167,43
23.70000,43
23.70833,44
23.71667,44
23.72500,45
23.73333,45
23.74167,45
23.75000,45
23.75833,45
23.76667,46
23.77500,46
23.78333,46
23.79167,46
23.80000,46
23.80833,46
23.81667,47
23.82500,47
23.83333,48
23.84167,49
23.85000,49
23.85833,49
23.86667,49
23.87500,49
23.88333,49
23.89167,49
23.90000,50
23.90833,50
23.91667,49
23.92500,49
23.93333,49
23.94167,49
23.95000,49
23.95833,49
23.96667,49
23.97500,49
23.98333,49
23.99167,49
24.00000,49
24.00833,48
24.01667,48
24.02500,47
24.03333,47
24.04167,46
24.05000,46
24.05833,45
24.06667,45
24.07500,44
24.08333,44
24.09167,44
24.10000,43
24.10833,43
24.11667,43
24.12500,42
24.13333,42
24.14167,41
24.15000,41
24.15833,40
24.16667,40
24.17500,40
24.18333,39
24.19167,39
24.20000,38
24.20833,38
24.21667,37
24.22500,36
24.23333,36
24.24167,36
24.25000,36
24.25833,36
24.26667,36
24.27500,35
24.28333,35
24.29167,34
24.30000,34
24.30833,34
24.31667,34
24.32500,34
24.33333,34
24.34167,34
24.35000,34
24.35833,34
24.36667,34
24.37500,35
24.38333,35
24.39167,35
24.40000,36
24.40833,36
24.41667,36
24.42500,36
24.43333,37
24.44167,37
24.45000,38
24.45833,38
24.46667,39
24.47500,40
24.48333,41
24.49167,42
24.50000,43
24.50833,44
24.51667,46
24.52500,47
24.53333,48
24.54167,50
24.55000,52
24.55833,54
24.56667,57
24.57500,59
24.58333,62
24.59167,65
24.60000,69
24.60833,72
24.61667,76
24.62500,80
24.63333,84
24.64167,89
24.65000,94
24.65833,100
24.66667,106
24.67500,112
24.68333,119
24.69167,126
24.70000,134
24.70833,142
24.71667,150
24.72500,159
24.73333,168
24.74167,177
24.75000,187
24.75833,198
24.76667,208
24.77500,219
24.78333,230
24.79167,241
24.80000,252
24.80833,264
24.81667,276
24.82500,288
24.83333,301
24.84167,313
24.85000,325
24.85833,336
24.86667,348
24.87500,360
24.88333,372
24.89167,383
24.90000,394
24.90833,405
24.91667,414
24.92500,424
24.93333,433
24.94167,441
24.95000,449
24.95833,456
24.96667,463
24.97500,469
24.98333,474
24.99167,478
25.00000,482
25.00833,485
25.01667,486
25.02500,487
25.03333,487
25.04167,486
25.05000,485
25.05833,482
25.06667,478
25.07500,474
25.08333,470
25.09167,464
25.10000,458
25.10833,452
25.11667,444
25.12500,436
25.13333,428
25.14167,419
25.15000,409
25.15833,400
25.16667,390
25.17500,379
25.18333,369
25.19167,358
25.20000,347
25.20833,336
25.21667,325
25.22500,314
25.23333,303
25.24167,293
25.25000,281
25.25833,270
25.26667,260
25.27500,249
25.28333,239
25.29167,229
25.30000,219
25.30833,210
25.31667,200
25.32500,192
25.33333,183
25.34167,175
25.35000,167
25.35833,159
25.36667,152
25.37500,145
25.38333,139
25.39167,133
25.40000,127
25.40833,122
25.41667,117
25.42500,112
25.43333,107
25.44167,103
25.45000,99
25.45833,94
25.46667,90
25.47500,87
25.48333,83
25.49167,81
25.50000,79
25.50833,76
25.51667,74
25.52500,72
25.53333,70
25.54167,69
25.55000,67
25.55833,65
25.56667,64
25.57500,63
25.58333,62
25.59167,61
25.60000,60
25.60833,60
25.61667,59
25.62500,59
25.63333,58
25.64167,58
25.65000,58
25.65833,57
25.66667,57
25.67500,57
25.68333,56
25.69167,56
25.70000,56
25.70833,56
25.71667,55
25.72500,55
25.73333,55
25.74167,55
25.75000,55
25.75833,55
25.76667,55
25.77500,54
25.78333,54
25.79167,53
25.80000,53
25.80833,53
25.81667,53
25.82500,53
25.83333,53
25.84167,52
25.85000,52
25.85833,52
25.86667,52
25.87500,52
25.88333,52
25.89167,51
25.90000,51
25.90833,50
25.91667,50
25.92500,49
25.93333,49
25.94167,48
25.95000,48
25.95833,47
25.96667,47
25.97500,46
25.98333,45
25.99167,44
26.00000,44
26.00833,43
26.01667,42
26.02500,41
26.03333,41
26.04167,40
26.05000,39
26.05833,39
26.06667,39
26.07500,39
26.08333,38
26.09167,37
26.10000,37
26.10833,36
26.11667,36
26.12500,35
26.13333,34
26.14167,34
26.15000,33
26.15833,33
26.16667,32
26.17500,32
26.18333,31
26.19167,31
26.20000,30
26.20833,30
26.21667,30
26.22500,29
26.23333,29
26.24167,29
26.25000,28
26.25833,28
26.26667,28
26.27500,28
26.28333,27
26.29167,27
26.30000,27
26.30833,27
26.31667,27
26.32500,28
26.33333,28
26.34167,27
26.35000,27
26.35833,27
26.36667,27
26.37500,27
26.38333,27
26.39167,28
26.40000,28
26.40833,28
26.41667,28
26.42500,29
26.43333,29
26.44167,29
26.45000,30
26.45833,31
26.46667,31
26.47500,31
26.48333,32
26.49167,32
26.50000,33
26.50833,33
26.51667,33
26.52500,34
26.53333,34
26.54167,35
26.55000,35
26.55833,36
26.56667,37
26.57500,37
26.58333,37
26.59167,38
26.60000,38
26.60833,39
26.61667,40
26.62500,41
26.63333,41
26.64167,42
26.65000,42
26.65833,43
26.66667,43
26.67500,43
26.68333,44
26.69167,44
26.70000,45
26.70833,45
26.71667,46
26.72500,46
26.73333,47
26.74167,48
26.75000,48
26.75833,49
26.76667,50
26.77500,50
26.78333,51
26.79167,51
26.80000,52
26.80833,52
26.81667,52
26.82500,53
26.83333,53
26.84167,54
26.85000,54
26.85833,55
26.86667,55
26.87500,55
26.88333,55
26.89167,55
26.90000,56
26.90833,56
26.91667,57
26.92500,57
26.93333,57
26.94167,58
26.95000,58
26.95833,58
26.96667,58
26.97500,59
26.98333,59
26.99167,59
27.00000,58
27.00833,58
27.01667,59
27.02500,58
27.03333,58
27.04167,58
27.05000,58
27.05833,58
27.06667,58
27.07500,58
27.08333,57
27.09167,57
27.10000,57
27.10833,57
27.11667,56
27.12500,56
27.13333,56
27.14167,55
27.15000,55
27.15833,54
27.16667,53
27.17500,53
27.18333,52
27.19167,51
27.20000,51
27.20833,50
27.21667,50
27.22500,49
27.23333,49
27.24167,48
27.25000,48
27.25833,48
27.26667,47
27.27500,47
27.28333,46
27.29167,46
27.30000,45
27.30833,45
27.31667,45
27.32500,44
27.33333,43
27.34167,43
27.35000,42
27.35833,41
27.36667,41
27.37500,41
27.38333,41
27.39167,40
27.40000,40
27.40833,40
27.41667,39
27.42500,39
27.43333,39
27.44167,39
27.45000,38
27.45833,38
27.46667,38
27.47500,38
27.48333,38
27.49167,38
27.50000,37
27.50833,37
27.51667,36
27.52500,36
27.53333,35
27.54167,35
27.55000,35
27.55833,35
27.56667,35
27.57500,35
27.58333,35
27.59167,35
27.60000,35
27.60833,35
27.61667,34
27.62500,34
27.63333,34
27.64167,34
27.65000,34
27.65833,34
27.66667,34
27.67500,33
27.68333,33
27.69167,33
27.70000,33
27.70833,33
27.71667,33
27.72500,32
27.73333,32
27.74167,32
27.75000,32
27.75833,32
27.76667,33
27.77500,32
27.78333,32
27.79167,31
27.80000,31
27.80833,30
27.81667,30
27.82500,30
27.83333,29
27.84167,29
27.85000,28
27.85833,27
27.86667,26
27.87500,25
27.88333,24
27.89167,23
27.90000,22
27.90833,20
27.91667,19
27.92500,17
27.93333,16
27.94167,13
27.95000,11
27.95833,9
27.96667,7
27.97500,5
27.98333,3
27.99167,1
28.00000,-1
28.00833,-4
28.01667,-7
28.02500,-10
28.03333,-12
28.04167,-16
28.05000,-19
28.05833,-22
28.06667,-25
28.07500,-28
28.08333,-31
28.09167,-34
28.10000,-38
28.10833,-41
28.11667,-45
28.12500,-48
28.13333,-52
28.14167,-56
28.15000,-59
28.15833,-63
28.16667,-66
28.17500,-69
28.18333,-72
28.19167,-75
28.20000,-79
28.20833,-82
28.21667,-85
28.22500,-88
28.23333,-91
28.24167,-94
28.25000,-96
28.25833,-98
28.26667,-101
28.27500,-103
28.28333,-105
28.29167,-107
28.30000,-108
28.30833,-110
28.31667,-111
28.32500,-112
28.33333,-113
28.34167,-114
28.35000,-115
28.35833,-115
28.36667,-116
28.37500,-116
28.38333,-116
28.39167,-116
28.40000,-115
28.40833,-114
28.41667,-114
28.42500,-113
28.43333,-111
28.44167,-110
28.45000,-108
28.45833,-106
28.46667,-104
28.47500,-102
28.48333,-100
28.49167,-98
28.50000,-95
28.50833,-93
28.51667,-90
28.52500,-87
28.53333,-84
28.54167,-82
28.55000,-79
28.55833,-76
28.56667,-74
28.57500,-71
28.58333,-68
28.59167,-64
28.60000,-61
28.60833,-58
28.61667,-55
28.62500,-52
28.63333,-49
28.64167,-46
28.65000,-43
28.65833,-40
28.66667,-37
28.67500,-34
28.68333,-31
28.69167,-28
28.70000,-25
28.70833,-22
28.71667,-20
28.72500,-17
28.73333,-15
28.74167,-12
28.75000,-10
28.75833,-8
28.76667,-5
28.77500,-3
28.78333,-0
28.79167,2
28.80000,4
28.80833,6
28.81667,8
28.82500,9
28.83333,11
28.84167,13
28.85000,14
28.85833,16
28.86667,17
28.87500,18
28.88333,20
28.89167,21
28.90000,22
28.90833,23
28.91667,25
28.92500,26
28.93333,26
28.94167,27
28.95000,28
28.95833,28
28.96667,29
28.97500,30
28.98333,31
28.99167,32
29.00000,33
29.00833,33
29.01667,34
29.02500,34
29.03333,34
29.04167,34
29.05000,34
29.05833,34
29.06667,34
29.07500,35
29.08333,35
29.09167,35
29.10000,35
29.10833,35
29.11667,35
29.12500,36
29.13333,36
29.14167,36
29.15000,37
29.15833,37
29.16667,37
29.17500,37
29.18333,36
29.19167,36
29.20000,36
29.20833,36
29.21667,36
29.22500,36
29.23333,35
29.24167,35
29.25000,35
29.25833,35
29.26667,35
29.27500,35
29.28333,35
29.29167,35
29.30000,35
29.30833,35
29.31667,35
29.32500,35
29.33333,35
29.34167,34
29.35000,34
29.35833,33
29.36667,33
29.37500,32
29.38333,32
29.39167,31
29.40000,31
29.40833,30
29.41667,30
29.42500,30
29.43333,29
29.44167,29
29.45000,28
29.45833,28
29.46667,27
29.47500,27
29.48333,26
29.49167,25
29.50000,24
29.50833,24
29.51667,22
29.52500,21
29.53333,20
29.54167,19
29.55000,18
29.55833,18
29.56667,17
29.57500,17
29.58333,16
29.59167,16
29.60000,15
29.60833,14
29.61667,13
29.62500,12
29.63333,12
29.64167,11
29.65000,10
29.65833,9
29.66667,9
29.67500,8
29.68333,7
29.69167,6
29.70000,5
29.70833,4
29.71667,4
29.72500,3
29.73333,2
29.74167,1
29.75000,0
29.75833,-0
29.76667,-1
29.77500,-2
29.78333,-3
29.79167,-4
29.80000,-4
29.80833,-5
29.81667,-5
29.82500,-6
29.83333,-7
29.84167,-7
29.85000,-8
29.85833,-9
29.86667,-9
29.87500,-10
29.88333,-10
29.89167,-11
29.90000,-12
29.90833,-12
29.91667,-13
29.92500,-14
29.93333,-14
29.94167,-15
29.95000,-16
29.95833,-16
29.96667,-16
29.97500,-16
29.98333,-17
29.99167,-17
30.00000,-17
30.00833,-17
30.01667,-17
30.02500,-18
30.03333,-18
30.04167,-18
30.05000,-18
30.05833,-18
30.06667,-18
30.07500,-18
30.08333,-18
30.09167,-18
30.10000,-18
30.10833,-17
30.11667,-17
30.12500,-17
30.13333,-17
30.14167,-17
30.15000,-17
30.15833,-17
30.16667,-17
30.17500,-16
30.18333,-16
30.19167,-15
30.20000,-15
30.20833,-15
30.21667,-14
30.22500,-13
30.23333,-13
30.24167,-12
30.25000,-11
30.25833,-10
30.26667,-9
30.27500,-9
30.28333,-8
30.29167,-8
30.30000,-7
30.30833,-7
30.31667,-6
30.32500,-6
30.33333,-5
30.34167,-4
30.35000,-3
30.35833,-3
30.36667,-2
30.37500,-2
30.38333,-2
30.39167,-1
30.40000,-1
30.40833,-0
30.41667,1
30.42500,2
30.43333,2
30.44167,3
30.45000,4
30.45833,5
30.46667,5
30.47500,6
30.48333,6
30.49167,7
30.50000,7
30.50833,8
30.51667,8
30.52500,9
30.53333,10
30.54167,11
30.55000,12
30.55833,12
30.56667,13
30.57500,13
30.58333,14
30.59167,15
30.60000,16
30.60833,16
30.61667,17
30.62500,18
30.63333,19
30.64167,19
30.65000,20
30.65833,21
30.66667,22
30.67500,23
30.68333,24
30.69167,24
30.70000,25
30.70833,25
30.71667,25
30.72500,26
30.73333,26
30.74167,27
30.75000,28
30.75833,28
30.76667,29
30.77500,30
30.78333,30
30.79167,31
30.80000,31
30.80833,31
30.81667,31
30.82500,32
30.83333,32
30.84167,32
30.85000,32
30.85833,33
30.86667,33
30.87500,33
30.88333,33
30.89167,33
30.90000,34
30.90833,34
30.91667,34
30.92500,34
30.93333,34
30.94167,35
30.95000,35
30.95833,36
30.96667,36
30.97500,36
30.98333,36
30.99167,36
31.00000,36
31.00833,36
31.01667,36
31.02500,36
31.03333,37
31.04167,37
31.05000,37
31.05833,37
31.06667,37
31.07500,38
31.08333,38
31.09167,38
31.10000,38
31.10833,38
31.11667,38
31.12500,38
31.13333,38
31.14167,38
31.15000,38
31.15833,38
31.16667,38
31.17500,38
31.18333,38
31.19167,38
31.20000,38
31.20833,39
31.21667,39
31.22500,39
31.23333,39
31.24167,39
31.25000,39
31.25833,39
31.26667,39
31.27500,39
31.28333,39
31.29167,39
31.30000,39
31.30833,38
31.31667,38
31.32500,39
31.33333,39
31.34167,40
31.35000,40
31.35833,41
31.36667,41
31.37500,41
31.38333,41
31.39167,42
31.40000,42
31.40833,42
31.41667,43
31.42500,43
31.43333,43
31.44167,43
31.45000,43
31.45833,43
31.46667,43
31.47500,43
31.48333,44
31.49167,44
31.50000,44
31.50833,44
31.51667,44
31.52500,45
31.53333,45
31.54167,45
31.55000,46
31.55833,45
31.56667,46
31.57500,46
31.58333,46
31.59167,46
31.60000,46
31.60833,45
31.61667,46
31.62500,46
31.63333,46
31.64167,46
31.65000,46
31.65833,46
31.66667,46
31.67500,45
31.68333,45
31.69167,45
31.70000,44
31.70833,44
31.71667,44
31.72500,44
31.73333,43
31.74167,43
31.75000,43
31.75833,43
31.76667,43
31.77500,43
31.78333,43
31.79167,42
31.80000,42
31.80833,42
31.81667,42
31.82500,41
31.83333,41
31.84167,41
31.85000,40
31.85833,40
31.86667,40
31.87500,40
31.88333,40
31.89167,40
31.90000,40
31.90833,40
31.91667,40
31.92500,40
31.93333,40
31.94167,40
31.95000,40
31.95833,40
31.96667,40
31.97500,41
31.98333,41
31.99167,41
32.00000,41
32.00833,42
32.01667,42
32.02500,42
32.03333,42
32.04167,43
32.05000,43
32.05833,43
32.06667,43
32.07500,44
32.08333,44
32.09167,44
32.10000,45
32.10833,45
32.11667,45
32.12500,46
32.13333,46
32.14167,47
32.15000,48
32.15833,48
32.16667,49
32.17500,49
32.18333,50
32.19167,50
32.20000,51
32.20833,51
32.21667,51
32.22500,51
32.23333,52
32.24167,52
32.25000,53
32.25833,54
32.26667,54
32.27500,55
32.28333,55
32.29167,55
32.30000,56
32.30833,56
32.31667,56
32.32500,57
32.33333,57
32.34167,57
32.35000,57
32.35833,58
32.36667,58
32.37500,58
32.38333,58
32.39167,58
32.40000,58
32.40833,58
32.41667,57
32.42500,57
32.43333,57
32.44167,56
32.45000,56
32.45833,56
32.46667,56
32.47500,56
32.48333,55
32.49167,55
32.50000,55
32.50833,55
32.51667,54
32.52500,54
32.53333,53
32.54167,52
32.55000,52
32.55833,51
32.56667,50
32.57500,49
32.58333,49
32.59167,48
32.60000,48
32.60833,48
32.61667,47
32.62500,47
32.63333,46
32.64167,46
32.65000,46
32.65833,45
32.66667,44
32.67500,44
32.68333,44
32.69167,43
32.70000,43
32.70833,43
32.71667,43
32.72500,42
32.73333,43
32.74167,43
32.75000,43
32.75833,42
32.76667,42
32.77500,42
32.78333,42
32.79167,42
32.80000,42
32.80833,42
32.81667,42
32.82500,42
32.83333,42
32.84167,43
32.85000,43
32.85833,43
32.86667,43
32.87500,43
32.88333,43
32.89167,43
32.90000,44
32.90833,44
32.91667,45
32.92500,45
32.93333,46
32.94167,47
32.95000,47
32.95833,47
32.96667,47
32.97500,48
32.98333,48
32.99167,48
33.00000,48
33.00833,49
33.01667,49
33.02500,49
33.03333,49
33.04167,50
33.05000,50
33.05833,51
33.06667,51
33.07500,51
33.08333,51
33.09167,51
33.10000,51
33.10833,51
33.11667,51
33.12500,51
33.13333,51
33.14167,52
33.15000,51
33.15833,51
33.16667,52
33.17500,52
33.18333,52
33.19167,52
33.20000,52
33.20833,52
33.21667,51
33.22500,51
33.23333,51
33.24167,51
33.25000,51
33.25833,51
33.26667,51
33.27500,50
33.28333,50
33.29167,50
33.30000,50
33.30833,49
33.31667,49
33.32500,49
33.33333,48
33.34167,48
33.35000,47
33.35833,47
33.36667,47
33.37500,46
33.38333,46
33.39167,46
33.40000,45
33.40833,45
33.41667,44
33.42500,44
33.43333,44
33.44167,43
33.45000,43
33.45833,42
33.46667,41
33.47500,41
33.48333,41
33.49167,41
33.50000,41
33.50833,40
33.51667,40
33.52500,39
33.53333,39
33.54167,38
33.55000,38
33.55833,38
33.56667,38
33.57500,38
33.58333,38
33.59167,38
33.60000,38
33.60833,38
33.61667,38
33.62500,38
33.63333,38
33.64167,37
33.65000,37
33.65833,37
33.66667,37
33.67500,36
33.68333,36
33.69167,36
33.70000,36
33.70833,36
33.71667,36
33.72500,37
33.73333,37
33.74167,37
33.75000,37
33.75833,37
33.76667,37
33.77500,37
33.78333,37
33.79167,37
33.80000,38
33.80833,38
33.81667,38
33.82500,39
33.83333,39
33.84167,39
33.85000,39
33.85833,39
33.86667,40
33.87500,40
33.88333,41
33.89167,41
33.90000,42
33.90833,42
33.91667,43
33.92500,43
33.93333,44
33.94167,44
33.95000,45
33.95833,45
33.96667,45
33.97500,45
33.98333,46
33.99167,46
34.00000,46
34.00833,47
34.01667,47
34.02500,47
34.03333,48
34.04167,48
34.05000,48
34.05833,49
34.06667,49
34.07500,49
34.08333,50
34.09167,50
34.10000,50
34.10833,51
34.11667,51
34.12500,51
34.13333,52
34.14167,52
34.15000,52
34.15833,52
34.16667,53
34.17500,53
34.18333,53
34.19167,54
34.20000,54
34.20833,54
34.21667,54
34.22500,54
34.23333,54
34.24167,54
34.25000,55
34.25833,55
34.26667,55
34.27500,55
34.28333,55
34.29167,55
34.30000,55
34.30833,55
34.31667,55
34.32500,55
34.33333,55
34.34167,55
34.35000,55
34.35833,55
34.36667,54
34.37500,54
34.38333,53
34.39167,53
34.40000,53
34.40833,52
34.41667,52
34.42500,51
34.43333,51
34.44167,50
34.45000,50
34.45833,50
34.46667,49
34.47500,49
34.48333,49
34.49167,48
34.50000,48
34.50833,47
34.51667,47
34.52500,46
34.53333,46
34.54167,45
34.55000,45
34.55833,45
34.56667,44
34.57500,43
34.58333,42
34.59167,42
34.60000,41
34.60833,41
34.61667,41
34.62500,40
34.63333,40
34.64167,39
34.65000,39
34.65833,39
34.66667,38
34.67500,38
34.68333,38
34.69167,37
34.70000,37
34.70833,36
34.71667,37
34.72500,37
34.73333,37
34.74167,36
34.75000,36
34.75833,36
34.76667,36
34.77500,36
34.78333,35
34.79167,35
34.80000,35
34.80833,36
34.81667,36
34.82500,37
34.83333,37
34.84167,37
34.85000,37
34.85833,37
34.86667,37
34.87500,37
34.88333,38
34.89167,38
34.90000,39
34.90833,39
34.91667,40
34.92500,40
34.93333,40
34.94167,40
34.95000,40
34.95833,40
34.96667,41
34.97500,41
34.98333,41
34.99167,41
35.00000,42
35.00833,42
35.01667,43
35.02500,43
35.03333,43
35.04167,43
35.05000,43
35.05833,44
35.06667,44
35.07500,44
35.08333,44
35.09167,44
35.10000,45
35.10833,45
35.11667,45
35.12500,45
35.13333,45
35.14167,44
35.15000,44
35.15833,44
35.16667,44
35.17500,45
35.18333,44
35.19167,44
35.20000,44
35.20833,44
35.21667,44
35.22500,44
35.23333,43
35.24167,43
35.25000,43
35.25833,43
35.26667,43
35.27500,43
35.28333,42
35.29167,42
35.30000,42
35.30833,42
35.31667,42
35.32500,42
35.33333,42
35.34167,41
35.35000,40
35.35833,40
35.36667,39
35.37500,39
35.38333,39
35.39167,39
35.40000,39
35.40833,39
35.41667,39
35.42500,39
35.43333,40
35.44167,40
35.45000,40
35.45833,40
35.46667,40
35.47500,39
35.48333,39
35.49167,39
35.50000,39
35.50833,39
35.51667,39
35.52500,40
35.53333,40
35.54167,40
35.55000,40
35.55833,40
35.56667,41
35.57500,41
35.58333,41
35.59167,41
35.60000,42
35.60833,42
35.61667,42
35.62500,43
35.63333,44
35.64167,44
35.65000,45
35.65833,45
35.66667,46
35.67500,46
35.68333,46
35.69167,47
35.70000,47
35.70833,48
35.71667,48
35.72500,48
35.73333,49
35.74167,49
35.75000,50
35.75833,50
35.76667,50
35.77500,51
35.78333,51
35.79167,51
35.80000,51
35.80833,51
35.81667,51
35.82500,51
35.83333,51
35.84167,51
35.85000,51
35.85833,51
35.86667,51
35.87500,51
35.88333,51
35.89167,51
35.90000,51
35.90833,51
35.91667,51
35.92500,52
35.93333,52
35.94167,52
35.95000,52
35.95833,52
35.96667,52
35.97500,52
35.98333,52
35.99167,51
36.00000,51
36.00833,51
36.01667,50
36.02500,51
36.03333,51
36.04167,51
36.05000,51
36.05833,51
36.06667,50
36.07500,50
36.08333,50
36.09167,50
36.10000,50
36.10833,49
36.11667,49
36.12500,49
36.13333,49
36.14167,49
36.15000,49
36.15833,48
36.16667,49
36.17500,49
36.18333,49
36.19167,49
36.20000,49
36.20833,50
36.21667,50
36.22500,50
36.23333,50
36.24167,50
36.25000,50
36.25833,51
36.26667,51
36.27500,51
36.28333,51
36.29167,51
36.30000,51
36.30833,51
36.31667,50
36.32500,50
36.33333,51
36.34167,51
36.35000,52
36.35833,52
36.36667,53
36.37500,53
36.38333,53
36.39167,53
36.40000,53
36.40833,53
36.41667,54
36.42500,54
36.43333,54
36.44167,54
36.45000,54
36.45833,54
36.46667,54
36.47500,54
36.48333,55
36.49167,55
36.50000,55
36.50833,55
36.51667,55
36.52500,55
36.53333,55
36.54167,55
36.55000,56
36.55833,56
36.56667,57
36.57500,57
36.58333,57
36.59167,57
36.60000,57
36.60833,57
36.61667,58
36.62500,58
36.63333,59
36.64167,59
36.65000,59
36.65833,59
36.66667,59
36.67500,59
36.68333,59
36.69167,59
36.70000,60
36.70833,60
36.71667,60
36.72500,60
36.73333,60
36.74167,60
36.75000,61
36.75833,61
36.76667,61
36.77500,61
36.78333,61
36.79167,61
36.80000,61
36.80833,62
36.81667,62
36.82500,62
36.83333,62
36.84167,62
36.85000,62
36.85833,61
36.86667,61
36.87500,61
36.88333,61
36.89167,61
36.90000,61
36.90833,61
36.91667,62
36.92500,62
36.93333,62
36.94167,62
36.95000,62
36.95833,62
36.96667,61
36.97500,61
36.98333,61
36.99167,61
37.00000,60
37.00833,60
37.01667,60
37.02500,59
37.03333,60
37.04167,60
37.05000,60
37.05833,60
37.06667,59
37.07500,59
37.08333,58
37.09167,58
37.10000,57
37.10833,57
37.11667,56
37.12500,56
37.13333,56
37.14167,55
37.15000,55
37.15833,54
37.16667,54
37.17500,54
37.18333,54
37.19167,53
37.20000,52
37.20833,52
37.21667,51
37.22500,51
37.23333,51
37.24167,51
37.25000,50
37.25833,49
37.26667,49
37.27500,49
37.28333,48
37.29167,47
37.30000,47
37.30833,47
37.31667,47
37.32500,47
37.33333,47
37.34167,46
37.35000,46
37.35833,45
37.36667,45
37.37500,45
37.38333,45
37.39167,45
37.40000,45
37.40833,44
37.41667,44
37.42500,43
37.43333,43
37.44167,43
37.45000,43
37.45833,43
37.46667,43
37.47500,43
37.48333,43
37.49167,43
37.50000,43
37.50833,43
37.51667,43
37.52500,43
37.53333,44
37.54167,44
37.55000,44
37.55833,44
37.56667,44
37.57500,44
37.58333,44
37.59167,44
37.60000,44
37.60833,44
37.61667,44
37.62500,44
37.63333,44
37.64167,44
37.65000,44
37.65833,45
37.66667,45
37.67500,45
37.68333,46
37.69167,46
37.70000,46
37.70833,46
37.71667,46
37.72500,46
37.73333,46
37.74167,46
37.75000,46
37.75833,46
37.76667,46
37.77500,46
37.78333,47
37.79167,47
37.80000,46
37.80833,46
37.81667,46
37.82500,46
37.83333,46
37.84167,46
37.85000,46
37.85833,45
37.86667,45
37.87500,45
37.88333,45
37.89167,45
37.90000,45
37.90833,45
37.91667,46
37.92500,46
37.93333,46
37.94167,46
37.95000,46
37.95833,46
37.96667,46
37.97500,46
37.98333,46
37.99167,46
38.00000,46
38.00833,47
38.01667,48
38.02500,48
38.03333,48
38.04167,49
38.05000,49
38.05833,49
38.06667,49
38.07500,49
38.08333,50
38.09167,51
38.10000,51
38.10833,52
38.11667,52
38.12500,53
38.13333,54
38.14167,54
38.15000,55
38.15833,55
38.16667,56
38.17500,56
38.18333,56
38.19167,57
38.20000,58
38.20833,58
38.21667,59
38.22500,59
38.23333,60
38.24167,60
38.25000,60
38.25833,61
38.26667,61
38.27500,62
38.28333,62
38.29167,63
38.30000,63
38.30833,63
38.31667,64
38.32500,64
38.33333,64
38.34167,65
38.35000,65
38.35833,66
38.36667,66
38.37500,66
38.38333,66
38.39167,67
38.40000,67
38.40833,67
38.41667,67
38.42500,68
38.43333,68
38.44167,68
38.45000,68
38.45833,68
38.46667,68
38.47500,68
38.48333,68
38.49167,68
38.50000,68
38.50833,68
38.51667,68
38.52500,68
38.53333,68
38.54167,67
38.55000,67
38.55833,67
38.56667,66
38.57500,66
38.58333,65
38.59167,65
38.60000,64
38.60833,64
38.61667,63
38.62500,63
38.63333,63
38.64167,63
38.65000,62
38.65833,62
38.66667,61
38.67500,61
38.68333,60
38.69167,60
38.70000,59
38.70833,59
38.71667,59
38.72500,58
38.73333,58
38.74167,58
38.75000,57
38.75833,57
38.76667,56
38.77500,56
38.78333,56
38.79167,55
38.80000,55
38.80833,54
38.81667,54
38.82500,54
38.83333,53
38.84167,53
38.85000,53
38.85833,53
38.86667,53
38.87500,53
38.88333,52
38.89167,52
38.90000,52
38.90833,52
38.91667,52
38.92500,52
38.93333,52
38.94167,52
38.95000,52
38.95833,51
38.96667,51
38.97500,51
38.98333,51
38.99167,51
39.00000,51
39.00833,51
39.01667,51
39.02500,51
39.03333,51
39.04167,51
39.05000,50
39.05833,50
39.06667,51
39.07500,51
39.08333,51
39.09167,51
39.10000,51
39.10833,51
39.11667,51
39.12500,51
39.13333,51
39.14167,51
39.15000,51
39.15833,51
39.16667,51
39.17500,51
39.18333,51
39.19167,51
39.20000,51
39.20833,51
39.21667,50
39.22500,50
39.23333,50
39.24167,50
39.25000,50
39.25833,50
39.26667,49
39.27500,49
39.28333,49
39.29167,49
39.30000,49
39.30833,48
39.31667,48
39.32500,47
39.33333,47
39.34167,47
39.35000,47
39.35833,47
39.36667,46
39.37500,46
39.38333,46
39.39167,46
39.40000,45
39.40833,45
39.41667,45
39.42500,44
39.43333,44
39.44167,44
39.45000,44
39.45833,44
39.46667,43
39.47500,43
39.48333,43
39.49167,43
39.50000,42
39.50833,42
39.51667,42
39.52500,41
39.53333,42
39.54167,42
39.55000,42
39.55833,41
39.56667,41
39.57500,41
39.58333,41
39.59167,42
39.60000,42
39.60833,42
39.61667,42
39.62500,42
39.63333,42
39.64167,42
39.65000,42
39.65833,42
39.66667,42
39.67500,42
39.68333,42
39.69167,42
39.70000,42
39.70833,43
39.71667,43
39.72500,43
39.73333,43
39.74167,43
39.75000,43
39.75833,44
39.76667,44
39.77500,44
39.78333,44
39.79167,45
39.80000,45
39.80833,45
39.81667,46
39.82500,46
39.83333,47
39.84167,47
39.85000,47
39.85833,48
39.86667,48
39.87500,48
39.88333,48
39.89167,49
39.90000,49
39.90833,49
39.91667,49
39.92500,50
39.93333,50
39.94167,50
39.95000,50
39.95833,51
39.96667,51
39.97500,51
39.98333,51
39.99167,51
40.00000,51

