[Header]
Application Name,LabSolutions
Version,5.97 SP1
Data File Name,C:\Users\cremerlab\Desktop\griffin\2021-04-05_NC_DM_calibration\2021-04-05_NC_DM_2.5mM_calibration_452021_002_015.lcd
Output Date,4/6/2021
Output Time,3:50:40 AM

[File Information]
Type,Data File
Generated,4/6/2021 3:10:21 AM
Generated by,System Administrator
Modified,4/6/2021 3:50:40 AM
Modified by,System Administrator

[Sample Information]
Operator Name,System Administrator
Acquired,4/6/2021 3:10:40 AM
Sample Type,1:Standard
Level,2
Sample Name,2021-04-05_DM_glucose_glycerol_acetate_25mM
Sample ID,002
ISTD Amount1,1
ISTD Amount2,1
ISTD Amount3,1
ISTD Amount4,1
ISTD Amount5,1
ISTD Amount6,1
ISTD Amount7,1
ISTD Amount8,1
ISTD Amount9,1
ISTD Amount10,1
ISTD Amount11,1
ISTD Amount12,1
ISTD Amount13,1
ISTD Amount14,1
ISTD Amount15,1
ISTD Amount16,1
ISTD Amount17,1
ISTD Amount18,1
ISTD Amount19,1
ISTD Amount20,1
ISTD Amount21,1
ISTD Amount22,1
ISTD Amount23,1
ISTD Amount24,1
ISTD Amount25,1
ISTD Amount26,1
ISTD Amount27,1
ISTD Amount28,1
ISTD Amount29,1
ISTD Amount30,1
ISTD Amount31,1
ISTD Amount32,1
Sample Amount,1
Dilution Factor,1
Vial#,20
Injection Volume,20

[Original Files]
Data File,C:\Users\cremerlab\Desktop\griffin\2021-04-05_NC_DM_calibration\2021-04-05_NC_DM_2.5mM_calibration_452021_002_015.lcd
Method File,C:\Users\cremerlab\Desktop\griffin\2021-04-05_NC_DM_calibration\2021-04-05_2.5mM_mobile.lcm
Batch File,C:\Users\cremerlab\Desktop\griffin\2021-04-05_NC_DM_calibration\2021-04-05_NC_DM_2.5mM_calibration.lcb
Report Format File,c:\LabSolutions\System\DEFAULT.lsr

[File Description]


[Configuration]
Instrument Name,HPLC-PC-Instrument1
Instrument #,1
Line #,1
# of Detectors,2
Detector ID,Detector A,Detector B
Detector Name,Detector A,Detector B
# of Channels,1,1

[Peak Table(Detector A)]
# of Peaks,0

[Peak Table(Detector B)]
# of Peaks,6
Peak#,R.Time,I.Time,F.Time,Area,Height,A/H,Conc.,Mark,ID#,Name,k',Plate #,Plate Ht.,Tailing,Resolution,Sep.Factor,Area Ratio,Height Ratio,Conc. %,Norm Conc.
1,10.887,10.400,11.783,264802,15461,17.128,0.000,   ,,,0.000,9187,16.327,1.032,0.000,0.000,0,0,0.000,0.000
2,13.978,12.567,14.242,1870170,48386,38.651,0.000,   ,,,0.284,3032,49.477,0.000,4.206,0.000,0,0,0.000,0.000
3,14.330,14.242,15.000,175863,10738,16.377,0.000, V ,,,0.316,2381,62.990,0.000,0.322,1.114,0,0,0.000,0.000
4,15.674,15.000,18.467,3006489,121510,24.743,0.000, V ,,,0.440,9436,15.897,1.152,1.477,1.390,0,0,0.000,0.000
5,22.062,21.317,23.217,829612,30087,27.574,0.000,   ,,,1.026,14711,10.196,1.094,9.304,2.334,0,0,0.000,0.000
6,25.027,24.283,26.400,333589,11107,30.034,0.000,   ,,,1.299,16028,9.359,1.078,3.906,1.265,0,0,0.000,0.000

[LC Chromatogram(Detector B-Ch1)]
Interval(msec),500
# of Points,4801
Start Time(min),0.000
End Time(min),40.000
Intensity Units,mV
Intensity Multiplier,0.001
R.Time (min),Intensity
0.00000,-8
0.00833,-8
0.01667,-0
0.02500,-1
0.03333,-1
0.04167,-2
0.05000,-2
0.05833,-3
0.06667,-4
0.07500,-4
0.08333,-4
0.09167,-5
0.10000,-5
0.10833,-5
0.11667,-6
0.12500,-7
0.13333,-8
0.14167,-8
0.15000,-8
0.15833,-9
0.16667,-9
0.17500,-9
0.18333,-10
0.19167,-10
0.20000,-10
0.20833,-10
0.21667,-11
0.22500,-11
0.23333,-11
0.24167,-11
0.25000,-11
0.25833,-11
0.26667,-11
0.27500,-11
0.28333,-11
0.29167,-11
0.30000,-11
0.30833,-11
0.31667,-11
0.32500,-11
0.33333,-11
0.34167,-11
0.35000,-11
0.35833,-11
0.36667,-11
0.37500,-11
0.38333,-11
0.39167,-11
0.40000,-10
0.40833,-10
0.41667,-9
0.42500,-9
0.43333,-8
0.44167,-8
0.45000,-8
0.45833,-9
0.46667,-9
0.47500,-9
0.48333,-9
0.49167,-9
0.50000,-9
0.50833,-8
0.51667,-8
0.52500,-8
0.53333,-8
0.54167,-8
0.55000,-8
0.55833,-8
0.56667,-8
0.57500,-8
0.58333,-8
0.59167,-8
0.60000,-8
0.60833,-7
0.61667,-7
0.62500,-7
0.63333,-7
0.64167,-7
0.65000,-7
0.65833,-7
0.66667,-8
0.67500,-8
0.68333,-7
0.69167,-7
0.70000,-7
0.70833,-8
0.71667,-8
0.72500,-8
0.73333,-9
0.74167,-9
0.75000,-9
0.75833,-9
0.76667,-9
0.77500,-9
0.78333,-9
0.79167,-9
0.80000,-8
0.80833,-8
0.81667,-8
0.82500,-9
0.83333,-9
0.84167,-9
0.85000,-8
0.85833,-8
0.86667,-8
0.87500,-8
0.88333,-8
0.89167,-8
0.90000,-7
0.90833,-7
0.91667,-7
0.92500,-7
0.93333,-7
0.94167,-7
0.95000,-6
0.95833,-6
0.96667,-5
0.97500,-5
0.98333,-5
0.99167,-4
1.00000,-3
1.00833,-2
1.01667,-1
1.02500,-1
1.03333,-0
1.04167,0
1.05000,1
1.05833,1
1.06667,2
1.07500,3
1.08333,3
1.09167,4
1.10000,5
1.10833,5
1.11667,6
1.12500,7
1.13333,8
1.14167,9
1.15000,10
1.15833,11
1.16667,12
1.17500,13
1.18333,13
1.19167,14
1.20000,14
1.20833,14
1.21667,15
1.22500,15
1.23333,16
1.24167,16
1.25000,17
1.25833,17
1.26667,18
1.27500,18
1.28333,19
1.29167,19
1.30000,20
1.30833,20
1.31667,20
1.32500,20
1.33333,20
1.34167,20
1.35000,20
1.35833,20
1.36667,20
1.37500,20
1.38333,20
1.39167,20
1.40000,20
1.40833,20
1.41667,20
1.42500,20
1.43333,20
1.44167,20
1.45000,20
1.45833,20
1.46667,20
1.47500,19
1.48333,19
1.49167,19
1.50000,18
1.50833,18
1.51667,17
1.52500,16
1.53333,16
1.54167,15
1.55000,15
1.55833,15
1.56667,15
1.57500,14
1.58333,14
1.59167,12
1.60000,12
1.60833,11
1.61667,10
1.62500,10
1.63333,9
1.64167,8
1.65000,8
1.65833,8
1.66667,7
1.67500,7
1.68333,6
1.69167,5
1.70000,5
1.70833,4
1.71667,3
1.72500,3
1.73333,2
1.74167,2
1.75000,1
1.75833,1
1.76667,-0
1.77500,-1
1.78333,-2
1.79167,-2
1.80000,-3
1.80833,-4
1.81667,-4
1.82500,-5
1.83333,-5
1.84167,-5
1.85000,-5
1.85833,-6
1.86667,-6
1.87500,-6
1.88333,-7
1.89167,-7
1.90000,-7
1.90833,-7
1.91667,-8
1.92500,-8
1.93333,-8
1.94167,-8
1.95000,-8
1.95833,-8
1.96667,-8
1.97500,-8
1.98333,-7
1.99167,-7
2.00000,-7
2.00833,-7
2.01667,-6
2.02500,-6
2.03333,-6
2.04167,-6
2.05000,-6
2.05833,-6
2.06667,-5
2.07500,-5
2.08333,-5
2.09167,-5
2.10000,-6
2.10833,-6
2.11667,-6
2.12500,-6
2.13333,-6
2.14167,-6
2.15000,-6
2.15833,-6
2.16667,-6
2.17500,-5
2.18333,-5
2.19167,-5
2.20000,-5
2.20833,-5
2.21667,-5
2.22500,-5
2.23333,-5
2.24167,-5
2.25000,-4
2.25833,-4
2.26667,-4
2.27500,-4
2.28333,-5
2.29167,-5
2.30000,-5
2.30833,-5
2.31667,-4
2.32500,-4
2.33333,-4
2.34167,-4
2.35000,-4
2.35833,-4
2.36667,-4
2.37500,-4
2.38333,-4
2.39167,-4
2.40000,-4
2.40833,-4
2.41667,-4
2.42500,-4
2.43333,-4
2.44167,-4
2.45000,-4
2.45833,-4
2.46667,-5
2.47500,-5
2.48333,-5
2.49167,-5
2.50000,-5
2.50833,-5
2.51667,-5
2.52500,-5
2.53333,-5
2.54167,-5
2.55000,-4
2.55833,-4
2.56667,-3
2.57500,-3
2.58333,-3
2.59167,-3
2.60000,-3
2.60833,-3
2.61667,-3
2.62500,-3
2.63333,-2
2.64167,-2
2.65000,-2
2.65833,-1
2.66667,-1
2.67500,-0
2.68333,-0
2.69167,0
2.70000,1
2.70833,1
2.71667,1
2.72500,2
2.73333,2
2.74167,2
2.75000,2
2.75833,3
2.76667,3
2.77500,4
2.78333,5
2.79167,5
2.80000,5
2.80833,6
2.81667,6
2.82500,7
2.83333,7
2.84167,8
2.85000,9
2.85833,10
2.86667,10
2.87500,11
2.88333,11
2.89167,12
2.90000,12
2.90833,13
2.91667,14
2.92500,14
2.93333,15
2.94167,15
2.95000,16
2.95833,16
2.96667,16
2.97500,17
2.98333,17
2.99167,18
3.00000,18
3.00833,18
3.01667,18
3.02500,18
3.03333,19
3.04167,19
3.05000,19
3.05833,19
3.06667,19
3.07500,19
3.08333,19
3.09167,20
3.10000,20
3.10833,20
3.11667,20
3.12500,20
3.13333,20
3.14167,20
3.15000,20
3.15833,19
3.16667,19
3.17500,19
3.18333,19
3.19167,18
3.20000,18
3.20833,18
3.21667,18
3.22500,17
3.23333,17
3.24167,16
3.25000,15
3.25833,15
3.26667,14
3.27500,14
3.28333,13
3.29167,13
3.30000,12
3.30833,12
3.31667,11
3.32500,10
3.33333,9
3.34167,8
3.35000,7
3.35833,7
3.36667,6
3.37500,5
3.38333,4
3.39167,4
3.40000,3
3.40833,2
3.41667,1
3.42500,-0
3.43333,-1
3.44167,-2
3.45000,-3
3.45833,-4
3.46667,-4
3.47500,-5
3.48333,-5
3.49167,-6
3.50000,-6
3.50833,-7
3.51667,-8
3.52500,-8
3.53333,-9
3.54167,-10
3.55000,-11
3.55833,-11
3.56667,-12
3.57500,-13
3.58333,-13
3.59167,-14
3.60000,-14
3.60833,-15
3.61667,-15
3.62500,-16
3.63333,-17
3.64167,-18
3.65000,-18
3.65833,-18
3.66667,-19
3.67500,-19
3.68333,-20
3.69167,-20
3.70000,-20
3.70833,-20
3.71667,-21
3.72500,-21
3.73333,-21
3.74167,-22
3.75000,-22
3.75833,-22
3.76667,-23
3.77500,-23
3.78333,-23
3.79167,-23
3.80000,-22
3.80833,-22
3.81667,-22
3.82500,-23
3.83333,-22
3.84167,-22
3.85000,-22
3.85833,-22
3.86667,-22
3.87500,-21
3.88333,-21
3.89167,-21
3.90000,-20
3.90833,-19
3.91667,-19
3.92500,-18
3.93333,-17
3.94167,-16
3.95000,-15
3.95833,-15
3.96667,-14
3.97500,-14
3.98333,-13
3.99167,-12
4.00000,-11
4.00833,-10
4.01667,-9
4.02500,-8
4.03333,-8
4.04167,-7
4.05000,-6
4.05833,-5
4.06667,-4
4.07500,-4
4.08333,-3
4.09167,-2
4.10000,-1
4.10833,-0
4.11667,0
4.12500,1
4.13333,2
4.14167,3
4.15000,4
4.15833,5
4.16667,6
4.17500,7
4.18333,7
4.19167,8
4.20000,9
4.20833,9
4.21667,10
4.22500,11
4.23333,12
4.24167,12
4.25000,13
4.25833,13
4.26667,13
4.27500,14
4.28333,14
4.29167,14
4.30000,15
4.30833,15
4.31667,15
4.32500,16
4.33333,16
4.34167,16
4.35000,16
4.35833,17
4.36667,17
4.37500,17
4.38333,17
4.39167,17
4.40000,17
4.40833,17
4.41667,17
4.42500,17
4.43333,17
4.44167,17
4.45000,17
4.45833,17
4.46667,17
4.47500,18
4.48333,18
4.49167,18
4.50000,19
4.50833,19
4.51667,19
4.52500,19
4.53333,19
4.54167,20
4.55000,20
4.55833,20
4.56667,20
4.57500,20
4.58333,21
4.59167,21
4.60000,21
4.60833,21
4.61667,21
4.62500,21
4.63333,21
4.64167,21
4.65000,21
4.65833,21
4.66667,21
4.67500,21
4.68333,21
4.69167,21
4.70000,22
4.70833,22
4.71667,22
4.72500,22
4.73333,22
4.74167,22
4.75000,22
4.75833,23
4.76667,23
4.77500,22
4.78333,22
4.79167,22
4.80000,22
4.80833,23
4.81667,23
4.82500,23
4.83333,23
4.84167,23
4.85000,23
4.85833,23
4.86667,23
4.87500,23
4.88333,23
4.89167,23
4.90000,23
4.90833,23
4.91667,22
4.92500,22
4.93333,22
4.94167,21
4.95000,21
4.95833,22
4.96667,22
4.97500,22
4.98333,23
4.99167,23
5.00000,23
5.00833,23
5.01667,23
5.02500,24
5.03333,24
5.04167,24
5.05000,24
5.05833,25
5.06667,25
5.07500,25
5.08333,26
5.09167,26
5.10000,27
5.10833,27
5.11667,27
5.12500,27
5.13333,27
5.14167,26
5.15000,26
5.15833,27
5.16667,27
5.17500,27
5.18333,27
5.19167,27
5.20000,28
5.20833,28
5.21667,28
5.22500,28
5.23333,28
5.24167,27
5.25000,27
5.25833,27
5.26667,26
5.27500,26
5.28333,25
5.29167,25
5.30000,25
5.30833,24
5.31667,24
5.32500,23
5.33333,23
5.34167,22
5.35000,21
5.35833,20
5.36667,19
5.37500,18
5.38333,17
5.39167,17
5.40000,16
5.40833,15
5.41667,14
5.42500,13
5.43333,12
5.44167,11
5.45000,10
5.45833,9
5.46667,8
5.47500,7
5.48333,6
5.49167,5
5.50000,4
5.50833,3
5.51667,2
5.52500,1
5.53333,1
5.54167,0
5.55000,-1
5.55833,-1
5.56667,-2
5.57500,-3
5.58333,-4
5.59167,-5
5.60000,-5
5.60833,-5
5.61667,-6
5.62500,-6
5.63333,-6
5.64167,-6
5.65000,-6
5.65833,-7
5.66667,-6
5.67500,-6
5.68333,-6
5.69167,-6
5.70000,-6
5.70833,-5
5.71667,-5
5.72500,-5
5.73333,-4
5.74167,-4
5.75000,-4
5.75833,-3
5.76667,-3
5.77500,-2
5.78333,-2
5.79167,-1
5.80000,-1
5.80833,-0
5.81667,1
5.82500,2
5.83333,3
5.84167,3
5.85000,4
5.85833,4
5.86667,5
5.87500,5
5.88333,6
5.89167,7
5.90000,8
5.90833,8
5.91667,9
5.92500,9
5.93333,9
5.94167,9
5.95000,10
5.95833,11
5.96667,12
5.97500,13
5.98333,13
5.99167,13
6.00000,14
6.00833,14
6.01667,15
6.02500,15
6.03333,15
6.04167,15
6.05000,16
6.05833,16
6.06667,16
6.07500,17
6.08333,17
6.09167,18
6.10000,18
6.10833,18
6.11667,18
6.12500,19
6.13333,19
6.14167,19
6.15000,20
6.15833,20
6.16667,20
6.17500,20
6.18333,21
6.19167,21
6.20000,21
6.20833,21
6.21667,21
6.22500,21
6.23333,21
6.24167,22
6.25000,22
6.25833,22
6.26667,22
6.27500,22
6.28333,23
6.29167,23
6.30000,23
6.30833,23
6.31667,23
6.32500,23
6.33333,23
6.34167,24
6.35000,24
6.35833,25
6.36667,25
6.37500,25
6.38333,25
6.39167,25
6.40000,25
6.40833,25
6.41667,26
6.42500,26
6.43333,26
6.44167,27
6.45000,27
6.45833,27
6.46667,27
6.47500,27
6.48333,27
6.49167,27
6.50000,28
6.50833,28
6.51667,28
6.52500,28
6.53333,29
6.54167,29
6.55000,28
6.55833,28
6.56667,28
6.57500,28
6.58333,28
6.59167,28
6.60000,28
6.60833,28
6.61667,28
6.62500,28
6.63333,28
6.64167,29
6.65000,29
6.65833,29
6.66667,29
6.67500,30
6.68333,29
6.69167,29
6.70000,29
6.70833,29
6.71667,28
6.72500,28
6.73333,28
6.74167,28
6.75000,28
6.75833,28
6.76667,27
6.77500,27
6.78333,27
6.79167,26
6.80000,26
6.80833,26
6.81667,25
6.82500,25
6.83333,24
6.84167,24
6.85000,23
6.85833,23
6.86667,22
6.87500,22
6.88333,21
6.89167,21
6.90000,21
6.90833,21
6.91667,21
6.92500,20
6.93333,20
6.94167,20
6.95000,19
6.95833,19
6.96667,18
6.97500,18
6.98333,17
6.99167,16
7.00000,16
7.00833,16
7.01667,16
7.02500,16
7.03333,16
7.04167,16
7.05000,15
7.05833,15
7.06667,15
7.07500,15
7.08333,15
7.09167,15
7.10000,15
7.10833,15
7.11667,15
7.12500,15
7.13333,15
7.14167,15
7.15000,15
7.15833,15
7.16667,15
7.17500,15
7.18333,16
7.19167,16
7.20000,16
7.20833,16
7.21667,17
7.22500,17
7.23333,18
7.24167,19
7.25000,19
7.25833,20
7.26667,20
7.27500,21
7.28333,22
7.29167,22
7.30000,23
7.30833,24
7.31667,25
7.32500,26
7.33333,27
7.34167,27
7.35000,28
7.35833,29
7.36667,30
7.37500,31
7.38333,31
7.39167,32
7.40000,33
7.40833,34
7.41667,35
7.42500,35
7.43333,36
7.44167,36
7.45000,37
7.45833,37
7.46667,38
7.47500,39
7.48333,39
7.49167,40
7.50000,40
7.50833,40
7.51667,40
7.52500,41
7.53333,41
7.54167,41
7.55000,42
7.55833,42
7.56667,43
7.57500,43
7.58333,43
7.59167,43
7.60000,43
7.60833,43
7.61667,43
7.62500,42
7.63333,42
7.64167,42
7.65000,42
7.65833,42
7.66667,42
7.67500,42
7.68333,41
7.69167,41
7.70000,40
7.70833,41
7.71667,41
7.72500,41
7.73333,40
7.74167,40
7.75000,40
7.75833,39
7.76667,39
7.77500,39
7.78333,39
7.79167,39
7.80000,38
7.80833,38
7.81667,37
7.82500,37
7.83333,36
7.84167,36
7.85000,36
7.85833,36
7.86667,35
7.87500,35
7.88333,35
7.89167,35
7.90000,35
7.90833,34
7.91667,34
7.92500,33
7.93333,33
7.94167,33
7.95000,32
7.95833,32
7.96667,32
7.97500,32
7.98333,31
7.99167,31
8.00000,30
8.00833,30
8.01667,29
8.02500,29
8.03333,28
8.04167,27
8.05000,27
8.05833,26
8.06667,25
8.07500,25
8.08333,24
8.09167,24
8.10000,23
8.10833,23
8.11667,22
8.12500,22
8.13333,22
8.14167,22
8.15000,21
8.15833,21
8.16667,20
8.17500,19
8.18333,18
8.19167,18
8.20000,18
8.20833,17
8.21667,17
8.22500,17
8.23333,16
8.24167,16
8.25000,16
8.25833,15
8.26667,15
8.27500,15
8.28333,15
8.29167,15
8.30000,15
8.30833,15
8.31667,14
8.32500,14
8.33333,14
8.34167,14
8.35000,14
8.35833,14
8.36667,14
8.37500,14
8.38333,14
8.39167,14
8.40000,14
8.40833,14
8.41667,14
8.42500,14
8.43333,14
8.44167,15
8.45000,15
8.45833,16
8.46667,17
8.47500,17
8.48333,17
8.49167,17
8.50000,17
8.50833,17
8.51667,18
8.52500,18
8.53333,18
8.54167,19
8.55000,19
8.55833,20
8.56667,20
8.57500,20
8.58333,21
8.59167,21
8.60000,21
8.60833,21
8.61667,21
8.62500,22
8.63333,22
8.64167,22
8.65000,22
8.65833,23
8.66667,23
8.67500,23
8.68333,24
8.69167,24
8.70000,24
8.70833,24
8.71667,24
8.72500,25
8.73333,25
8.74167,26
8.75000,26
8.75833,26
8.76667,26
8.77500,27
8.78333,26
8.79167,26
8.80000,26
8.80833,27
8.81667,27
8.82500,27
8.83333,27
8.84167,27
8.85000,26
8.85833,26
8.86667,27
8.87500,27
8.88333,27
8.89167,26
8.90000,27
8.90833,27
8.91667,27
8.92500,27
8.93333,27
8.94167,27
8.95000,26
8.95833,26
8.96667,25
8.97500,25
8.98333,24
8.99167,24
9.00000,24
9.00833,23
9.01667,22
9.02500,22
9.03333,22
9.04167,21
9.05000,21
9.05833,20
9.06667,19
9.07500,19
9.08333,18
9.09167,18
9.10000,17
9.10833,17
9.11667,17
9.12500,17
9.13333,16
9.14167,16
9.15000,15
9.15833,15
9.16667,14
9.17500,13
9.18333,12
9.19167,12
9.20000,11
9.20833,10
9.21667,9
9.22500,9
9.23333,9
9.24167,8
9.25000,8
9.25833,7
9.26667,7
9.27500,7
9.28333,6
9.29167,6
9.30000,6
9.30833,6
9.31667,6
9.32500,5
9.33333,5
9.34167,5
9.35000,4
9.35833,4
9.36667,4
9.37500,4
9.38333,4
9.39167,4
9.40000,4
9.40833,4
9.41667,3
9.42500,3
9.43333,3
9.44167,3
9.45000,4
9.45833,4
9.46667,4
9.47500,4
9.48333,4
9.49167,5
9.50000,5
9.50833,5
9.51667,5
9.52500,5
9.53333,5
9.54167,6
9.55000,6
9.55833,7
9.56667,7
9.57500,7
9.58333,8
9.59167,8
9.60000,8
9.60833,8
9.61667,8
9.62500,9
9.63333,10
9.64167,10
9.65000,11
9.65833,11
9.66667,11
9.67500,12
9.68333,12
9.69167,13
9.70000,13
9.70833,14
9.71667,14
9.72500,15
9.73333,15
9.74167,16
9.75000,16
9.75833,17
9.76667,17
9.77500,18
9.78333,19
9.79167,19
9.80000,20
9.80833,21
9.81667,21
9.82500,22
9.83333,22
9.84167,22
9.85000,23
9.85833,23
9.86667,24
9.87500,24
9.88333,24
9.89167,24
9.90000,24
9.90833,24
9.91667,24
9.92500,24
9.93333,24
9.94167,24
9.95000,24
9.95833,24
9.96667,24
9.97500,23
9.98333,23
9.99167,23
10.00000,23
10.00833,22
10.01667,22
10.02500,22
10.03333,21
10.04167,21
10.05000,22
10.05833,21
10.06667,21
10.07500,21
10.08333,20
10.09167,20
10.10000,20
10.10833,19
10.11667,19
10.12500,18
10.13333,17
10.14167,17
10.15000,16
10.15833,16
10.16667,16
10.17500,15
10.18333,15
10.19167,15
10.20000,14
10.20833,14
10.21667,13
10.22500,13
10.23333,13
10.24167,13
10.25000,14
10.25833,13
10.26667,13
10.27500,13
10.28333,13
10.29167,13
10.30000,13
10.30833,14
10.31667,14
10.32500,13
10.33333,13
10.34167,13
10.35000,14
10.35833,14
10.36667,15
10.37500,15
10.38333,16
10.39167,16
10.40000,17
10.40833,18
10.41667,19
10.42500,20
10.43333,21
10.44167,23
10.45000,25
10.45833,28
10.46667,31
10.47500,35
10.48333,40
10.49167,46
10.50000,54
10.50833,65
10.51667,79
10.52500,97
10.53333,119
10.54167,148
10.55000,183
10.55833,226
10.56667,279
10.57500,342
10.58333,420
10.59167,512
10.60000,621
10.60833,750
10.61667,900
10.62500,1073
10.63333,1272
10.64167,1499
10.65000,1755
10.65833,2043
10.66667,2363
10.67500,2718
10.68333,3107
10.69167,3533
10.70000,3994
10.70833,4490
10.71667,5019
10.72500,5581
10.73333,6172
10.74167,6789
10.75000,7430
10.75833,8088
10.76667,8759
10.77500,9438
10.78333,10118
10.79167,10790
10.80000,11448
10.80833,12084
10.81667,12689
10.82500,13256
10.83333,13776
10.84167,14240
10.85000,14641
10.85833,14971
10.86667,15225
10.87500,15398
10.88333,15485
10.89167,15485
10.90000,15396
10.90833,15220
10.91667,14958
10.92500,14615
10.93333,14197
10.94167,13711
10.95000,13165
10.95833,12568
10.96667,11930
10.97500,11261
10.98333,10571
10.99167,9871
11.00000,9168
11.00833,8473
11.01667,7793
11.02500,7134
11.03333,6502
11.04167,5901
11.05000,5335
11.05833,4805
11.06667,4314
11.07500,3861
11.08333,3446
11.09167,3068
11.10000,2725
11.10833,2416
11.11667,2139
11.12500,1890
11.13333,1669
11.14167,1473
11.15000,1299
11.15833,1145
11.16667,1010
11.17500,892
11.18333,787
11.19167,696
11.20000,616
11.20833,546
11.21667,485
11.22500,432
11.23333,385
11.24167,345
11.25000,310
11.25833,280
11.26667,253
11.27500,231
11.28333,211
11.29167,194
11.30000,180
11.30833,167
11.31667,156
11.32500,147
11.33333,139
11.34167,132
11.35000,126
11.35833,121
11.36667,116
11.37500,112
11.38333,109
11.39167,106
11.40000,103
11.40833,101
11.41667,99
11.42500,97
11.43333,95
11.44167,93
11.45000,92
11.45833,90
11.46667,88
11.47500,86
11.48333,84
11.49167,83
11.50000,81
11.50833,80
11.51667,78
11.52500,76
11.53333,74
11.54167,72
11.55000,70
11.55833,69
11.56667,67
11.57500,66
11.58333,64
11.59167,62
11.60000,61
11.60833,59
11.61667,58
11.62500,56
11.63333,54
11.64167,53
11.65000,52
11.65833,51
11.66667,50
11.67500,48
11.68333,47
11.69167,46
11.70000,45
11.70833,44
11.71667,43
11.72500,42
11.73333,41
11.74167,40
11.75000,40
11.75833,39
11.76667,39
11.77500,38
11.78333,38
11.79167,38
11.80000,37
11.80833,37
11.81667,37
11.82500,37
11.83333,37
11.84167,38
11.85000,38
11.85833,39
11.86667,39
11.87500,39
11.88333,39
11.89167,40
11.90000,41
11.90833,41
11.91667,42
11.92500,42
11.93333,43
11.94167,44
11.95000,44
11.95833,45
11.96667,45
11.97500,46
11.98333,47
11.99167,48
12.00000,48
12.00833,49
12.01667,50
12.02500,50
12.03333,51
12.04167,51
12.05000,52
12.05833,52
12.06667,52
12.07500,52
12.08333,53
12.09167,53
12.10000,53
12.10833,53
12.11667,53
12.12500,54
12.13333,54
12.14167,54
12.15000,54
12.15833,54
12.16667,54
12.17500,53
12.18333,53
12.19167,53
12.20000,53
12.20833,53
12.21667,53
12.22500,53
12.23333,52
12.24167,52
12.25000,52
12.25833,52
12.26667,52
12.27500,52
12.28333,52
12.29167,52
12.30000,52
12.30833,52
12.31667,51
12.32500,51
12.33333,51
12.34167,51
12.35000,51
12.35833,51
12.36667,51
12.37500,51
12.38333,51
12.39167,52
12.40000,52
12.40833,52
12.41667,52
12.42500,52
12.43333,53
12.44167,54
12.45000,54
12.45833,54
12.46667,54
12.47500,54
12.48333,54
12.49167,54
12.50000,54
12.50833,55
12.51667,55
12.52500,55
12.53333,56
12.54167,56
12.55000,57
12.55833,57
12.56667,58
12.57500,59
12.58333,60
12.59167,61
12.60000,63
12.60833,65
12.61667,68
12.62500,72
12.63333,76
12.64167,82
12.65000,88
12.65833,96
12.66667,106
12.67500,118
12.68333,133
12.69167,150
12.70000,170
12.70833,193
12.71667,221
12.72500,252
12.73333,288
12.74167,328
12.75000,374
12.75833,425
12.76667,482
12.77500,545
12.78333,614
12.79167,690
12.80000,772
12.80833,861
12.81667,956
12.82500,1059
12.83333,1168
12.84167,1284
12.85000,1407
12.85833,1537
12.86667,1673
12.87500,1816
12.88333,1965
12.89167,2121
12.90000,2282
12.90833,2450
12.91667,2623
12.92500,2802
12.93333,2986
12.94167,3176
12.95000,3370
12.95833,3570
12.96667,3774
12.97500,3983
12.98333,4196
12.99167,4413
13.00000,4634
13.00833,4860
13.01667,5089
13.02500,5322
13.03333,5559
13.04167,5799
13.05000,6042
13.05833,6289
13.06667,6538
13.07500,6791
13.08333,7048
13.09167,7307
13.10000,7569
13.10833,7833
13.11667,8100
13.12500,8371
13.13333,8644
13.14167,8920
13.15000,9198
13.15833,9479
13.16667,9763
13.17500,10049
13.18333,10337
13.19167,10627
13.20000,10920
13.20833,11215
13.21667,11513
13.22500,11813
13.23333,12116
13.24167,12421
13.25000,12728
13.25833,13038
13.26667,13350
13.27500,13664
13.28333,13980
13.29167,14299
13.30000,14620
13.30833,14944
13.31667,15269
13.32500,15597
13.33333,15927
13.34167,16259
13.35000,16594
13.35833,16931
13.36667,17270
13.37500,17612
13.38333,17956
13.39167,18303
13.40000,18652
13.40833,19003
13.41667,19357
13.42500,19713
13.43333,20072
13.44167,20433
13.45000,20797
13.45833,21164
13.46667,21533
13.47500,21905
13.48333,22279
13.49167,22656
13.50000,23036
13.50833,23418
13.51667,23803
13.52500,24191
13.53333,24581
13.54167,24975
13.55000,25371
13.55833,25770
13.56667,26171
13.57500,26576
13.58333,26984
13.59167,27395
13.60000,27809
13.60833,28226
13.61667,28645
13.62500,29068
13.63333,29494
13.64167,29923
13.65000,30355
13.65833,30790
13.66667,31228
13.67500,31669
13.68333,32114
13.69167,32562
13.70000,33013
13.70833,33467
13.71667,33924
13.72500,34385
13.73333,34849
13.74167,35317
13.75000,35788
13.75833,36262
13.76667,36740
13.77500,37221
13.78333,37706
13.79167,38194
13.80000,38685
13.80833,39180
13.81667,39679
13.82500,40181
13.83333,40686
13.84167,41196
13.85000,41708
13.85833,42224
13.86667,42744
13.87500,43266
13.88333,43791
13.89167,44319
13.90000,44847
13.90833,45373
13.91667,45894
13.92500,46404
13.93333,46893
13.94167,47350
13.95000,47758
13.95833,48098
13.96667,48345
13.97500,48474
13.98333,48457
13.99167,48265
14.00000,47873
14.00833,47260
14.01667,46410
14.02500,45315
14.03333,43978
14.04167,42410
14.05000,40630
14.05833,38667
14.06667,36559
14.07500,34344
14.08333,32068
14.09167,29774
14.10000,27505
14.10833,25301
14.11667,23196
14.12500,21219
14.13333,19391
14.14167,17729
14.15000,16242
14.15833,14934
14.16667,13802
14.17500,12843
14.18333,12046
14.19167,11402
14.20000,10897
14.20833,10517
14.21667,10249
14.22500,10076
14.23333,9986
14.24167,9962
14.25000,9993
14.25833,10063
14.26667,10163
14.27500,10279
14.28333,10402
14.29167,10522
14.30000,10632
14.30833,10723
14.31667,10791
14.32500,10829
14.33333,10834
14.34167,10804
14.35000,10737
14.35833,10632
14.36667,10490
14.37500,10311
14.38333,10098
14.39167,9853
14.40000,9578
14.40833,9278
14.41667,8955
14.42500,8614
14.43333,8258
14.44167,7890
14.45000,7516
14.45833,7139
14.46667,6761
14.47500,6386
14.48333,6016
14.49167,5655
14.50000,5303
14.50833,4964
14.51667,4637
14.52500,4325
14.53333,4027
14.54167,3745
14.55000,3479
14.55833,3229
14.56667,2995
14.57500,2776
14.58333,2572
14.59167,2383
14.60000,2208
14.60833,2046
14.61667,1897
14.62500,1760
14.63333,1634
14.64167,1518
14.65000,1412
14.65833,1315
14.66667,1227
14.67500,1146
14.68333,1072
14.69167,1004
14.70000,943
14.70833,887
14.71667,835
14.72500,789
14.73333,746
14.74167,707
14.75000,672
14.75833,639
14.76667,609
14.77500,582
14.78333,557
14.79167,534
14.80000,514
14.80833,495
14.81667,477
14.82500,461
14.83333,446
14.84167,433
14.85000,421
14.85833,409
14.86667,399
14.87500,390
14.88333,381
14.89167,373
14.90000,365
14.90833,359
14.91667,353
14.92500,348
14.93333,344
14.94167,340
14.95000,336
14.95833,334
14.96667,331
14.97500,329
14.98333,328
14.99167,327
15.00000,327
15.00833,327
15.01667,328
15.02500,330
15.03333,332
15.04167,335
15.05000,339
15.05833,343
15.06667,349
15.07500,355
15.08333,363
15.09167,371
15.10000,382
15.10833,394
15.11667,408
15.12500,425
15.13333,446
15.14167,471
15.15000,501
15.15833,537
15.16667,580
15.17500,632
15.18333,694
15.19167,770
15.20000,860
15.20833,967
15.21667,1096
15.22500,1248
15.23333,1430
15.24167,1644
15.25000,1896
15.25833,2193
15.26667,2539
15.27500,2943
15.28333,3411
15.29167,3951
15.30000,4571
15.30833,5281
15.31667,6089
15.32500,7006
15.33333,8040
15.34167,9201
15.35000,10499
15.35833,11943
15.36667,13542
15.37500,15303
15.38333,17235
15.39167,19342
15.40000,21630
15.40833,24101
15.41667,26759
15.42500,29602
15.43333,32628
15.44167,35832
15.45000,39207
15.45833,42745
15.46667,46432
15.47500,50255
15.48333,54197
15.49167,58239
15.50000,62360
15.50833,66537
15.51667,70745
15.52500,74958
15.53333,79147
15.54167,83286
15.55000,87343
15.55833,91291
15.56667,95100
15.57500,98744
15.58333,102193
15.59167,105423
15.60000,108410
15.60833,111132
15.61667,113569
15.62500,115706
15.63333,117528
15.64167,119023
15.65000,120185
15.65833,121008
15.66667,121491
15.67500,121634
15.68333,121442
15.69167,120922
15.70000,120083
15.70833,118937
15.71667,117498
15.72500,115783
15.73333,113808
15.74167,111593
15.75000,109158
15.75833,106523
15.76667,103711
15.77500,100743
15.78333,97641
15.79167,94426
15.80000,91120
15.80833,87744
15.81667,84319
15.82500,80863
15.83333,77395
15.84167,73931
15.85000,70488
15.85833,67080
15.86667,63722
15.87500,60424
15.88333,57198
15.89167,54054
15.90000,51000
15.90833,48042
15.91667,45186
15.92500,42437
15.93333,39798
15.94167,37272
15.95000,34860
15.95833,32563
15.96667,30381
15.97500,28313
15.98333,26357
15.99167,24512
16.00000,22775
16.00833,21142
16.01667,19610
16.02500,18176
16.03333,16836
16.04167,15586
16.05000,14422
16.05833,13339
16.06667,12333
16.07500,11401
16.08333,10537
16.09167,9738
16.10000,9001
16.10833,8321
16.11667,7694
16.12500,7116
16.13333,6585
16.14167,6096
16.15000,5647
16.15833,5236
16.16667,4859
16.17500,4512
16.18333,4194
16.19167,3903
16.20000,3637
16.20833,3393
16.21667,3169
16.22500,2964
16.23333,2777
16.24167,2605
16.25000,2448
16.25833,2304
16.26667,2172
16.27500,2051
16.28333,1940
16.29167,1838
16.30000,1744
16.30833,1658
16.31667,1579
16.32500,1506
16.33333,1439
16.34167,1377
16.35000,1320
16.35833,1267
16.36667,1217
16.37500,1172
16.38333,1129
16.39167,1090
16.40000,1053
16.40833,1019
16.41667,987
16.42500,957
16.43333,930
16.44167,904
16.45000,881
16.45833,859
16.46667,838
16.47500,818
16.48333,799
16.49167,782
16.50000,766
16.50833,750
16.51667,736
16.52500,722
16.53333,709
16.54167,697
16.55000,686
16.55833,676
16.56667,666
16.57500,657
16.58333,648
16.59167,639
16.60000,631
16.60833,624
16.61667,617
16.62500,611
16.63333,605
16.64167,599
16.65000,593
16.65833,587
16.66667,582
16.67500,577
16.68333,573
16.69167,568
16.70000,564
16.70833,560
16.71667,556
16.72500,552
16.73333,549
16.74167,545
16.75000,542
16.75833,538
16.76667,535
16.77500,531
16.78333,528
16.79167,525
16.80000,521
16.80833,518
16.81667,515
16.82500,512
16.83333,509
16.84167,506
16.85000,503
16.85833,500
16.86667,497
16.87500,494
16.88333,490
16.89167,487
16.90000,484
16.90833,481
16.91667,477
16.92500,474
16.93333,471
16.94167,467
16.95000,464
16.95833,461
16.96667,458
16.97500,455
16.98333,451
16.99167,448
17.00000,444
17.00833,441
17.01667,438
17.02500,434
17.03333,431
17.04167,427
17.05000,424
17.05833,421
17.06667,417
17.07500,414
17.08333,411
17.09167,407
17.10000,404
17.10833,401
17.11667,398
17.12500,395
17.13333,393
17.14167,390
17.15000,387
17.15833,384
17.16667,382
17.17500,379
17.18333,376
17.19167,374
17.20000,372
17.20833,369
17.21667,367
17.22500,364
17.23333,362
17.24167,359
17.25000,356
17.25833,354
17.26667,352
17.27500,350
17.28333,348
17.29167,346
17.30000,344
17.30833,342
17.31667,341
17.32500,339
17.33333,337
17.34167,336
17.35000,334
17.35833,332
17.36667,330
17.37500,329
17.38333,327
17.39167,326
17.40000,324
17.40833,322
17.41667,320
17.42500,319
17.43333,318
17.44167,316
17.45000,315
17.45833,314
17.46667,312
17.47500,311
17.48333,310
17.49167,308
17.50000,307
17.50833,306
17.51667,305
17.52500,303
17.53333,302
17.54167,301
17.55000,299
17.55833,298
17.56667,297
17.57500,296
17.58333,295
17.59167,294
17.60000,293
17.60833,293
17.61667,292
17.62500,291
17.63333,289
17.64167,288
17.65000,287
17.65833,287
17.66667,286
17.67500,285
17.68333,284
17.69167,283
17.70000,282
17.70833,281
17.71667,281
17.72500,280
17.73333,279
17.74167,279
17.75000,278
17.75833,277
17.76667,277
17.77500,276
17.78333,275
17.79167,275
17.80000,274
17.80833,273
17.81667,273
17.82500,272
17.83333,271
17.84167,270
17.85000,269
17.85833,268
17.86667,267
17.87500,266
17.88333,266
17.89167,265
17.90000,264
17.90833,263
17.91667,262
17.92500,261
17.93333,260
17.94167,259
17.95000,258
17.95833,257
17.96667,255
17.97500,254
17.98333,253
17.99167,251
18.00000,250
18.00833,249
18.01667,248
18.02500,247
18.03333,245
18.04167,243
18.05000,242
18.05833,240
18.06667,238
18.07500,236
18.08333,235
18.09167,233
18.10000,232
18.10833,230
18.11667,229
18.12500,227
18.13333,226
18.14167,224
18.15000,223
18.15833,221
18.16667,220
18.17500,218
18.18333,216
18.19167,215
18.20000,213
18.20833,211
18.21667,210
18.22500,209
18.23333,208
18.24167,206
18.25000,205
18.25833,203
18.26667,202
18.27500,201
18.28333,200
18.29167,199
18.30000,198
18.30833,197
18.31667,196
18.32500,195
18.33333,194
18.34167,194
18.35000,193
18.35833,192
18.36667,192
18.37500,191
18.38333,190
18.39167,189
18.40000,189
18.40833,188
18.41667,187
18.42500,187
18.43333,186
18.44167,185
18.45000,184
18.45833,184
18.46667,184
18.47500,184
18.48333,184
18.49167,183
18.50000,183
18.50833,182
18.51667,182
18.52500,182
18.53333,181
18.54167,181
18.55000,181
18.55833,181
18.56667,181
18.57500,181
18.58333,182
18.59167,181
18.60000,181
18.60833,180
18.61667,180
18.62500,180
18.63333,180
18.64167,180
18.65000,180
18.65833,181
18.66667,181
18.67500,181
18.68333,180
18.69167,180
18.70000,180
18.70833,181
18.71667,181
18.72500,181
18.73333,181
18.74167,181
18.75000,182
18.75833,182
18.76667,183
18.77500,183
18.78333,184
18.79167,184
18.80000,185
18.80833,186
18.81667,187
18.82500,187
18.83333,188
18.84167,189
18.85000,190
18.85833,191
18.86667,192
18.87500,194
18.88333,195
18.89167,196
18.90000,197
18.90833,198
18.91667,199
18.92500,200
18.93333,201
18.94167,203
18.95000,203
18.95833,205
18.96667,206
18.97500,207
18.98333,208
18.99167,208
19.00000,209
19.00833,210
19.01667,210
19.02500,211
19.03333,211
19.04167,211
19.05000,211
19.05833,211
19.06667,211
19.07500,211
19.08333,210
19.09167,209
19.10000,209
19.10833,208
19.11667,207
19.12500,206
19.13333,205
19.14167,203
19.15000,202
19.15833,200
19.16667,199
19.17500,197
19.18333,195
19.19167,194
19.20000,192
19.20833,190
19.21667,188
19.22500,186
19.23333,185
19.24167,183
19.25000,180
19.25833,178
19.26667,176
19.27500,174
19.28333,172
19.29167,170
19.30000,168
19.30833,166
19.31667,164
19.32500,162
19.33333,160
19.34167,158
19.35000,156
19.35833,155
19.36667,153
19.37500,151
19.38333,149
19.39167,147
19.40000,146
19.40833,144
19.41667,143
19.42500,142
19.43333,141
19.44167,139
19.45000,138
19.45833,136
19.46667,135
19.47500,134
19.48333,132
19.49167,131
19.50000,130
19.50833,129
19.51667,128
19.52500,127
19.53333,126
19.54167,124
19.55000,123
19.55833,122
19.56667,121
19.57500,120
19.58333,119
19.59167,119
19.60000,118
19.60833,117
19.61667,116
19.62500,115
19.63333,114
19.64167,114
19.65000,113
19.65833,113
19.66667,112
19.67500,112
19.68333,111
19.69167,110
19.70000,110
19.70833,109
19.71667,109
19.72500,108
19.73333,107
19.74167,107
19.75000,107
19.75833,106
19.76667,106
19.77500,106
19.78333,105
19.79167,105
19.80000,104
19.80833,104
19.81667,104
19.82500,104
19.83333,104
19.84167,104
19.85000,104
19.85833,104
19.86667,104
19.87500,104
19.88333,104
19.89167,103
19.90000,103
19.90833,103
19.91667,102
19.92500,102
19.93333,102
19.94167,102
19.95000,103
19.95833,103
19.96667,104
19.97500,104
19.98333,104
19.99167,104
20.00000,105
20.00833,105
20.01667,105
20.02500,105
20.03333,105
20.04167,105
20.05000,105
20.05833,105
20.06667,105
20.07500,105
20.08333,105
20.09167,105
20.10000,106
20.10833,106
20.11667,106
20.12500,106
20.13333,106
20.14167,106
20.15000,106
20.15833,107
20.16667,107
20.17500,107
20.18333,108
20.19167,108
20.20000,108
20.20833,108
20.21667,108
20.22500,108
20.23333,108
20.24167,108
20.25000,108
20.25833,108
20.26667,108
20.27500,108
20.28333,108
20.29167,107
20.30000,107
20.30833,107
20.31667,107
20.32500,107
20.33333,107
20.34167,107
20.35000,106
20.35833,106
20.36667,106
20.37500,105
20.38333,105
20.39167,105
20.40000,105
20.40833,104
20.41667,104
20.42500,104
20.43333,104
20.44167,104
20.45000,104
20.45833,103
20.46667,103
20.47500,102
20.48333,102
20.49167,102
20.50000,102
20.50833,102
20.51667,101
20.52500,102
20.53333,102
20.54167,102
20.55000,102
20.55833,102
20.56667,103
20.57500,102
20.58333,102
20.59167,102
20.60000,102
20.60833,102
20.61667,102
20.62500,102
20.63333,102
20.64167,102
20.65000,103
20.65833,103
20.66667,103
20.67500,103
20.68333,103
20.69167,104
20.70000,104
20.70833,104
20.71667,104
20.72500,105
20.73333,105
20.74167,106
20.75000,106
20.75833,106
20.76667,106
20.77500,106
20.78333,106
20.79167,106
20.80000,106
20.80833,106
20.81667,106
20.82500,105
20.83333,105
20.84167,105
20.85000,105
20.85833,105
20.86667,105
20.87500,105
20.88333,105
20.89167,105
20.90000,105
20.90833,105
20.91667,105
20.92500,104
20.93333,103
20.94167,103
20.95000,103
20.95833,102
20.96667,102
20.97500,102
20.98333,102
20.99167,102
21.00000,101
21.00833,101
21.01667,101
21.02500,100
21.03333,100
21.04167,99
21.05000,99
21.05833,98
21.06667,98
21.07500,97
21.08333,97
21.09167,97
21.10000,96
21.10833,96
21.11667,95
21.12500,95
21.13333,95
21.14167,94
21.15000,93
21.15833,93
21.16667,93
21.17500,92
21.18333,92
21.19167,92
21.20000,92
21.20833,91
21.21667,91
21.22500,91
21.23333,91
21.24167,91
21.25000,91
21.25833,91
21.26667,91
21.27500,91
21.28333,92
21.29167,92
21.30000,93
21.30833,94
21.31667,95
21.32500,96
21.33333,97
21.34167,99
21.35000,101
21.35833,102
21.36667,104
21.37500,106
21.38333,109
21.39167,112
21.40000,117
21.40833,122
21.41667,128
21.42500,135
21.43333,143
21.44167,151
21.45000,161
21.45833,172
21.46667,184
21.47500,199
21.48333,215
21.49167,234
21.50000,255
21.50833,280
21.51667,309
21.52500,341
21.53333,378
21.54167,420
21.55000,467
21.55833,521
21.56667,582
21.57500,651
21.58333,728
21.59167,816
21.60000,914
21.60833,1024
21.61667,1148
21.62500,1285
21.63333,1437
21.64167,1607
21.65000,1794
21.65833,2001
21.66667,2230
21.67500,2480
21.68333,2755
21.69167,3054
21.70000,3381
21.70833,3734
21.71667,4117
21.72500,4530
21.73333,4973
21.74167,5449
21.75000,5957
21.75833,6498
21.76667,7072
21.77500,7679
21.78333,8318
21.79167,8990
21.80000,9692
21.80833,10424
21.81667,11185
21.82500,11972
21.83333,12782
21.84167,13615
21.85000,14466
21.85833,15332
21.86667,16210
21.87500,17097
21.88333,17988
21.89167,18880
21.90000,19768
21.90833,20647
21.91667,21513
21.92500,22362
21.93333,23189
21.94167,23988
21.95000,24756
21.95833,25489
21.96667,26181
21.97500,26829
21.98333,27429
21.99167,27978
22.00000,28472
22.00833,28909
22.01667,29287
22.02500,29602
22.03333,29855
22.04167,30043
22.05000,30166
22.05833,30224
22.06667,30217
22.07500,30145
22.08333,30010
22.09167,29813
22.10000,29556
22.10833,29240
22.11667,28870
22.12500,28446
22.13333,27973
22.14167,27454
22.15000,26892
22.15833,26291
22.16667,25655
22.17500,24986
22.18333,24289
22.19167,23569
22.20000,22828
22.20833,22071
22.21667,21301
22.22500,20522
22.23333,19738
22.24167,18952
22.25000,18167
22.25833,17386
22.26667,16612
22.27500,15847
22.28333,15093
22.29167,14354
22.30000,13631
22.30833,12926
22.31667,12239
22.32500,11573
22.33333,10928
22.34167,10306
22.35000,9707
22.35833,9131
22.36667,8579
22.37500,8052
22.38333,7549
22.39167,7069
22.40000,6614
22.40833,6182
22.41667,5774
22.42500,5388
22.43333,5024
22.44167,4681
22.45000,4359
22.45833,4056
22.46667,3773
22.47500,3508
22.48333,3261
22.49167,3031
22.50000,2816
22.50833,2616
22.51667,2431
22.52500,2259
22.53333,2099
22.54167,1952
22.55000,1815
22.55833,1689
22.56667,1573
22.57500,1465
22.58333,1366
22.59167,1275
22.60000,1192
22.60833,1115
22.61667,1044
22.62500,979
22.63333,919
22.64167,864
22.65000,814
22.65833,767
22.66667,724
22.67500,685
22.68333,649
22.69167,617
22.70000,586
22.70833,559
22.71667,534
22.72500,511
22.73333,489
22.74167,469
22.75000,451
22.75833,435
22.76667,419
22.77500,405
22.78333,391
22.79167,379
22.80000,368
22.80833,357
22.81667,348
22.82500,339
22.83333,331
22.84167,323
22.85000,315
22.85833,308
22.86667,302
22.87500,295
22.88333,289
22.89167,284
22.90000,279
22.90833,274
22.91667,269
22.92500,265
22.93333,261
22.94167,257
22.95000,253
22.95833,250
22.96667,247
22.97500,243
22.98333,240
22.99167,238
23.00000,235
23.00833,233
23.01667,231
23.02500,228
23.03333,226
23.04167,224
23.05000,222
23.05833,220
23.06667,219
23.07500,217
23.08333,216
23.09167,214
23.10000,213
23.10833,212
23.11667,211
23.12500,210
23.13333,209
23.14167,208
23.15000,207
23.15833,206
23.16667,205
23.17500,205
23.18333,205
23.19167,204
23.20000,203
23.20833,203
23.21667,203
23.22500,203
23.23333,203
23.24167,203
23.25000,203
23.25833,203
23.26667,203
23.27500,203
23.28333,203
23.29167,202
23.30000,203
23.30833,203
23.31667,203
23.32500,203
23.33333,203
23.34167,204
23.35000,204
23.35833,204
23.36667,204
23.37500,204
23.38333,203
23.39167,203
23.40000,203
23.40833,203
23.41667,203
23.42500,203
23.43333,203
23.44167,202
23.45000,203
23.45833,203
23.46667,202
23.47500,202
23.48333,201
23.49167,201
23.50000,200
23.50833,199
23.51667,199
23.52500,198
23.53333,197
23.54167,196
23.55000,195
23.55833,194
23.56667,193
23.57500,193
23.58333,192
23.59167,191
23.60000,190
23.60833,189
23.61667,188
23.62500,186
23.63333,185
23.64167,184
23.65000,183
23.65833,181
23.66667,180
23.67500,179
23.68333,177
23.69167,175
23.70000,174
23.70833,173
23.71667,171
23.72500,170
23.73333,169
23.74167,168
23.75000,167
23.75833,165
23.76667,164
23.77500,162
23.78333,161
23.79167,160
23.80000,159
23.80833,158
23.81667,157
23.82500,156
23.83333,154
23.84167,154
23.85000,153
23.85833,152
23.86667,151
23.87500,151
23.88333,150
23.89167,149
23.90000,148
23.90833,147
23.91667,146
23.92500,145
23.93333,145
23.94167,144
23.95000,143
23.95833,143
23.96667,142
23.97500,141
23.98333,140
23.99167,140
24.00000,139
24.00833,139
24.01667,138
24.02500,138
24.03333,138
24.04167,138
24.05000,137
24.05833,136
24.06667,136
24.07500,135
24.08333,134
24.09167,134
24.10000,134
24.10833,134
24.11667,133
24.12500,133
24.13333,132
24.14167,132
24.15000,131
24.15833,131
24.16667,130
24.17500,130
24.18333,130
24.19167,130
24.20000,130
24.20833,130
24.21667,131
24.22500,131
24.23333,131
24.24167,131
24.25000,131
24.25833,132
24.26667,132
24.27500,133
24.28333,134
24.29167,135
24.30000,136
24.30833,138
24.31667,139
24.32500,141
24.33333,144
24.34167,147
24.35000,150
24.35833,154
24.36667,158
24.37500,163
24.38333,168
24.39167,174
24.40000,181
24.40833,188
24.41667,196
24.42500,206
24.43333,217
24.44167,230
24.45000,244
24.45833,259
24.46667,276
24.47500,295
24.48333,316
24.49167,339
24.50000,366
24.50833,395
24.51667,427
24.52500,463
24.53333,502
24.54167,546
24.55000,594
24.55833,646
24.56667,704
24.57500,767
24.58333,836
24.59167,911
24.60000,992
24.60833,1081
24.61667,1177
24.62500,1281
24.63333,1393
24.64167,1513
24.65000,1642
24.65833,1780
24.66667,1928
24.67500,2086
24.68333,2253
24.69167,2430
24.70000,2618
24.70833,2815
24.71667,3023
24.72500,3240
24.73333,3467
24.74167,3703
24.75000,3949
24.75833,4204
24.76667,4467
24.77500,4737
24.78333,5014
24.79167,5297
24.80000,5586
24.80833,5879
24.81667,6175
24.82500,6473
24.83333,6773
24.84167,7074
24.85000,7372
24.85833,7669
24.86667,7961
24.87500,8249
24.88333,8531
24.89167,8805
24.90000,9070
24.90833,9325
24.91667,9567
24.92500,9797
24.93333,10014
24.94167,10215
24.95000,10401
24.95833,10569
24.96667,10720
24.97500,10853
24.98333,10967
24.99167,11061
25.00000,11135
25.00833,11190
25.01667,11224
25.02500,11238
25.03333,11232
25.04167,11205
25.05000,11159
25.05833,11093
25.06667,11009
25.07500,10906
25.08333,10786
25.09167,10649
25.10000,10497
25.10833,10328
25.11667,10146
25.12500,9950
25.13333,9743
25.14167,9524
25.15000,9296
25.15833,9058
25.16667,8814
25.17500,8562
25.18333,8305
25.19167,8043
25.20000,7778
25.20833,7511
25.21667,7242
25.22500,6972
25.23333,6703
25.24167,6436
25.25000,6171
25.25833,5909
25.26667,5650
25.27500,5396
25.28333,5146
25.29167,4902
25.30000,4663
25.30833,4431
25.31667,4206
25.32500,3987
25.33333,3776
25.34167,3572
25.35000,3376
25.35833,3188
25.36667,3007
25.37500,2833
25.38333,2667
25.39167,2509
25.40000,2359
25.40833,2216
25.41667,2080
25.42500,1951
25.43333,1830
25.44167,1715
25.45000,1607
25.45833,1505
25.46667,1410
25.47500,1320
25.48333,1236
25.49167,1158
25.50000,1084
25.50833,1016
25.51667,952
25.52500,893
25.53333,838
25.54167,786
25.55000,739
25.55833,695
25.56667,654
25.57500,616
25.58333,581
25.59167,549
25.60000,520
25.60833,492
25.61667,467
25.62500,444
25.63333,423
25.64167,403
25.65000,385
25.65833,368
25.66667,353
25.67500,339
25.68333,327
25.69167,316
25.70000,305
25.70833,295
25.71667,286
25.72500,278
25.73333,270
25.74167,263
25.75000,257
25.75833,251
25.76667,245
25.77500,241
25.78333,236
25.79167,232
25.80000,228
25.80833,224
25.81667,221
25.82500,218
25.83333,215
25.84167,212
25.85000,209
25.85833,206
25.86667,204
25.87500,201
25.88333,199
25.89167,197
25.90000,196
25.90833,194
25.91667,192
25.92500,190
25.93333,188
25.94167,187
25.95000,185
25.95833,184
25.96667,182
25.97500,181
25.98333,179
25.99167,178
26.00000,176
26.00833,175
26.01667,173
26.02500,172
26.03333,171
26.04167,169
26.05000,168
26.05833,167
26.06667,166
26.07500,165
26.08333,163
26.09167,161
26.10000,160
26.10833,158
26.11667,157
26.12500,155
26.13333,154
26.14167,153
26.15000,151
26.15833,150
26.16667,149
26.17500,148
26.18333,147
26.19167,146
26.20000,144
26.20833,143
26.21667,142
26.22500,141
26.23333,140
26.24167,138
26.25000,137
26.25833,136
26.26667,135
26.27500,134
26.28333,133
26.29167,132
26.30000,131
26.30833,131
26.31667,130
26.32500,129
26.33333,129
26.34167,128
26.35000,127
26.35833,127
26.36667,127
26.37500,126
26.38333,126
26.39167,125
26.40000,125
26.40833,125
26.41667,125
26.42500,124
26.43333,124
26.44167,124
26.45000,124
26.45833,125
26.46667,125
26.47500,125
26.48333,125
26.49167,126
26.50000,126
26.50833,127
26.51667,127
26.52500,127
26.53333,127
26.54167,128
26.55000,128
26.55833,129
26.56667,129
26.57500,129
26.58333,130
26.59167,131
26.60000,131
26.60833,132
26.61667,133
26.62500,133
26.63333,133
26.64167,133
26.65000,133
26.65833,133
26.66667,133
26.67500,134
26.68333,134
26.69167,134
26.70000,135
26.70833,135
26.71667,136
26.72500,136
26.73333,136
26.74167,136
26.75000,136
26.75833,136
26.76667,136
26.77500,136
26.78333,136
26.79167,135
26.80000,135
26.80833,135
26.81667,135
26.82500,134
26.83333,134
26.84167,134
26.85000,133
26.85833,133
26.86667,133
26.87500,133
26.88333,133
26.89167,132
26.90000,132
26.90833,132
26.91667,131
26.92500,131
26.93333,131
26.94167,131
26.95000,130
26.95833,130
26.96667,129
26.97500,129
26.98333,128
26.99167,128
27.00000,128
27.00833,128
27.01667,128
27.02500,128
27.03333,128
27.04167,128
27.05000,127
27.05833,127
27.06667,126
27.07500,126
27.08333,127
27.09167,127
27.10000,126
27.10833,126
27.11667,126
27.12500,126
27.13333,126
27.14167,126
27.15000,126
27.15833,126
27.16667,126
27.17500,126
27.18333,126
27.19167,126
27.20000,126
27.20833,126
27.21667,126
27.22500,126
27.23333,126
27.24167,126
27.25000,126
27.25833,125
27.26667,125
27.27500,125
27.28333,125
27.29167,125
27.30000,125
27.30833,125
27.31667,124
27.32500,124
27.33333,124
27.34167,124
27.35000,123
27.35833,123
27.36667,123
27.37500,123
27.38333,123
27.39167,122
27.40000,122
27.40833,122
27.41667,122
27.42500,121
27.43333,121
27.44167,121
27.45000,121
27.45833,121
27.46667,121
27.47500,121
27.48333,121
27.49167,120
27.50000,120
27.50833,120
27.51667,120
27.52500,120
27.53333,120
27.54167,121
27.55000,120
27.55833,120
27.56667,120
27.57500,119
27.58333,119
27.59167,119
27.60000,119
27.60833,119
27.61667,119
27.62500,119
27.63333,118
27.64167,118
27.65000,117
27.65833,117
27.66667,117
27.67500,117
27.68333,116
27.69167,116
27.70000,115
27.70833,115
27.71667,115
27.72500,114
27.73333,113
27.74167,113
27.75000,112
27.75833,112
27.76667,111
27.77500,110
27.78333,110
27.79167,109
27.80000,108
27.80833,106
27.81667,105
27.82500,104
27.83333,102
27.84167,101
27.85000,99
27.85833,98
27.86667,96
27.87500,94
27.88333,93
27.89167,91
27.90000,89
27.90833,88
27.91667,86
27.92500,83
27.93333,81
27.94167,79
27.95000,76
27.95833,74
27.96667,72
27.97500,70
27.98333,67
27.99167,64
28.00000,62
28.00833,59
28.01667,56
28.02500,53
28.03333,50
28.04167,46
28.05000,43
28.05833,40
28.06667,38
28.07500,35
28.08333,31
28.09167,28
28.10000,25
28.10833,22
28.11667,18
28.12500,15
28.13333,12
28.14167,9
28.15000,6
28.15833,3
28.16667,-0
28.17500,-3
28.18333,-6
28.19167,-9
28.20000,-12
28.20833,-14
28.21667,-17
28.22500,-19
28.23333,-22
28.24167,-24
28.25000,-26
28.25833,-27
28.26667,-29
28.27500,-30
28.28333,-31
28.29167,-33
28.30000,-34
28.30833,-35
28.31667,-36
28.32500,-37
28.33333,-38
28.34167,-38
28.35000,-39
28.35833,-39
28.36667,-39
28.37500,-39
28.38333,-39
28.39167,-39
28.40000,-38
28.40833,-38
28.41667,-37
28.42500,-35
28.43333,-34
28.44167,-33
28.45000,-32
28.45833,-30
28.46667,-28
28.47500,-26
28.48333,-25
28.49167,-23
28.50000,-21
28.50833,-19
28.51667,-17
28.52500,-15
28.53333,-12
28.54167,-10
28.55000,-8
28.55833,-5
28.56667,-2
28.57500,0
28.58333,2
28.59167,5
28.60000,7
28.60833,10
28.61667,13
28.62500,15
28.63333,18
28.64167,21
28.65000,24
28.65833,27
28.66667,29
28.67500,31
28.68333,33
28.69167,35
28.70000,37
28.70833,39
28.71667,41
28.72500,43
28.73333,45
28.74167,47
28.75000,49
28.75833,50
28.76667,52
28.77500,54
28.78333,56
28.79167,57
28.80000,59
28.80833,60
28.81667,61
28.82500,62
28.83333,63
28.84167,64
28.85000,66
28.85833,67
28.86667,67
28.87500,68
28.88333,69
28.89167,69
28.90000,70
28.90833,71
28.91667,72
28.92500,72
28.93333,73
28.94167,74
28.95000,75
28.95833,76
28.96667,76
28.97500,77
28.98333,77
28.99167,78
29.00000,79
29.00833,80
29.01667,81
29.02500,82
29.03333,82
29.04167,83
29.05000,84
29.05833,85
29.06667,85
29.07500,86
29.08333,87
29.09167,88
29.10000,89
29.10833,90
29.11667,91
29.12500,92
29.13333,93
29.14167,94
29.15000,95
29.15833,97
29.16667,98
29.17500,99
29.18333,100
29.19167,102
29.20000,103
29.20833,104
29.21667,106
29.22500,107
29.23333,108
29.24167,109
29.25000,110
29.25833,111
29.26667,112
29.27500,113
29.28333,113
29.29167,114
29.30000,115
29.30833,115
29.31667,117
29.32500,118
29.33333,118
29.34167,119
29.35000,120
29.35833,120
29.36667,121
29.37500,121
29.38333,122
29.39167,122
29.40000,123
29.40833,123
29.41667,124
29.42500,124
29.43333,124
29.44167,123
29.45000,123
29.45833,123
29.46667,123
29.47500,122
29.48333,122
29.49167,121
29.50000,121
29.50833,121
29.51667,120
29.52500,120
29.53333,119
29.54167,119
29.55000,118
29.55833,117
29.56667,116
29.57500,116
29.58333,115
29.59167,114
29.60000,114
29.60833,113
29.61667,112
29.62500,111
29.63333,111
29.64167,110
29.65000,109
29.65833,108
29.66667,107
29.67500,106
29.68333,105
29.69167,103
29.70000,102
29.70833,101
29.71667,100
29.72500,99
29.73333,98
29.74167,97
29.75000,96
29.75833,95
29.76667,94
29.77500,93
29.78333,92
29.79167,91
29.80000,90
29.80833,89
29.81667,87
29.82500,86
29.83333,85
29.84167,83
29.85000,82
29.85833,82
29.86667,81
29.87500,79
29.88333,78
29.89167,77
29.90000,76
29.90833,74
29.91667,73
29.92500,72
29.93333,70
29.94167,69
29.95000,68
29.95833,66
29.96667,65
29.97500,63
29.98333,62
29.99167,61
30.00000,59
30.00833,58
30.01667,57
30.02500,56
30.03333,55
30.04167,54
30.05000,53
30.05833,52
30.06667,51
30.07500,50
30.08333,49
30.09167,48
30.10000,47
30.10833,47
30.11667,46
30.12500,46
30.13333,45
30.14167,45
30.15000,44
30.15833,44
30.16667,43
30.17500,43
30.18333,43
30.19167,43
30.20000,43
30.20833,44
30.21667,43
30.22500,43
30.23333,43
30.24167,43
30.25000,43
30.25833,43
30.26667,43
30.27500,43
30.28333,44
30.29167,44
30.30000,44
30.30833,45
30.31667,45
30.32500,46
30.33333,46
30.34167,47
30.35000,47
30.35833,48
30.36667,49
30.37500,50
30.38333,51
30.39167,52
30.40000,52
30.40833,53
30.41667,54
30.42500,55
30.43333,55
30.44167,56
30.45000,57
30.45833,57
30.46667,58
30.47500,59
30.48333,59
30.49167,60
30.50000,61
30.50833,62
30.51667,63
30.52500,64
30.53333,64
30.54167,65
30.55000,66
30.55833,66
30.56667,67
30.57500,68
30.58333,68
30.59167,69
30.60000,69
30.60833,70
30.61667,71
30.62500,72
30.63333,73
30.64167,73
30.65000,74
30.65833,74
30.66667,74
30.67500,75
30.68333,76
30.69167,77
30.70000,77
30.70833,78
30.71667,78
30.72500,78
30.73333,79
30.74167,80
30.75000,80
30.75833,81
30.76667,81
30.77500,82
30.78333,82
30.79167,83
30.80000,83
30.80833,84
30.81667,84
30.82500,85
30.83333,85
30.84167,86
30.85000,86
30.85833,87
30.86667,87
30.87500,87
30.88333,88
30.89167,88
30.90000,89
30.90833,89
30.91667,90
30.92500,90
30.93333,91
30.94167,92
30.95000,92
30.95833,93
30.96667,94
30.97500,95
30.98333,96
30.99167,97
31.00000,98
31.00833,98
31.01667,99
31.02500,99
31.03333,100
31.04167,100
31.05000,100
31.05833,101
31.06667,102
31.07500,102
31.08333,103
31.09167,104
31.10000,104
31.10833,105
31.11667,105
31.12500,106
31.13333,106
31.14167,107
31.15000,108
31.15833,108
31.16667,109
31.17500,109
31.18333,109
31.19167,110
31.20000,110
31.20833,111
31.21667,111
31.22500,111
31.23333,111
31.24167,111
31.25000,111
31.25833,111
31.26667,111
31.27500,111
31.28333,111
31.29167,111
31.30000,111
31.30833,111
31.31667,111
31.32500,111
31.33333,111
31.34167,111
31.35000,111
31.35833,111
31.36667,111
31.37500,111
31.38333,111
31.39167,111
31.40000,110
31.40833,109
31.41667,109
31.42500,108
31.43333,108
31.44167,107
31.45000,106
31.45833,106
31.46667,105
31.47500,105
31.48333,105
31.49167,105
31.50000,104
31.50833,104
31.51667,104
31.52500,104
31.53333,103
31.54167,103
31.55000,103
31.55833,102
31.56667,101
31.57500,101
31.58333,100
31.59167,100
31.60000,100
31.60833,100
31.61667,100
31.62500,100
31.63333,100
31.64167,99
31.65000,99
31.65833,100
31.66667,100
31.67500,100
31.68333,100
31.69167,100
31.70000,100
31.70833,101
31.71667,101
31.72500,102
31.73333,102
31.74167,102
31.75000,102
31.75833,102
31.76667,103
31.77500,103
31.78333,104
31.79167,104
31.80000,105
31.80833,105
31.81667,106
31.82500,106
31.83333,106
31.84167,107
31.85000,107
31.85833,107
31.86667,108
31.87500,108
31.88333,109
31.89167,109
31.90000,109
31.90833,109
31.91667,110
31.92500,110
31.93333,110
31.94167,110
31.95000,110
31.95833,110
31.96667,109
31.97500,109
31.98333,109
31.99167,109
32.00000,109
32.00833,109
32.01667,109
32.02500,109
32.03333,109
32.04167,108
32.05000,108
32.05833,108
32.06667,107
32.07500,107
32.08333,107
32.09167,107
32.10000,106
32.10833,106
32.11667,105
32.12500,105
32.13333,105
32.14167,105
32.15000,104
32.15833,104
32.16667,104
32.17500,103
32.18333,103
32.19167,103
32.20000,103
32.20833,103
32.21667,103
32.22500,103
32.23333,102
32.24167,102
32.25000,102
32.25833,101
32.26667,101
32.27500,101
32.28333,101
32.29167,101
32.30000,101
32.30833,101
32.31667,101
32.32500,101
32.33333,101
32.34167,101
32.35000,102
32.35833,102
32.36667,102
32.37500,102
32.38333,102
32.39167,103
32.40000,103
32.40833,103
32.41667,103
32.42500,103
32.43333,103
32.44167,103
32.45000,103
32.45833,104
32.46667,104
32.47500,104
32.48333,104
32.49167,104
32.50000,105
32.50833,105
32.51667,105
32.52500,105
32.53333,105
32.54167,106
32.55000,106
32.55833,106
32.56667,106
32.57500,106
32.58333,106
32.59167,106
32.60000,106
32.60833,106
32.61667,106
32.62500,106
32.63333,106
32.64167,106
32.65000,106
32.65833,106
32.66667,106
32.67500,105
32.68333,105
32.69167,105
32.70000,106
32.70833,106
32.71667,106
32.72500,106
32.73333,106
32.74167,106
32.75000,106
32.75833,106
32.76667,105
32.77500,105
32.78333,105
32.79167,105
32.80000,105
32.80833,106
32.81667,105
32.82500,105
32.83333,105
32.84167,105
32.85000,105
32.85833,105
32.86667,105
32.87500,105
32.88333,105
32.89167,106
32.90000,106
32.90833,106
32.91667,106
32.92500,106
32.93333,106
32.94167,106
32.95000,106
32.95833,107
32.96667,107
32.97500,108
32.98333,108
32.99167,108
33.00000,108
33.00833,109
33.01667,109
33.02500,109
33.03333,109
33.04167,109
33.05000,109
33.05833,109
33.06667,109
33.07500,110
33.08333,110
33.09167,110
33.10000,110
33.10833,110
33.11667,110
33.12500,111
33.13333,111
33.14167,112
33.15000,112
33.15833,112
33.16667,113
33.17500,113
33.18333,112
33.19167,113
33.20000,113
33.20833,113
33.21667,114
33.22500,114
33.23333,114
33.24167,114
33.25000,115
33.25833,115
33.26667,116
33.27500,116
33.28333,116
33.29167,116
33.30000,117
33.30833,117
33.31667,117
33.32500,117
33.33333,118
33.34167,118
33.35000,117
33.35833,117
33.36667,117
33.37500,117
33.38333,117
33.39167,117
33.40000,117
33.40833,117
33.41667,117
33.42500,117
33.43333,117
33.44167,117
33.45000,118
33.45833,118
33.46667,118
33.47500,118
33.48333,118
33.49167,117
33.50000,117
33.50833,117
33.51667,117
33.52500,117
33.53333,116
33.54167,116
33.55000,116
33.55833,115
33.56667,115
33.57500,115
33.58333,115
33.59167,115
33.60000,115
33.60833,114
33.61667,114
33.62500,114
33.63333,114
33.64167,114
33.65000,114
33.65833,113
33.66667,113
33.67500,112
33.68333,112
33.69167,112
33.70000,112
33.70833,112
33.71667,113
33.72500,113
33.73333,113
33.74167,113
33.75000,113
33.75833,112
33.76667,112
33.77500,112
33.78333,112
33.79167,112
33.80000,112
33.80833,112
33.81667,112
33.82500,112
33.83333,113
33.84167,113
33.85000,113
33.85833,113
33.86667,113
33.87500,113
33.88333,113
33.89167,113
33.90000,113
33.90833,113
33.91667,113
33.92500,114
33.93333,114
33.94167,114
33.95000,114
33.95833,114
33.96667,114
33.97500,114
33.98333,114
33.99167,114
34.00000,113
34.00833,113
34.01667,113
34.02500,113
34.03333,113
34.04167,112
34.05000,112
34.05833,112
34.06667,111
34.07500,111
34.08333,111
34.09167,111
34.10000,111
34.10833,111
34.11667,110
34.12500,110
34.13333,110
34.14167,110
34.15000,109
34.15833,109
34.16667,108
34.17500,108
34.18333,107
34.19167,106
34.20000,106
34.20833,106
34.21667,106
34.22500,106
34.23333,106
34.24167,106
34.25000,106
34.25833,106
34.26667,106
34.27500,106
34.28333,106
34.29167,106
34.30000,106
34.30833,106
34.31667,107
34.32500,107
34.33333,107
34.34167,107
34.35000,107
34.35833,107
34.36667,107
34.37500,107
34.38333,108
34.39167,108
34.40000,108
34.40833,108
34.41667,108
34.42500,108
34.43333,108
34.44167,108
34.45000,108
34.45833,109
34.46667,109
34.47500,109
34.48333,110
34.49167,110
34.50000,110
34.50833,110
34.51667,110
34.52500,109
34.53333,110
34.54167,110
34.55000,111
34.55833,112
34.56667,112
34.57500,112
34.58333,113
34.59167,113
34.60000,113
34.60833,113
34.61667,113
34.62500,113
34.63333,113
34.64167,113
34.65000,113
34.65833,113
34.66667,113
34.67500,113
34.68333,113
34.69167,113
34.70000,113
34.70833,113
34.71667,113
34.72500,113
34.73333,112
34.74167,112
34.75000,112
34.75833,112
34.76667,112
34.77500,111
34.78333,111
34.79167,111
34.80000,111
34.80833,111
34.81667,111
34.82500,110
34.83333,110
34.84167,110
34.85000,110
34.85833,110
34.86667,110
34.87500,110
34.88333,109
34.89167,109
34.90000,109
34.90833,109
34.91667,108
34.92500,108
34.93333,108
34.94167,107
34.95000,107
34.95833,107
34.96667,107
34.97500,106
34.98333,106
34.99167,105
35.00000,105
35.00833,104
35.01667,104
35.02500,104
35.03333,104
35.04167,104
35.05000,104
35.05833,104
35.06667,103
35.07500,103
35.08333,103
35.09167,103
35.10000,102
35.10833,102
35.11667,102
35.12500,103
35.13333,103
35.14167,103
35.15000,103
35.15833,103
35.16667,103
35.17500,103
35.18333,103
35.19167,103
35.20000,103
35.20833,104
35.21667,104
35.22500,104
35.23333,104
35.24167,104
35.25000,105
35.25833,105
35.26667,106
35.27500,106
35.28333,107
35.29167,107
35.30000,107
35.30833,108
35.31667,108
35.32500,108
35.33333,108
35.34167,109
35.35000,109
35.35833,109
35.36667,110
35.37500,110
35.38333,111
35.39167,111
35.40000,111
35.40833,111
35.41667,111
35.42500,112
35.43333,112
35.44167,112
35.45000,112
35.45833,112
35.46667,112
35.47500,112
35.48333,112
35.49167,112
35.50000,111
35.50833,112
35.51667,112
35.52500,112
35.53333,112
35.54167,113
35.55000,113
35.55833,113
35.56667,112
35.57500,112
35.58333,111
35.59167,111
35.60000,110
35.60833,110
35.61667,110
35.62500,109
35.63333,109
35.64167,109
35.65000,109
35.65833,108
35.66667,108
35.67500,107
35.68333,107
35.69167,107
35.70000,107
35.70833,106
35.71667,106
35.72500,106
35.73333,106
35.74167,106
35.75000,105
35.75833,105
35.76667,105
35.77500,104
35.78333,104
35.79167,104
35.80000,104
35.80833,103
35.81667,103
35.82500,103
35.83333,102
35.84167,102
35.85000,102
35.85833,101
35.86667,101
35.87500,102
35.88333,101
35.89167,101
35.90000,101
35.90833,101
35.91667,101
35.92500,101
35.93333,101
35.94167,101
35.95000,101
35.95833,101
35.96667,100
35.97500,101
35.98333,101
35.99167,101
36.00000,101
36.00833,101
36.01667,101
36.02500,101
36.03333,101
36.04167,101
36.05000,101
36.05833,100
36.06667,101
36.07500,101
36.08333,101
36.09167,100
36.10000,101
36.10833,101
36.11667,101
36.12500,101
36.13333,101
36.14167,101
36.15000,102
36.15833,102
36.16667,102
36.17500,102
36.18333,102
36.19167,102
36.20000,101
36.20833,101
36.21667,101
36.22500,101
36.23333,101
36.24167,101
36.25000,101
36.25833,101
36.26667,102
36.27500,102
36.28333,102
36.29167,102
36.30000,102
36.30833,102
36.31667,102
36.32500,102
36.33333,102
36.34167,102
36.35000,102
36.35833,102
36.36667,102
36.37500,102
36.38333,102
36.39167,102
36.40000,102
36.40833,103
36.41667,103
36.42500,103
36.43333,103
36.44167,103
36.45000,104
36.45833,104
36.46667,104
36.47500,104
36.48333,105
36.49167,105
36.50000,106
36.50833,106
36.51667,106
36.52500,106
36.53333,106
36.54167,106
36.55000,107
36.55833,107
36.56667,107
36.57500,107
36.58333,107
36.59167,108
36.60000,108
36.60833,109
36.61667,109
36.62500,109
36.63333,109
36.64167,110
36.65000,110
36.65833,110
36.66667,110
36.67500,110
36.68333,110
36.69167,111
36.70000,111
36.70833,111
36.71667,112
36.72500,112
36.73333,113
36.74167,114
36.75000,114
36.75833,114
36.76667,114
36.77500,115
36.78333,115
36.79167,116
36.80000,116
36.80833,116
36.81667,117
36.82500,118
36.83333,119
36.84167,119
36.85000,119
36.85833,120
36.86667,120
36.87500,121
36.88333,122
36.89167,123
36.90000,123
36.90833,124
36.91667,124
36.92500,125
36.93333,125
36.94167,126
36.95000,127
36.95833,128
36.96667,129
36.97500,129
36.98333,130
36.99167,131
37.00000,131
37.00833,132
37.01667,132
37.02500,132
37.03333,133
37.04167,133
37.05000,134
37.05833,134
37.06667,135
37.07500,135
37.08333,136
37.09167,136
37.10000,137
37.10833,137
37.11667,137
37.12500,138
37.13333,138
37.14167,138
37.15000,138
37.15833,138
37.16667,138
37.17500,137
37.18333,137
37.19167,137
37.20000,138
37.20833,138
37.21667,138
37.22500,138
37.23333,138
37.24167,137
37.25000,137
37.25833,137
37.26667,136
37.27500,136
37.28333,135
37.29167,135
37.30000,135
37.30833,134
37.31667,134
37.32500,134
37.33333,134
37.34167,133
37.35000,133
37.35833,132
37.36667,131
37.37500,131
37.38333,130
37.39167,129
37.40000,128
37.40833,127
37.41667,127
37.42500,126
37.43333,126
37.44167,125
37.45000,124
37.45833,123
37.46667,122
37.47500,122
37.48333,121
37.49167,120
37.50000,119
37.50833,118
37.51667,117
37.52500,117
37.53333,116
37.54167,115
37.55000,114
37.55833,114
37.56667,113
37.57500,112
37.58333,111
37.59167,110
37.60000,109
37.60833,108
37.61667,108
37.62500,107
37.63333,106
37.64167,106
37.65000,105
37.65833,105
37.66667,104
37.67500,103
37.68333,102
37.69167,102
37.70000,101
37.70833,100
37.71667,99
37.72500,99
37.73333,98
37.74167,98
37.75000,98
37.75833,98
37.76667,97
37.77500,97
37.78333,96
37.79167,96
37.80000,96
37.80833,96
37.81667,96
37.82500,96
37.83333,95
37.84167,95
37.85000,95
37.85833,94
37.86667,94
37.87500,94
37.88333,95
37.89167,95
37.90000,94
37.90833,94
37.91667,94
37.92500,95
37.93333,95
37.94167,96
37.95000,96
37.95833,97
37.96667,97
37.97500,97
37.98333,98
37.99167,98
38.00000,98
38.00833,99
38.01667,99
38.02500,99
38.03333,100
38.04167,101
38.05000,101
38.05833,102
38.06667,103
38.07500,103
38.08333,104
38.09167,104
38.10000,105
38.10833,105
38.11667,106
38.12500,106
38.13333,107
38.14167,107
38.15000,107
38.15833,107
38.16667,108
38.17500,108
38.18333,109
38.19167,109
38.20000,109
38.20833,109
38.21667,110
38.22500,110
38.23333,110
38.24167,110
38.25000,110
38.25833,110
38.26667,110
38.27500,111
38.28333,111
38.29167,110
38.30000,110
38.30833,110
38.31667,110
38.32500,110
38.33333,110
38.34167,110
38.35000,111
38.35833,111
38.36667,111
38.37500,111
38.38333,111
38.39167,110
38.40000,110
38.40833,110
38.41667,110
38.42500,110
38.43333,110
38.44167,109
38.45000,109
38.45833,109
38.46667,109
38.47500,109
38.48333,109
38.49167,109
38.50000,109
38.50833,110
38.51667,110
38.52500,111
38.53333,111
38.54167,112
38.55000,112
38.55833,112
38.56667,112
38.57500,112
38.58333,112
38.59167,112
38.60000,112
38.60833,112
38.61667,112
38.62500,112
38.63333,112
38.64167,113
38.65000,113
38.65833,114
38.66667,114
38.67500,114
38.68333,114
38.69167,115
38.70000,116
38.70833,116
38.71667,116
38.72500,116
38.73333,116
38.74167,116
38.75000,116
38.75833,117
38.76667,117
38.77500,117
38.78333,117
38.79167,118
38.80000,118
38.80833,118
38.81667,118
38.82500,119
38.83333,119
38.84167,119
38.85000,119
38.85833,119
38.86667,119
38.87500,119
38.88333,119
38.89167,119
38.90000,119
38.90833,119
38.91667,120
38.92500,120
38.93333,120
38.94167,120
38.95000,121
38.95833,121
38.96667,121
38.97500,121
38.98333,122
38.99167,122
39.00000,122
39.00833,123
39.01667,123
39.02500,123
39.03333,123
39.04167,123
39.05000,123
39.05833,123
39.06667,123
39.07500,123
39.08333,124
39.09167,124
39.10000,125
39.10833,125
39.11667,125
39.12500,125
39.13333,125
39.14167,125
39.15000,125
39.15833,125
39.16667,125
39.17500,125
39.18333,125
39.19167,125
39.20000,125
39.20833,125
39.21667,125
39.22500,125
39.23333,125
39.24167,124
39.25000,124
39.25833,124
39.26667,123
39.27500,123
39.28333,122
39.29167,122
39.30000,122
39.30833,122
39.31667,122
39.32500,122
39.33333,121
39.34167,121
39.35000,121
39.35833,120
39.36667,120
39.37500,120
39.38333,120
39.39167,120
39.40000,120
39.40833,119
39.41667,119
39.42500,119
39.43333,119
39.44167,120
39.45000,120
39.45833,120
39.46667,120
39.47500,119
39.48333,119
39.49167,120
39.50000,120
39.50833,120
39.51667,120
39.52500,120
39.53333,120
39.54167,120
39.55000,121
39.55833,121
39.56667,121
39.57500,121
39.58333,121
39.59167,121
39.60000,121
39.60833,120
39.61667,120
39.62500,120
39.63333,120
39.64167,121
39.65000,121
39.65833,120
39.66667,120
39.67500,120
39.68333,120
39.69167,120
39.70000,120
39.70833,121
39.71667,121
39.72500,121
39.73333,121
39.74167,121
39.75000,121
39.75833,121
39.76667,121
39.77500,121
39.78333,121
39.79167,120
39.80000,120
39.80833,120
39.81667,119
39.82500,119
39.83333,119
39.84167,119
39.85000,118
39.85833,118
39.86667,117
39.87500,117
39.88333,117
39.89167,117
39.90000,117
39.90833,117
39.91667,116
39.92500,116
39.93333,116
39.94167,115
39.95000,115
39.95833,114
39.96667,114
39.97500,114
39.98333,114
39.99167,114
40.00000,114

