[Header]
Application Name,LabSolutions
Version,5.97 SP1
Data File Name,C:\Users\cremerlab\Desktop\griffin\2021-04-05_NC_DM_calibration\2021-04-05_NC_DM_2.5mM_calibration_452021_013_013.lcd
Output Date,4/6/2021
Output Time,1:49:23 AM

[File Information]
Type,Data File
Generated,4/6/2021 1:09:03 AM
Generated by,System Administrator
Modified,4/6/2021 1:49:23 AM
Modified by,System Administrator

[Sample Information]
Operator Name,System Administrator
Acquired,4/6/2021 1:09:23 AM
Sample Type,1:Standard
Level,4
Sample Name,2021-04-05_NC_glucose_glycerol_acetate_0mM
Sample ID,013
ISTD Amount1,1
ISTD Amount2,1
ISTD Amount3,1
ISTD Amount4,1
ISTD Amount5,1
ISTD Amount6,1
ISTD Amount7,1
ISTD Amount8,1
ISTD Amount9,1
ISTD Amount10,1
ISTD Amount11,1
ISTD Amount12,1
ISTD Amount13,1
ISTD Amount14,1
ISTD Amount15,1
ISTD Amount16,1
ISTD Amount17,1
ISTD Amount18,1
ISTD Amount19,1
ISTD Amount20,1
ISTD Amount21,1
ISTD Amount22,1
ISTD Amount23,1
ISTD Amount24,1
ISTD Amount25,1
ISTD Amount26,1
ISTD Amount27,1
ISTD Amount28,1
ISTD Amount29,1
ISTD Amount30,1
ISTD Amount31,1
ISTD Amount32,1
Sample Amount,1
Dilution Factor,1
Vial#,13
Injection Volume,20

[Original Files]
Data File,C:\Users\cremerlab\Desktop\griffin\2021-04-05_NC_DM_calibration\2021-04-05_NC_DM_2.5mM_calibration_452021_013_013.lcd
Method File,C:\Users\cremerlab\Desktop\griffin\2021-04-05_NC_DM_calibration\2021-04-05_2.5mM_mobile.lcm
Batch File,C:\Users\cremerlab\Desktop\griffin\2021-04-05_NC_DM_calibration\2021-04-05_NC_DM_2.5mM_calibration.lcb
Report Format File,c:\LabSolutions\System\DEFAULT.lsr

[File Description]


[Configuration]
Instrument Name,HPLC-PC-Instrument1
Instrument #,1
Line #,1
# of Detectors,2
Detector ID,Detector A,Detector B
Detector Name,Detector A,Detector B
# of Channels,1,1

[Peak Table(Detector A)]
# of Peaks,0

[Peak Table(Detector B)]
# of Peaks,2
Peak#,R.Time,I.Time,F.Time,Area,Height,A/H,Conc.,Mark,ID#,Name,k',Plate #,Plate Ht.,Tailing,Resolution,Sep.Factor,Area Ratio,Height Ratio,Conc. %,Norm Conc.
1,11.006,10.600,12.192,1448992,84645,17.118,0.000,   ,,,0.000,9391,15.973,0.942,0.000,0.000,0,0,0.000,0.000
2,14.466,12.642,17.333,4354312,95115,45.780,0.000,   ,,,0.314,2838,52.855,0.612,4.492,0.000,0,0,0.000,0.000

[LC Chromatogram(Detector B-Ch1)]
Interval(msec),500
# of Points,4801
Start Time(min),0.000
End Time(min),40.000
Intensity Units,mV
Intensity Multiplier,0.001
R.Time (min),Intensity
0.00000,4
0.00833,4
0.01667,0
0.02500,0
0.03333,-0
0.04167,-0
0.05000,-1
0.05833,-1
0.06667,-1
0.07500,-1
0.08333,-2
0.09167,-2
0.10000,-2
0.10833,-2
0.11667,-2
0.12500,-2
0.13333,-2
0.14167,-3
0.15000,-3
0.15833,-4
0.16667,-4
0.17500,-5
0.18333,-5
0.19167,-6
0.20000,-6
0.20833,-7
0.21667,-8
0.22500,-9
0.23333,-9
0.24167,-10
0.25000,-11
0.25833,-12
0.26667,-13
0.27500,-14
0.28333,-15
0.29167,-16
0.30000,-17
0.30833,-18
0.31667,-18
0.32500,-19
0.33333,-20
0.34167,-21
0.35000,-22
0.35833,-23
0.36667,-23
0.37500,-24
0.38333,-24
0.39167,-25
0.40000,-25
0.40833,-26
0.41667,-26
0.42500,-26
0.43333,-26
0.44167,-27
0.45000,-27
0.45833,-27
0.46667,-28
0.47500,-28
0.48333,-28
0.49167,-28
0.50000,-28
0.50833,-28
0.51667,-28
0.52500,-29
0.53333,-29
0.54167,-29
0.55000,-29
0.55833,-28
0.56667,-28
0.57500,-27
0.58333,-27
0.59167,-27
0.60000,-26
0.60833,-26
0.61667,-26
0.62500,-25
0.63333,-25
0.64167,-25
0.65000,-25
0.65833,-25
0.66667,-24
0.67500,-24
0.68333,-24
0.69167,-23
0.70000,-23
0.70833,-23
0.71667,-22
0.72500,-22
0.73333,-21
0.74167,-20
0.75000,-20
0.75833,-19
0.76667,-19
0.77500,-19
0.78333,-19
0.79167,-18
0.80000,-18
0.80833,-18
0.81667,-18
0.82500,-17
0.83333,-17
0.84167,-17
0.85000,-17
0.85833,-17
0.86667,-16
0.87500,-16
0.88333,-15
0.89167,-15
0.90000,-14
0.90833,-14
0.91667,-14
0.92500,-14
0.93333,-14
0.94167,-13
0.95000,-13
0.95833,-13
0.96667,-13
0.97500,-13
0.98333,-13
0.99167,-13
1.00000,-13
1.00833,-13
1.01667,-13
1.02500,-13
1.03333,-13
1.04167,-13
1.05000,-12
1.05833,-12
1.06667,-12
1.07500,-12
1.08333,-12
1.09167,-12
1.10000,-12
1.10833,-11
1.11667,-11
1.12500,-11
1.13333,-10
1.14167,-10
1.15000,-10
1.15833,-10
1.16667,-10
1.17500,-10
1.18333,-10
1.19167,-9
1.20000,-9
1.20833,-9
1.21667,-8
1.22500,-8
1.23333,-7
1.24167,-7
1.25000,-6
1.25833,-6
1.26667,-5
1.27500,-5
1.28333,-4
1.29167,-4
1.30000,-3
1.30833,-2
1.31667,-1
1.32500,-0
1.33333,0
1.34167,1
1.35000,2
1.35833,3
1.36667,4
1.37500,4
1.38333,5
1.39167,6
1.40000,7
1.40833,8
1.41667,9
1.42500,10
1.43333,11
1.44167,12
1.45000,13
1.45833,14
1.46667,15
1.47500,15
1.48333,16
1.49167,17
1.50000,18
1.50833,19
1.51667,20
1.52500,20
1.53333,21
1.54167,22
1.55000,23
1.55833,23
1.56667,24
1.57500,25
1.58333,25
1.59167,26
1.60000,26
1.60833,27
1.61667,27
1.62500,28
1.63333,28
1.64167,29
1.65000,29
1.65833,29
1.66667,29
1.67500,29
1.68333,30
1.69167,30
1.70000,31
1.70833,31
1.71667,31
1.72500,30
1.73333,30
1.74167,30
1.75000,29
1.75833,29
1.76667,29
1.77500,29
1.78333,29
1.79167,29
1.80000,30
1.80833,29
1.81667,29
1.82500,29
1.83333,29
1.84167,28
1.85000,28
1.85833,28
1.86667,27
1.87500,26
1.88333,26
1.89167,26
1.90000,25
1.90833,25
1.91667,24
1.92500,23
1.93333,23
1.94167,22
1.95000,21
1.95833,20
1.96667,20
1.97500,19
1.98333,19
1.99167,19
2.00000,19
2.00833,18
2.01667,17
2.02500,17
2.03333,16
2.04167,16
2.05000,15
2.05833,15
2.06667,14
2.07500,13
2.08333,12
2.09167,12
2.10000,10
2.10833,9
2.11667,8
2.12500,8
2.13333,7
2.14167,6
2.15000,5
2.15833,4
2.16667,4
2.17500,3
2.18333,3
2.19167,2
2.20000,2
2.20833,1
2.21667,0
2.22500,-0
2.23333,-0
2.24167,-0
2.25000,-1
2.25833,-1
2.26667,-1
2.27500,-2
2.28333,-2
2.29167,-2
2.30000,-3
2.30833,-3
2.31667,-3
2.32500,-3
2.33333,-3
2.34167,-4
2.35000,-4
2.35833,-4
2.36667,-4
2.37500,-5
2.38333,-4
2.39167,-4
2.40000,-4
2.40833,-4
2.41667,-4
2.42500,-4
2.43333,-4
2.44167,-4
2.45000,-4
2.45833,-3
2.46667,-3
2.47500,-3
2.48333,-3
2.49167,-3
2.50000,-3
2.50833,-3
2.51667,-2
2.52500,-2
2.53333,-1
2.54167,-1
2.55000,-0
2.55833,0
2.56667,1
2.57500,1
2.58333,2
2.59167,2
2.60000,3
2.60833,3
2.61667,3
2.62500,4
2.63333,4
2.64167,5
2.65000,6
2.65833,6
2.66667,7
2.67500,8
2.68333,8
2.69167,9
2.70000,9
2.70833,10
2.71667,11
2.72500,11
2.73333,12
2.74167,12
2.75000,13
2.75833,14
2.76667,14
2.77500,15
2.78333,15
2.79167,15
2.80000,15
2.80833,15
2.81667,15
2.82500,16
2.83333,16
2.84167,16
2.85000,17
2.85833,17
2.86667,17
2.87500,16
2.88333,16
2.89167,16
2.90000,16
2.90833,15
2.91667,15
2.92500,14
2.93333,14
2.94167,13
2.95000,13
2.95833,12
2.96667,12
2.97500,12
2.98333,11
2.99167,11
3.00000,10
3.00833,9
3.01667,9
3.02500,9
3.03333,8
3.04167,8
3.05000,7
3.05833,7
3.06667,6
3.07500,6
3.08333,5
3.09167,5
3.10000,4
3.10833,4
3.11667,3
3.12500,2
3.13333,2
3.14167,2
3.15000,2
3.15833,2
3.16667,2
3.17500,2
3.18333,1
3.19167,1
3.20000,1
3.20833,1
3.21667,1
3.22500,1
3.23333,2
3.24167,2
3.25000,2
3.25833,3
3.26667,3
3.27500,3
3.28333,3
3.29167,3
3.30000,4
3.30833,4
3.31667,4
3.32500,4
3.33333,4
3.34167,4
3.35000,4
3.35833,5
3.36667,5
3.37500,5
3.38333,6
3.39167,6
3.40000,6
3.40833,6
3.41667,6
3.42500,6
3.43333,6
3.44167,6
3.45000,6
3.45833,6
3.46667,7
3.47500,7
3.48333,7
3.49167,7
3.50000,7
3.50833,7
3.51667,7
3.52500,7
3.53333,7
3.54167,7
3.55000,7
3.55833,7
3.56667,7
3.57500,7
3.58333,7
3.59167,8
3.60000,8
3.60833,8
3.61667,8
3.62500,8
3.63333,8
3.64167,9
3.65000,9
3.65833,9
3.66667,10
3.67500,10
3.68333,10
3.69167,10
3.70000,11
3.70833,11
3.71667,11
3.72500,12
3.73333,12
3.74167,13
3.75000,13
3.75833,13
3.76667,14
3.77500,14
3.78333,14
3.79167,14
3.80000,14
3.80833,15
3.81667,15
3.82500,15
3.83333,16
3.84167,16
3.85000,16
3.85833,17
3.86667,17
3.87500,17
3.88333,17
3.89167,17
3.90000,18
3.90833,19
3.91667,19
3.92500,19
3.93333,19
3.94167,19
3.95000,19
3.95833,19
3.96667,20
3.97500,20
3.98333,20
3.99167,21
4.00000,21
4.00833,21
4.01667,21
4.02500,21
4.03333,21
4.04167,21
4.05000,21
4.05833,21
4.06667,21
4.07500,22
4.08333,22
4.09167,22
4.10000,22
4.10833,22
4.11667,22
4.12500,22
4.13333,22
4.14167,22
4.15000,22
4.15833,22
4.16667,22
4.17500,22
4.18333,22
4.19167,22
4.20000,23
4.20833,23
4.21667,23
4.22500,23
4.23333,23
4.24167,23
4.25000,22
4.25833,23
4.26667,23
4.27500,23
4.28333,23
4.29167,23
4.30000,23
4.30833,23
4.31667,23
4.32500,22
4.33333,22
4.34167,22
4.35000,22
4.35833,22
4.36667,22
4.37500,22
4.38333,21
4.39167,21
4.40000,21
4.40833,21
4.41667,21
4.42500,21
4.43333,20
4.44167,20
4.45000,20
4.45833,20
4.46667,19
4.47500,19
4.48333,18
4.49167,18
4.50000,17
4.50833,17
4.51667,17
4.52500,16
4.53333,16
4.54167,16
4.55000,15
4.55833,15
4.56667,15
4.57500,15
4.58333,15
4.59167,14
4.60000,14
4.60833,13
4.61667,13
4.62500,13
4.63333,12
4.64167,12
4.65000,11
4.65833,11
4.66667,11
4.67500,10
4.68333,10
4.69167,9
4.70000,9
4.70833,9
4.71667,8
4.72500,8
4.73333,7
4.74167,7
4.75000,7
4.75833,7
4.76667,7
4.77500,6
4.78333,6
4.79167,6
4.80000,6
4.80833,6
4.81667,6
4.82500,5
4.83333,5
4.84167,5
4.85000,5
4.85833,5
4.86667,4
4.87500,4
4.88333,4
4.89167,4
4.90000,3
4.90833,3
4.91667,3
4.92500,3
4.93333,3
4.94167,3
4.95000,2
4.95833,2
4.96667,2
4.97500,1
4.98333,1
4.99167,1
5.00000,1
5.00833,1
5.01667,1
5.02500,1
5.03333,1
5.04167,1
5.05000,0
5.05833,-0
5.06667,-1
5.07500,-1
5.08333,-1
5.09167,-2
5.10000,-2
5.10833,-2
5.11667,-2
5.12500,-2
5.13333,-2
5.14167,-2
5.15000,-2
5.15833,-2
5.16667,-2
5.17500,-2
5.18333,-3
5.19167,-3
5.20000,-3
5.20833,-4
5.21667,-4
5.22500,-4
5.23333,-4
5.24167,-4
5.25000,-4
5.25833,-4
5.26667,-4
5.27500,-4
5.28333,-4
5.29167,-4
5.30000,-3
5.30833,-3
5.31667,-3
5.32500,-3
5.33333,-3
5.34167,-2
5.35000,-2
5.35833,-2
5.36667,-2
5.37500,-2
5.38333,-2
5.39167,-2
5.40000,-1
5.40833,-1
5.41667,-0
5.42500,0
5.43333,0
5.44167,1
5.45000,1
5.45833,1
5.46667,1
5.47500,2
5.48333,2
5.49167,2
5.50000,3
5.50833,3
5.51667,4
5.52500,4
5.53333,4
5.54167,4
5.55000,5
5.55833,5
5.56667,5
5.57500,6
5.58333,6
5.59167,7
5.60000,7
5.60833,8
5.61667,8
5.62500,9
5.63333,9
5.64167,10
5.65000,10
5.65833,11
5.66667,11
5.67500,12
5.68333,12
5.69167,12
5.70000,13
5.70833,13
5.71667,14
5.72500,14
5.73333,14
5.74167,14
5.75000,15
5.75833,16
5.76667,16
5.77500,17
5.78333,17
5.79167,17
5.80000,17
5.80833,17
5.81667,17
5.82500,18
5.83333,18
5.84167,18
5.85000,19
5.85833,19
5.86667,20
5.87500,20
5.88333,20
5.89167,21
5.90000,20
5.90833,20
5.91667,20
5.92500,21
5.93333,21
5.94167,21
5.95000,21
5.95833,21
5.96667,21
5.97500,20
5.98333,20
5.99167,20
6.00000,20
6.00833,19
6.01667,19
6.02500,19
6.03333,19
6.04167,19
6.05000,19
6.05833,18
6.06667,18
6.07500,17
6.08333,17
6.09167,16
6.10000,16
6.10833,16
6.11667,16
6.12500,15
6.13333,15
6.14167,14
6.15000,14
6.15833,14
6.16667,13
6.17500,13
6.18333,13
6.19167,13
6.20000,12
6.20833,12
6.21667,12
6.22500,11
6.23333,11
6.24167,11
6.25000,11
6.25833,11
6.26667,11
6.27500,11
6.28333,11
6.29167,12
6.30000,12
6.30833,12
6.31667,11
6.32500,11
6.33333,11
6.34167,11
6.35000,11
6.35833,11
6.36667,10
6.37500,10
6.38333,10
6.39167,10
6.40000,10
6.40833,10
6.41667,9
6.42500,9
6.43333,9
6.44167,9
6.45000,9
6.45833,9
6.46667,8
6.47500,8
6.48333,8
6.49167,8
6.50000,8
6.50833,8
6.51667,8
6.52500,8
6.53333,8
6.54167,8
6.55000,8
6.55833,8
6.56667,8
6.57500,8
6.58333,8
6.59167,8
6.60000,8
6.60833,8
6.61667,8
6.62500,8
6.63333,8
6.64167,8
6.65000,8
6.65833,9
6.66667,9
6.67500,9
6.68333,9
6.69167,10
6.70000,10
6.70833,11
6.71667,11
6.72500,11
6.73333,11
6.74167,12
6.75000,12
6.75833,13
6.76667,13
6.77500,14
6.78333,14
6.79167,14
6.80000,15
6.80833,16
6.81667,16
6.82500,16
6.83333,17
6.84167,17
6.85000,18
6.85833,19
6.86667,19
6.87500,20
6.88333,20
6.89167,21
6.90000,21
6.90833,21
6.91667,21
6.92500,21
6.93333,22
6.94167,22
6.95000,22
6.95833,22
6.96667,23
6.97500,23
6.98333,23
6.99167,23
7.00000,23
7.00833,23
7.01667,23
7.02500,23
7.03333,23
7.04167,23
7.05000,23
7.05833,22
7.06667,22
7.07500,21
7.08333,20
7.09167,19
7.10000,19
7.10833,18
7.11667,18
7.12500,18
7.13333,17
7.14167,17
7.15000,16
7.15833,16
7.16667,15
7.17500,14
7.18333,14
7.19167,13
7.20000,12
7.20833,12
7.21667,11
7.22500,10
7.23333,10
7.24167,9
7.25000,9
7.25833,8
7.26667,8
7.27500,8
7.28333,7
7.29167,7
7.30000,6
7.30833,6
7.31667,6
7.32500,6
7.33333,5
7.34167,5
7.35000,5
7.35833,4
7.36667,4
7.37500,4
7.38333,3
7.39167,3
7.40000,3
7.40833,3
7.41667,3
7.42500,3
7.43333,3
7.44167,3
7.45000,3
7.45833,3
7.46667,4
7.47500,4
7.48333,5
7.49167,5
7.50000,6
7.50833,7
7.51667,7
7.52500,7
7.53333,8
7.54167,8
7.55000,9
7.55833,9
7.56667,10
7.57500,10
7.58333,11
7.59167,11
7.60000,12
7.60833,13
7.61667,14
7.62500,14
7.63333,14
7.64167,15
7.65000,15
7.65833,15
7.66667,15
7.67500,16
7.68333,16
7.69167,17
7.70000,17
7.70833,17
7.71667,17
7.72500,18
7.73333,18
7.74167,18
7.75000,18
7.75833,18
7.76667,18
7.77500,18
7.78333,17
7.79167,17
7.80000,17
7.80833,17
7.81667,17
7.82500,17
7.83333,16
7.84167,16
7.85000,16
7.85833,15
7.86667,15
7.87500,14
7.88333,14
7.89167,13
7.90000,13
7.90833,12
7.91667,12
7.92500,12
7.93333,11
7.94167,11
7.95000,10
7.95833,9
7.96667,8
7.97500,8
7.98333,7
7.99167,7
8.00000,6
8.00833,6
8.01667,5
8.02500,5
8.03333,4
8.04167,4
8.05000,3
8.05833,3
8.06667,3
8.07500,3
8.08333,3
8.09167,3
8.10000,2
8.10833,2
8.11667,2
8.12500,2
8.13333,2
8.14167,2
8.15000,3
8.15833,3
8.16667,3
8.17500,3
8.18333,3
8.19167,3
8.20000,3
8.20833,4
8.21667,5
8.22500,6
8.23333,7
8.24167,7
8.25000,7
8.25833,8
8.26667,9
8.27500,9
8.28333,10
8.29167,10
8.30000,10
8.30833,11
8.31667,12
8.32500,12
8.33333,13
8.34167,13
8.35000,13
8.35833,14
8.36667,14
8.37500,15
8.38333,15
8.39167,16
8.40000,16
8.40833,16
8.41667,17
8.42500,17
8.43333,18
8.44167,18
8.45000,18
8.45833,18
8.46667,18
8.47500,18
8.48333,18
8.49167,19
8.50000,19
8.50833,19
8.51667,20
8.52500,20
8.53333,20
8.54167,20
8.55000,20
8.55833,21
8.56667,21
8.57500,21
8.58333,21
8.59167,20
8.60000,20
8.60833,20
8.61667,20
8.62500,20
8.63333,19
8.64167,19
8.65000,20
8.65833,20
8.66667,20
8.67500,20
8.68333,19
8.69167,19
8.70000,19
8.70833,19
8.71667,19
8.72500,20
8.73333,19
8.74167,19
8.75000,19
8.75833,19
8.76667,19
8.77500,19
8.78333,19
8.79167,19
8.80000,19
8.80833,18
8.81667,18
8.82500,18
8.83333,17
8.84167,17
8.85000,17
8.85833,16
8.86667,16
8.87500,16
8.88333,15
8.89167,15
8.90000,14
8.90833,14
8.91667,14
8.92500,14
8.93333,14
8.94167,13
8.95000,13
8.95833,12
8.96667,12
8.97500,12
8.98333,12
8.99167,12
9.00000,12
9.00833,11
9.01667,11
9.02500,11
9.03333,11
9.04167,11
9.05000,11
9.05833,11
9.06667,11
9.07500,11
9.08333,11
9.09167,11
9.10000,12
9.10833,11
9.11667,11
9.12500,12
9.13333,12
9.14167,12
9.15000,12
9.15833,13
9.16667,13
9.17500,14
9.18333,14
9.19167,15
9.20000,15
9.20833,15
9.21667,15
9.22500,16
9.23333,16
9.24167,17
9.25000,17
9.25833,18
9.26667,19
9.27500,19
9.28333,20
9.29167,20
9.30000,20
9.30833,21
9.31667,21
9.32500,22
9.33333,22
9.34167,23
9.35000,23
9.35833,24
9.36667,24
9.37500,24
9.38333,24
9.39167,24
9.40000,24
9.40833,24
9.41667,24
9.42500,25
9.43333,25
9.44167,25
9.45000,25
9.45833,24
9.46667,24
9.47500,24
9.48333,25
9.49167,25
9.50000,25
9.50833,25
9.51667,24
9.52500,24
9.53333,24
9.54167,23
9.55000,23
9.55833,23
9.56667,23
9.57500,22
9.58333,22
9.59167,22
9.60000,21
9.60833,21
9.61667,21
9.62500,21
9.63333,20
9.64167,20
9.65000,20
9.65833,20
9.66667,19
9.67500,18
9.68333,18
9.69167,17
9.70000,17
9.70833,17
9.71667,16
9.72500,16
9.73333,16
9.74167,15
9.75000,15
9.75833,15
9.76667,15
9.77500,15
9.78333,14
9.79167,14
9.80000,14
9.80833,13
9.81667,13
9.82500,12
9.83333,12
9.84167,11
9.85000,11
9.85833,11
9.86667,10
9.87500,9
9.88333,9
9.89167,8
9.90000,8
9.90833,8
9.91667,7
9.92500,7
9.93333,7
9.94167,6
9.95000,6
9.95833,6
9.96667,5
9.97500,5
9.98333,5
9.99167,5
10.00000,4
10.00833,4
10.01667,4
10.02500,4
10.03333,4
10.04167,3
10.05000,3
10.05833,3
10.06667,2
10.07500,2
10.08333,2
10.09167,2
10.10000,2
10.10833,3
10.11667,3
10.12500,3
10.13333,3
10.14167,3
10.15000,3
10.15833,3
10.16667,3
10.17500,3
10.18333,3
10.19167,4
10.20000,4
10.20833,4
10.21667,5
10.22500,5
10.23333,5
10.24167,6
10.25000,6
10.25833,7
10.26667,7
10.27500,7
10.28333,8
10.29167,8
10.30000,9
10.30833,10
10.31667,10
10.32500,11
10.33333,11
10.34167,12
10.35000,12
10.35833,13
10.36667,13
10.37500,13
10.38333,13
10.39167,13
10.40000,13
10.40833,11
10.41667,9
10.42500,6
10.43333,1
10.44167,-7
10.45000,-18
10.45833,-32
10.46667,-50
10.47500,-74
10.48333,-104
10.49167,-141
10.50000,-186
10.50833,-238
10.51667,-299
10.52500,-368
10.53333,-444
10.54167,-525
10.55000,-610
10.55833,-695
10.56667,-776
10.57500,-849
10.58333,-909
10.59167,-949
10.60000,-962
10.60833,-942
10.61667,-880
10.62500,-769
10.63333,-601
10.64167,-370
10.65000,-66
10.65833,316
10.66667,783
10.67500,1341
10.68333,1995
10.69167,2750
10.70000,3610
10.70833,4578
10.71667,5655
10.72500,6845
10.73333,8148
10.74167,9565
10.75000,11098
10.75833,12745
10.76667,14505
10.77500,16378
10.78333,18361
10.79167,20453
10.80000,22652
10.80833,24953
10.81667,27354
10.82500,29851
10.83333,32440
10.84167,35116
10.85000,37874
10.85833,40707
10.86667,43608
10.87500,46569
10.88333,49579
10.89167,52628
10.90000,55702
10.90833,58784
10.91667,61855
10.92500,64890
10.93333,67860
10.94167,70731
10.95000,73462
10.95833,76003
10.96667,78301
10.97500,80294
10.98333,81918
10.99167,83108
11.00000,83801
11.00833,83944
11.01667,83495
11.02500,82430
11.03333,80744
11.04167,78458
11.05000,75612
11.05833,72268
11.06667,68506
11.07500,64415
11.08333,60093
11.09167,55637
11.10000,51141
11.10833,46691
11.11667,42357
11.12500,38202
11.13333,34271
11.14167,30597
11.15000,27200
11.15833,24090
11.16667,21268
11.17500,18726
11.18333,16452
11.19167,14430
11.20000,12641
11.20833,11066
11.21667,9685
11.22500,8477
11.23333,7425
11.24167,6510
11.25000,5717
11.25833,5030
11.26667,4435
11.27500,3921
11.28333,3476
11.29167,3092
11.30000,2760
11.30833,2473
11.31667,2225
11.32500,2010
11.33333,1823
11.34167,1660
11.35000,1518
11.35833,1394
11.36667,1285
11.37500,1190
11.38333,1105
11.39167,1030
11.40000,964
11.40833,904
11.41667,851
11.42500,803
11.43333,759
11.44167,719
11.45000,682
11.45833,649
11.46667,618
11.47500,589
11.48333,563
11.49167,538
11.50000,515
11.50833,494
11.51667,473
11.52500,454
11.53333,435
11.54167,418
11.55000,402
11.55833,386
11.56667,372
11.57500,358
11.58333,344
11.59167,331
11.60000,320
11.60833,309
11.61667,298
11.62500,288
11.63333,277
11.64167,268
11.65000,258
11.65833,249
11.66667,241
11.67500,233
11.68333,225
11.69167,218
11.70000,211
11.70833,204
11.71667,198
11.72500,192
11.73333,186
11.74167,180
11.75000,175
11.75833,170
11.76667,164
11.77500,159
11.78333,155
11.79167,151
11.80000,147
11.80833,143
11.81667,139
11.82500,136
11.83333,132
11.84167,129
11.85000,126
11.85833,123
11.86667,120
11.87500,118
11.88333,115
11.89167,113
11.90000,111
11.90833,108
11.91667,106
11.92500,105
11.93333,102
11.94167,100
11.95000,99
11.95833,97
11.96667,95
11.97500,93
11.98333,91
11.99167,89
12.00000,87
12.00833,86
12.01667,84
12.02500,82
12.03333,81
12.04167,79
12.05000,78
12.05833,77
12.06667,75
12.07500,74
12.08333,72
12.09167,71
12.10000,69
12.10833,68
12.11667,67
12.12500,66
12.13333,65
12.14167,64
12.15000,64
12.15833,63
12.16667,62
12.17500,62
12.18333,61
12.19167,61
12.20000,61
12.20833,60
12.21667,60
12.22500,60
12.23333,60
12.24167,60
12.25000,59
12.25833,59
12.26667,59
12.27500,60
12.28333,60
12.29167,61
12.30000,61
12.30833,62
12.31667,62
12.32500,62
12.33333,63
12.34167,63
12.35000,64
12.35833,64
12.36667,65
12.37500,65
12.38333,66
12.39167,66
12.40000,67
12.40833,67
12.41667,68
12.42500,69
12.43333,70
12.44167,70
12.45000,71
12.45833,71
12.46667,72
12.47500,72
12.48333,73
12.49167,73
12.50000,74
12.50833,74
12.51667,74
12.52500,75
12.53333,75
12.54167,75
12.55000,75
12.55833,76
12.56667,76
12.57500,76
12.58333,75
12.59167,75
12.60000,75
12.60833,75
12.61667,75
12.62500,75
12.63333,75
12.64167,75
12.65000,75
12.65833,75
12.66667,76
12.67500,77
12.68333,79
12.69167,82
12.70000,85
12.70833,90
12.71667,95
12.72500,102
12.73333,111
12.74167,121
12.75000,134
12.75833,149
12.76667,167
12.77500,189
12.78333,214
12.79167,244
12.80000,279
12.80833,318
12.81667,362
12.82500,412
12.83333,467
12.84167,529
12.85000,597
12.85833,673
12.86667,755
12.87500,844
12.88333,940
12.89167,1044
12.90000,1154
12.90833,1272
12.91667,1397
12.92500,1530
12.93333,1670
12.94167,1817
12.95000,1970
12.95833,2131
12.96667,2298
12.97500,2472
12.98333,2651
12.99167,2837
13.00000,3029
13.00833,3226
13.01667,3429
13.02500,3637
13.03333,3850
13.04167,4068
13.05000,4291
13.05833,4518
13.06667,4751
13.07500,4988
13.08333,5229
13.09167,5475
13.10000,5724
13.10833,5977
13.11667,6234
13.12500,6495
13.13333,6759
13.14167,7027
13.15000,7298
13.15833,7573
13.16667,7851
13.17500,8132
13.18333,8416
13.19167,8703
13.20000,8993
13.20833,9287
13.21667,9583
13.22500,9882
13.23333,10184
13.24167,10490
13.25000,10798
13.25833,11108
13.26667,11422
13.27500,11738
13.28333,12058
13.29167,12380
13.30000,12706
13.30833,13034
13.31667,13365
13.32500,13698
13.33333,14035
13.34167,14374
13.35000,14716
13.35833,15061
13.36667,15409
13.37500,15759
13.38333,16113
13.39167,16469
13.40000,16828
13.40833,17189
13.41667,17553
13.42500,17921
13.43333,18291
13.44167,18665
13.45000,19041
13.45833,19420
13.46667,19802
13.47500,20186
13.48333,20574
13.49167,20965
13.50000,21359
13.50833,21756
13.51667,22156
13.52500,22559
13.53333,22965
13.54167,23375
13.55000,23787
13.55833,24202
13.56667,24621
13.57500,25043
13.58333,25468
13.59167,25897
13.60000,26329
13.60833,26764
13.61667,27203
13.62500,27646
13.63333,28091
13.64167,28541
13.65000,28993
13.65833,29449
13.66667,29909
13.67500,30372
13.68333,30839
13.69167,31310
13.70000,31785
13.70833,32263
13.71667,32745
13.72500,33231
13.73333,33720
13.74167,34214
13.75000,34712
13.75833,35214
13.76667,35720
13.77500,36229
13.78333,36743
13.79167,37260
13.80000,37782
13.80833,38308
13.81667,38839
13.82500,39374
13.83333,39914
13.84167,40458
13.85000,41006
13.85833,41559
13.86667,42116
13.87500,42677
13.88333,43244
13.89167,43815
13.90000,44392
13.90833,44972
13.91667,45558
13.92500,46149
13.93333,46745
13.94167,47345
13.95000,47951
13.95833,48562
13.96667,49178
13.97500,49800
13.98333,50427
13.99167,51059
14.00000,51696
14.00833,52339
14.01667,52988
14.02500,53642
14.03333,54301
14.04167,54967
14.05000,55638
14.05833,56316
14.06667,56999
14.07500,57689
14.08333,58384
14.09167,59086
14.10000,59793
14.10833,60507
14.11667,61227
14.12500,61955
14.13333,62688
14.14167,63428
14.15000,64175
14.15833,64929
14.16667,65689
14.17500,66456
14.18333,67231
14.19167,68012
14.20000,68801
14.20833,69596
14.21667,70399
14.22500,71210
14.23333,72028
14.24167,72853
14.25000,73686
14.25833,74527
14.26667,75375
14.27500,76231
14.28333,77095
14.29167,77967
14.30000,78848
14.30833,79737
14.31667,80635
14.32500,81540
14.33333,82455
14.34167,83377
14.35000,84309
14.35833,85248
14.36667,86196
14.37500,87150
14.38333,88108
14.39167,89067
14.40000,90020
14.40833,90958
14.41667,91867
14.42500,92726
14.43333,93513
14.44167,94194
14.45000,94734
14.45833,95089
14.46667,95215
14.47500,95065
14.48333,94595
14.49167,93764
14.50000,92538
14.50833,90896
14.51667,88826
14.52500,86328
14.53333,83418
14.54167,80123
14.55000,76486
14.55833,72556
14.56667,68394
14.57500,64064
14.58333,59635
14.59167,55176
14.60000,50751
14.60833,46421
14.61667,42238
14.62500,38246
14.63333,34481
14.64167,30966
14.65000,27717
14.65833,24741
14.66667,22036
14.67500,19596
14.68333,17409
14.69167,15460
14.70000,13730
14.70833,12201
14.71667,10854
14.72500,9671
14.73333,8633
14.74167,7724
14.75000,6928
14.75833,6233
14.76667,5624
14.77500,5090
14.78333,4622
14.79167,4212
14.80000,3851
14.80833,3534
14.81667,3253
14.82500,3005
14.83333,2786
14.84167,2591
14.85000,2417
14.85833,2262
14.86667,2123
14.87500,1998
14.88333,1886
14.89167,1784
14.90000,1692
14.90833,1609
14.91667,1533
14.92500,1464
14.93333,1400
14.94167,1342
14.95000,1288
14.95833,1240
14.96667,1194
14.97500,1153
14.98333,1114
14.99167,1078
15.00000,1045
15.00833,1013
15.01667,984
15.02500,957
15.03333,932
15.04167,909
15.05000,887
15.05833,867
15.06667,848
15.07500,830
15.08333,813
15.09167,797
15.10000,782
15.10833,768
15.11667,754
15.12500,742
15.13333,730
15.14167,718
15.15000,707
15.15833,697
15.16667,686
15.17500,677
15.18333,667
15.19167,658
15.20000,649
15.20833,640
15.21667,632
15.22500,624
15.23333,616
15.24167,609
15.25000,601
15.25833,593
15.26667,586
15.27500,579
15.28333,572
15.29167,565
15.30000,558
15.30833,552
15.31667,545
15.32500,539
15.33333,534
15.34167,528
15.35000,523
15.35833,518
15.36667,513
15.37500,508
15.38333,503
15.39167,499
15.40000,494
15.40833,490
15.41667,485
15.42500,481
15.43333,477
15.44167,474
15.45000,470
15.45833,467
15.46667,464
15.47500,461
15.48333,458
15.49167,455
15.50000,452
15.50833,449
15.51667,447
15.52500,444
15.53333,442
15.54167,440
15.55000,437
15.55833,435
15.56667,433
15.57500,431
15.58333,429
15.59167,427
15.60000,425
15.60833,423
15.61667,421
15.62500,419
15.63333,417
15.64167,415
15.65000,414
15.65833,412
15.66667,410
15.67500,408
15.68333,406
15.69167,404
15.70000,402
15.70833,400
15.71667,399
15.72500,397
15.73333,395
15.74167,393
15.75000,391
15.75833,389
15.76667,386
15.77500,384
15.78333,382
15.79167,380
15.80000,379
15.80833,377
15.81667,375
15.82500,372
15.83333,370
15.84167,368
15.85000,366
15.85833,364
15.86667,362
15.87500,360
15.88333,358
15.89167,356
15.90000,354
15.90833,352
15.91667,349
15.92500,347
15.93333,345
15.94167,343
15.95000,341
15.95833,339
15.96667,336
15.97500,334
15.98333,332
15.99167,330
16.00000,328
16.00833,326
16.01667,323
16.02500,321
16.03333,319
16.04167,317
16.05000,315
16.05833,313
16.06667,311
16.07500,309
16.08333,308
16.09167,306
16.10000,304
16.10833,302
16.11667,300
16.12500,298
16.13333,296
16.14167,294
16.15000,292
16.15833,290
16.16667,289
16.17500,287
16.18333,285
16.19167,283
16.20000,281
16.20833,279
16.21667,277
16.22500,276
16.23333,274
16.24167,273
16.25000,272
16.25833,270
16.26667,268
16.27500,267
16.28333,265
16.29167,263
16.30000,261
16.30833,260
16.31667,258
16.32500,256
16.33333,255
16.34167,253
16.35000,252
16.35833,250
16.36667,249
16.37500,247
16.38333,246
16.39167,245
16.40000,243
16.40833,242
16.41667,240
16.42500,239
16.43333,238
16.44167,236
16.45000,235
16.45833,233
16.46667,232
16.47500,231
16.48333,229
16.49167,228
16.50000,227
16.50833,226
16.51667,225
16.52500,225
16.53333,223
16.54167,222
16.55000,221
16.55833,220
16.56667,218
16.57500,217
16.58333,216
16.59167,215
16.60000,214
16.60833,213
16.61667,213
16.62500,212
16.63333,211
16.64167,209
16.65000,208
16.65833,207
16.66667,207
16.67500,206
16.68333,206
16.69167,205
16.70000,204
16.70833,203
16.71667,203
16.72500,202
16.73333,201
16.74167,200
16.75000,199
16.75833,198
16.76667,197
16.77500,196
16.78333,196
16.79167,195
16.80000,194
16.80833,194
16.81667,193
16.82500,192
16.83333,191
16.84167,190
16.85000,189
16.85833,188
16.86667,187
16.87500,186
16.88333,185
16.89167,185
16.90000,184
16.90833,182
16.91667,181
16.92500,180
16.93333,179
16.94167,178
16.95000,177
16.95833,176
16.96667,175
16.97500,174
16.98333,173
16.99167,172
17.00000,171
17.00833,171
17.01667,169
17.02500,168
17.03333,167
17.04167,167
17.05000,166
17.05833,165
17.06667,164
17.07500,163
17.08333,162
17.09167,162
17.10000,161
17.10833,160
17.11667,159
17.12500,158
17.13333,156
17.14167,155
17.15000,154
17.15833,153
17.16667,152
17.17500,151
17.18333,150
17.19167,150
17.20000,149
17.20833,149
17.21667,148
17.22500,147
17.23333,147
17.24167,146
17.25000,145
17.25833,145
17.26667,144
17.27500,143
17.28333,142
17.29167,141
17.30000,141
17.30833,140
17.31667,140
17.32500,140
17.33333,139
17.34167,139
17.35000,138
17.35833,138
17.36667,137
17.37500,136
17.38333,135
17.39167,134
17.40000,133
17.40833,133
17.41667,132
17.42500,132
17.43333,132
17.44167,131
17.45000,131
17.45833,130
17.46667,129
17.47500,129
17.48333,128
17.49167,128
17.50000,127
17.50833,126
17.51667,126
17.52500,125
17.53333,124
17.54167,123
17.55000,123
17.55833,122
17.56667,122
17.57500,122
17.58333,121
17.59167,121
17.60000,120
17.60833,120
17.61667,119
17.62500,118
17.63333,117
17.64167,116
17.65000,115
17.65833,115
17.66667,114
17.67500,113
17.68333,113
17.69167,113
17.70000,112
17.70833,111
17.71667,110
17.72500,110
17.73333,109
17.74167,109
17.75000,109
17.75833,108
17.76667,108
17.77500,108
17.78333,107
17.79167,107
17.80000,106
17.80833,106
17.81667,106
17.82500,106
17.83333,106
17.84167,105
17.85000,105
17.85833,105
17.86667,105
17.87500,105
17.88333,105
17.89167,105
17.90000,105
17.90833,105
17.91667,105
17.92500,105
17.93333,105
17.94167,105
17.95000,105
17.95833,105
17.96667,105
17.97500,106
17.98333,105
17.99167,105
18.00000,105
18.00833,105
18.01667,105
18.02500,105
18.03333,105
18.04167,105
18.05000,105
18.05833,105
18.06667,104
18.07500,104
18.08333,104
18.09167,104
18.10000,104
18.10833,103
18.11667,102
18.12500,102
18.13333,101
18.14167,100
18.15000,100
18.15833,99
18.16667,99
18.17500,98
18.18333,97
18.19167,96
18.20000,96
18.20833,95
18.21667,94
18.22500,93
18.23333,92
18.24167,91
18.25000,90
18.25833,89
18.26667,89
18.27500,88
18.28333,87
18.29167,86
18.30000,84
18.30833,83
18.31667,82
18.32500,80
18.33333,79
18.34167,78
18.35000,78
18.35833,77
18.36667,76
18.37500,75
18.38333,74
18.39167,73
18.40000,72
18.40833,72
18.41667,71
18.42500,70
18.43333,70
18.44167,69
18.45000,69
18.45833,68
18.46667,68
18.47500,67
18.48333,67
18.49167,67
18.50000,67
18.50833,67
18.51667,67
18.52500,67
18.53333,67
18.54167,67
18.55000,68
18.55833,68
18.56667,68
18.57500,68
18.58333,68
18.59167,69
18.60000,69
18.60833,69
18.61667,70
18.62500,70
18.63333,71
18.64167,72
18.65000,73
18.65833,74
18.66667,75
18.67500,76
18.68333,77
18.69167,77
18.70000,78
18.70833,79
18.71667,80
18.72500,81
18.73333,82
18.74167,83
18.75000,85
18.75833,86
18.76667,88
18.77500,89
18.78333,90
18.79167,91
18.80000,92
18.80833,94
18.81667,95
18.82500,97
18.83333,98
18.84167,100
18.85000,102
18.85833,103
18.86667,105
18.87500,106
18.88333,107
18.89167,109
18.90000,110
18.90833,112
18.91667,114
18.92500,115
18.93333,117
18.94167,118
18.95000,120
18.95833,121
18.96667,122
18.97500,123
18.98333,124
18.99167,125
19.00000,125
19.00833,126
19.01667,127
19.02500,127
19.03333,127
19.04167,127
19.05000,126
19.05833,125
19.06667,125
19.07500,124
19.08333,123
19.09167,122
19.10000,121
19.10833,119
19.11667,118
19.12500,117
19.13333,115
19.14167,114
19.15000,112
19.15833,110
19.16667,108
19.17500,106
19.18333,104
19.19167,101
19.20000,99
19.20833,96
19.21667,94
19.22500,91
19.23333,88
19.24167,86
19.25000,83
19.25833,81
19.26667,78
19.27500,76
19.28333,74
19.29167,72
19.30000,69
19.30833,67
19.31667,64
19.32500,62
19.33333,59
19.34167,57
19.35000,55
19.35833,54
19.36667,52
19.37500,50
19.38333,49
19.39167,47
19.40000,46
19.40833,44
19.41667,43
19.42500,41
19.43333,40
19.44167,39
19.45000,38
19.45833,37
19.46667,36
19.47500,36
19.48333,35
19.49167,35
19.50000,35
19.50833,34
19.51667,34
19.52500,34
19.53333,34
19.54167,34
19.55000,34
19.55833,35
19.56667,35
19.57500,35
19.58333,36
19.59167,36
19.60000,37
19.60833,37
19.61667,38
19.62500,38
19.63333,39
19.64167,40
19.65000,41
19.65833,42
19.66667,43
19.67500,44
19.68333,45
19.69167,46
19.70000,47
19.70833,48
19.71667,49
19.72500,50
19.73333,51
19.74167,52
19.75000,53
19.75833,55
19.76667,56
19.77500,57
19.78333,58
19.79167,58
19.80000,59
19.80833,60
19.81667,61
19.82500,62
19.83333,63
19.84167,63
19.85000,64
19.85833,65
19.86667,66
19.87500,67
19.88333,67
19.89167,68
19.90000,68
19.90833,69
19.91667,69
19.92500,70
19.93333,70
19.94167,70
19.95000,71
19.95833,71
19.96667,71
19.97500,71
19.98333,71
19.99167,72
20.00000,72
20.00833,72
20.01667,72
20.02500,72
20.03333,71
20.04167,71
20.05000,71
20.05833,71
20.06667,71
20.07500,71
20.08333,71
20.09167,70
20.10000,70
20.10833,70
20.11667,69
20.12500,69
20.13333,68
20.14167,68
20.15000,67
20.15833,67
20.16667,67
20.17500,67
20.18333,66
20.19167,66
20.20000,66
20.20833,66
20.21667,66
20.22500,65
20.23333,65
20.24167,64
20.25000,64
20.25833,63
20.26667,63
20.27500,62
20.28333,62
20.29167,62
20.30000,61
20.30833,61
20.31667,61
20.32500,61
20.33333,60
20.34167,60
20.35000,60
20.35833,60
20.36667,59
20.37500,58
20.38333,58
20.39167,58
20.40000,57
20.40833,57
20.41667,57
20.42500,57
20.43333,57
20.44167,56
20.45000,56
20.45833,56
20.46667,55
20.47500,55
20.48333,55
20.49167,55
20.50000,55
20.50833,55
20.51667,55
20.52500,55
20.53333,55
20.54167,54
20.55000,54
20.55833,54
20.56667,53
20.57500,53
20.58333,53
20.59167,53
20.60000,53
20.60833,52
20.61667,52
20.62500,52
20.63333,52
20.64167,51
20.65000,51
20.65833,50
20.66667,50
20.67500,50
20.68333,50
20.69167,50
20.70000,50
20.70833,50
20.71667,50
20.72500,50
20.73333,50
20.74167,50
20.75000,50
20.75833,50
20.76667,50
20.77500,50
20.78333,50
20.79167,50
20.80000,49
20.80833,49
20.81667,49
20.82500,49
20.83333,49
20.84167,49
20.85000,49
20.85833,49
20.86667,49
20.87500,49
20.88333,49
20.89167,48
20.90000,48
20.90833,48
20.91667,48
20.92500,48
20.93333,48
20.94167,49
20.95000,49
20.95833,49
20.96667,49
20.97500,49
20.98333,48
20.99167,48
21.00000,48
21.00833,47
21.01667,47
21.02500,47
21.03333,47
21.04167,47
21.05000,47
21.05833,47
21.06667,47
21.07500,46
21.08333,46
21.09167,45
21.10000,45
21.10833,45
21.11667,45
21.12500,45
21.13333,45
21.14167,45
21.15000,45
21.15833,45
21.16667,45
21.17500,44
21.18333,44
21.19167,44
21.20000,44
21.20833,43
21.21667,43
21.22500,43
21.23333,43
21.24167,43
21.25000,43
21.25833,43
21.26667,42
21.27500,42
21.28333,42
21.29167,42
21.30000,42
21.30833,41
21.31667,41
21.32500,41
21.33333,41
21.34167,41
21.35000,41
21.35833,41
21.36667,41
21.37500,40
21.38333,40
21.39167,40
21.40000,39
21.40833,39
21.41667,39
21.42500,38
21.43333,38
21.44167,38
21.45000,38
21.45833,38
21.46667,37
21.47500,37
21.48333,37
21.49167,37
21.50000,37
21.50833,37
21.51667,36
21.52500,35
21.53333,35
21.54167,34
21.55000,34
21.55833,33
21.56667,33
21.57500,32
21.58333,31
21.59167,31
21.60000,30
21.60833,30
21.61667,29
21.62500,29
21.63333,29
21.64167,28
21.65000,28
21.65833,27
21.66667,27
21.67500,26
21.68333,25
21.69167,24
21.70000,24
21.70833,24
21.71667,24
21.72500,24
21.73333,24
21.74167,23
21.75000,23
21.75833,22
21.76667,22
21.77500,22
21.78333,22
21.79167,22
21.80000,22
21.80833,23
21.81667,23
21.82500,23
21.83333,23
21.84167,24
21.85000,24
21.85833,25
21.86667,26
21.87500,27
21.88333,27
21.89167,28
21.90000,29
21.90833,30
21.91667,31
21.92500,32
21.93333,32
21.94167,33
21.95000,34
21.95833,35
21.96667,36
21.97500,36
21.98333,37
21.99167,38
22.00000,39
22.00833,41
22.01667,42
22.02500,43
22.03333,44
22.04167,44
22.05000,45
22.05833,46
22.06667,47
22.07500,47
22.08333,48
22.09167,48
22.10000,49
22.10833,49
22.11667,50
22.12500,51
22.13333,51
22.14167,52
22.15000,53
22.15833,54
22.16667,54
22.17500,55
22.18333,56
22.19167,56
22.20000,57
22.20833,57
22.21667,58
22.22500,58
22.23333,58
22.24167,58
22.25000,58
22.25833,58
22.26667,59
22.27500,59
22.28333,59
22.29167,60
22.30000,60
22.30833,59
22.31667,59
22.32500,59
22.33333,59
22.34167,59
22.35000,60
22.35833,60
22.36667,60
22.37500,60
22.38333,60
22.39167,59
22.40000,59
22.40833,59
22.41667,59
22.42500,59
22.43333,59
22.44167,59
22.45000,59
22.45833,59
22.46667,60
22.47500,59
22.48333,59
22.49167,59
22.50000,59
22.50833,58
22.51667,58
22.52500,57
22.53333,57
22.54167,56
22.55000,56
22.55833,55
22.56667,55
22.57500,55
22.58333,54
22.59167,54
22.60000,53
22.60833,53
22.61667,52
22.62500,52
22.63333,52
22.64167,52
22.65000,52
22.65833,52
22.66667,51
22.67500,51
22.68333,50
22.69167,50
22.70000,49
22.70833,49
22.71667,49
22.72500,48
22.73333,48
22.74167,48
22.75000,47
22.75833,47
22.76667,46
22.77500,46
22.78333,46
22.79167,46
22.80000,46
22.80833,46
22.81667,46
22.82500,45
22.83333,45
22.84167,45
22.85000,45
22.85833,45
22.86667,45
22.87500,44
22.88333,44
22.89167,44
22.90000,43
22.90833,43
22.91667,43
22.92500,43
22.93333,44
22.94167,44
22.95000,44
22.95833,45
22.96667,45
22.97500,45
22.98333,45
22.99167,45
23.00000,45
23.00833,45
23.01667,45
23.02500,46
23.03333,46
23.04167,46
23.05000,46
23.05833,46
23.06667,47
23.07500,47
23.08333,47
23.09167,47
23.10000,47
23.10833,47
23.11667,47
23.12500,47
23.13333,47
23.14167,47
23.15000,48
23.15833,48
23.16667,48
23.17500,48
23.18333,49
23.19167,49
23.20000,49
23.20833,49
23.21667,50
23.22500,50
23.23333,51
23.24167,51
23.25000,51
23.25833,52
23.26667,52
23.27500,52
23.28333,53
23.29167,53
23.30000,53
23.30833,53
23.31667,54
23.32500,54
23.33333,54
23.34167,54
23.35000,54
23.35833,54
23.36667,54
23.37500,54
23.38333,54
23.39167,54
23.40000,54
23.40833,54
23.41667,54
23.42500,54
23.43333,54
23.44167,54
23.45000,54
23.45833,54
23.46667,54
23.47500,54
23.48333,54
23.49167,54
23.50000,55
23.50833,55
23.51667,54
23.52500,54
23.53333,53
23.54167,53
23.55000,53
23.55833,53
23.56667,53
23.57500,52
23.58333,52
23.59167,52
23.60000,52
23.60833,51
23.61667,51
23.62500,51
23.63333,51
23.64167,51
23.65000,50
23.65833,50
23.66667,49
23.67500,49
23.68333,48
23.69167,48
23.70000,47
23.70833,47
23.71667,47
23.72500,47
23.73333,46
23.74167,46
23.75000,46
23.75833,46
23.76667,45
23.77500,45
23.78333,45
23.79167,45
23.80000,45
23.80833,45
23.81667,45
23.82500,44
23.83333,44
23.84167,44
23.85000,44
23.85833,44
23.86667,44
23.87500,44
23.88333,44
23.89167,44
23.90000,44
23.90833,43
23.91667,43
23.92500,43
23.93333,43
23.94167,43
23.95000,43
23.95833,43
23.96667,43
23.97500,43
23.98333,44
23.99167,44
24.00000,44
24.00833,44
24.01667,45
24.02500,45
24.03333,45
24.04167,45
24.05000,45
24.05833,45
24.06667,45
24.07500,45
24.08333,45
24.09167,46
24.10000,46
24.10833,46
24.11667,46
24.12500,47
24.13333,47
24.14167,48
24.15000,48
24.15833,49
24.16667,49
24.17500,49
24.18333,49
24.19167,49
24.20000,49
24.20833,49
24.21667,49
24.22500,49
24.23333,49
24.24167,49
24.25000,49
24.25833,49
24.26667,49
24.27500,49
24.28333,49
24.29167,49
24.30000,49
24.30833,49
24.31667,49
24.32500,48
24.33333,48
24.34167,48
24.35000,48
24.35833,48
24.36667,48
24.37500,48
24.38333,48
24.39167,48
24.40000,47
24.40833,47
24.41667,47
24.42500,46
24.43333,46
24.44167,46
24.45000,46
24.45833,45
24.46667,45
24.47500,44
24.48333,44
24.49167,43
24.50000,42
24.50833,42
24.51667,41
24.52500,41
24.53333,40
24.54167,40
24.55000,39
24.55833,39
24.56667,39
24.57500,39
24.58333,39
24.59167,38
24.60000,38
24.60833,37
24.61667,37
24.62500,37
24.63333,37
24.64167,37
24.65000,37
24.65833,37
24.66667,36
24.67500,37
24.68333,36
24.69167,36
24.70000,36
24.70833,36
24.71667,36
24.72500,36
24.73333,36
24.74167,36
24.75000,36
24.75833,36
24.76667,36
24.77500,36
24.78333,36
24.79167,36
24.80000,36
24.80833,35
24.81667,34
24.82500,34
24.83333,34
24.84167,34
24.85000,34
24.85833,34
24.86667,35
24.87500,35
24.88333,35
24.89167,34
24.90000,34
24.90833,34
24.91667,34
24.92500,34
24.93333,34
24.94167,34
24.95000,34
24.95833,35
24.96667,34
24.97500,34
24.98333,33
24.99167,33
25.00000,33
25.00833,32
25.01667,32
25.02500,33
25.03333,33
25.04167,33
25.05000,33
25.05833,33
25.06667,33
25.07500,33
25.08333,33
25.09167,33
25.10000,33
25.10833,34
25.11667,34
25.12500,34
25.13333,34
25.14167,35
25.15000,35
25.15833,36
25.16667,36
25.17500,36
25.18333,37
25.19167,37
25.20000,37
25.20833,38
25.21667,38
25.22500,38
25.23333,39
25.24167,40
25.25000,40
25.25833,41
25.26667,42
25.27500,42
25.28333,43
25.29167,43
25.30000,43
25.30833,44
25.31667,44
25.32500,44
25.33333,45
25.34167,45
25.35000,46
25.35833,46
25.36667,46
25.37500,46
25.38333,46
25.39167,47
25.40000,47
25.40833,48
25.41667,48
25.42500,48
25.43333,49
25.44167,49
25.45000,49
25.45833,50
25.46667,50
25.47500,51
25.48333,51
25.49167,51
25.50000,51
25.50833,51
25.51667,52
25.52500,52
25.53333,52
25.54167,52
25.55000,52
25.55833,52
25.56667,52
25.57500,52
25.58333,52
25.59167,52
25.60000,51
25.60833,51
25.61667,51
25.62500,51
25.63333,51
25.64167,51
25.65000,50
25.65833,49
25.66667,48
25.67500,47
25.68333,47
25.69167,47
25.70000,46
25.70833,46
25.71667,45
25.72500,44
25.73333,44
25.74167,44
25.75000,43
25.75833,43
25.76667,42
25.77500,42
25.78333,41
25.79167,41
25.80000,40
25.80833,40
25.81667,39
25.82500,39
25.83333,39
25.84167,38
25.85000,38
25.85833,38
25.86667,37
25.87500,37
25.88333,36
25.89167,36
25.90000,36
25.90833,36
25.91667,35
25.92500,35
25.93333,35
25.94167,35
25.95000,35
25.95833,36
25.96667,36
25.97500,36
25.98333,36
25.99167,36
26.00000,36
26.00833,36
26.01667,37
26.02500,37
26.03333,38
26.04167,38
26.05000,39
26.05833,39
26.06667,40
26.07500,40
26.08333,41
26.09167,41
26.10000,42
26.10833,42
26.11667,43
26.12500,44
26.13333,45
26.14167,45
26.15000,46
26.15833,46
26.16667,47
26.17500,47
26.18333,48
26.19167,48
26.20000,49
26.20833,49
26.21667,50
26.22500,51
26.23333,52
26.24167,53
26.25000,54
26.25833,54
26.26667,55
26.27500,55
26.28333,55
26.29167,56
26.30000,56
26.30833,56
26.31667,57
26.32500,58
26.33333,58
26.34167,58
26.35000,58
26.35833,58
26.36667,58
26.37500,59
26.38333,59
26.39167,59
26.40000,59
26.40833,59
26.41667,58
26.42500,58
26.43333,58
26.44167,58
26.45000,57
26.45833,56
26.46667,56
26.47500,56
26.48333,55
26.49167,54
26.50000,54
26.50833,53
26.51667,53
26.52500,52
26.53333,51
26.54167,50
26.55000,49
26.55833,49
26.56667,48
26.57500,47
26.58333,47
26.59167,46
26.60000,45
26.60833,44
26.61667,44
26.62500,43
26.63333,42
26.64167,41
26.65000,40
26.65833,39
26.66667,38
26.67500,37
26.68333,37
26.69167,36
26.70000,36
26.70833,35
26.71667,34
26.72500,33
26.73333,32
26.74167,32
26.75000,31
26.75833,30
26.76667,29
26.77500,29
26.78333,28
26.79167,28
26.80000,27
26.80833,27
26.81667,27
26.82500,27
26.83333,27
26.84167,27
26.85000,27
26.85833,27
26.86667,26
26.87500,26
26.88333,26
26.89167,26
26.90000,26
26.90833,26
26.91667,27
26.92500,27
26.93333,27
26.94167,28
26.95000,28
26.95833,28
26.96667,29
26.97500,30
26.98333,30
26.99167,31
27.00000,32
27.00833,33
27.01667,34
27.02500,35
27.03333,36
27.04167,36
27.05000,37
27.05833,38
27.06667,39
27.07500,39
27.08333,39
27.09167,40
27.10000,40
27.10833,41
27.11667,41
27.12500,42
27.13333,42
27.14167,43
27.15000,43
27.15833,44
27.16667,44
27.17500,45
27.18333,45
27.19167,45
27.20000,45
27.20833,45
27.21667,45
27.22500,45
27.23333,45
27.24167,45
27.25000,45
27.25833,45
27.26667,45
27.27500,45
27.28333,45
27.29167,44
27.30000,44
27.30833,44
27.31667,44
27.32500,44
27.33333,44
27.34167,44
27.35000,43
27.35833,43
27.36667,43
27.37500,43
27.38333,43
27.39167,43
27.40000,43
27.40833,43
27.41667,43
27.42500,42
27.43333,42
27.44167,42
27.45000,42
27.45833,42
27.46667,42
27.47500,42
27.48333,42
27.49167,43
27.50000,43
27.50833,43
27.51667,43
27.52500,43
27.53333,44
27.54167,44
27.55000,45
27.55833,46
27.56667,46
27.57500,46
27.58333,46
27.59167,47
27.60000,47
27.60833,47
27.61667,48
27.62500,49
27.63333,49
27.64167,50
27.65000,50
27.65833,51
27.66667,51
27.67500,51
27.68333,51
27.69167,52
27.70000,52
27.70833,53
27.71667,53
27.72500,54
27.73333,54
27.74167,54
27.75000,54
27.75833,54
27.76667,54
27.77500,53
27.78333,52
27.79167,52
27.80000,51
27.80833,51
27.81667,51
27.82500,51
27.83333,50
27.84167,49
27.85000,48
27.85833,48
27.86667,46
27.87500,45
27.88333,44
27.89167,42
27.90000,41
27.90833,39
27.91667,38
27.92500,36
27.93333,34
27.94167,32
27.95000,30
27.95833,27
27.96667,24
27.97500,22
27.98333,19
27.99167,17
28.00000,14
28.00833,11
28.01667,9
28.02500,6
28.03333,3
28.04167,0
28.05000,-3
28.05833,-6
28.06667,-9
28.07500,-12
28.08333,-16
28.09167,-19
28.10000,-22
28.10833,-26
28.11667,-29
28.12500,-33
28.13333,-36
28.14167,-39
28.15000,-43
28.15833,-46
28.16667,-49
28.17500,-53
28.18333,-56
28.19167,-59
28.20000,-61
28.20833,-64
28.21667,-67
28.22500,-70
28.23333,-72
28.24167,-74
28.25000,-76
28.25833,-78
28.26667,-80
28.27500,-82
28.28333,-84
28.29167,-85
28.30000,-86
28.30833,-87
28.31667,-88
28.32500,-88
28.33333,-88
28.34167,-88
28.35000,-88
28.35833,-87
28.36667,-87
28.37500,-87
28.38333,-87
28.39167,-86
28.40000,-85
28.40833,-84
28.41667,-82
28.42500,-81
28.43333,-79
28.44167,-77
28.45000,-76
28.45833,-74
28.46667,-72
28.47500,-71
28.48333,-69
28.49167,-66
28.50000,-64
28.50833,-62
28.51667,-60
28.52500,-58
28.53333,-55
28.54167,-53
28.55000,-51
28.55833,-49
28.56667,-47
28.57500,-45
28.58333,-43
28.59167,-41
28.60000,-39
28.60833,-37
28.61667,-35
28.62500,-34
28.63333,-32
28.64167,-30
28.65000,-29
28.65833,-27
28.66667,-25
28.67500,-24
28.68333,-23
28.69167,-22
28.70000,-20
28.70833,-19
28.71667,-18
28.72500,-17
28.73333,-16
28.74167,-15
28.75000,-14
28.75833,-13
28.76667,-13
28.77500,-12
28.78333,-11
28.79167,-10
28.80000,-9
28.80833,-8
28.81667,-7
28.82500,-6
28.83333,-5
28.84167,-4
28.85000,-3
28.85833,-2
28.86667,-1
28.87500,-0
28.88333,1
28.89167,2
28.90000,3
28.90833,4
28.91667,5
28.92500,6
28.93333,7
28.94167,8
28.95000,9
28.95833,11
28.96667,12
28.97500,13
28.98333,15
28.99167,16
29.00000,18
29.00833,19
29.01667,20
29.02500,21
29.03333,22
29.04167,24
29.05000,25
29.05833,26
29.06667,27
29.07500,28
29.08333,30
29.09167,31
29.10000,32
29.10833,34
29.11667,35
29.12500,36
29.13333,37
29.14167,38
29.15000,39
29.15833,40
29.16667,41
29.17500,42
29.18333,43
29.19167,44
29.20000,45
29.20833,45
29.21667,46
29.22500,47
29.23333,48
29.24167,49
29.25000,49
29.25833,50
29.26667,51
29.27500,51
29.28333,52
29.29167,53
29.30000,54
29.30833,54
29.31667,54
29.32500,55
29.33333,55
29.34167,56
29.35000,56
29.35833,57
29.36667,57
29.37500,58
29.38333,58
29.39167,59
29.40000,59
29.40833,58
29.41667,59
29.42500,59
29.43333,59
29.44167,60
29.45000,60
29.45833,60
29.46667,60
29.47500,60
29.48333,60
29.49167,61
29.50000,62
29.50833,62
29.51667,63
29.52500,63
29.53333,63
29.54167,63
29.55000,63
29.55833,63
29.56667,63
29.57500,63
29.58333,62
29.59167,62
29.60000,62
29.60833,62
29.61667,62
29.62500,62
29.63333,61
29.64167,61
29.65000,60
29.65833,60
29.66667,60
29.67500,59
29.68333,58
29.69167,58
29.70000,57
29.70833,56
29.71667,55
29.72500,54
29.73333,53
29.74167,52
29.75000,51
29.75833,50
29.76667,49
29.77500,47
29.78333,46
29.79167,45
29.80000,44
29.80833,43
29.81667,42
29.82500,41
29.83333,39
29.84167,38
29.85000,37
29.85833,35
29.86667,34
29.87500,33
29.88333,31
29.89167,30
29.90000,29
29.90833,28
29.91667,27
29.92500,26
29.93333,25
29.94167,23
29.95000,22
29.95833,21
29.96667,20
29.97500,18
29.98333,16
29.99167,15
30.00000,14
30.00833,12
30.01667,11
30.02500,9
30.03333,7
30.04167,6
30.05000,5
30.05833,5
30.06667,4
30.07500,3
30.08333,3
30.09167,2
30.10000,1
30.10833,0
30.11667,-0
30.12500,-1
30.13333,-2
30.14167,-3
30.15000,-3
30.15833,-3
30.16667,-4
30.17500,-4
30.18333,-5
30.19167,-5
30.20000,-6
30.20833,-6
30.21667,-6
30.22500,-7
30.23333,-7
30.24167,-7
30.25000,-7
30.25833,-7
30.26667,-7
30.27500,-7
30.28333,-7
30.29167,-8
30.30000,-8
30.30833,-8
30.31667,-8
30.32500,-8
30.33333,-8
30.34167,-8
30.35000,-8
30.35833,-8
30.36667,-7
30.37500,-7
30.38333,-6
30.39167,-6
30.40000,-5
30.40833,-5
30.41667,-5
30.42500,-4
30.43333,-4
30.44167,-3
30.45000,-2
30.45833,-2
30.46667,-1
30.47500,-1
30.48333,-0
30.49167,0
30.50000,1
30.50833,1
30.51667,2
30.52500,2
30.53333,3
30.54167,3
30.55000,4
30.55833,5
30.56667,5
30.57500,6
30.58333,6
30.59167,7
30.60000,8
30.60833,8
30.61667,9
30.62500,10
30.63333,11
30.64167,12
30.65000,13
30.65833,14
30.66667,15
30.67500,16
30.68333,17
30.69167,18
30.70000,19
30.70833,20
30.71667,22
30.72500,23
30.73333,24
30.74167,25
30.75000,26
30.75833,27
30.76667,28
30.77500,29
30.78333,30
30.79167,32
30.80000,33
30.80833,33
30.81667,34
30.82500,34
30.83333,35
30.84167,36
30.85000,37
30.85833,38
30.86667,40
30.87500,40
30.88333,41
30.89167,41
30.90000,42
30.90833,42
30.91667,43
30.92500,44
30.93333,44
30.94167,45
30.95000,45
30.95833,46
30.96667,46
30.97500,46
30.98333,47
30.99167,47
31.00000,47
31.00833,48
31.01667,47
31.02500,47
31.03333,47
31.04167,47
31.05000,47
31.05833,47
31.06667,47
31.07500,48
31.08333,48
31.09167,48
31.10000,47
31.10833,47
31.11667,46
31.12500,46
31.13333,46
31.14167,46
31.15000,45
31.15833,45
31.16667,44
31.17500,44
31.18333,44
31.19167,43
31.20000,43
31.20833,43
31.21667,43
31.22500,43
31.23333,43
31.24167,43
31.25000,43
31.25833,43
31.26667,43
31.27500,42
31.28333,42
31.29167,42
31.30000,41
31.30833,41
31.31667,41
31.32500,40
31.33333,40
31.34167,40
31.35000,40
31.35833,40
31.36667,39
31.37500,39
31.38333,39
31.39167,38
31.40000,38
31.40833,37
31.41667,37
31.42500,37
31.43333,37
31.44167,37
31.45000,37
31.45833,38
31.46667,38
31.47500,38
31.48333,38
31.49167,38
31.50000,39
31.50833,39
31.51667,39
31.52500,39
31.53333,39
31.54167,39
31.55000,39
31.55833,40
31.56667,41
31.57500,41
31.58333,42
31.59167,42
31.60000,42
31.60833,43
31.61667,43
31.62500,43
31.63333,43
31.64167,43
31.65000,44
31.65833,44
31.66667,45
31.67500,45
31.68333,46
31.69167,46
31.70000,47
31.70833,47
31.71667,47
31.72500,47
31.73333,48
31.74167,48
31.75000,48
31.75833,48
31.76667,49
31.77500,49
31.78333,49
31.79167,49
31.80000,49
31.80833,49
31.81667,49
31.82500,50
31.83333,50
31.84167,50
31.85000,50
31.85833,50
31.86667,50
31.87500,50
31.88333,50
31.89167,50
31.90000,49
31.90833,49
31.91667,49
31.92500,49
31.93333,49
31.94167,49
31.95000,49
31.95833,49
31.96667,48
31.97500,48
31.98333,48
31.99167,47
32.00000,47
32.00833,47
32.01667,46
32.02500,45
32.03333,45
32.04167,44
32.05000,44
32.05833,43
32.06667,43
32.07500,43
32.08333,43
32.09167,42
32.10000,42
32.10833,42
32.11667,42
32.12500,41
32.13333,41
32.14167,40
32.15000,39
32.15833,38
32.16667,37
32.17500,36
32.18333,35
32.19167,34
32.20000,34
32.20833,33
32.21667,33
32.22500,32
32.23333,31
32.24167,30
32.25000,29
32.25833,29
32.26667,28
32.27500,27
32.28333,26
32.29167,26
32.30000,25
32.30833,25
32.31667,24
32.32500,23
32.33333,22
32.34167,22
32.35000,21
32.35833,20
32.36667,20
32.37500,19
32.38333,19
32.39167,19
32.40000,19
32.40833,19
32.41667,18
32.42500,18
32.43333,18
32.44167,18
32.45000,17
32.45833,17
32.46667,17
32.47500,17
32.48333,17
32.49167,17
32.50000,17
32.50833,17
32.51667,18
32.52500,19
32.53333,19
32.54167,20
32.55000,20
32.55833,20
32.56667,21
32.57500,21
32.58333,22
32.59167,22
32.60000,23
32.60833,23
32.61667,23
32.62500,24
32.63333,24
32.64167,25
32.65000,26
32.65833,27
32.66667,28
32.67500,29
32.68333,29
32.69167,30
32.70000,30
32.70833,31
32.71667,31
32.72500,32
32.73333,32
32.74167,33
32.75000,34
32.75833,34
32.76667,34
32.77500,35
32.78333,35
32.79167,36
32.80000,36
32.80833,37
32.81667,37
32.82500,37
32.83333,38
32.84167,38
32.85000,38
32.85833,38
32.86667,38
32.87500,39
32.88333,39
32.89167,40
32.90000,40
32.90833,40
32.91667,39
32.92500,39
32.93333,39
32.94167,38
32.95000,38
32.95833,38
32.96667,38
32.97500,38
32.98333,37
32.99167,37
33.00000,37
33.00833,37
33.01667,37
33.02500,37
33.03333,36
33.04167,36
33.05000,36
33.05833,35
33.06667,35
33.07500,35
33.08333,35
33.09167,35
33.10000,34
33.10833,34
33.11667,34
33.12500,33
33.13333,32
33.14167,31
33.15000,31
33.15833,30
33.16667,30
33.17500,29
33.18333,29
33.19167,29
33.20000,28
33.20833,28
33.21667,28
33.22500,27
33.23333,27
33.24167,26
33.25000,26
33.25833,26
33.26667,26
33.27500,26
33.28333,25
33.29167,25
33.30000,25
33.30833,25
33.31667,25
33.32500,25
33.33333,24
33.34167,24
33.35000,24
33.35833,24
33.36667,24
33.37500,24
33.38333,24
33.39167,24
33.40000,25
33.40833,25
33.41667,26
33.42500,26
33.43333,26
33.44167,26
33.45000,26
33.45833,26
33.46667,26
33.47500,26
33.48333,26
33.49167,26
33.50000,27
33.50833,27
33.51667,28
33.52500,28
33.53333,28
33.54167,28
33.55000,29
33.55833,29
33.56667,29
33.57500,29
33.58333,29
33.59167,29
33.60000,30
33.60833,30
33.61667,31
33.62500,31
33.63333,31
33.64167,31
33.65000,31
33.65833,31
33.66667,32
33.67500,32
33.68333,32
33.69167,33
33.70000,33
33.70833,33
33.71667,33
33.72500,33
33.73333,33
33.74167,33
33.75000,33
33.75833,34
33.76667,34
33.77500,34
33.78333,34
33.79167,34
33.80000,34
33.80833,35
33.81667,35
33.82500,35
33.83333,35
33.84167,35
33.85000,34
33.85833,34
33.86667,34
33.87500,34
33.88333,34
33.89167,35
33.90000,34
33.90833,35
33.91667,35
33.92500,35
33.93333,35
33.94167,35
33.95000,35
33.95833,35
33.96667,35
33.97500,35
33.98333,35
33.99167,35
34.00000,35
34.00833,35
34.01667,35
34.02500,35
34.03333,35
34.04167,34
34.05000,34
34.05833,34
34.06667,34
34.07500,33
34.08333,33
34.09167,33
34.10000,33
34.10833,33
34.11667,33
34.12500,32
34.13333,32
34.14167,32
34.15000,32
34.15833,32
34.16667,31
34.17500,31
34.18333,31
34.19167,31
34.20000,31
34.20833,31
34.21667,32
34.22500,32
34.23333,32
34.24167,32
34.25000,32
34.25833,32
34.26667,32
34.27500,32
34.28333,31
34.29167,32
34.30000,32
34.30833,32
34.31667,32
34.32500,32
34.33333,32
34.34167,32
34.35000,32
34.35833,32
34.36667,32
34.37500,32
34.38333,32
34.39167,33
34.40000,33
34.40833,33
34.41667,34
34.42500,34
34.43333,34
34.44167,34
34.45000,35
34.45833,35
34.46667,35
34.47500,36
34.48333,36
34.49167,36
34.50000,36
34.50833,36
34.51667,35
34.52500,35
34.53333,36
34.54167,36
34.55000,36
34.55833,36
34.56667,36
34.57500,36
34.58333,37
34.59167,37
34.60000,37
34.60833,37
34.61667,37
34.62500,37
34.63333,37
34.64167,37
34.65000,37
34.65833,37
34.66667,37
34.67500,37
34.68333,37
34.69167,37
34.70000,37
34.70833,37
34.71667,37
34.72500,37
34.73333,38
34.74167,38
34.75000,38
34.75833,39
34.76667,39
34.77500,39
34.78333,39
34.79167,39
34.80000,39
34.80833,38
34.81667,39
34.82500,39
34.83333,39
34.84167,39
34.85000,39
34.85833,40
34.86667,40
34.87500,40
34.88333,40
34.89167,40
34.90000,40
34.90833,40
34.91667,40
34.92500,40
34.93333,40
34.94167,40
34.95000,41
34.95833,41
34.96667,41
34.97500,41
34.98333,40
34.99167,40
35.00000,41
35.00833,41
35.01667,41
35.02500,41
35.03333,41
35.04167,41
35.05000,40
35.05833,39
35.06667,39
35.07500,39
35.08333,39
35.09167,38
35.10000,38
35.10833,38
35.11667,37
35.12500,37
35.13333,37
35.14167,36
35.15000,36
35.15833,35
35.16667,35
35.17500,34
35.18333,34
35.19167,33
35.20000,33
35.20833,33
35.21667,32
35.22500,32
35.23333,32
35.24167,31
35.25000,31
35.25833,31
35.26667,30
35.27500,29
35.28333,29
35.29167,29
35.30000,29
35.30833,29
35.31667,29
35.32500,29
35.33333,29
35.34167,29
35.35000,29
35.35833,29
35.36667,28
35.37500,28
35.38333,28
35.39167,28
35.40000,28
35.40833,28
35.41667,28
35.42500,28
35.43333,29
35.44167,29
35.45000,29
35.45833,29
35.46667,29
35.47500,29
35.48333,29
35.49167,30
35.50000,30
35.50833,30
35.51667,30
35.52500,31
35.53333,31
35.54167,31
35.55000,31
35.55833,32
35.56667,32
35.57500,32
35.58333,32
35.59167,32
35.60000,33
35.60833,33
35.61667,33
35.62500,33
35.63333,34
35.64167,34
35.65000,34
35.65833,34
35.66667,34
35.67500,34
35.68333,34
35.69167,34
35.70000,34
35.70833,34
35.71667,34
35.72500,35
35.73333,35
35.74167,35
35.75000,36
35.75833,36
35.76667,36
35.77500,37
35.78333,37
35.79167,37
35.80000,36
35.80833,36
35.81667,36
35.82500,37
35.83333,37
35.84167,37
35.85000,37
35.85833,37
35.86667,37
35.87500,37
35.88333,37
35.89167,37
35.90000,37
35.90833,36
35.91667,36
35.92500,36
35.93333,37
35.94167,37
35.95000,37
35.95833,37
35.96667,37
35.97500,37
35.98333,37
35.99167,37
36.00000,37
36.00833,37
36.01667,37
36.02500,37
36.03333,37
36.04167,37
36.05000,37
36.05833,38
36.06667,38
36.07500,38
36.08333,38
36.09167,38
36.10000,39
36.10833,39
36.11667,40
36.12500,40
36.13333,41
36.14167,41
36.15000,41
36.15833,41
36.16667,42
36.17500,43
36.18333,43
36.19167,44
36.20000,44
36.20833,45
36.21667,45
36.22500,46
36.23333,47
36.24167,47
36.25000,48
36.25833,48
36.26667,49
36.27500,50
36.28333,51
36.29167,52
36.30000,52
36.30833,53
36.31667,54
36.32500,55
36.33333,55
36.34167,56
36.35000,56
36.35833,57
36.36667,57
36.37500,58
36.38333,58
36.39167,59
36.40000,59
36.40833,59
36.41667,60
36.42500,60
36.43333,61
36.44167,61
36.45000,62
36.45833,62
36.46667,62
36.47500,63
36.48333,63
36.49167,63
36.50000,63
36.50833,63
36.51667,63
36.52500,62
36.53333,62
36.54167,62
36.55000,62
36.55833,62
36.56667,61
36.57500,61
36.58333,60
36.59167,60
36.60000,60
36.60833,60
36.61667,60
36.62500,60
36.63333,59
36.64167,59
36.65000,58
36.65833,57
36.66667,56
36.67500,55
36.68333,54
36.69167,53
36.70000,52
36.70833,52
36.71667,51
36.72500,50
36.73333,49
36.74167,49
36.75000,48
36.75833,48
36.76667,47
36.77500,46
36.78333,45
36.79167,44
36.80000,43
36.80833,42
36.81667,42
36.82500,41
36.83333,41
36.84167,40
36.85000,40
36.85833,39
36.86667,39
36.87500,38
36.88333,38
36.89167,37
36.90000,37
36.90833,37
36.91667,37
36.92500,36
36.93333,36
36.94167,36
36.95000,36
36.95833,35
36.96667,35
36.97500,34
36.98333,34
36.99167,34
37.00000,34
37.00833,33
37.01667,33
37.02500,32
37.03333,32
37.04167,32
37.05000,31
37.05833,31
37.06667,31
37.07500,31
37.08333,31
37.09167,31
37.10000,30
37.10833,30
37.11667,30
37.12500,30
37.13333,30
37.14167,30
37.15000,30
37.15833,30
37.16667,29
37.17500,29
37.18333,28
37.19167,28
37.20000,27
37.20833,26
37.21667,26
37.22500,26
37.23333,25
37.24167,24
37.25000,24
37.25833,23
37.26667,22
37.27500,22
37.28333,22
37.29167,21
37.30000,21
37.30833,21
37.31667,21
37.32500,20
37.33333,20
37.34167,19
37.35000,19
37.35833,19
37.36667,18
37.37500,17
37.38333,17
37.39167,17
37.40000,17
37.40833,16
37.41667,16
37.42500,15
37.43333,14
37.44167,14
37.45000,14
37.45833,14
37.46667,14
37.47500,14
37.48333,14
37.49167,14
37.50000,15
37.50833,15
37.51667,15
37.52500,16
37.53333,16
37.54167,16
37.55000,16
37.55833,16
37.56667,16
37.57500,17
37.58333,17
37.59167,18
37.60000,19
37.60833,20
37.61667,20
37.62500,21
37.63333,22
37.64167,23
37.65000,23
37.65833,24
37.66667,25
37.67500,25
37.68333,26
37.69167,27
37.70000,28
37.70833,29
37.71667,30
37.72500,31
37.73333,32
37.74167,33
37.75000,33
37.75833,34
37.76667,34
37.77500,35
37.78333,36
37.79167,36
37.80000,36
37.80833,37
37.81667,38
37.82500,38
37.83333,39
37.84167,40
37.85000,40
37.85833,40
37.86667,41
37.87500,41
37.88333,42
37.89167,43
37.90000,43
37.90833,44
37.91667,44
37.92500,44
37.93333,44
37.94167,44
37.95000,44
37.95833,44
37.96667,45
37.97500,45
37.98333,45
37.99167,45
38.00000,46
38.00833,46
38.01667,47
38.02500,48
38.03333,48
38.04167,49
38.05000,49
38.05833,49
38.06667,49
38.07500,49
38.08333,49
38.09167,50
38.10000,50
38.10833,50
38.11667,50
38.12500,50
38.13333,51
38.14167,51
38.15000,51
38.15833,51
38.16667,51
38.17500,51
38.18333,52
38.19167,52
38.20000,52
38.20833,52
38.21667,53
38.22500,53
38.23333,53
38.24167,53
38.25000,53
38.25833,53
38.26667,53
38.27500,53
38.28333,53
38.29167,53
38.30000,53
38.30833,53
38.31667,52
38.32500,52
38.33333,52
38.34167,52
38.35000,52
38.35833,52
38.36667,52
38.37500,52
38.38333,52
38.39167,52
38.40000,52
38.40833,51
38.41667,51
38.42500,50
38.43333,50
38.44167,50
38.45000,49
38.45833,49
38.46667,49
38.47500,48
38.48333,48
38.49167,47
38.50000,46
38.50833,46
38.51667,45
38.52500,45
38.53333,45
38.54167,44
38.55000,44
38.55833,44
38.56667,43
38.57500,43
38.58333,42
38.59167,41
38.60000,41
38.60833,40
38.61667,40
38.62500,39
38.63333,39
38.64167,38
38.65000,38
38.65833,37
38.66667,36
38.67500,36
38.68333,36
38.69167,35
38.70000,36
38.70833,35
38.71667,35
38.72500,34
38.73333,34
38.74167,33
38.75000,33
38.75833,33
38.76667,33
38.77500,32
38.78333,32
38.79167,32
38.80000,32
38.80833,32
38.81667,32
38.82500,31
38.83333,31
38.84167,31
38.85000,31
38.85833,32
38.86667,32
38.87500,32
38.88333,32
38.89167,31
38.90000,31
38.90833,31
38.91667,32
38.92500,32
38.93333,32
38.94167,33
38.95000,34
38.95833,34
38.96667,35
38.97500,35
38.98333,35
38.99167,35
39.00000,36
39.00833,36
39.01667,36
39.02500,36
39.03333,37
39.04167,37
39.05000,38
39.05833,39
39.06667,40
39.07500,40
39.08333,41
39.09167,41
39.10000,42
39.10833,42
39.11667,43
39.12500,44
39.13333,44
39.14167,45
39.15000,45
39.15833,46
39.16667,46
39.17500,47
39.18333,47
39.19167,47
39.20000,47
39.20833,48
39.21667,49
39.22500,50
39.23333,50
39.24167,51
39.25000,51
39.25833,51
39.26667,52
39.27500,52
39.28333,53
39.29167,53
39.30000,53
39.30833,54
39.31667,54
39.32500,55
39.33333,55
39.34167,55
39.35000,55
39.35833,55
39.36667,55
39.37500,55
39.38333,54
39.39167,54
39.40000,54
39.40833,54
39.41667,55
39.42500,55
39.43333,55
39.44167,55
39.45000,55
39.45833,55
39.46667,54
39.47500,54
39.48333,53
39.49167,52
39.50000,52
39.50833,51
39.51667,51
39.52500,50
39.53333,50
39.54167,50
39.55000,49
39.55833,49
39.56667,49
39.57500,49
39.58333,48
39.59167,48
39.60000,48
39.60833,48
39.61667,49
39.62500,49
39.63333,48
39.64167,48
39.65000,47
39.65833,47
39.66667,47
39.67500,47
39.68333,47
39.69167,47
39.70000,47
39.70833,47
39.71667,47
39.72500,47
39.73333,47
39.74167,47
39.75000,48
39.75833,48
39.76667,48
39.77500,49
39.78333,49
39.79167,49
39.80000,49
39.80833,49
39.81667,49
39.82500,49
39.83333,50
39.84167,50
39.85000,50
39.85833,51
39.86667,51
39.87500,51
39.88333,51
39.89167,51
39.90000,52
39.90833,52
39.91667,52
39.92500,52
39.93333,52
39.94167,52
39.95000,52
39.95833,52
39.96667,51
39.97500,51
39.98333,51
39.99167,51
40.00000,51

