[Header]
Application Name,LabSolutions
Version,5.97 SP1
Data File Name,C:\Users\cremerlab\Desktop\griffin\2021-04-05_NC_DM_calibration\2021-04-05_NC_DM_2.5mM_calibration_452021_007_020.lcd
Output Date,4/6/2021
Output Time,7:12:19 AM

[File Information]
Type,Data File
Generated,4/6/2021 6:32:00 AM
Generated by,System Administrator
Modified,4/6/2021 7:12:19 AM
Modified by,System Administrator

[Sample Information]
Operator Name,System Administrator
Acquired,4/6/2021 6:32:19 AM
Sample Type,1:Standard
Level,7
Sample Name,2021-04-05_DM_glucose_glycerol_acetate_03mM
Sample ID,007
ISTD Amount1,1
ISTD Amount2,1
ISTD Amount3,1
ISTD Amount4,1
ISTD Amount5,1
ISTD Amount6,1
ISTD Amount7,1
ISTD Amount8,1
ISTD Amount9,1
ISTD Amount10,1
ISTD Amount11,1
ISTD Amount12,1
ISTD Amount13,1
ISTD Amount14,1
ISTD Amount15,1
ISTD Amount16,1
ISTD Amount17,1
ISTD Amount18,1
ISTD Amount19,1
ISTD Amount20,1
ISTD Amount21,1
ISTD Amount22,1
ISTD Amount23,1
ISTD Amount24,1
ISTD Amount25,1
ISTD Amount26,1
ISTD Amount27,1
ISTD Amount28,1
ISTD Amount29,1
ISTD Amount30,1
ISTD Amount31,1
ISTD Amount32,1
Sample Amount,1
Dilution Factor,1
Vial#,25
Injection Volume,20

[Original Files]
Data File,C:\Users\cremerlab\Desktop\griffin\2021-04-05_NC_DM_calibration\2021-04-05_NC_DM_2.5mM_calibration_452021_007_020.lcd
Method File,C:\Users\cremerlab\Desktop\griffin\2021-04-05_NC_DM_calibration\2021-04-05_2.5mM_mobile.lcm
Batch File,C:\Users\cremerlab\Desktop\griffin\2021-04-05_NC_DM_calibration\2021-04-05_NC_DM_2.5mM_calibration.lcb
Report Format File,c:\LabSolutions\System\DEFAULT.lsr

[File Description]


[Configuration]
Instrument Name,HPLC-PC-Instrument1
Instrument #,1
Line #,1
# of Detectors,2
Detector ID,Detector A,Detector B
Detector Name,Detector A,Detector B
# of Channels,1,1

[Peak Table(Detector A)]
# of Peaks,0

[Peak Table(Detector B)]
# of Peaks,6
Peak#,R.Time,I.Time,F.Time,Area,Height,A/H,Conc.,Mark,ID#,Name,k',Plate #,Plate Ht.,Tailing,Resolution,Sep.Factor,Area Ratio,Height Ratio,Conc. %,Norm Conc.
1,10.882,10.408,11.975,251029,14831,16.925,9.179,   ,,,0.000,9432,15.904,1.039,0.000,0.000,0,0,0.000,0.000
2,13.959,12.550,14.225,1809165,47308,38.242,66.154,   ,,,0.283,3080,48.694,0.000,4.231,0.000,0,0,0.000,0.000
3,14.326,14.225,15.025,173890,10267,16.936,6.358, V ,,,0.316,3966,37.824,0.000,0.384,1.120,0,0,0.000,0.000
4,15.667,15.025,16.883,363813,14607,24.907,13.303, V ,,,0.440,9356,16.032,1.137,1.721,1.389,0,0,0.000,0.000
5,22.056,21.442,23.000,98314,3575,27.501,3.595,   ,,,1.027,14708,10.198,1.103,9.290,2.335,0,0,0.000,0.000
6,25.028,24.408,25.817,38568,1310,29.432,1.410,   ,,,1.300,16347,9.176,1.049,3.936,1.266,0,0,0.000,0.000

[LC Chromatogram(Detector B-Ch1)]
Interval(msec),500
# of Points,4801
Start Time(min),0.000
End Time(min),40.000
Intensity Units,mV
Intensity Multiplier,0.001
R.Time (min),Intensity
0.00000,1
0.00833,1
0.01667,0
0.02500,0
0.03333,1
0.04167,1
0.05000,1
0.05833,2
0.06667,2
0.07500,2
0.08333,2
0.09167,2
0.10000,2
0.10833,2
0.11667,2
0.12500,2
0.13333,2
0.14167,2
0.15000,2
0.15833,2
0.16667,2
0.17500,2
0.18333,1
0.19167,2
0.20000,2
0.20833,2
0.21667,1
0.22500,1
0.23333,1
0.24167,1
0.25000,1
0.25833,1
0.26667,1
0.27500,1
0.28333,1
0.29167,1
0.30000,1
0.30833,2
0.31667,2
0.32500,1
0.33333,1
0.34167,1
0.35000,1
0.35833,1
0.36667,1
0.37500,0
0.38333,1
0.39167,1
0.40000,1
0.40833,1
0.41667,1
0.42500,1
0.43333,1
0.44167,1
0.45000,0
0.45833,-0
0.46667,-1
0.47500,-1
0.48333,-2
0.49167,-2
0.50000,-2
0.50833,-2
0.51667,-2
0.52500,-3
0.53333,-3
0.54167,-3
0.55000,-3
0.55833,-3
0.56667,-4
0.57500,-4
0.58333,-4
0.59167,-4
0.60000,-5
0.60833,-5
0.61667,-5
0.62500,-5
0.63333,-6
0.64167,-6
0.65000,-7
0.65833,-7
0.66667,-7
0.67500,-7
0.68333,-8
0.69167,-8
0.70000,-9
0.70833,-9
0.71667,-10
0.72500,-10
0.73333,-10
0.74167,-11
0.75000,-11
0.75833,-12
0.76667,-12
0.77500,-12
0.78333,-12
0.79167,-12
0.80000,-13
0.80833,-13
0.81667,-13
0.82500,-13
0.83333,-14
0.84167,-14
0.85000,-14
0.85833,-14
0.86667,-14
0.87500,-14
0.88333,-14
0.89167,-14
0.90000,-14
0.90833,-14
0.91667,-14
0.92500,-14
0.93333,-14
0.94167,-14
0.95000,-14
0.95833,-14
0.96667,-14
0.97500,-14
0.98333,-14
0.99167,-15
1.00000,-15
1.00833,-15
1.01667,-15
1.02500,-15
1.03333,-15
1.04167,-15
1.05000,-15
1.05833,-15
1.06667,-15
1.07500,-16
1.08333,-16
1.09167,-15
1.10000,-15
1.10833,-15
1.11667,-15
1.12500,-15
1.13333,-16
1.14167,-16
1.15000,-16
1.15833,-16
1.16667,-16
1.17500,-16
1.18333,-16
1.19167,-16
1.20000,-15
1.20833,-15
1.21667,-15
1.22500,-15
1.23333,-15
1.24167,-15
1.25000,-15
1.25833,-15
1.26667,-15
1.27500,-15
1.28333,-15
1.29167,-15
1.30000,-15
1.30833,-15
1.31667,-15
1.32500,-15
1.33333,-15
1.34167,-15
1.35000,-14
1.35833,-14
1.36667,-14
1.37500,-14
1.38333,-14
1.39167,-14
1.40000,-13
1.40833,-13
1.41667,-13
1.42500,-13
1.43333,-13
1.44167,-13
1.45000,-12
1.45833,-12
1.46667,-12
1.47500,-11
1.48333,-11
1.49167,-11
1.50000,-11
1.50833,-11
1.51667,-12
1.52500,-11
1.53333,-11
1.54167,-11
1.55000,-11
1.55833,-10
1.56667,-10
1.57500,-11
1.58333,-11
1.59167,-11
1.60000,-11
1.60833,-11
1.61667,-10
1.62500,-10
1.63333,-10
1.64167,-10
1.65000,-9
1.65833,-9
1.66667,-9
1.67500,-9
1.68333,-9
1.69167,-9
1.70000,-9
1.70833,-9
1.71667,-9
1.72500,-9
1.73333,-9
1.74167,-8
1.75000,-8
1.75833,-8
1.76667,-8
1.77500,-8
1.78333,-7
1.79167,-7
1.80000,-7
1.80833,-7
1.81667,-7
1.82500,-7
1.83333,-7
1.84167,-6
1.85000,-6
1.85833,-6
1.86667,-6
1.87500,-6
1.88333,-5
1.89167,-5
1.90000,-5
1.90833,-5
1.91667,-5
1.92500,-5
1.93333,-5
1.94167,-4
1.95000,-4
1.95833,-4
1.96667,-5
1.97500,-5
1.98333,-5
1.99167,-4
2.00000,-4
2.00833,-4
2.01667,-5
2.02500,-5
2.03333,-5
2.04167,-5
2.05000,-5
2.05833,-5
2.06667,-6
2.07500,-6
2.08333,-6
2.09167,-7
2.10000,-7
2.10833,-7
2.11667,-7
2.12500,-8
2.13333,-8
2.14167,-9
2.15000,-9
2.15833,-10
2.16667,-11
2.17500,-11
2.18333,-12
2.19167,-12
2.20000,-12
2.20833,-13
2.21667,-13
2.22500,-14
2.23333,-14
2.24167,-15
2.25000,-15
2.25833,-16
2.26667,-16
2.27500,-16
2.28333,-17
2.29167,-17
2.30000,-18
2.30833,-18
2.31667,-18
2.32500,-19
2.33333,-19
2.34167,-19
2.35000,-19
2.35833,-19
2.36667,-19
2.37500,-19
2.38333,-19
2.39167,-19
2.40000,-19
2.40833,-19
2.41667,-19
2.42500,-19
2.43333,-19
2.44167,-19
2.45000,-19
2.45833,-19
2.46667,-20
2.47500,-20
2.48333,-20
2.49167,-20
2.50000,-20
2.50833,-20
2.51667,-20
2.52500,-20
2.53333,-19
2.54167,-19
2.55000,-19
2.55833,-19
2.56667,-19
2.57500,-18
2.58333,-18
2.59167,-18
2.60000,-17
2.60833,-17
2.61667,-17
2.62500,-18
2.63333,-18
2.64167,-18
2.65000,-18
2.65833,-18
2.66667,-18
2.67500,-18
2.68333,-18
2.69167,-18
2.70000,-18
2.70833,-18
2.71667,-18
2.72500,-18
2.73333,-18
2.74167,-18
2.75000,-19
2.75833,-19
2.76667,-19
2.77500,-19
2.78333,-19
2.79167,-19
2.80000,-19
2.80833,-19
2.81667,-19
2.82500,-20
2.83333,-20
2.84167,-20
2.85000,-19
2.85833,-19
2.86667,-19
2.87500,-19
2.88333,-19
2.89167,-18
2.90000,-18
2.90833,-18
2.91667,-18
2.92500,-18
2.93333,-18
2.94167,-18
2.95000,-17
2.95833,-17
2.96667,-17
2.97500,-17
2.98333,-17
2.99167,-17
3.00000,-17
3.00833,-16
3.01667,-16
3.02500,-16
3.03333,-15
3.04167,-15
3.05000,-14
3.05833,-14
3.06667,-13
3.07500,-13
3.08333,-13
3.09167,-12
3.10000,-12
3.10833,-12
3.11667,-11
3.12500,-10
3.13333,-10
3.14167,-9
3.15000,-8
3.15833,-8
3.16667,-7
3.17500,-6
3.18333,-5
3.19167,-5
3.20000,-4
3.20833,-4
3.21667,-3
3.22500,-2
3.23333,-2
3.24167,-2
3.25000,-2
3.25833,-1
3.26667,-1
3.27500,-0
3.28333,0
3.29167,1
3.30000,1
3.30833,1
3.31667,1
3.32500,1
3.33333,2
3.34167,2
3.35000,2
3.35833,2
3.36667,2
3.37500,3
3.38333,3
3.39167,4
3.40000,4
3.40833,4
3.41667,4
3.42500,4
3.43333,4
3.44167,3
3.45000,3
3.45833,3
3.46667,3
3.47500,3
3.48333,2
3.49167,2
3.50000,2
3.50833,1
3.51667,1
3.52500,1
3.53333,0
3.54167,0
3.55000,-0
3.55833,-0
3.56667,-1
3.57500,-1
3.58333,-1
3.59167,-2
3.60000,-2
3.60833,-3
3.61667,-3
3.62500,-4
3.63333,-4
3.64167,-5
3.65000,-5
3.65833,-6
3.66667,-6
3.67500,-7
3.68333,-7
3.69167,-8
3.70000,-8
3.70833,-8
3.71667,-9
3.72500,-9
3.73333,-10
3.74167,-10
3.75000,-11
3.75833,-11
3.76667,-11
3.77500,-12
3.78333,-12
3.79167,-12
3.80000,-12
3.80833,-11
3.81667,-11
3.82500,-11
3.83333,-11
3.84167,-11
3.85000,-11
3.85833,-11
3.86667,-11
3.87500,-11
3.88333,-11
3.89167,-12
3.90000,-12
3.90833,-11
3.91667,-11
3.92500,-11
3.93333,-10
3.94167,-10
3.95000,-9
3.95833,-9
3.96667,-8
3.97500,-8
3.98333,-8
3.99167,-8
4.00000,-8
4.00833,-7
4.01667,-7
4.02500,-6
4.03333,-6
4.04167,-5
4.05000,-5
4.05833,-5
4.06667,-5
4.07500,-4
4.08333,-4
4.09167,-5
4.10000,-5
4.10833,-5
4.11667,-5
4.12500,-5
4.13333,-5
4.14167,-5
4.15000,-5
4.15833,-5
4.16667,-5
4.17500,-6
4.18333,-6
4.19167,-6
4.20000,-6
4.20833,-6
4.21667,-6
4.22500,-7
4.23333,-7
4.24167,-7
4.25000,-7
4.25833,-8
4.26667,-8
4.27500,-9
4.28333,-10
4.29167,-10
4.30000,-10
4.30833,-11
4.31667,-11
4.32500,-11
4.33333,-12
4.34167,-12
4.35000,-12
4.35833,-12
4.36667,-13
4.37500,-13
4.38333,-13
4.39167,-14
4.40000,-14
4.40833,-14
4.41667,-14
4.42500,-15
4.43333,-15
4.44167,-15
4.45000,-16
4.45833,-16
4.46667,-16
4.47500,-16
4.48333,-16
4.49167,-16
4.50000,-16
4.50833,-16
4.51667,-16
4.52500,-16
4.53333,-16
4.54167,-16
4.55000,-16
4.55833,-16
4.56667,-16
4.57500,-16
4.58333,-15
4.59167,-14
4.60000,-14
4.60833,-13
4.61667,-12
4.62500,-12
4.63333,-11
4.64167,-11
4.65000,-11
4.65833,-10
4.66667,-9
4.67500,-8
4.68333,-7
4.69167,-7
4.70000,-6
4.70833,-6
4.71667,-5
4.72500,-4
4.73333,-3
4.74167,-3
4.75000,-2
4.75833,-2
4.76667,-2
4.77500,-1
4.78333,-0
4.79167,1
4.80000,1
4.80833,2
4.81667,3
4.82500,3
4.83333,4
4.84167,4
4.85000,4
4.85833,5
4.86667,5
4.87500,5
4.88333,6
4.89167,6
4.90000,6
4.90833,7
4.91667,7
4.92500,7
4.93333,8
4.94167,8
4.95000,8
4.95833,8
4.96667,8
4.97500,9
4.98333,9
4.99167,9
5.00000,9
5.00833,9
5.01667,9
5.02500,9
5.03333,9
5.04167,9
5.05000,9
5.05833,9
5.06667,9
5.07500,9
5.08333,9
5.09167,9
5.10000,9
5.10833,9
5.11667,8
5.12500,8
5.13333,8
5.14167,8
5.15000,8
5.15833,7
5.16667,7
5.17500,7
5.18333,6
5.19167,6
5.20000,6
5.20833,5
5.21667,5
5.22500,5
5.23333,4
5.24167,4
5.25000,4
5.25833,3
5.26667,3
5.27500,3
5.28333,3
5.29167,2
5.30000,2
5.30833,2
5.31667,2
5.32500,1
5.33333,1
5.34167,1
5.35000,0
5.35833,0
5.36667,-0
5.37500,-1
5.38333,-1
5.39167,-1
5.40000,-0
5.40833,-1
5.41667,-1
5.42500,-2
5.43333,-3
5.44167,-3
5.45000,-4
5.45833,-4
5.46667,-4
5.47500,-4
5.48333,-5
5.49167,-5
5.50000,-5
5.50833,-6
5.51667,-6
5.52500,-6
5.53333,-6
5.54167,-6
5.55000,-6
5.55833,-6
5.56667,-6
5.57500,-7
5.58333,-7
5.59167,-8
5.60000,-8
5.60833,-9
5.61667,-9
5.62500,-9
5.63333,-10
5.64167,-10
5.65000,-10
5.65833,-10
5.66667,-11
5.67500,-11
5.68333,-11
5.69167,-12
5.70000,-12
5.70833,-12
5.71667,-13
5.72500,-13
5.73333,-13
5.74167,-14
5.75000,-14
5.75833,-15
5.76667,-15
5.77500,-15
5.78333,-16
5.79167,-16
5.80000,-16
5.80833,-16
5.81667,-16
5.82500,-16
5.83333,-16
5.84167,-16
5.85000,-17
5.85833,-17
5.86667,-17
5.87500,-17
5.88333,-17
5.89167,-17
5.90000,-18
5.90833,-18
5.91667,-17
5.92500,-17
5.93333,-17
5.94167,-17
5.95000,-16
5.95833,-16
5.96667,-16
5.97500,-16
5.98333,-16
5.99167,-16
6.00000,-15
6.00833,-15
6.01667,-14
6.02500,-14
6.03333,-13
6.04167,-13
6.05000,-12
6.05833,-12
6.06667,-11
6.07500,-11
6.08333,-10
6.09167,-10
6.10000,-10
6.10833,-9
6.11667,-9
6.12500,-8
6.13333,-8
6.14167,-7
6.15000,-6
6.15833,-5
6.16667,-4
6.17500,-3
6.18333,-3
6.19167,-2
6.20000,-1
6.20833,-0
6.21667,0
6.22500,1
6.23333,2
6.24167,2
6.25000,3
6.25833,4
6.26667,5
6.27500,6
6.28333,6
6.29167,7
6.30000,8
6.30833,8
6.31667,9
6.32500,9
6.33333,9
6.34167,9
6.35000,10
6.35833,10
6.36667,10
6.37500,11
6.38333,11
6.39167,11
6.40000,12
6.40833,12
6.41667,12
6.42500,12
6.43333,12
6.44167,12
6.45000,12
6.45833,12
6.46667,12
6.47500,12
6.48333,12
6.49167,12
6.50000,12
6.50833,11
6.51667,11
6.52500,11
6.53333,11
6.54167,10
6.55000,10
6.55833,9
6.56667,9
6.57500,8
6.58333,7
6.59167,6
6.60000,6
6.60833,5
6.61667,4
6.62500,3
6.63333,2
6.64167,1
6.65000,1
6.65833,0
6.66667,-1
6.67500,-2
6.68333,-2
6.69167,-3
6.70000,-4
6.70833,-4
6.71667,-5
6.72500,-5
6.73333,-6
6.74167,-7
6.75000,-8
6.75833,-9
6.76667,-10
6.77500,-11
6.78333,-11
6.79167,-11
6.80000,-12
6.80833,-13
6.81667,-14
6.82500,-14
6.83333,-15
6.84167,-15
6.85000,-16
6.85833,-16
6.86667,-17
6.87500,-17
6.88333,-18
6.89167,-18
6.90000,-19
6.90833,-20
6.91667,-20
6.92500,-20
6.93333,-20
6.94167,-20
6.95000,-20
6.95833,-20
6.96667,-20
6.97500,-20
6.98333,-20
6.99167,-20
7.00000,-20
7.00833,-20
7.01667,-20
7.02500,-20
7.03333,-20
7.04167,-20
7.05000,-20
7.05833,-20
7.06667,-19
7.07500,-19
7.08333,-19
7.09167,-19
7.10000,-19
7.10833,-18
7.11667,-18
7.12500,-18
7.13333,-18
7.14167,-17
7.15000,-17
7.15833,-16
7.16667,-16
7.17500,-15
7.18333,-14
7.19167,-13
7.20000,-12
7.20833,-12
7.21667,-11
7.22500,-10
7.23333,-10
7.24167,-9
7.25000,-9
7.25833,-8
7.26667,-8
7.27500,-7
7.28333,-7
7.29167,-6
7.30000,-5
7.30833,-4
7.31667,-3
7.32500,-2
7.33333,-1
7.34167,-1
7.35000,-0
7.35833,1
7.36667,2
7.37500,2
7.38333,3
7.39167,3
7.40000,4
7.40833,4
7.41667,5
7.42500,6
7.43333,6
7.44167,6
7.45000,7
7.45833,7
7.46667,8
7.47500,8
7.48333,8
7.49167,8
7.50000,8
7.50833,9
7.51667,9
7.52500,9
7.53333,9
7.54167,9
7.55000,9
7.55833,9
7.56667,9
7.57500,9
7.58333,9
7.59167,9
7.60000,9
7.60833,9
7.61667,8
7.62500,7
7.63333,7
7.64167,6
7.65000,6
7.65833,5
7.66667,4
7.67500,3
7.68333,2
7.69167,1
7.70000,-0
7.70833,-1
7.71667,-2
7.72500,-2
7.73333,-3
7.74167,-4
7.75000,-5
7.75833,-5
7.76667,-6
7.77500,-6
7.78333,-7
7.79167,-8
7.80000,-9
7.80833,-9
7.81667,-10
7.82500,-11
7.83333,-12
7.84167,-12
7.85000,-13
7.85833,-13
7.86667,-14
7.87500,-15
7.88333,-15
7.89167,-16
7.90000,-17
7.90833,-17
7.91667,-17
7.92500,-17
7.93333,-17
7.94167,-17
7.95000,-18
7.95833,-18
7.96667,-18
7.97500,-19
7.98333,-19
7.99167,-19
8.00000,-19
8.00833,-19
8.01667,-19
8.02500,-19
8.03333,-19
8.04167,-18
8.05000,-18
8.05833,-18
8.06667,-18
8.07500,-18
8.08333,-18
8.09167,-17
8.10000,-17
8.10833,-16
8.11667,-16
8.12500,-15
8.13333,-15
8.14167,-14
8.15000,-13
8.15833,-12
8.16667,-12
8.17500,-11
8.18333,-11
8.19167,-10
8.20000,-9
8.20833,-9
8.21667,-8
8.22500,-8
8.23333,-7
8.24167,-7
8.25000,-6
8.25833,-6
8.26667,-5
8.27500,-4
8.28333,-3
8.29167,-2
8.30000,-1
8.30833,-0
8.31667,1
8.32500,1
8.33333,2
8.34167,2
8.35000,3
8.35833,3
8.36667,4
8.37500,5
8.38333,5
8.39167,6
8.40000,7
8.40833,8
8.41667,8
8.42500,9
8.43333,9
8.44167,10
8.45000,10
8.45833,11
8.46667,11
8.47500,12
8.48333,12
8.49167,13
8.50000,13
8.50833,14
8.51667,14
8.52500,14
8.53333,15
8.54167,15
8.55000,15
8.55833,16
8.56667,16
8.57500,17
8.58333,17
8.59167,18
8.60000,18
8.60833,18
8.61667,18
8.62500,18
8.63333,18
8.64167,18
8.65000,18
8.65833,18
8.66667,18
8.67500,19
8.68333,19
8.69167,19
8.70000,19
8.70833,19
8.71667,19
8.72500,18
8.73333,18
8.74167,18
8.75000,18
8.75833,18
8.76667,18
8.77500,17
8.78333,17
8.79167,17
8.80000,17
8.80833,17
8.81667,17
8.82500,17
8.83333,17
8.84167,16
8.85000,16
8.85833,15
8.86667,15
8.87500,14
8.88333,14
8.89167,13
8.90000,13
8.90833,13
8.91667,12
8.92500,12
8.93333,11
8.94167,11
8.95000,10
8.95833,10
8.96667,10
8.97500,9
8.98333,9
8.99167,8
9.00000,8
9.00833,8
9.01667,8
9.02500,7
9.03333,7
9.04167,7
9.05000,7
9.05833,6
9.06667,6
9.07500,6
9.08333,6
9.09167,5
9.10000,5
9.10833,5
9.11667,4
9.12500,3
9.13333,3
9.14167,2
9.15000,2
9.15833,1
9.16667,1
9.17500,1
9.18333,0
9.19167,0
9.20000,0
9.20833,0
9.21667,-0
9.22500,-0
9.23333,-1
9.24167,-1
9.25000,-1
9.25833,-1
9.26667,-1
9.27500,-1
9.28333,-1
9.29167,-1
9.30000,-1
9.30833,-1
9.31667,-1
9.32500,-1
9.33333,-1
9.34167,-1
9.35000,-1
9.35833,-1
9.36667,-1
9.37500,-1
9.38333,-1
9.39167,-2
9.40000,-2
9.40833,-2
9.41667,-2
9.42500,-1
9.43333,-1
9.44167,-1
9.45000,-0
9.45833,0
9.46667,1
9.47500,1
9.48333,2
9.49167,2
9.50000,2
9.50833,3
9.51667,3
9.52500,4
9.53333,4
9.54167,5
9.55000,5
9.55833,6
9.56667,6
9.57500,6
9.58333,6
9.59167,6
9.60000,6
9.60833,7
9.61667,7
9.62500,7
9.63333,8
9.64167,8
9.65000,8
9.65833,8
9.66667,8
9.67500,8
9.68333,8
9.69167,9
9.70000,9
9.70833,9
9.71667,9
9.72500,9
9.73333,8
9.74167,8
9.75000,8
9.75833,8
9.76667,8
9.77500,8
9.78333,8
9.79167,8
9.80000,8
9.80833,8
9.81667,8
9.82500,7
9.83333,7
9.84167,7
9.85000,6
9.85833,6
9.86667,6
9.87500,6
9.88333,5
9.89167,5
9.90000,4
9.90833,4
9.91667,3
9.92500,3
9.93333,2
9.94167,2
9.95000,1
9.95833,0
9.96667,-0
9.97500,-1
9.98333,-1
9.99167,-2
10.00000,-2
10.00833,-3
10.01667,-3
10.02500,-3
10.03333,-3
10.04167,-4
10.05000,-5
10.05833,-5
10.06667,-6
10.07500,-7
10.08333,-7
10.09167,-8
10.10000,-9
10.10833,-10
10.11667,-10
10.12500,-11
10.13333,-12
10.14167,-13
10.15000,-14
10.15833,-14
10.16667,-15
10.17500,-15
10.18333,-16
10.19167,-16
10.20000,-17
10.20833,-17
10.21667,-18
10.22500,-18
10.23333,-18
10.24167,-18
10.25000,-18
10.25833,-18
10.26667,-18
10.27500,-18
10.28333,-18
10.29167,-18
10.30000,-18
10.30833,-18
10.31667,-18
10.32500,-18
10.33333,-18
10.34167,-17
10.35000,-17
10.35833,-16
10.36667,-16
10.37500,-15
10.38333,-15
10.39167,-14
10.40000,-14
10.40833,-13
10.41667,-12
10.42500,-11
10.43333,-10
10.44167,-8
10.45000,-6
10.45833,-4
10.46667,-2
10.47500,2
10.48333,6
10.49167,12
10.50000,20
10.50833,29
10.51667,41
10.52500,57
10.53333,76
10.54167,102
10.55000,133
10.55833,173
10.56667,222
10.57500,281
10.58333,354
10.59167,441
10.60000,545
10.60833,668
10.61667,812
10.62500,980
10.63333,1173
10.64167,1395
10.65000,1646
10.65833,1930
10.66667,2246
10.67500,2597
10.68333,2984
10.69167,3407
10.70000,3865
10.70833,4358
10.71667,4885
10.72500,5443
10.73333,6031
10.74167,6644
10.75000,7279
10.75833,7930
10.76667,8591
10.77500,9257
10.78333,9921
10.79167,10575
10.80000,11211
10.80833,11822
10.81667,12397
10.82500,12929
10.83333,13410
10.84167,13831
10.85000,14185
10.85833,14465
10.86667,14667
10.87500,14786
10.88333,14819
10.89167,14765
10.90000,14624
10.90833,14399
10.91667,14093
10.92500,13711
10.93333,13261
10.94167,12750
10.95000,12188
10.95833,11583
10.96667,10946
10.97500,10287
10.98333,9615
10.99167,8940
11.00000,8270
11.00833,7612
11.01667,6972
11.02500,6358
11.03333,5773
11.04167,5220
11.05000,4701
11.05833,4219
11.06667,3773
11.07500,3363
11.08333,2989
11.09167,2649
11.10000,2341
11.10833,2065
11.11667,1818
11.12500,1598
11.13333,1401
11.14167,1227
11.15000,1074
11.15833,939
11.16667,820
11.17500,716
11.18333,625
11.19167,546
11.20000,477
11.20833,417
11.21667,366
11.22500,321
11.23333,283
11.24167,250
11.25000,222
11.25833,198
11.26667,178
11.27500,161
11.28333,146
11.29167,134
11.30000,123
11.30833,114
11.31667,107
11.32500,101
11.33333,95
11.34167,91
11.35000,87
11.35833,84
11.36667,81
11.37500,78
11.38333,75
11.39167,73
11.40000,71
11.40833,69
11.41667,67
11.42500,65
11.43333,64
11.44167,63
11.45000,61
11.45833,59
11.46667,58
11.47500,56
11.48333,54
11.49167,52
11.50000,51
11.50833,50
11.51667,49
11.52500,47
11.53333,46
11.54167,44
11.55000,43
11.55833,41
11.56667,40
11.57500,38
11.58333,37
11.59167,35
11.60000,34
11.60833,32
11.61667,31
11.62500,29
11.63333,28
11.64167,27
11.65000,25
11.65833,24
11.66667,23
11.67500,21
11.68333,20
11.69167,19
11.70000,18
11.70833,17
11.71667,15
11.72500,14
11.73333,13
11.74167,12
11.75000,11
11.75833,10
11.76667,9
11.77500,8
11.78333,7
11.79167,6
11.80000,5
11.80833,4
11.81667,3
11.82500,2
11.83333,1
11.84167,-0
11.85000,-1
11.85833,-3
11.86667,-4
11.87500,-5
11.88333,-6
11.89167,-7
11.90000,-7
11.90833,-8
11.91667,-9
11.92500,-9
11.93333,-10
11.94167,-11
11.95000,-12
11.95833,-12
11.96667,-12
11.97500,-12
11.98333,-13
11.99167,-13
12.00000,-13
12.00833,-13
12.01667,-13
12.02500,-12
12.03333,-12
12.04167,-12
12.05000,-12
12.05833,-12
12.06667,-11
12.07500,-11
12.08333,-11
12.09167,-10
12.10000,-10
12.10833,-9
12.11667,-9
12.12500,-9
12.13333,-9
12.14167,-8
12.15000,-8
12.15833,-7
12.16667,-6
12.17500,-6
12.18333,-6
12.19167,-6
12.20000,-6
12.20833,-6
12.21667,-6
12.22500,-6
12.23333,-5
12.24167,-5
12.25000,-4
12.25833,-4
12.26667,-4
12.27500,-4
12.28333,-4
12.29167,-4
12.30000,-4
12.30833,-4
12.31667,-3
12.32500,-3
12.33333,-3
12.34167,-3
12.35000,-3
12.35833,-4
12.36667,-4
12.37500,-4
12.38333,-4
12.39167,-4
12.40000,-4
12.40833,-3
12.41667,-3
12.42500,-3
12.43333,-3
12.44167,-3
12.45000,-3
12.45833,-3
12.46667,-3
12.47500,-3
12.48333,-3
12.49167,-3
12.50000,-3
12.50833,-3
12.51667,-2
12.52500,-2
12.53333,-2
12.54167,-2
12.55000,-2
12.55833,-1
12.56667,0
12.57500,1
12.58333,3
12.59167,5
12.60000,7
12.60833,10
12.61667,13
12.62500,17
12.63333,22
12.64167,29
12.65000,36
12.65833,46
12.66667,57
12.67500,70
12.68333,87
12.69167,106
12.70000,128
12.70833,153
12.71667,183
12.72500,217
12.73333,256
12.74167,299
12.75000,348
12.75833,402
12.76667,462
12.77500,528
12.78333,601
12.79167,680
12.80000,766
12.80833,859
12.81667,958
12.82500,1064
12.83333,1176
12.84167,1296
12.85000,1422
12.85833,1555
12.86667,1695
12.87500,1840
12.88333,1992
12.89167,2150
12.90000,2314
12.90833,2484
12.91667,2659
12.92500,2839
12.93333,3025
12.94167,3216
12.95000,3411
12.95833,3612
12.96667,3816
12.97500,4026
12.98333,4240
12.99167,4458
13.00000,4680
13.00833,4906
13.01667,5136
13.02500,5369
13.03333,5605
13.04167,5845
13.05000,6088
13.05833,6335
13.06667,6584
13.07500,6838
13.08333,7094
13.09167,7353
13.10000,7615
13.10833,7879
13.11667,8146
13.12500,8416
13.13333,8689
13.14167,8964
13.15000,9242
13.15833,9523
13.16667,9806
13.17500,10092
13.18333,10380
13.19167,10670
13.20000,10963
13.20833,11258
13.21667,11555
13.22500,11855
13.23333,12157
13.24167,12462
13.25000,12769
13.25833,13079
13.26667,13391
13.27500,13705
13.28333,14022
13.29167,14341
13.30000,14662
13.30833,14986
13.31667,15312
13.32500,15641
13.33333,15971
13.34167,16304
13.35000,16640
13.35833,16978
13.36667,17318
13.37500,17661
13.38333,18007
13.39167,18355
13.40000,18706
13.40833,19059
13.41667,19414
13.42500,19772
13.43333,20132
13.44167,20495
13.45000,20860
13.45833,21229
13.46667,21599
13.47500,21972
13.48333,22348
13.49167,22727
13.50000,23109
13.50833,23493
13.51667,23880
13.52500,24270
13.53333,24662
13.54167,25058
13.55000,25456
13.55833,25858
13.56667,26262
13.57500,26668
13.58333,27078
13.59167,27490
13.60000,27906
13.60833,28324
13.61667,28746
13.62500,29170
13.63333,29598
13.64167,30028
13.65000,30462
13.65833,30899
13.66667,31339
13.67500,31782
13.68333,32229
13.69167,32678
13.70000,33130
13.70833,33585
13.71667,34044
13.72500,34506
13.73333,34972
13.74167,35440
13.75000,35913
13.75833,36388
13.76667,36867
13.77500,37350
13.78333,37836
13.79167,38325
13.80000,38818
13.80833,39314
13.81667,39814
13.82500,40317
13.83333,40824
13.84167,41334
13.85000,41847
13.85833,42364
13.86667,42883
13.87500,43404
13.88333,43926
13.89167,44444
13.90000,44956
13.90833,45453
13.91667,45927
13.92500,46363
13.93333,46746
13.94167,47053
13.95000,47262
13.95833,47346
13.96667,47277
13.97500,47028
13.98333,46574
13.99167,45898
14.00000,44985
14.00833,43831
14.01667,42440
14.02500,40826
14.03333,39012
14.04167,37026
14.05000,34908
14.05833,32696
14.06667,30436
14.07500,28169
14.08333,25937
14.09167,23778
14.10000,21724
14.10833,19801
14.11667,18029
14.12500,16421
14.13333,14986
14.14167,13725
14.15000,12637
14.15833,11716
14.16667,10953
14.17500,10338
14.18333,9857
14.19167,9499
14.20000,9250
14.20833,9096
14.21667,9023
14.22500,9019
14.23333,9069
14.24167,9163
14.25000,9288
14.25833,9433
14.26667,9589
14.27500,9746
14.28333,9895
14.29167,10030
14.30000,10145
14.30833,10234
14.31667,10291
14.32500,10315
14.33333,10304
14.34167,10254
14.35000,10167
14.35833,10043
14.36667,9882
14.37500,9687
14.38333,9460
14.39167,9204
14.40000,8922
14.40833,8618
14.41667,8295
14.42500,7957
14.43333,7607
14.44167,7251
14.45000,6890
14.45833,6528
14.46667,6168
14.47500,5812
14.48333,5464
14.49167,5125
14.50000,4797
14.50833,4480
14.51667,4178
14.52500,3890
14.53333,3616
14.54167,3358
14.55000,3115
14.55833,2886
14.56667,2673
14.57500,2474
14.58333,2289
14.59167,2118
14.60000,1959
14.60833,1813
14.61667,1679
14.62500,1555
14.63333,1442
14.64167,1338
14.65000,1243
14.65833,1156
14.66667,1077
14.67500,1005
14.68333,938
14.69167,878
14.70000,823
14.70833,772
14.71667,727
14.72500,685
14.73333,647
14.74167,613
14.75000,581
14.75833,552
14.76667,526
14.77500,502
14.78333,480
14.79167,460
14.80000,442
14.80833,424
14.81667,409
14.82500,395
14.83333,382
14.84167,370
14.85000,359
14.85833,350
14.86667,341
14.87500,332
14.88333,325
14.89167,318
14.90000,312
14.90833,307
14.91667,302
14.92500,298
14.93333,294
14.94167,290
14.95000,287
14.95833,284
14.96667,282
14.97500,280
14.98333,278
14.99167,277
15.00000,276
15.00833,274
15.01667,274
15.02500,273
15.03333,273
15.04167,274
15.05000,274
15.05833,275
15.06667,276
15.07500,277
15.08333,278
15.09167,279
15.10000,280
15.10833,282
15.11667,284
15.12500,287
15.13333,290
15.14167,293
15.15000,297
15.15833,301
15.16667,306
15.17500,312
15.18333,319
15.19167,327
15.20000,338
15.20833,351
15.21667,368
15.22500,387
15.23333,409
15.24167,435
15.25000,466
15.25833,503
15.26667,547
15.27500,598
15.28333,658
15.29167,727
15.30000,806
15.30833,897
15.31667,1000
15.32500,1118
15.33333,1252
15.34167,1401
15.35000,1569
15.35833,1755
15.36667,1960
15.37500,2186
15.38333,2433
15.39167,2703
15.40000,2994
15.40833,3309
15.41667,3645
15.42500,4004
15.43333,4385
15.44167,4786
15.45000,5208
15.45833,5647
15.46667,6103
15.47500,6574
15.48333,7056
15.49167,7548
15.50000,8047
15.50833,8551
15.51667,9054
15.52500,9555
15.53333,10050
15.54167,10536
15.55000,11009
15.55833,11466
15.56667,11903
15.57500,12318
15.58333,12706
15.59167,13067
15.60000,13396
15.60833,13692
15.61667,13951
15.62500,14174
15.63333,14358
15.64167,14502
15.65000,14606
15.65833,14670
15.66667,14693
15.67500,14676
15.68333,14619
15.69167,14525
15.70000,14393
15.70833,14227
15.71667,14027
15.72500,13796
15.73333,13535
15.74167,13247
15.75000,12936
15.75833,12602
15.76667,12250
15.77500,11880
15.78333,11497
15.79167,11102
15.80000,10698
15.80833,10288
15.81667,9874
15.82500,9458
15.83333,9043
15.84167,8629
15.85000,8220
15.85833,7816
15.86667,7419
15.87500,7031
15.88333,6652
15.89167,6284
15.90000,5928
15.90833,5584
15.91667,5253
15.92500,4934
15.93333,4630
15.94167,4338
15.95000,4060
15.95833,3796
15.96667,3546
15.97500,3310
15.98333,3086
15.99167,2876
16.00000,2678
16.00833,2492
16.01667,2318
16.02500,2155
16.03333,2002
16.04167,1861
16.05000,1729
16.05833,1606
16.06667,1492
16.07500,1386
16.08333,1289
16.09167,1198
16.10000,1114
16.10833,1038
16.11667,967
16.12500,902
16.13333,842
16.14167,787
16.15000,737
16.15833,691
16.16667,648
16.17500,609
16.18333,574
16.19167,541
16.20000,511
16.20833,483
16.21667,458
16.22500,435
16.23333,413
16.24167,394
16.25000,376
16.25833,359
16.26667,344
16.27500,329
16.28333,316
16.29167,305
16.30000,294
16.30833,284
16.31667,275
16.32500,266
16.33333,258
16.34167,251
16.35000,245
16.35833,238
16.36667,232
16.37500,227
16.38333,222
16.39167,217
16.40000,212
16.40833,208
16.41667,204
16.42500,200
16.43333,196
16.44167,193
16.45000,189
16.45833,186
16.46667,183
16.47500,180
16.48333,178
16.49167,175
16.50000,173
16.50833,170
16.51667,168
16.52500,166
16.53333,164
16.54167,162
16.55000,161
16.55833,159
16.56667,157
16.57500,155
16.58333,153
16.59167,152
16.60000,150
16.60833,149
16.61667,147
16.62500,146
16.63333,144
16.64167,142
16.65000,141
16.65833,139
16.66667,138
16.67500,136
16.68333,136
16.69167,135
16.70000,135
16.70833,134
16.71667,133
16.72500,132
16.73333,132
16.74167,131
16.75000,130
16.75833,130
16.76667,129
16.77500,128
16.78333,127
16.79167,126
16.80000,125
16.80833,125
16.81667,124
16.82500,124
16.83333,123
16.84167,122
16.85000,122
16.85833,121
16.86667,121
16.87500,120
16.88333,120
16.89167,120
16.90000,120
16.90833,119
16.91667,119
16.92500,118
16.93333,118
16.94167,118
16.95000,118
16.95833,118
16.96667,117
16.97500,117
16.98333,117
16.99167,117
17.00000,116
17.00833,116
17.01667,116
17.02500,116
17.03333,116
17.04167,116
17.05000,115
17.05833,115
17.06667,116
17.07500,116
17.08333,115
17.09167,115
17.10000,114
17.10833,114
17.11667,113
17.12500,112
17.13333,112
17.14167,111
17.15000,111
17.15833,110
17.16667,109
17.17500,109
17.18333,108
17.19167,108
17.20000,107
17.20833,106
17.21667,105
17.22500,104
17.23333,104
17.24167,103
17.25000,103
17.25833,102
17.26667,101
17.27500,100
17.28333,99
17.29167,98
17.30000,96
17.30833,95
17.31667,94
17.32500,93
17.33333,92
17.34167,91
17.35000,89
17.35833,88
17.36667,87
17.37500,86
17.38333,84
17.39167,83
17.40000,81
17.40833,80
17.41667,79
17.42500,78
17.43333,77
17.44167,76
17.45000,75
17.45833,74
17.46667,73
17.47500,72
17.48333,70
17.49167,69
17.50000,68
17.50833,67
17.51667,66
17.52500,65
17.53333,63
17.54167,63
17.55000,62
17.55833,61
17.56667,60
17.57500,59
17.58333,58
17.59167,57
17.60000,57
17.60833,56
17.61667,56
17.62500,56
17.63333,55
17.64167,54
17.65000,54
17.65833,54
17.66667,53
17.67500,53
17.68333,53
17.69167,52
17.70000,52
17.70833,52
17.71667,52
17.72500,52
17.73333,52
17.74167,52
17.75000,52
17.75833,52
17.76667,52
17.77500,53
17.78333,53
17.79167,53
17.80000,53
17.80833,54
17.81667,54
17.82500,55
17.83333,55
17.84167,55
17.85000,55
17.85833,55
17.86667,55
17.87500,56
17.88333,56
17.89167,57
17.90000,57
17.90833,58
17.91667,59
17.92500,59
17.93333,59
17.94167,60
17.95000,60
17.95833,60
17.96667,61
17.97500,61
17.98333,62
17.99167,62
18.00000,62
18.00833,63
18.01667,63
18.02500,63
18.03333,63
18.04167,64
18.05000,63
18.05833,63
18.06667,63
18.07500,63
18.08333,63
18.09167,64
18.10000,64
18.10833,64
18.11667,64
18.12500,64
18.13333,64
18.14167,64
18.15000,63
18.15833,63
18.16667,63
18.17500,63
18.18333,63
18.19167,62
18.20000,62
18.20833,62
18.21667,62
18.22500,61
18.23333,61
18.24167,60
18.25000,60
18.25833,59
18.26667,59
18.27500,59
18.28333,59
18.29167,58
18.30000,58
18.30833,58
18.31667,58
18.32500,57
18.33333,57
18.34167,56
18.35000,56
18.35833,55
18.36667,54
18.37500,54
18.38333,54
18.39167,54
18.40000,53
18.40833,53
18.41667,52
18.42500,52
18.43333,52
18.44167,52
18.45000,51
18.45833,51
18.46667,51
18.47500,51
18.48333,50
18.49167,50
18.50000,50
18.50833,49
18.51667,49
18.52500,49
18.53333,49
18.54167,49
18.55000,49
18.55833,49
18.56667,49
18.57500,50
18.58333,50
18.59167,50
18.60000,50
18.60833,51
18.61667,51
18.62500,51
18.63333,52
18.64167,52
18.65000,52
18.65833,52
18.66667,53
18.67500,54
18.68333,55
18.69167,55
18.70000,56
18.70833,56
18.71667,57
18.72500,57
18.73333,57
18.74167,58
18.75000,59
18.75833,60
18.76667,61
18.77500,61
18.78333,62
18.79167,63
18.80000,65
18.80833,65
18.81667,66
18.82500,68
18.83333,69
18.84167,70
18.85000,71
18.85833,72
18.86667,73
18.87500,74
18.88333,76
18.89167,77
18.90000,78
18.90833,80
18.91667,81
18.92500,82
18.93333,83
18.94167,84
18.95000,85
18.95833,86
18.96667,87
18.97500,88
18.98333,89
18.99167,90
19.00000,91
19.00833,92
19.01667,92
19.02500,93
19.03333,93
19.04167,93
19.05000,93
19.05833,94
19.06667,94
19.07500,94
19.08333,94
19.09167,93
19.10000,93
19.10833,92
19.11667,92
19.12500,91
19.13333,90
19.14167,89
19.15000,88
19.15833,88
19.16667,87
19.17500,87
19.18333,86
19.19167,85
19.20000,84
19.20833,83
19.21667,82
19.22500,80
19.23333,79
19.24167,78
19.25000,77
19.25833,76
19.26667,75
19.27500,74
19.28333,72
19.29167,71
19.30000,71
19.30833,70
19.31667,69
19.32500,68
19.33333,67
19.34167,66
19.35000,65
19.35833,64
19.36667,63
19.37500,63
19.38333,62
19.39167,61
19.40000,60
19.40833,60
19.41667,60
19.42500,60
19.43333,59
19.44167,59
19.45000,58
19.45833,58
19.46667,57
19.47500,56
19.48333,55
19.49167,55
19.50000,54
19.50833,54
19.51667,54
19.52500,53
19.53333,53
19.54167,52
19.55000,52
19.55833,52
19.56667,52
19.57500,51
19.58333,51
19.59167,51
19.60000,50
19.60833,50
19.61667,49
19.62500,49
19.63333,48
19.64167,48
19.65000,48
19.65833,48
19.66667,48
19.67500,48
19.68333,47
19.69167,47
19.70000,47
19.70833,47
19.71667,47
19.72500,47
19.73333,46
19.74167,46
19.75000,45
19.75833,44
19.76667,44
19.77500,43
19.78333,43
19.79167,43
19.80000,42
19.80833,42
19.81667,41
19.82500,41
19.83333,40
19.84167,40
19.85000,40
19.85833,39
19.86667,39
19.87500,38
19.88333,38
19.89167,37
19.90000,37
19.90833,36
19.91667,36
19.92500,35
19.93333,35
19.94167,35
19.95000,34
19.95833,34
19.96667,34
19.97500,34
19.98333,33
19.99167,33
20.00000,33
20.00833,33
20.01667,33
20.02500,33
20.03333,33
20.04167,32
20.05000,32
20.05833,32
20.06667,32
20.07500,32
20.08333,32
20.09167,32
20.10000,32
20.10833,32
20.11667,32
20.12500,33
20.13333,33
20.14167,33
20.15000,33
20.15833,34
20.16667,34
20.17500,35
20.18333,36
20.19167,36
20.20000,36
20.20833,37
20.21667,37
20.22500,38
20.23333,38
20.24167,38
20.25000,39
20.25833,39
20.26667,40
20.27500,41
20.28333,42
20.29167,43
20.30000,43
20.30833,44
20.31667,44
20.32500,45
20.33333,45
20.34167,46
20.35000,47
20.35833,47
20.36667,47
20.37500,48
20.38333,48
20.39167,49
20.40000,49
20.40833,50
20.41667,50
20.42500,50
20.43333,50
20.44167,50
20.45000,51
20.45833,51
20.46667,52
20.47500,52
20.48333,52
20.49167,52
20.50000,52
20.50833,52
20.51667,52
20.52500,52
20.53333,53
20.54167,53
20.55000,53
20.55833,53
20.56667,53
20.57500,53
20.58333,53
20.59167,52
20.60000,52
20.60833,52
20.61667,53
20.62500,53
20.63333,53
20.64167,53
20.65000,52
20.65833,52
20.66667,52
20.67500,52
20.68333,52
20.69167,52
20.70000,52
20.70833,52
20.71667,52
20.72500,52
20.73333,52
20.74167,52
20.75000,51
20.75833,51
20.76667,51
20.77500,51
20.78333,51
20.79167,50
20.80000,50
20.80833,50
20.81667,50
20.82500,50
20.83333,50
20.84167,50
20.85000,50
20.85833,50
20.86667,50
20.87500,50
20.88333,50
20.89167,50
20.90000,50
20.90833,50
20.91667,50
20.92500,50
20.93333,50
20.94167,50
20.95000,50
20.95833,50
20.96667,51
20.97500,51
20.98333,51
20.99167,51
21.00000,51
21.00833,50
21.01667,50
21.02500,50
21.03333,50
21.04167,50
21.05000,50
21.05833,50
21.06667,50
21.07500,49
21.08333,49
21.09167,49
21.10000,49
21.10833,49
21.11667,49
21.12500,49
21.13333,48
21.14167,48
21.15000,48
21.15833,48
21.16667,48
21.17500,48
21.18333,48
21.19167,48
21.20000,47
21.20833,47
21.21667,47
21.22500,47
21.23333,47
21.24167,47
21.25000,47
21.25833,47
21.26667,47
21.27500,47
21.28333,47
21.29167,47
21.30000,47
21.30833,47
21.31667,47
21.32500,47
21.33333,46
21.34167,46
21.35000,46
21.35833,45
21.36667,45
21.37500,45
21.38333,45
21.39167,45
21.40000,46
21.40833,46
21.41667,47
21.42500,47
21.43333,48
21.44167,49
21.45000,50
21.45833,51
21.46667,52
21.47500,53
21.48333,55
21.49167,57
21.50000,59
21.50833,62
21.51667,66
21.52500,70
21.53333,74
21.54167,79
21.55000,86
21.55833,93
21.56667,100
21.57500,109
21.58333,118
21.59167,129
21.60000,141
21.60833,155
21.61667,171
21.62500,188
21.63333,207
21.64167,229
21.65000,252
21.65833,279
21.66667,307
21.67500,339
21.68333,374
21.69167,411
21.70000,452
21.70833,497
21.71667,545
21.72500,597
21.73333,652
21.74167,711
21.75000,775
21.75833,842
21.76667,913
21.77500,988
21.78333,1067
21.79167,1149
21.80000,1235
21.80833,1324
21.81667,1417
21.82500,1513
21.83333,1611
21.84167,1712
21.85000,1815
21.85833,1920
21.86667,2025
21.87500,2131
21.88333,2238
21.89167,2344
21.90000,2449
21.90833,2552
21.91667,2654
21.92500,2753
21.93333,2849
21.94167,2941
21.95000,3030
21.95833,3114
21.96667,3193
21.97500,3266
21.98333,3333
21.99167,3394
22.00000,3448
22.00833,3495
22.01667,3535
22.02500,3568
22.03333,3592
22.04167,3609
22.05000,3618
22.05833,3620
22.06667,3614
22.07500,3600
22.08333,3578
22.09167,3550
22.10000,3515
22.10833,3472
22.11667,3423
22.12500,3369
22.13333,3308
22.14167,3243
22.15000,3173
22.15833,3099
22.16667,3021
22.17500,2939
22.18333,2854
22.19167,2767
22.20000,2678
22.20833,2587
22.21667,2495
22.22500,2402
22.23333,2309
22.24167,2216
22.25000,2123
22.25833,2031
22.26667,1940
22.27500,1850
22.28333,1761
22.29167,1675
22.30000,1591
22.30833,1509
22.31667,1429
22.32500,1352
22.33333,1277
22.34167,1205
22.35000,1136
22.35833,1069
22.36667,1006
22.37500,945
22.38333,887
22.39167,832
22.40000,780
22.40833,731
22.41667,684
22.42500,639
22.43333,598
22.44167,559
22.45000,522
22.45833,488
22.46667,455
22.47500,425
22.48333,397
22.49167,371
22.50000,346
22.50833,323
22.51667,302
22.52500,282
22.53333,264
22.54167,247
22.55000,231
22.55833,217
22.56667,203
22.57500,191
22.58333,179
22.59167,169
22.60000,160
22.60833,151
22.61667,142
22.62500,134
22.63333,127
22.64167,120
22.65000,114
22.65833,109
22.66667,104
22.67500,99
22.68333,95
22.69167,91
22.70000,87
22.70833,84
22.71667,81
22.72500,78
22.73333,75
22.74167,72
22.75000,70
22.75833,67
22.76667,65
22.77500,64
22.78333,62
22.79167,60
22.80000,58
22.80833,57
22.81667,56
22.82500,55
22.83333,54
22.84167,53
22.85000,51
22.85833,50
22.86667,49
22.87500,48
22.88333,48
22.89167,48
22.90000,47
22.90833,46
22.91667,45
22.92500,45
22.93333,43
22.94167,43
22.95000,42
22.95833,41
22.96667,40
22.97500,40
22.98333,39
22.99167,39
23.00000,39
23.00833,39
23.01667,38
23.02500,38
23.03333,38
23.04167,37
23.05000,37
23.05833,37
23.06667,36
23.07500,36
23.08333,36
23.09167,35
23.10000,34
23.10833,34
23.11667,34
23.12500,33
23.13333,33
23.14167,32
23.15000,32
23.15833,32
23.16667,32
23.17500,31
23.18333,31
23.19167,31
23.20000,31
23.20833,31
23.21667,31
23.22500,31
23.23333,30
23.24167,29
23.25000,29
23.25833,28
23.26667,27
23.27500,27
23.28333,27
23.29167,27
23.30000,27
23.30833,27
23.31667,26
23.32500,26
23.33333,25
23.34167,25
23.35000,24
23.35833,24
23.36667,24
23.37500,24
23.38333,24
23.39167,24
23.40000,24
23.40833,24
23.41667,24
23.42500,24
23.43333,24
23.44167,24
23.45000,24
23.45833,24
23.46667,24
23.47500,25
23.48333,25
23.49167,25
23.50000,26
23.50833,27
23.51667,27
23.52500,27
23.53333,27
23.54167,28
23.55000,29
23.55833,29
23.56667,30
23.57500,30
23.58333,30
23.59167,32
23.60000,33
23.60833,34
23.61667,35
23.62500,36
23.63333,37
23.64167,38
23.65000,39
23.65833,41
23.66667,42
23.67500,43
23.68333,44
23.69167,45
23.70000,46
23.70833,48
23.71667,49
23.72500,50
23.73333,51
23.74167,52
23.75000,53
23.75833,55
23.76667,56
23.77500,57
23.78333,58
23.79167,59
23.80000,60
23.80833,61
23.81667,61
23.82500,62
23.83333,63
23.84167,64
23.85000,65
23.85833,66
23.86667,67
23.87500,68
23.88333,68
23.89167,69
23.90000,69
23.90833,70
23.91667,70
23.92500,70
23.93333,70
23.94167,70
23.95000,70
23.95833,71
23.96667,71
23.97500,71
23.98333,71
23.99167,70
24.00000,70
24.00833,70
24.01667,70
24.02500,69
24.03333,69
24.04167,68
24.05000,68
24.05833,67
24.06667,66
24.07500,65
24.08333,65
24.09167,64
24.10000,63
24.10833,62
24.11667,61
24.12500,60
24.13333,59
24.14167,58
24.15000,57
24.15833,57
24.16667,56
24.17500,55
24.18333,54
24.19167,53
24.20000,52
24.20833,51
24.21667,50
24.22500,49
24.23333,48
24.24167,47
24.25000,47
24.25833,46
24.26667,46
24.27500,46
24.28333,45
24.29167,45
24.30000,44
24.30833,44
24.31667,44
24.32500,44
24.33333,44
24.34167,44
24.35000,44
24.35833,44
24.36667,45
24.37500,46
24.38333,46
24.39167,47
24.40000,49
24.40833,50
24.41667,51
24.42500,52
24.43333,54
24.44167,55
24.45000,57
24.45833,59
24.46667,61
24.47500,64
24.48333,67
24.49167,70
24.50000,73
24.50833,76
24.51667,81
24.52500,86
24.53333,91
24.54167,97
24.55000,103
24.55833,110
24.56667,117
24.57500,125
24.58333,133
24.59167,142
24.60000,152
24.60833,163
24.61667,174
24.62500,186
24.63333,199
24.64167,213
24.65000,229
24.65833,246
24.66667,263
24.67500,282
24.68333,302
24.69167,323
24.70000,345
24.70833,368
24.71667,392
24.72500,417
24.73333,444
24.74167,472
24.75000,501
24.75833,531
24.76667,562
24.77500,593
24.78333,626
24.79167,659
24.80000,693
24.80833,727
24.81667,762
24.82500,797
24.83333,832
24.84167,868
24.85000,903
24.85833,937
24.86667,972
24.87500,1006
24.88333,1039
24.89167,1071
24.90000,1103
24.90833,1133
24.91667,1162
24.92500,1189
24.93333,1215
24.94167,1239
24.95000,1261
24.95833,1281
24.96667,1300
24.97500,1316
24.98333,1329
24.99167,1341
25.00000,1350
25.00833,1357
25.01667,1362
25.02500,1364
25.03333,1363
25.04167,1361
25.05000,1355
25.05833,1348
25.06667,1338
25.07500,1326
25.08333,1312
25.09167,1296
25.10000,1278
25.10833,1258
25.11667,1236
25.12500,1213
25.13333,1188
25.14167,1162
25.15000,1135
25.15833,1106
25.16667,1077
25.17500,1046
25.18333,1015
25.19167,983
25.20000,951
25.20833,918
25.21667,885
25.22500,853
25.23333,820
25.24167,788
25.25000,756
25.25833,725
25.26667,694
25.27500,663
25.28333,632
25.29167,603
25.30000,574
25.30833,546
25.31667,519
25.32500,493
25.33333,467
25.34167,443
25.35000,420
25.35833,398
25.36667,377
25.37500,356
25.38333,336
25.39167,317
25.40000,299
25.40833,282
25.41667,265
25.42500,250
25.43333,236
25.44167,222
25.45000,210
25.45833,198
25.46667,187
25.47500,177
25.48333,167
25.49167,159
25.50000,150
25.50833,143
25.51667,135
25.52500,129
25.53333,123
25.54167,117
25.55000,112
25.55833,108
25.56667,103
25.57500,99
25.58333,96
25.59167,92
25.60000,89
25.60833,86
25.61667,83
25.62500,81
25.63333,79
25.64167,77
25.65000,75
25.65833,74
25.66667,72
25.67500,71
25.68333,69
25.69167,68
25.70000,67
25.70833,66
25.71667,65
25.72500,64
25.73333,64
25.74167,63
25.75000,63
25.75833,62
25.76667,61
25.77500,60
25.78333,59
25.79167,58
25.80000,58
25.80833,58
25.81667,57
25.82500,57
25.83333,57
25.84167,56
25.85000,55
25.85833,55
25.86667,54
25.87500,54
25.88333,53
25.89167,53
25.90000,53
25.90833,52
25.91667,52
25.92500,52
25.93333,51
25.94167,51
25.95000,51
25.95833,51
25.96667,50
25.97500,50
25.98333,49
25.99167,49
26.00000,48
26.00833,48
26.01667,48
26.02500,47
26.03333,48
26.04167,48
26.05000,48
26.05833,48
26.06667,48
26.07500,48
26.08333,48
26.09167,48
26.10000,48
26.10833,47
26.11667,47
26.12500,47
26.13333,47
26.14167,47
26.15000,47
26.15833,47
26.16667,47
26.17500,47
26.18333,47
26.19167,47
26.20000,47
26.20833,47
26.21667,47
26.22500,47
26.23333,47
26.24167,47
26.25000,47
26.25833,46
26.26667,46
26.27500,46
26.28333,46
26.29167,46
26.30000,46
26.30833,46
26.31667,46
26.32500,46
26.33333,45
26.34167,45
26.35000,45
26.35833,44
26.36667,44
26.37500,44
26.38333,44
26.39167,44
26.40000,44
26.40833,44
26.41667,44
26.42500,44
26.43333,44
26.44167,43
26.45000,43
26.45833,42
26.46667,42
26.47500,41
26.48333,41
26.49167,41
26.50000,41
26.50833,41
26.51667,41
26.52500,41
26.53333,40
26.54167,40
26.55000,40
26.55833,40
26.56667,40
26.57500,40
26.58333,40
26.59167,40
26.60000,40
26.60833,40
26.61667,40
26.62500,39
26.63333,39
26.64167,39
26.65000,40
26.65833,40
26.66667,40
26.67500,40
26.68333,40
26.69167,40
26.70000,40
26.70833,41
26.71667,41
26.72500,41
26.73333,41
26.74167,41
26.75000,41
26.75833,42
26.76667,42
26.77500,42
26.78333,43
26.79167,43
26.80000,43
26.80833,44
26.81667,44
26.82500,45
26.83333,45
26.84167,45
26.85000,45
26.85833,45
26.86667,45
26.87500,45
26.88333,45
26.89167,46
26.90000,46
26.90833,46
26.91667,47
26.92500,47
26.93333,47
26.94167,47
26.95000,47
26.95833,47
26.96667,47
26.97500,48
26.98333,48
26.99167,48
27.00000,48
27.00833,48
27.01667,49
27.02500,49
27.03333,49
27.04167,49
27.05000,48
27.05833,49
27.06667,49
27.07500,49
27.08333,49
27.09167,49
27.10000,49
27.10833,49
27.11667,49
27.12500,49
27.13333,48
27.14167,48
27.15000,48
27.15833,48
27.16667,48
27.17500,47
27.18333,47
27.19167,47
27.20000,46
27.20833,46
27.21667,46
27.22500,46
27.23333,46
27.24167,46
27.25000,46
27.25833,46
27.26667,46
27.27500,46
27.28333,45
27.29167,45
27.30000,45
27.30833,45
27.31667,44
27.32500,44
27.33333,44
27.34167,44
27.35000,44
27.35833,44
27.36667,44
27.37500,43
27.38333,43
27.39167,43
27.40000,43
27.40833,42
27.41667,42
27.42500,42
27.43333,42
27.44167,42
27.45000,41
27.45833,41
27.46667,41
27.47500,40
27.48333,40
27.49167,40
27.50000,40
27.50833,40
27.51667,39
27.52500,39
27.53333,39
27.54167,39
27.55000,39
27.55833,39
27.56667,39
27.57500,39
27.58333,39
27.59167,39
27.60000,39
27.60833,39
27.61667,39
27.62500,39
27.63333,39
27.64167,39
27.65000,39
27.65833,39
27.66667,39
27.67500,39
27.68333,39
27.69167,39
27.70000,39
27.70833,39
27.71667,39
27.72500,39
27.73333,38
27.74167,38
27.75000,37
27.75833,37
27.76667,37
27.77500,36
27.78333,36
27.79167,36
27.80000,35
27.80833,34
27.81667,34
27.82500,33
27.83333,32
27.84167,31
27.85000,30
27.85833,30
27.86667,29
27.87500,28
27.88333,27
27.89167,25
27.90000,24
27.90833,22
27.91667,21
27.92500,19
27.93333,17
27.94167,15
27.95000,13
27.95833,11
27.96667,9
27.97500,6
27.98333,4
27.99167,2
28.00000,-0
28.00833,-3
28.01667,-6
28.02500,-9
28.03333,-12
28.04167,-15
28.05000,-18
28.05833,-21
28.06667,-24
28.07500,-27
28.08333,-30
28.09167,-34
28.10000,-37
28.10833,-41
28.11667,-44
28.12500,-47
28.13333,-51
28.14167,-54
28.15000,-57
28.15833,-60
28.16667,-63
28.17500,-67
28.18333,-70
28.19167,-73
28.20000,-76
28.20833,-79
28.21667,-82
28.22500,-85
28.23333,-88
28.24167,-90
28.25000,-92
28.25833,-94
28.26667,-96
28.27500,-98
28.28333,-100
28.29167,-101
28.30000,-102
28.30833,-103
28.31667,-104
28.32500,-105
28.33333,-105
28.34167,-106
28.35000,-106
28.35833,-106
28.36667,-106
28.37500,-105
28.38333,-104
28.39167,-103
28.40000,-102
28.40833,-101
28.41667,-100
28.42500,-98
28.43333,-97
28.44167,-96
28.45000,-94
28.45833,-92
28.46667,-90
28.47500,-88
28.48333,-85
28.49167,-83
28.50000,-81
28.50833,-78
28.51667,-76
28.52500,-74
28.53333,-71
28.54167,-69
28.55000,-66
28.55833,-63
28.56667,-60
28.57500,-57
28.58333,-54
28.59167,-51
28.60000,-48
28.60833,-45
28.61667,-42
28.62500,-39
28.63333,-35
28.64167,-32
28.65000,-29
28.65833,-27
28.66667,-24
28.67500,-21
28.68333,-18
28.69167,-16
28.70000,-13
28.70833,-11
28.71667,-8
28.72500,-6
28.73333,-3
28.74167,-1
28.75000,1
28.75833,4
28.76667,6
28.77500,8
28.78333,10
28.79167,11
28.80000,13
28.80833,15
28.81667,16
28.82500,18
28.83333,20
28.84167,21
28.85000,23
28.85833,24
28.86667,25
28.87500,27
28.88333,28
28.89167,29
28.90000,30
28.90833,31
28.91667,32
28.92500,33
28.93333,34
28.94167,35
28.95000,36
28.95833,37
28.96667,38
28.97500,39
28.98333,39
28.99167,40
29.00000,40
29.00833,41
29.01667,42
29.02500,42
29.03333,43
29.04167,44
29.05000,45
29.05833,45
29.06667,46
29.07500,47
29.08333,47
29.09167,48
29.10000,48
29.10833,49
29.11667,49
29.12500,49
29.13333,49
29.14167,49
29.15000,50
29.15833,50
29.16667,50
29.17500,50
29.18333,51
29.19167,51
29.20000,50
29.20833,50
29.21667,50
29.22500,50
29.23333,50
29.24167,51
29.25000,50
29.25833,50
29.26667,50
29.27500,50
29.28333,50
29.29167,50
29.30000,49
29.30833,48
29.31667,48
29.32500,47
29.33333,47
29.34167,47
29.35000,46
29.35833,45
29.36667,45
29.37500,44
29.38333,43
29.39167,43
29.40000,42
29.40833,41
29.41667,41
29.42500,40
29.43333,39
29.44167,38
29.45000,37
29.45833,36
29.46667,35
29.47500,34
29.48333,33
29.49167,32
29.50000,31
29.50833,30
29.51667,29
29.52500,28
29.53333,27
29.54167,26
29.55000,25
29.55833,24
29.56667,23
29.57500,22
29.58333,21
29.59167,20
29.60000,19
29.60833,18
29.61667,18
29.62500,17
29.63333,16
29.64167,15
29.65000,14
29.65833,13
29.66667,12
29.67500,11
29.68333,11
29.69167,10
29.70000,9
29.70833,9
29.71667,8
29.72500,7
29.73333,6
29.74167,6
29.75000,6
29.75833,5
29.76667,5
29.77500,4
29.78333,3
29.79167,2
29.80000,1
29.80833,0
29.81667,-0
29.82500,-1
29.83333,-2
29.84167,-2
29.85000,-3
29.85833,-3
29.86667,-4
29.87500,-4
29.88333,-5
29.89167,-5
29.90000,-6
29.90833,-6
29.91667,-6
29.92500,-7
29.93333,-7
29.94167,-8
29.95000,-9
29.95833,-9
29.96667,-10
29.97500,-10
29.98333,-10
29.99167,-10
30.00000,-10
30.00833,-11
30.01667,-11
30.02500,-11
30.03333,-11
30.04167,-11
30.05000,-12
30.05833,-12
30.06667,-12
30.07500,-12
30.08333,-12
30.09167,-12
30.10000,-11
30.10833,-11
30.11667,-11
30.12500,-10
30.13333,-10
30.14167,-9
30.15000,-9
30.15833,-8
30.16667,-8
30.17500,-7
30.18333,-7
30.19167,-7
30.20000,-7
30.20833,-6
30.21667,-5
30.22500,-4
30.23333,-3
30.24167,-2
30.25000,-2
30.25833,-1
30.26667,-0
30.27500,-0
30.28333,1
30.29167,2
30.30000,3
30.30833,4
30.31667,5
30.32500,6
30.33333,7
30.34167,8
30.35000,8
30.35833,9
30.36667,10
30.37500,11
30.38333,12
30.39167,14
30.40000,15
30.40833,15
30.41667,16
30.42500,18
30.43333,19
30.44167,19
30.45000,20
30.45833,21
30.46667,22
30.47500,23
30.48333,23
30.49167,24
30.50000,25
30.50833,26
30.51667,27
30.52500,28
30.53333,28
30.54167,29
30.55000,30
30.55833,31
30.56667,32
30.57500,32
30.58333,33
30.59167,34
30.60000,35
30.60833,36
30.61667,37
30.62500,38
30.63333,38
30.64167,38
30.65000,38
30.65833,38
30.66667,38
30.67500,38
30.68333,38
30.69167,39
30.70000,40
30.70833,40
30.71667,40
30.72500,40
30.73333,40
30.74167,40
30.75000,40
30.75833,40
30.76667,40
30.77500,40
30.78333,40
30.79167,40
30.80000,40
30.80833,40
30.81667,39
30.82500,39
30.83333,39
30.84167,39
30.85000,39
30.85833,38
30.86667,38
30.87500,38
30.88333,37
30.89167,37
30.90000,37
30.90833,37
30.91667,36
30.92500,36
30.93333,36
30.94167,36
30.95000,35
30.95833,35
30.96667,34
30.97500,34
30.98333,34
30.99167,33
31.00000,33
31.00833,33
31.01667,32
31.02500,32
31.03333,32
31.04167,31
31.05000,31
31.05833,30
31.06667,30
31.07500,30
31.08333,30
31.09167,29
31.10000,29
31.10833,29
31.11667,29
31.12500,29
31.13333,29
31.14167,29
31.15000,29
31.15833,28
31.16667,28
31.17500,28
31.18333,29
31.19167,29
31.20000,29
31.20833,29
31.21667,29
31.22500,29
31.23333,29
31.24167,28
31.25000,29
31.25833,29
31.26667,29
31.27500,30
31.28333,30
31.29167,30
31.30000,30
31.30833,30
31.31667,31
31.32500,31
31.33333,31
31.34167,32
31.35000,33
31.35833,33
31.36667,33
31.37500,34
31.38333,34
31.39167,34
31.40000,34
31.40833,34
31.41667,34
31.42500,34
31.43333,35
31.44167,35
31.45000,36
31.45833,36
31.46667,36
31.47500,36
31.48333,37
31.49167,38
31.50000,39
31.50833,39
31.51667,40
31.52500,40
31.53333,41
31.54167,41
31.55000,41
31.55833,42
31.56667,42
31.57500,43
31.58333,44
31.59167,44
31.60000,44
31.60833,45
31.61667,45
31.62500,45
31.63333,45
31.64167,46
31.65000,46
31.65833,47
31.66667,47
31.67500,46
31.68333,46
31.69167,46
31.70000,46
31.70833,46
31.71667,46
31.72500,46
31.73333,46
31.74167,46
31.75000,46
31.75833,46
31.76667,45
31.77500,45
31.78333,45
31.79167,45
31.80000,44
31.80833,44
31.81667,45
31.82500,45
31.83333,45
31.84167,45
31.85000,44
31.85833,44
31.86667,43
31.87500,43
31.88333,43
31.89167,42
31.90000,42
31.90833,41
31.91667,41
31.92500,41
31.93333,40
31.94167,40
31.95000,39
31.95833,39
31.96667,39
31.97500,39
31.98333,38
31.99167,38
32.00000,37
32.00833,37
32.01667,36
32.02500,36
32.03333,35
32.04167,35
32.05000,35
32.05833,35
32.06667,35
32.07500,35
32.08333,35
32.09167,35
32.10000,35
32.10833,35
32.11667,35
32.12500,35
32.13333,35
32.14167,35
32.15000,35
32.15833,36
32.16667,36
32.17500,36
32.18333,37
32.19167,37
32.20000,38
32.20833,39
32.21667,39
32.22500,40
32.23333,40
32.24167,41
32.25000,42
32.25833,43
32.26667,44
32.27500,45
32.28333,46
32.29167,47
32.30000,48
32.30833,48
32.31667,49
32.32500,49
32.33333,50
32.34167,51
32.35000,52
32.35833,53
32.36667,54
32.37500,55
32.38333,56
32.39167,57
32.40000,57
32.40833,58
32.41667,59
32.42500,60
32.43333,61
32.44167,62
32.45000,63
32.45833,63
32.46667,64
32.47500,64
32.48333,64
32.49167,65
32.50000,65
32.50833,66
32.51667,67
32.52500,68
32.53333,69
32.54167,69
32.55000,69
32.55833,69
32.56667,70
32.57500,70
32.58333,71
32.59167,71
32.60000,72
32.60833,72
32.61667,72
32.62500,72
32.63333,73
32.64167,73
32.65000,73
32.65833,73
32.66667,73
32.67500,73
32.68333,74
32.69167,74
32.70000,74
32.70833,73
32.71667,73
32.72500,73
32.73333,74
32.74167,74
32.75000,74
32.75833,75
32.76667,75
32.77500,75
32.78333,75
32.79167,74
32.80000,74
32.80833,73
32.81667,73
32.82500,73
32.83333,72
32.84167,72
32.85000,72
32.85833,72
32.86667,71
32.87500,71
32.88333,71
32.89167,70
32.90000,69
32.90833,69
32.91667,69
32.92500,69
32.93333,68
32.94167,67
32.95000,67
32.95833,66
32.96667,65
32.97500,64
32.98333,64
32.99167,63
33.00000,62
33.00833,62
33.01667,61
33.02500,60
33.03333,59
33.04167,59
33.05000,58
33.05833,57
33.06667,57
33.07500,56
33.08333,55
33.09167,55
33.10000,55
33.10833,54
33.11667,54
33.12500,53
33.13333,52
33.14167,51
33.15000,50
33.15833,50
33.16667,49
33.17500,49
33.18333,49
33.19167,49
33.20000,48
33.20833,48
33.21667,48
33.22500,48
33.23333,47
33.24167,47
33.25000,47
33.25833,47
33.26667,47
33.27500,47
33.28333,47
33.29167,47
33.30000,47
33.30833,47
33.31667,47
33.32500,47
33.33333,46
33.34167,46
33.35000,46
33.35833,46
33.36667,46
33.37500,46
33.38333,47
33.39167,46
33.40000,46
33.40833,46
33.41667,46
33.42500,46
33.43333,46
33.44167,46
33.45000,46
33.45833,46
33.46667,47
33.47500,47
33.48333,47
33.49167,47
33.50000,47
33.50833,47
33.51667,47
33.52500,46
33.53333,46
33.54167,46
33.55000,46
33.55833,46
33.56667,46
33.57500,46
33.58333,46
33.59167,46
33.60000,46
33.60833,46
33.61667,46
33.62500,46
33.63333,46
33.64167,46
33.65000,46
33.65833,46
33.66667,46
33.67500,47
33.68333,47
33.69167,48
33.70000,48
33.70833,48
33.71667,49
33.72500,49
33.73333,49
33.74167,49
33.75000,50
33.75833,50
33.76667,50
33.77500,50
33.78333,50
33.79167,50
33.80000,51
33.80833,51
33.81667,51
33.82500,52
33.83333,52
33.84167,52
33.85000,52
33.85833,52
33.86667,52
33.87500,52
33.88333,53
33.89167,53
33.90000,53
33.90833,53
33.91667,53
33.92500,53
33.93333,54
33.94167,54
33.95000,55
33.95833,55
33.96667,56
33.97500,56
33.98333,56
33.99167,56
34.00000,56
34.00833,56
34.01667,56
34.02500,57
34.03333,57
34.04167,57
34.05000,56
34.05833,56
34.06667,56
34.07500,56
34.08333,57
34.09167,57
34.10000,57
34.10833,57
34.11667,57
34.12500,57
34.13333,57
34.14167,57
34.15000,57
34.15833,57
34.16667,57
34.17500,57
34.18333,57
34.19167,57
34.20000,57
34.20833,57
34.21667,58
34.22500,58
34.23333,58
34.24167,57
34.25000,57
34.25833,58
34.26667,58
34.27500,57
34.28333,57
34.29167,57
34.30000,57
34.30833,57
34.31667,57
34.32500,57
34.33333,56
34.34167,56
34.35000,56
34.35833,56
34.36667,56
34.37500,56
34.38333,56
34.39167,56
34.40000,56
34.40833,56
34.41667,56
34.42500,56
34.43333,56
34.44167,56
34.45000,56
34.45833,56
34.46667,56
34.47500,56
34.48333,56
34.49167,56
34.50000,56
34.50833,56
34.51667,56
34.52500,56
34.53333,56
34.54167,56
34.55000,56
34.55833,56
34.56667,56
34.57500,56
34.58333,56
34.59167,55
34.60000,55
34.60833,56
34.61667,56
34.62500,57
34.63333,57
34.64167,57
34.65000,58
34.65833,58
34.66667,58
34.67500,59
34.68333,59
34.69167,59
34.70000,60
34.70833,60
34.71667,60
34.72500,60
34.73333,60
34.74167,60
34.75000,61
34.75833,61
34.76667,61
34.77500,61
34.78333,61
34.79167,62
34.80000,62
34.80833,62
34.81667,62
34.82500,63
34.83333,63
34.84167,64
34.85000,64
34.85833,64
34.86667,65
34.87500,65
34.88333,65
34.89167,65
34.90000,65
34.90833,65
34.91667,65
34.92500,65
34.93333,65
34.94167,66
34.95000,66
34.95833,66
34.96667,66
34.97500,67
34.98333,67
34.99167,67
35.00000,67
35.00833,67
35.01667,68
35.02500,68
35.03333,68
35.04167,68
35.05000,67
35.05833,67
35.06667,67
35.07500,66
35.08333,66
35.09167,66
35.10000,66
35.10833,66
35.11667,66
35.12500,66
35.13333,66
35.14167,67
35.15000,67
35.15833,66
35.16667,66
35.17500,65
35.18333,65
35.19167,65
35.20000,64
35.20833,64
35.21667,63
35.22500,63
35.23333,62
35.24167,62
35.25000,62
35.25833,61
35.26667,60
35.27500,60
35.28333,60
35.29167,59
35.30000,59
35.30833,58
35.31667,58
35.32500,57
35.33333,57
35.34167,56
35.35000,56
35.35833,56
35.36667,55
35.37500,55
35.38333,55
35.39167,54
35.40000,54
35.40833,53
35.41667,53
35.42500,52
35.43333,52
35.44167,52
35.45000,52
35.45833,51
35.46667,51
35.47500,50
35.48333,50
35.49167,50
35.50000,50
35.50833,49
35.51667,49
35.52500,49
35.53333,48
35.54167,48
35.55000,48
35.55833,48
35.56667,48
35.57500,48
35.58333,47
35.59167,47
35.60000,46
35.60833,46
35.61667,45
35.62500,45
35.63333,45
35.64167,45
35.65000,45
35.65833,45
35.66667,45
35.67500,45
35.68333,45
35.69167,45
35.70000,46
35.70833,46
35.71667,45
35.72500,45
35.73333,45
35.74167,45
35.75000,45
35.75833,45
35.76667,45
35.77500,46
35.78333,46
35.79167,46
35.80000,46
35.80833,47
35.81667,47
35.82500,47
35.83333,47
35.84167,47
35.85000,48
35.85833,48
35.86667,48
35.87500,48
35.88333,48
35.89167,48
35.90000,48
35.90833,48
35.91667,48
35.92500,48
35.93333,49
35.94167,49
35.95000,49
35.95833,49
35.96667,49
35.97500,49
35.98333,50
35.99167,50
36.00000,50
36.00833,50
36.01667,50
36.02500,50
36.03333,50
36.04167,50
36.05000,50
36.05833,51
36.06667,51
36.07500,51
36.08333,51
36.09167,51
36.10000,51
36.10833,52
36.11667,52
36.12500,52
36.13333,52
36.14167,52
36.15000,52
36.15833,52
36.16667,52
36.17500,53
36.18333,53
36.19167,53
36.20000,53
36.20833,54
36.21667,54
36.22500,54
36.23333,55
36.24167,55
36.25000,56
36.25833,57
36.26667,57
36.27500,58
36.28333,58
36.29167,59
36.30000,60
36.30833,60
36.31667,60
36.32500,61
36.33333,61
36.34167,62
36.35000,62
36.35833,63
36.36667,63
36.37500,64
36.38333,64
36.39167,64
36.40000,65
36.40833,66
36.41667,66
36.42500,67
36.43333,67
36.44167,68
36.45000,68
36.45833,68
36.46667,69
36.47500,69
36.48333,70
36.49167,70
36.50000,71
36.50833,71
36.51667,71
36.52500,71
36.53333,71
36.54167,71
36.55000,71
36.55833,72
36.56667,72
36.57500,72
36.58333,73
36.59167,73
36.60000,73
36.60833,73
36.61667,73
36.62500,73
36.63333,72
36.64167,72
36.65000,72
36.65833,72
36.66667,73
36.67500,73
36.68333,72
36.69167,72
36.70000,72
36.70833,71
36.71667,71
36.72500,71
36.73333,71
36.74167,71
36.75000,70
36.75833,70
36.76667,70
36.77500,70
36.78333,70
36.79167,70
36.80000,70
36.80833,69
36.81667,69
36.82500,69
36.83333,69
36.84167,69
36.85000,69
36.85833,69
36.86667,69
36.87500,69
36.88333,68
36.89167,68
36.90000,68
36.90833,68
36.91667,68
36.92500,68
36.93333,67
36.94167,67
36.95000,67
36.95833,67
36.96667,67
36.97500,66
36.98333,66
36.99167,66
37.00000,66
37.00833,67
37.01667,67
37.02500,66
37.03333,66
37.04167,66
37.05000,66
37.05833,65
37.06667,65
37.07500,64
37.08333,63
37.09167,62
37.10000,62
37.10833,61
37.11667,61
37.12500,61
37.13333,60
37.14167,60
37.15000,59
37.15833,59
37.16667,59
37.17500,58
37.18333,57
37.19167,57
37.20000,56
37.20833,56
37.21667,56
37.22500,55
37.23333,55
37.24167,54
37.25000,53
37.25833,53
37.26667,52
37.27500,51
37.28333,51
37.29167,50
37.30000,50
37.30833,50
37.31667,50
37.32500,50
37.33333,49
37.34167,49
37.35000,49
37.35833,49
37.36667,48
37.37500,48
37.38333,48
37.39167,48
37.40000,48
37.40833,48
37.41667,48
37.42500,48
37.43333,48
37.44167,48
37.45000,48
37.45833,48
37.46667,49
37.47500,49
37.48333,49
37.49167,50
37.50000,51
37.50833,51
37.51667,52
37.52500,53
37.53333,53
37.54167,54
37.55000,54
37.55833,55
37.56667,55
37.57500,55
37.58333,56
37.59167,57
37.60000,57
37.60833,58
37.61667,59
37.62500,59
37.63333,60
37.64167,60
37.65000,61
37.65833,62
37.66667,62
37.67500,63
37.68333,63
37.69167,64
37.70000,64
37.70833,65
37.71667,65
37.72500,65
37.73333,65
37.74167,65
37.75000,66
37.75833,66
37.76667,66
37.77500,67
37.78333,67
37.79167,68
37.80000,68
37.80833,68
37.81667,68
37.82500,68
37.83333,68
37.84167,68
37.85000,68
37.85833,68
37.86667,68
37.87500,68
37.88333,68
37.89167,68
37.90000,68
37.90833,67
37.91667,67
37.92500,67
37.93333,67
37.94167,66
37.95000,66
37.95833,66
37.96667,66
37.97500,65
37.98333,65
37.99167,64
38.00000,64
38.00833,64
38.01667,63
38.02500,63
38.03333,62
38.04167,62
38.05000,62
38.05833,62
38.06667,61
38.07500,61
38.08333,61
38.09167,61
38.10000,60
38.10833,60
38.11667,59
38.12500,59
38.13333,58
38.14167,58
38.15000,58
38.15833,57
38.16667,57
38.17500,57
38.18333,57
38.19167,57
38.20000,57
38.20833,57
38.21667,57
38.22500,57
38.23333,57
38.24167,57
38.25000,57
38.25833,57
38.26667,57
38.27500,57
38.28333,57
38.29167,57
38.30000,57
38.30833,57
38.31667,57
38.32500,57
38.33333,57
38.34167,58
38.35000,58
38.35833,58
38.36667,59
38.37500,60
38.38333,60
38.39167,61
38.40000,61
38.40833,61
38.41667,62
38.42500,62
38.43333,63
38.44167,63
38.45000,63
38.45833,63
38.46667,64
38.47500,64
38.48333,65
38.49167,65
38.50000,65
38.50833,65
38.51667,65
38.52500,66
38.53333,67
38.54167,67
38.55000,67
38.55833,67
38.56667,66
38.57500,67
38.58333,67
38.59167,67
38.60000,67
38.60833,67
38.61667,67
38.62500,67
38.63333,67
38.64167,67
38.65000,67
38.65833,66
38.66667,66
38.67500,66
38.68333,65
38.69167,65
38.70000,65
38.70833,65
38.71667,65
38.72500,64
38.73333,64
38.74167,64
38.75000,64
38.75833,64
38.76667,64
38.77500,64
38.78333,64
38.79167,64
38.80000,64
38.80833,64
38.81667,64
38.82500,64
38.83333,64
38.84167,64
38.85000,64
38.85833,65
38.86667,65
38.87500,65
38.88333,66
38.89167,66
38.90000,66
38.90833,67
38.91667,67
38.92500,67
38.93333,68
38.94167,69
38.95000,69
38.95833,69
38.96667,70
38.97500,71
38.98333,71
38.99167,72
39.00000,72
39.00833,72
39.01667,73
39.02500,73
39.03333,74
39.04167,75
39.05000,76
39.05833,76
39.06667,77
39.07500,77
39.08333,78
39.09167,78
39.10000,78
39.10833,78
39.11667,78
39.12500,78
39.13333,78
39.14167,78
39.15000,79
39.15833,79
39.16667,79
39.17500,79
39.18333,79
39.19167,79
39.20000,79
39.20833,78
39.21667,78
39.22500,78
39.23333,77
39.24167,77
39.25000,76
39.25833,75
39.26667,74
39.27500,73
39.28333,72
39.29167,72
39.30000,71
39.30833,71
39.31667,70
39.32500,69
39.33333,68
39.34167,68
39.35000,67
39.35833,67
39.36667,66
39.37500,66
39.38333,65
39.39167,64
39.40000,63
39.40833,63
39.41667,62
39.42500,61
39.43333,61
39.44167,60
39.45000,60
39.45833,60
39.46667,59
39.47500,59
39.48333,58
39.49167,58
39.50000,57
39.50833,57
39.51667,57
39.52500,56
39.53333,56
39.54167,55
39.55000,55
39.55833,55
39.56667,55
39.57500,55
39.58333,54
39.59167,54
39.60000,54
39.60833,54
39.61667,54
39.62500,54
39.63333,54
39.64167,53
39.65000,53
39.65833,53
39.66667,53
39.67500,53
39.68333,53
39.69167,52
39.70000,52
39.70833,52
39.71667,52
39.72500,52
39.73333,52
39.74167,51
39.75000,51
39.75833,51
39.76667,51
39.77500,51
39.78333,51
39.79167,50
39.80000,50
39.80833,49
39.81667,49
39.82500,49
39.83333,49
39.84167,49
39.85000,48
39.85833,49
39.86667,49
39.87500,49
39.88333,49
39.89167,49
39.90000,48
39.90833,48
39.91667,48
39.92500,47
39.93333,47
39.94167,47
39.95000,47
39.95833,47
39.96667,47
39.97500,47
39.98333,47
39.99167,47
40.00000,47

