[Header]
Application Name,LabSolutions
Version,5.97 SP1
Data File Name,C:\Users\cremerlab\Desktop\griffin\2021-04-05_NC_DM_calibration\2021-04-05_NC_DM_2.5mM_calibration_452021_001_001.lcd
Output Date,4/5/2021
Output Time,5:45:17 PM

[File Information]
Type,Data File
Generated,4/5/2021 5:04:56 PM
Generated by,System Administrator
Modified,4/5/2021 5:45:17 PM
Modified by,System Administrator

[Sample Information]
Operator Name,System Administrator
Acquired,4/5/2021 5:05:16 PM
Sample Type,1:Standard
Level,1
Sample Name,2021-04-05_NC_glucose_glycerol_acetate_30mM
Sample ID,001
ISTD Amount1,1
ISTD Amount2,1
ISTD Amount3,1
ISTD Amount4,1
ISTD Amount5,1
ISTD Amount6,1
ISTD Amount7,1
ISTD Amount8,1
ISTD Amount9,1
ISTD Amount10,1
ISTD Amount11,1
ISTD Amount12,1
ISTD Amount13,1
ISTD Amount14,1
ISTD Amount15,1
ISTD Amount16,1
ISTD Amount17,1
ISTD Amount18,1
ISTD Amount19,1
ISTD Amount20,1
ISTD Amount21,1
ISTD Amount22,1
ISTD Amount23,1
ISTD Amount24,1
ISTD Amount25,1
ISTD Amount26,1
ISTD Amount27,1
ISTD Amount28,1
ISTD Amount29,1
ISTD Amount30,1
ISTD Amount31,1
ISTD Amount32,1
Sample Amount,1
Dilution Factor,1
Vial#,1
Injection Volume,20

[Original Files]
Data File,C:\Users\cremerlab\Desktop\griffin\2021-04-05_NC_DM_calibration\2021-04-05_NC_DM_2.5mM_calibration_452021_001_001.lcd
Method File,C:\Users\cremerlab\Desktop\griffin\2021-04-05_NC_DM_calibration\2021-04-05_2.5mM_mobile.lcm
Batch File,C:\Users\cremerlab\Desktop\griffin\2021-04-05_NC_DM_calibration\2021-04-05_NC_DM_2.5mM_calibration.lcb
Report Format File,c:\LabSolutions\System\DEFAULT.lsr

[File Description]


[Configuration]
Instrument Name,HPLC-PC-Instrument1
Instrument #,1
Line #,1
# of Detectors,2
Detector ID,Detector A,Detector B
Detector Name,Detector A,Detector B
# of Channels,1,1

[Peak Table(Detector A)]
# of Peaks,0

[Peak Table(Detector B)]
# of Peaks,5
Peak#,R.Time,I.Time,F.Time,Area,Height,A/H,Conc.,Mark,ID#,Name,k',Plate #,Plate Ht.,Tailing,Resolution,Sep.Factor,Area Ratio,Height Ratio,Conc. %,Norm Conc.
1,11.003,10.600,12.658,1527576,83969,18.192,0.000,   ,,,0.000,9384,15.985,0.969,0.000,0.000,0,0,0.000,0.000
2,14.384,12.658,15.092,3884648,85747,45.304,0.000, V ,,,0.307,2810,53.383,0.622,4.391,0.000,0,0,0.000,0.000
3,15.662,15.092,18.750,3099783,124535,24.891,0.000, V ,,,0.423,9600,15.624,1.151,1.482,1.378,0,0,0.000,0.000
4,22.057,21.300,23.567,884873,32230,27.455,0.000,   ,,,1.005,14924,10.051,1.094,9.394,2.373,0,0,0.000,0.000
5,25.010,24.258,26.142,376989,12730,29.615,0.000,   ,,,1.273,16355,9.172,1.076,3.925,1.267,0,0,0.000,0.000

[LC Chromatogram(Detector B-Ch1)]
Interval(msec),500
# of Points,4801
Start Time(min),0.000
End Time(min),40.000
Intensity Units,mV
Intensity Multiplier,0.001
R.Time (min),Intensity
0.00000,50
0.00833,50
0.01667,1
0.02500,3
0.03333,5
0.04167,7
0.05000,9
0.05833,11
0.06667,12
0.07500,14
0.08333,16
0.09167,17
0.10000,18
0.10833,20
0.11667,22
0.12500,23
0.13333,24
0.14167,26
0.15000,27
0.15833,28
0.16667,30
0.17500,31
0.18333,32
0.19167,33
0.20000,34
0.20833,34
0.21667,35
0.22500,36
0.23333,36
0.24167,37
0.25000,38
0.25833,38
0.26667,39
0.27500,40
0.28333,41
0.29167,41
0.30000,42
0.30833,42
0.31667,42
0.32500,42
0.33333,42
0.34167,42
0.35000,42
0.35833,42
0.36667,42
0.37500,41
0.38333,41
0.39167,41
0.40000,41
0.40833,40
0.41667,40
0.42500,40
0.43333,39
0.44167,39
0.45000,38
0.45833,37
0.46667,37
0.47500,36
0.48333,36
0.49167,35
0.50000,34
0.50833,34
0.51667,34
0.52500,33
0.53333,32
0.54167,32
0.55000,31
0.55833,31
0.56667,30
0.57500,29
0.58333,28
0.59167,27
0.60000,27
0.60833,26
0.61667,25
0.62500,24
0.63333,23
0.64167,22
0.65000,21
0.65833,20
0.66667,19
0.67500,19
0.68333,18
0.69167,17
0.70000,17
0.70833,16
0.71667,15
0.72500,14
0.73333,14
0.74167,13
0.75000,12
0.75833,11
0.76667,10
0.77500,9
0.78333,9
0.79167,8
0.80000,7
0.80833,6
0.81667,6
0.82500,5
0.83333,5
0.84167,5
0.85000,4
0.85833,3
0.86667,2
0.87500,2
0.88333,2
0.89167,2
0.90000,1
0.90833,1
0.91667,1
0.92500,1
0.93333,0
0.94167,-0
0.95000,-1
0.95833,-2
0.96667,-3
0.97500,-3
0.98333,-4
0.99167,-4
1.00000,-4
1.00833,-4
1.01667,-5
1.02500,-5
1.03333,-5
1.04167,-5
1.05000,-6
1.05833,-6
1.06667,-7
1.07500,-7
1.08333,-8
1.09167,-8
1.10000,-9
1.10833,-9
1.11667,-9
1.12500,-9
1.13333,-9
1.14167,-9
1.15000,-9
1.15833,-9
1.16667,-9
1.17500,-9
1.18333,-10
1.19167,-10
1.20000,-11
1.20833,-11
1.21667,-11
1.22500,-11
1.23333,-11
1.24167,-12
1.25000,-12
1.25833,-12
1.26667,-12
1.27500,-13
1.28333,-13
1.29167,-13
1.30000,-13
1.30833,-13
1.31667,-13
1.32500,-14
1.33333,-14
1.34167,-14
1.35000,-14
1.35833,-14
1.36667,-14
1.37500,-15
1.38333,-15
1.39167,-15
1.40000,-16
1.40833,-16
1.41667,-17
1.42500,-17
1.43333,-17
1.44167,-18
1.45000,-18
1.45833,-18
1.46667,-19
1.47500,-19
1.48333,-20
1.49167,-20
1.50000,-20
1.50833,-19
1.51667,-19
1.52500,-19
1.53333,-19
1.54167,-20
1.55000,-20
1.55833,-21
1.56667,-21
1.57500,-22
1.58333,-22
1.59167,-23
1.60000,-23
1.60833,-24
1.61667,-24
1.62500,-25
1.63333,-25
1.64167,-26
1.65000,-26
1.65833,-26
1.66667,-27
1.67500,-27
1.68333,-28
1.69167,-28
1.70000,-28
1.70833,-29
1.71667,-29
1.72500,-30
1.73333,-30
1.74167,-30
1.75000,-31
1.75833,-31
1.76667,-32
1.77500,-33
1.78333,-33
1.79167,-34
1.80000,-35
1.80833,-35
1.81667,-36
1.82500,-36
1.83333,-37
1.84167,-37
1.85000,-38
1.85833,-38
1.86667,-39
1.87500,-39
1.88333,-40
1.89167,-40
1.90000,-41
1.90833,-42
1.91667,-42
1.92500,-42
1.93333,-43
1.94167,-43
1.95000,-44
1.95833,-45
1.96667,-45
1.97500,-46
1.98333,-46
1.99167,-47
2.00000,-47
2.00833,-47
2.01667,-48
2.02500,-48
2.03333,-49
2.04167,-50
2.05000,-51
2.05833,-51
2.06667,-52
2.07500,-52
2.08333,-52
2.09167,-52
2.10000,-53
2.10833,-53
2.11667,-54
2.12500,-55
2.13333,-55
2.14167,-55
2.15000,-55
2.15833,-56
2.16667,-56
2.17500,-56
2.18333,-57
2.19167,-57
2.20000,-57
2.20833,-57
2.21667,-58
2.22500,-58
2.23333,-58
2.24167,-58
2.25000,-59
2.25833,-59
2.26667,-59
2.27500,-60
2.28333,-60
2.29167,-60
2.30000,-60
2.30833,-61
2.31667,-60
2.32500,-61
2.33333,-61
2.34167,-62
2.35000,-62
2.35833,-62
2.36667,-62
2.37500,-62
2.38333,-62
2.39167,-63
2.40000,-63
2.40833,-64
2.41667,-65
2.42500,-65
2.43333,-65
2.44167,-65
2.45000,-65
2.45833,-65
2.46667,-66
2.47500,-67
2.48333,-67
2.49167,-68
2.50000,-68
2.50833,-69
2.51667,-70
2.52500,-71
2.53333,-72
2.54167,-73
2.55000,-74
2.55833,-75
2.56667,-75
2.57500,-77
2.58333,-78
2.59167,-79
2.60000,-81
2.60833,-82
2.61667,-84
2.62500,-86
2.63333,-88
2.64167,-90
2.65000,-92
2.65833,-94
2.66667,-97
2.67500,-100
2.68333,-103
2.69167,-106
2.70000,-110
2.70833,-113
2.71667,-117
2.72500,-121
2.73333,-126
2.74167,-130
2.75000,-134
2.75833,-139
2.76667,-145
2.77500,-150
2.78333,-155
2.79167,-161
2.80000,-168
2.80833,-174
2.81667,-182
2.82500,-189
2.83333,-197
2.84167,-205
2.85000,-213
2.85833,-222
2.86667,-231
2.87500,-240
2.88333,-250
2.89167,-259
2.90000,-270
2.90833,-280
2.91667,-291
2.92500,-301
2.93333,-313
2.94167,-324
2.95000,-336
2.95833,-349
2.96667,-361
2.97500,-374
2.98333,-387
2.99167,-400
3.00000,-413
3.00833,-427
3.01667,-441
3.02500,-455
3.03333,-469
3.04167,-482
3.05000,-496
3.05833,-510
3.06667,-525
3.07500,-539
3.08333,-554
3.09167,-569
3.10000,-583
3.10833,-597
3.11667,-612
3.12500,-627
3.13333,-641
3.14167,-656
3.15000,-670
3.15833,-684
3.16667,-697
3.17500,-711
3.18333,-725
3.19167,-739
3.20000,-752
3.20833,-765
3.21667,-778
3.22500,-791
3.23333,-803
3.24167,-816
3.25000,-828
3.25833,-840
3.26667,-851
3.27500,-863
3.28333,-874
3.29167,-884
3.30000,-895
3.30833,-905
3.31667,-915
3.32500,-925
3.33333,-934
3.34167,-943
3.35000,-952
3.35833,-960
3.36667,-969
3.37500,-977
3.38333,-984
3.39167,-991
3.40000,-998
3.40833,-1005
3.41667,-1012
3.42500,-1019
3.43333,-1025
3.44167,-1030
3.45000,-1036
3.45833,-1041
3.46667,-1045
3.47500,-1050
3.48333,-1054
3.49167,-1059
3.50000,-1063
3.50833,-1068
3.51667,-1071
3.52500,-1075
3.53333,-1078
3.54167,-1081
3.55000,-1084
3.55833,-1087
3.56667,-1090
3.57500,-1092
3.58333,-1095
3.59167,-1097
3.60000,-1099
3.60833,-1101
3.61667,-1103
3.62500,-1105
3.63333,-1107
3.64167,-1108
3.65000,-1109
3.65833,-1111
3.66667,-1113
3.67500,-1114
3.68333,-1115
3.69167,-1117
3.70000,-1118
3.70833,-1118
3.71667,-1119
3.72500,-1120
3.73333,-1121
3.74167,-1122
3.75000,-1123
3.75833,-1123
3.76667,-1124
3.77500,-1124
3.78333,-1125
3.79167,-1126
3.80000,-1126
3.80833,-1127
3.81667,-1128
3.82500,-1129
3.83333,-1129
3.84167,-1130
3.85000,-1130
3.85833,-1130
3.86667,-1130
3.87500,-1131
3.88333,-1132
3.89167,-1132
3.90000,-1133
3.90833,-1133
3.91667,-1133
3.92500,-1134
3.93333,-1134
3.94167,-1134
3.95000,-1135
3.95833,-1135
3.96667,-1135
3.97500,-1135
3.98333,-1136
3.99167,-1136
4.00000,-1135
4.00833,-1135
4.01667,-1134
4.02500,-1134
4.03333,-1133
4.04167,-1132
4.05000,-1132
4.05833,-1131
4.06667,-1131
4.07500,-1130
4.08333,-1129
4.09167,-1129
4.10000,-1128
4.10833,-1127
4.11667,-1126
4.12500,-1125
4.13333,-1123
4.14167,-1122
4.15000,-1120
4.15833,-1119
4.16667,-1118
4.17500,-1116
4.18333,-1114
4.19167,-1112
4.20000,-1110
4.20833,-1107
4.21667,-1105
4.22500,-1103
4.23333,-1100
4.24167,-1098
4.25000,-1095
4.25833,-1092
4.26667,-1089
4.27500,-1086
4.28333,-1083
4.29167,-1080
4.30000,-1077
4.30833,-1074
4.31667,-1071
4.32500,-1068
4.33333,-1064
4.34167,-1060
4.35000,-1057
4.35833,-1054
4.36667,-1050
4.37500,-1047
4.38333,-1043
4.39167,-1039
4.40000,-1036
4.40833,-1032
4.41667,-1028
4.42500,-1025
4.43333,-1021
4.44167,-1018
4.45000,-1014
4.45833,-1011
4.46667,-1007
4.47500,-1004
4.48333,-1000
4.49167,-997
4.50000,-995
4.50833,-992
4.51667,-990
4.52500,-987
4.53333,-984
4.54167,-981
4.55000,-978
4.55833,-976
4.56667,-973
4.57500,-971
4.58333,-968
4.59167,-966
4.60000,-964
4.60833,-962
4.61667,-961
4.62500,-960
4.63333,-958
4.64167,-957
4.65000,-956
4.65833,-954
4.66667,-953
4.67500,-952
4.68333,-951
4.69167,-951
4.70000,-950
4.70833,-950
4.71667,-950
4.72500,-950
4.73333,-950
4.74167,-950
4.75000,-949
4.75833,-949
4.76667,-950
4.77500,-951
4.78333,-952
4.79167,-953
4.80000,-954
4.80833,-955
4.81667,-955
4.82500,-956
4.83333,-957
4.84167,-958
4.85000,-958
4.85833,-959
4.86667,-960
4.87500,-961
4.88333,-962
4.89167,-963
4.90000,-964
4.90833,-966
4.91667,-966
4.92500,-967
4.93333,-968
4.94167,-969
4.95000,-970
4.95833,-971
4.96667,-973
4.97500,-974
4.98333,-975
4.99167,-976
5.00000,-977
5.00833,-977
5.01667,-978
5.02500,-979
5.03333,-980
5.04167,-981
5.05000,-981
5.05833,-982
5.06667,-983
5.07500,-984
5.08333,-985
5.09167,-985
5.10000,-985
5.10833,-986
5.11667,-986
5.12500,-986
5.13333,-986
5.14167,-986
5.15000,-986
5.15833,-985
5.16667,-985
5.17500,-985
5.18333,-985
5.19167,-985
5.20000,-985
5.20833,-984
5.21667,-983
5.22500,-983
5.23333,-982
5.24167,-982
5.25000,-981
5.25833,-980
5.26667,-980
5.27500,-979
5.28333,-978
5.29167,-978
5.30000,-977
5.30833,-976
5.31667,-975
5.32500,-974
5.33333,-973
5.34167,-972
5.35000,-971
5.35833,-970
5.36667,-969
5.37500,-968
5.38333,-966
5.39167,-965
5.40000,-964
5.40833,-962
5.41667,-961
5.42500,-959
5.43333,-958
5.44167,-957
5.45000,-956
5.45833,-955
5.46667,-953
5.47500,-951
5.48333,-950
5.49167,-948
5.50000,-947
5.50833,-945
5.51667,-944
5.52500,-942
5.53333,-941
5.54167,-939
5.55000,-937
5.55833,-935
5.56667,-933
5.57500,-931
5.58333,-930
5.59167,-928
5.60000,-927
5.60833,-925
5.61667,-923
5.62500,-922
5.63333,-920
5.64167,-918
5.65000,-916
5.65833,-914
5.66667,-913
5.67500,-911
5.68333,-909
5.69167,-907
5.70000,-906
5.70833,-904
5.71667,-902
5.72500,-900
5.73333,-898
5.74167,-896
5.75000,-894
5.75833,-892
5.76667,-890
5.77500,-888
5.78333,-885
5.79167,-883
5.80000,-880
5.80833,-878
5.81667,-875
5.82500,-873
5.83333,-871
5.84167,-869
5.85000,-866
5.85833,-864
5.86667,-862
5.87500,-860
5.88333,-857
5.89167,-855
5.90000,-852
5.90833,-850
5.91667,-848
5.92500,-845
5.93333,-843
5.94167,-840
5.95000,-837
5.95833,-835
5.96667,-832
5.97500,-829
5.98333,-826
5.99167,-824
6.00000,-821
6.00833,-818
6.01667,-816
6.02500,-813
6.03333,-810
6.04167,-807
6.05000,-805
6.05833,-802
6.06667,-799
6.07500,-796
6.08333,-794
6.09167,-791
6.10000,-788
6.10833,-785
6.11667,-782
6.12500,-779
6.13333,-776
6.14167,-773
6.15000,-770
6.15833,-767
6.16667,-764
6.17500,-761
6.18333,-759
6.19167,-756
6.20000,-752
6.20833,-749
6.21667,-745
6.22500,-742
6.23333,-738
6.24167,-735
6.25000,-732
6.25833,-729
6.26667,-726
6.27500,-723
6.28333,-720
6.29167,-716
6.30000,-712
6.30833,-709
6.31667,-705
6.32500,-702
6.33333,-699
6.34167,-695
6.35000,-691
6.35833,-688
6.36667,-684
6.37500,-681
6.38333,-677
6.39167,-674
6.40000,-670
6.40833,-666
6.41667,-663
6.42500,-659
6.43333,-656
6.44167,-652
6.45000,-648
6.45833,-644
6.46667,-640
6.47500,-636
6.48333,-632
6.49167,-629
6.50000,-625
6.50833,-622
6.51667,-618
6.52500,-614
6.53333,-610
6.54167,-606
6.55000,-602
6.55833,-599
6.56667,-595
6.57500,-592
6.58333,-588
6.59167,-584
6.60000,-580
6.60833,-577
6.61667,-573
6.62500,-569
6.63333,-565
6.64167,-562
6.65000,-559
6.65833,-556
6.66667,-552
6.67500,-549
6.68333,-545
6.69167,-542
6.70000,-538
6.70833,-535
6.71667,-531
6.72500,-528
6.73333,-525
6.74167,-521
6.75000,-518
6.75833,-514
6.76667,-511
6.77500,-508
6.78333,-505
6.79167,-502
6.80000,-498
6.80833,-495
6.81667,-492
6.82500,-489
6.83333,-486
6.84167,-483
6.85000,-480
6.85833,-477
6.86667,-473
6.87500,-470
6.88333,-467
6.89167,-464
6.90000,-461
6.90833,-458
6.91667,-455
6.92500,-452
6.93333,-449
6.94167,-446
6.95000,-443
6.95833,-440
6.96667,-437
6.97500,-434
6.98333,-430
6.99167,-427
7.00000,-424
7.00833,-422
7.01667,-419
7.02500,-416
7.03333,-414
7.04167,-411
7.05000,-408
7.05833,-405
7.06667,-402
7.07500,-400
7.08333,-397
7.09167,-395
7.10000,-393
7.10833,-390
7.11667,-388
7.12500,-386
7.13333,-383
7.14167,-381
7.15000,-379
7.15833,-376
7.16667,-374
7.17500,-372
7.18333,-370
7.19167,-368
7.20000,-366
7.20833,-364
7.21667,-362
7.22500,-360
7.23333,-359
7.24167,-357
7.25000,-356
7.25833,-354
7.26667,-353
7.27500,-351
7.28333,-350
7.29167,-348
7.30000,-346
7.30833,-345
7.31667,-343
7.32500,-342
7.33333,-341
7.34167,-339
7.35000,-338
7.35833,-337
7.36667,-335
7.37500,-334
7.38333,-333
7.39167,-332
7.40000,-331
7.40833,-330
7.41667,-329
7.42500,-329
7.43333,-328
7.44167,-327
7.45000,-326
7.45833,-325
7.46667,-325
7.47500,-324
7.48333,-323
7.49167,-323
7.50000,-323
7.50833,-322
7.51667,-321
7.52500,-320
7.53333,-320
7.54167,-319
7.55000,-319
7.55833,-319
7.56667,-318
7.57500,-318
7.58333,-317
7.59167,-316
7.60000,-316
7.60833,-316
7.61667,-316
7.62500,-315
7.63333,-315
7.64167,-314
7.65000,-314
7.65833,-313
7.66667,-313
7.67500,-312
7.68333,-312
7.69167,-312
7.70000,-312
7.70833,-311
7.71667,-311
7.72500,-311
7.73333,-310
7.74167,-309
7.75000,-309
7.75833,-309
7.76667,-309
7.77500,-309
7.78333,-309
7.79167,-309
7.80000,-310
7.80833,-310
7.81667,-309
7.82500,-309
7.83333,-309
7.84167,-309
7.85000,-309
7.85833,-309
7.86667,-309
7.87500,-308
7.88333,-308
7.89167,-308
7.90000,-309
7.90833,-308
7.91667,-308
7.92500,-308
7.93333,-308
7.94167,-308
7.95000,-308
7.95833,-308
7.96667,-308
7.97500,-308
7.98333,-308
7.99167,-309
8.00000,-309
8.00833,-310
8.01667,-310
8.02500,-311
8.03333,-311
8.04167,-311
8.05000,-311
8.05833,-311
8.06667,-312
8.07500,-312
8.08333,-312
8.09167,-312
8.10000,-312
8.10833,-312
8.11667,-312
8.12500,-313
8.13333,-313
8.14167,-313
8.15000,-313
8.15833,-314
8.16667,-314
8.17500,-314
8.18333,-314
8.19167,-314
8.20000,-314
8.20833,-313
8.21667,-313
8.22500,-313
8.23333,-314
8.24167,-313
8.25000,-313
8.25833,-313
8.26667,-313
8.27500,-312
8.28333,-312
8.29167,-312
8.30000,-313
8.30833,-313
8.31667,-313
8.32500,-313
8.33333,-313
8.34167,-313
8.35000,-313
8.35833,-313
8.36667,-312
8.37500,-312
8.38333,-312
8.39167,-312
8.40000,-312
8.40833,-311
8.41667,-311
8.42500,-310
8.43333,-310
8.44167,-310
8.45000,-310
8.45833,-310
8.46667,-310
8.47500,-310
8.48333,-310
8.49167,-309
8.50000,-309
8.50833,-309
8.51667,-309
8.52500,-309
8.53333,-308
8.54167,-308
8.55000,-307
8.55833,-307
8.56667,-307
8.57500,-307
8.58333,-307
8.59167,-306
8.60000,-306
8.60833,-305
8.61667,-305
8.62500,-304
8.63333,-304
8.64167,-304
8.65000,-303
8.65833,-303
8.66667,-302
8.67500,-302
8.68333,-302
8.69167,-301
8.70000,-300
8.70833,-300
8.71667,-299
8.72500,-299
8.73333,-299
8.74167,-298
8.75000,-298
8.75833,-297
8.76667,-297
8.77500,-296
8.78333,-296
8.79167,-295
8.80000,-294
8.80833,-294
8.81667,-293
8.82500,-293
8.83333,-292
8.84167,-292
8.85000,-291
8.85833,-290
8.86667,-290
8.87500,-289
8.88333,-289
8.89167,-288
8.90000,-288
8.90833,-287
8.91667,-287
8.92500,-286
8.93333,-286
8.94167,-286
8.95000,-285
8.95833,-285
8.96667,-285
8.97500,-285
8.98333,-284
8.99167,-284
9.00000,-283
9.00833,-283
9.01667,-282
9.02500,-281
9.03333,-281
9.04167,-281
9.05000,-280
9.05833,-280
9.06667,-279
9.07500,-279
9.08333,-278
9.09167,-278
9.10000,-278
9.10833,-278
9.11667,-277
9.12500,-277
9.13333,-277
9.14167,-276
9.15000,-276
9.15833,-275
9.16667,-275
9.17500,-274
9.18333,-273
9.19167,-273
9.20000,-273
9.20833,-272
9.21667,-272
9.22500,-272
9.23333,-271
9.24167,-271
9.25000,-270
9.25833,-270
9.26667,-269
9.27500,-268
9.28333,-267
9.29167,-267
9.30000,-266
9.30833,-265
9.31667,-264
9.32500,-264
9.33333,-263
9.34167,-262
9.35000,-261
9.35833,-261
9.36667,-260
9.37500,-260
9.38333,-259
9.39167,-259
9.40000,-258
9.40833,-257
9.41667,-256
9.42500,-256
9.43333,-255
9.44167,-255
9.45000,-254
9.45833,-253
9.46667,-252
9.47500,-252
9.48333,-251
9.49167,-251
9.50000,-250
9.50833,-250
9.51667,-249
9.52500,-248
9.53333,-248
9.54167,-247
9.55000,-246
9.55833,-245
9.56667,-245
9.57500,-244
9.58333,-243
9.59167,-243
9.60000,-242
9.60833,-241
9.61667,-241
9.62500,-241
9.63333,-241
9.64167,-240
9.65000,-240
9.65833,-240
9.66667,-239
9.67500,-239
9.68333,-239
9.69167,-238
9.70000,-238
9.70833,-237
9.71667,-236
9.72500,-236
9.73333,-236
9.74167,-236
9.75000,-236
9.75833,-235
9.76667,-234
9.77500,-234
9.78333,-233
9.79167,-233
9.80000,-232
9.80833,-232
9.81667,-232
9.82500,-231
9.83333,-231
9.84167,-230
9.85000,-230
9.85833,-230
9.86667,-230
9.87500,-230
9.88333,-230
9.89167,-230
9.90000,-230
9.90833,-230
9.91667,-230
9.92500,-229
9.93333,-229
9.94167,-228
9.95000,-228
9.95833,-228
9.96667,-228
9.97500,-228
9.98333,-228
9.99167,-228
10.00000,-227
10.00833,-227
10.01667,-227
10.02500,-226
10.03333,-226
10.04167,-226
10.05000,-226
10.05833,-226
10.06667,-226
10.07500,-226
10.08333,-226
10.09167,-226
10.10000,-226
10.10833,-226
10.11667,-226
10.12500,-226
10.13333,-226
10.14167,-226
10.15000,-226
10.15833,-226
10.16667,-226
10.17500,-225
10.18333,-225
10.19167,-225
10.20000,-225
10.20833,-225
10.21667,-226
10.22500,-226
10.23333,-226
10.24167,-226
10.25000,-226
10.25833,-226
10.26667,-226
10.27500,-226
10.28333,-226
10.29167,-226
10.30000,-226
10.30833,-226
10.31667,-226
10.32500,-225
10.33333,-225
10.34167,-224
10.35000,-224
10.35833,-223
10.36667,-223
10.37500,-223
10.38333,-224
10.39167,-224
10.40000,-225
10.40833,-227
10.41667,-229
10.42500,-233
10.43333,-239
10.44167,-247
10.45000,-257
10.45833,-272
10.46667,-291
10.47500,-315
10.48333,-346
10.49167,-384
10.50000,-429
10.50833,-483
10.51667,-545
10.52500,-615
10.53333,-692
10.54167,-774
10.55000,-858
10.55833,-942
10.56667,-1023
10.57500,-1094
10.58333,-1150
10.59167,-1186
10.60000,-1195
10.60833,-1168
10.61667,-1100
10.62500,-981
10.63333,-805
10.64167,-564
10.65000,-250
10.65833,144
10.66667,622
10.67500,1193
10.68333,1860
10.69167,2628
10.70000,3501
10.70833,4482
10.71667,5573
10.72500,6777
10.73333,8095
10.74167,9527
10.75000,11073
10.75833,12734
10.76667,14508
10.77500,16394
10.78333,18391
10.79167,20497
10.80000,22709
10.80833,25024
10.81667,27439
10.82500,29951
10.83333,32553
10.84167,35242
10.85000,38013
10.85833,40858
10.86667,43770
10.87500,46740
10.88333,49757
10.89167,52810
10.90000,55883
10.90833,58959
10.91667,62016
10.92500,65028
10.93333,67962
10.94167,70781
10.95000,73441
10.95833,75890
10.96667,78070
10.97500,79918
10.98333,81369
10.99167,82360
11.00000,82832
11.00833,82737
11.01667,82041
11.02500,80730
11.03333,78812
11.04167,76316
11.05000,73293
11.05833,69811
11.06667,65956
11.07500,61819
11.08333,57496
11.09167,53084
11.10000,48670
11.10833,44333
11.11667,40139
11.12500,36141
11.13333,32378
11.14167,28877
11.15000,25654
11.15833,22713
11.16667,20052
11.17500,17661
11.18333,15527
11.19167,13633
11.20000,11960
11.20833,10489
11.21667,9200
11.22500,8074
11.23333,7094
11.24167,6243
11.25000,5504
11.25833,4865
11.26667,4312
11.27500,3834
11.28333,3422
11.29167,3066
11.30000,2759
11.30833,2495
11.31667,2267
11.32500,2069
11.33333,1899
11.34167,1752
11.35000,1625
11.35833,1514
11.36667,1418
11.37500,1335
11.38333,1262
11.39167,1199
11.40000,1144
11.40833,1096
11.41667,1053
11.42500,1016
11.43333,983
11.44167,953
11.45000,928
11.45833,905
11.46667,884
11.47500,866
11.48333,849
11.49167,834
11.50000,821
11.50833,809
11.51667,798
11.52500,788
11.53333,779
11.54167,770
11.55000,762
11.55833,755
11.56667,748
11.57500,741
11.58333,735
11.59167,730
11.60000,724
11.60833,719
11.61667,714
11.62500,709
11.63333,703
11.64167,698
11.65000,692
11.65833,687
11.66667,682
11.67500,677
11.68333,672
11.69167,666
11.70000,661
11.70833,656
11.71667,650
11.72500,645
11.73333,639
11.74167,634
11.75000,627
11.75833,621
11.76667,615
11.77500,608
11.78333,602
11.79167,595
11.80000,588
11.80833,581
11.81667,574
11.82500,567
11.83333,559
11.84167,551
11.85000,544
11.85833,536
11.86667,529
11.87500,521
11.88333,513
11.89167,505
11.90000,496
11.90833,488
11.91667,479
11.92500,471
11.93333,462
11.94167,453
11.95000,444
11.95833,435
11.96667,426
11.97500,417
11.98333,408
11.99167,398
12.00000,388
12.00833,379
12.01667,369
12.02500,359
12.03333,350
12.04167,340
12.05000,330
12.05833,320
12.06667,310
12.07500,300
12.08333,290
12.09167,281
12.10000,272
12.10833,263
12.11667,255
12.12500,246
12.13333,237
12.14167,228
12.15000,219
12.15833,211
12.16667,202
12.17500,194
12.18333,185
12.19167,177
12.20000,169
12.20833,161
12.21667,153
12.22500,145
12.23333,138
12.24167,130
12.25000,123
12.25833,115
12.26667,109
12.27500,102
12.28333,95
12.29167,89
12.30000,83
12.30833,77
12.31667,71
12.32500,65
12.33333,60
12.34167,54
12.35000,48
12.35833,43
12.36667,37
12.37500,32
12.38333,27
12.39167,22
12.40000,18
12.40833,13
12.41667,8
12.42500,4
12.43333,-0
12.44167,-4
12.45000,-8
12.45833,-12
12.46667,-15
12.47500,-19
12.48333,-22
12.49167,-25
12.50000,-29
12.50833,-32
12.51667,-35
12.52500,-38
12.53333,-41
12.54167,-44
12.55000,-46
12.55833,-49
12.56667,-51
12.57500,-53
12.58333,-55
12.59167,-57
12.60000,-59
12.60833,-61
12.61667,-63
12.62500,-65
12.63333,-66
12.64167,-67
12.65000,-67
12.65833,-67
12.66667,-67
12.67500,-66
12.68333,-64
12.69167,-61
12.70000,-58
12.70833,-53
12.71667,-47
12.72500,-39
12.73333,-29
12.74167,-17
12.75000,-3
12.75833,15
12.76667,35
12.77500,60
12.78333,88
12.79167,121
12.80000,158
12.80833,200
12.81667,247
12.82500,301
12.83333,360
12.84167,425
12.85000,497
12.85833,576
12.86667,661
12.87500,753
12.88333,852
12.89167,958
12.90000,1072
12.90833,1193
12.91667,1321
12.92500,1455
12.93333,1597
12.94167,1745
12.95000,1900
12.95833,2061
12.96667,2230
12.97500,2404
12.98333,2584
12.99167,2770
13.00000,2962
13.00833,3159
13.01667,3363
13.02500,3571
13.03333,3785
13.04167,4004
13.05000,4228
13.05833,4456
13.06667,4688
13.07500,4925
13.08333,5166
13.09167,5411
13.10000,5661
13.10833,5913
13.11667,6170
13.12500,6430
13.13333,6694
13.14167,6962
13.15000,7233
13.15833,7508
13.16667,7786
13.17500,8066
13.18333,8350
13.19167,8637
13.20000,8927
13.20833,9220
13.21667,9516
13.22500,9816
13.23333,10117
13.24167,10422
13.25000,10729
13.25833,11040
13.26667,11352
13.27500,11668
13.28333,11986
13.29167,12307
13.30000,12631
13.30833,12958
13.31667,13287
13.32500,13619
13.33333,13954
13.34167,14292
13.35000,14632
13.35833,14975
13.36667,15320
13.37500,15669
13.38333,16020
13.39167,16373
13.40000,16730
13.40833,17089
13.41667,17451
13.42500,17817
13.43333,18185
13.44167,18555
13.45000,18929
13.45833,19306
13.46667,19686
13.47500,20068
13.48333,20454
13.49167,20843
13.50000,21235
13.50833,21629
13.51667,22027
13.52500,22428
13.53333,22832
13.54167,23240
13.55000,23651
13.55833,24065
13.56667,24483
13.57500,24903
13.58333,25328
13.59167,25755
13.60000,26186
13.60833,26620
13.61667,27058
13.62500,27499
13.63333,27943
13.64167,28392
13.65000,28843
13.65833,29299
13.66667,29758
13.67500,30220
13.68333,30687
13.69167,31157
13.70000,31630
13.70833,32108
13.71667,32590
13.72500,33075
13.73333,33564
13.74167,34058
13.75000,34555
13.75833,35056
13.76667,35561
13.77500,36071
13.78333,36585
13.79167,37103
13.80000,37625
13.80833,38151
13.81667,38682
13.82500,39217
13.83333,39757
13.84167,40300
13.85000,40849
13.85833,41401
13.86667,41959
13.87500,42521
13.88333,43088
13.89167,43660
13.90000,44236
13.90833,44817
13.91667,45402
13.92500,45993
13.93333,46589
13.94167,47190
13.95000,47796
13.95833,48407
13.96667,49023
13.97500,49645
13.98333,50272
13.99167,50904
14.00000,51542
14.00833,52185
14.01667,52834
14.02500,53488
14.03333,54149
14.04167,54815
14.05000,55486
14.05833,56163
14.06667,56846
14.07500,57535
14.08333,58231
14.09167,58932
14.10000,59640
14.10833,60354
14.11667,61074
14.12500,61800
14.13333,62533
14.14167,63272
14.15000,64019
14.15833,64771
14.16667,65531
14.17500,66297
14.18333,67070
14.19167,67851
14.20000,68638
14.20833,69432
14.21667,70233
14.22500,71042
14.23333,71858
14.24167,72682
14.25000,73513
14.25833,74351
14.26667,75197
14.27500,76050
14.28333,76909
14.29167,77774
14.30000,78643
14.30833,79511
14.31667,80374
14.32500,81222
14.33333,82043
14.34167,82820
14.35000,83530
14.35833,84147
14.36667,84638
14.37500,84966
14.38333,85093
14.39167,84978
14.40000,84581
14.40833,83868
14.41667,82808
14.42500,81380
14.43333,79571
14.44167,77382
14.45000,74824
14.45833,71920
14.46667,68705
14.47500,65222
14.48333,61526
14.49167,57674
14.50000,53727
14.50833,49748
14.51667,45795
14.52500,41924
14.53333,38182
14.54167,34610
14.55000,31238
14.55833,28090
14.56667,25180
14.57500,22514
14.58333,20089
14.59167,17901
14.60000,15938
14.60833,14187
14.61667,12632
14.62500,11256
14.63333,10042
14.64167,8974
14.65000,8035
14.65833,7211
14.66667,6488
14.67500,5853
14.68333,5296
14.69167,4807
14.70000,4376
14.70833,3997
14.71667,3662
14.72500,3365
14.73333,3102
14.74167,2868
14.75000,2660
14.75833,2474
14.76667,2307
14.77500,2157
14.78333,2021
14.79167,1899
14.80000,1788
14.80833,1687
14.81667,1595
14.82500,1511
14.83333,1433
14.84167,1362
14.85000,1297
14.85833,1236
14.86667,1180
14.87500,1127
14.88333,1078
14.89167,1033
14.90000,991
14.90833,951
14.91667,914
14.92500,879
14.93333,847
14.94167,816
14.95000,788
14.95833,761
14.96667,735
14.97500,711
14.98333,689
14.99167,668
15.00000,649
15.00833,631
15.01667,614
15.02500,599
15.03333,585
15.04167,573
15.05000,563
15.05833,554
15.06667,546
15.07500,541
15.08333,538
15.09167,537
15.10000,538
15.10833,543
15.11667,551
15.12500,563
15.13333,581
15.14167,604
15.15000,634
15.15833,672
15.16667,720
15.17500,779
15.18333,851
15.19167,940
15.20000,1047
15.20833,1175
15.21667,1329
15.22500,1513
15.23333,1731
15.24167,1989
15.25000,2292
15.25833,2647
15.26667,3060
15.27500,3541
15.28333,4096
15.29167,4734
15.30000,5465
15.30833,6298
15.31667,7242
15.32500,8308
15.33333,9507
15.34167,10848
15.35000,12340
15.35833,13992
15.36667,15814
15.37500,17812
15.38333,19994
15.39167,22363
15.40000,24924
15.40833,27678
15.41667,30625
15.42500,33761
15.43333,37083
15.44167,40582
15.45000,44248
15.45833,48069
15.46667,52030
15.47500,56113
15.48333,60297
15.49167,64560
15.50000,68877
15.50833,73222
15.51667,77566
15.52500,81879
15.53333,86131
15.54167,90292
15.55000,94330
15.55833,98216
15.56667,101919
15.57500,105411
15.58333,108666
15.59167,111658
15.60000,114365
15.60833,116768
15.61667,118849
15.62500,120595
15.63333,121995
15.64167,123042
15.65000,123731
15.65833,124063
15.66667,124040
15.67500,123667
15.68333,122954
15.69167,121911
15.70000,120553
15.70833,118896
15.71667,116957
15.72500,114758
15.73333,112317
15.74167,109658
15.75000,106804
15.75833,103778
15.76667,100603
15.77500,97304
15.78333,93902
15.79167,90421
15.80000,86882
15.80833,83307
15.81667,79715
15.82500,76126
15.83333,72555
15.84167,69019
15.85000,65533
15.85833,62110
15.86667,58761
15.87500,55497
15.88333,52328
15.89167,49259
15.90000,46297
15.90833,43447
15.91667,40714
15.92500,38100
15.93333,35605
15.94167,33232
15.95000,30979
15.95833,28845
15.96667,26828
15.97500,24927
15.98333,23139
15.99167,21460
16.00000,19887
16.00833,18415
16.01667,17041
16.02500,15761
16.03333,14569
16.04167,13462
16.05000,12435
16.05833,11483
16.06667,10602
16.07500,9788
16.08333,9037
16.09167,8345
16.10000,7708
16.10833,7121
16.11667,6582
16.12500,6087
16.13333,5631
16.14167,5214
16.15000,4831
16.15833,4481
16.16667,4159
16.17500,3865
16.18333,3596
16.19167,3350
16.20000,3124
16.20833,2917
16.21667,2728
16.22500,2555
16.23333,2396
16.24167,2251
16.25000,2117
16.25833,1995
16.26667,1883
16.27500,1780
16.28333,1686
16.29167,1599
16.30000,1519
16.30833,1445
16.31667,1377
16.32500,1314
16.33333,1256
16.34167,1202
16.35000,1152
16.35833,1106
16.36667,1064
16.37500,1024
16.38333,987
16.39167,953
16.40000,921
16.40833,891
16.41667,863
16.42500,837
16.43333,813
16.44167,790
16.45000,768
16.45833,748
16.46667,729
16.47500,712
16.48333,695
16.49167,679
16.50000,664
16.50833,649
16.51667,635
16.52500,622
16.53333,610
16.54167,598
16.55000,587
16.55833,576
16.56667,566
16.57500,557
16.58333,548
16.59167,539
16.60000,530
16.60833,522
16.61667,515
16.62500,507
16.63333,500
16.64167,493
16.65000,486
16.65833,480
16.66667,474
16.67500,468
16.68333,461
16.69167,455
16.70000,450
16.70833,445
16.71667,440
16.72500,435
16.73333,430
16.74167,425
16.75000,421
16.75833,416
16.76667,411
16.77500,407
16.78333,402
16.79167,398
16.80000,393
16.80833,389
16.81667,384
16.82500,380
16.83333,375
16.84167,371
16.85000,367
16.85833,363
16.86667,359
16.87500,354
16.88333,350
16.89167,347
16.90000,344
16.90833,341
16.91667,337
16.92500,333
16.93333,329
16.94167,325
16.95000,320
16.95833,317
16.96667,313
16.97500,309
16.98333,305
16.99167,301
17.00000,298
17.00833,294
17.01667,290
17.02500,286
17.03333,283
17.04167,279
17.05000,275
17.05833,271
17.06667,267
17.07500,263
17.08333,260
17.09167,256
17.10000,253
17.10833,249
17.11667,245
17.12500,242
17.13333,238
17.14167,235
17.15000,231
17.15833,228
17.16667,225
17.17500,222
17.18333,219
17.19167,216
17.20000,213
17.20833,210
17.21667,206
17.22500,203
17.23333,200
17.24167,197
17.25000,194
17.25833,192
17.26667,189
17.27500,186
17.28333,183
17.29167,180
17.30000,177
17.30833,175
17.31667,172
17.32500,169
17.33333,166
17.34167,164
17.35000,162
17.35833,159
17.36667,157
17.37500,155
17.38333,153
17.39167,151
17.40000,149
17.40833,147
17.41667,145
17.42500,142
17.43333,140
17.44167,138
17.45000,136
17.45833,134
17.46667,132
17.47500,130
17.48333,128
17.49167,127
17.50000,126
17.50833,124
17.51667,123
17.52500,121
17.53333,120
17.54167,118
17.55000,117
17.55833,115
17.56667,114
17.57500,113
17.58333,112
17.59167,110
17.60000,109
17.60833,108
17.61667,107
17.62500,106
17.63333,105
17.64167,103
17.65000,102
17.65833,101
17.66667,100
17.67500,99
17.68333,98
17.69167,97
17.70000,96
17.70833,94
17.71667,93
17.72500,92
17.73333,91
17.74167,90
17.75000,89
17.75833,88
17.76667,87
17.77500,86
17.78333,85
17.79167,84
17.80000,83
17.80833,82
17.81667,81
17.82500,80
17.83333,79
17.84167,78
17.85000,77
17.85833,76
17.86667,76
17.87500,75
17.88333,74
17.89167,72
17.90000,71
17.90833,70
17.91667,70
17.92500,69
17.93333,68
17.94167,67
17.95000,66
17.95833,65
17.96667,64
17.97500,63
17.98333,63
17.99167,62
18.00000,61
18.00833,60
18.01667,60
18.02500,59
18.03333,58
18.04167,57
18.05000,56
18.05833,55
18.06667,53
18.07500,52
18.08333,51
18.09167,51
18.10000,50
18.10833,49
18.11667,48
18.12500,47
18.13333,46
18.14167,45
18.15000,44
18.15833,43
18.16667,42
18.17500,41
18.18333,40
18.19167,39
18.20000,38
18.20833,37
18.21667,36
18.22500,35
18.23333,34
18.24167,33
18.25000,31
18.25833,30
18.26667,29
18.27500,28
18.28333,27
18.29167,26
18.30000,24
18.30833,23
18.31667,22
18.32500,20
18.33333,19
18.34167,17
18.35000,16
18.35833,15
18.36667,14
18.37500,13
18.38333,11
18.39167,10
18.40000,8
18.40833,7
18.41667,7
18.42500,6
18.43333,4
18.44167,3
18.45000,2
18.45833,1
18.46667,-0
18.47500,-1
18.48333,-2
18.49167,-4
18.50000,-5
18.50833,-6
18.51667,-7
18.52500,-8
18.53333,-9
18.54167,-10
18.55000,-11
18.55833,-12
18.56667,-13
18.57500,-14
18.58333,-15
18.59167,-16
18.60000,-17
18.60833,-17
18.61667,-18
18.62500,-19
18.63333,-20
18.64167,-21
18.65000,-22
18.65833,-23
18.66667,-25
18.67500,-26
18.68333,-27
18.69167,-27
18.70000,-28
18.70833,-29
18.71667,-29
18.72500,-30
18.73333,-30
18.74167,-31
18.75000,-31
18.75833,-31
18.76667,-31
18.77500,-31
18.78333,-31
18.79167,-32
18.80000,-32
18.80833,-32
18.81667,-32
18.82500,-32
18.83333,-32
18.84167,-32
18.85000,-32
18.85833,-32
18.86667,-32
18.87500,-31
18.88333,-31
18.89167,-30
18.90000,-30
18.90833,-29
18.91667,-29
18.92500,-28
18.93333,-27
18.94167,-26
18.95000,-26
18.95833,-25
18.96667,-24
18.97500,-24
18.98333,-24
18.99167,-23
19.00000,-23
19.00833,-22
19.01667,-22
19.02500,-23
19.03333,-23
19.04167,-23
19.05000,-23
19.05833,-24
19.06667,-24
19.07500,-24
19.08333,-24
19.09167,-25
19.10000,-25
19.10833,-26
19.11667,-27
19.12500,-27
19.13333,-28
19.14167,-29
19.15000,-29
19.15833,-30
19.16667,-31
19.17500,-32
19.18333,-34
19.19167,-35
19.20000,-36
19.20833,-37
19.21667,-38
19.22500,-38
19.23333,-40
19.24167,-41
19.25000,-42
19.25833,-43
19.26667,-43
19.27500,-44
19.28333,-45
19.29167,-46
19.30000,-47
19.30833,-48
19.31667,-48
19.32500,-49
19.33333,-50
19.34167,-51
19.35000,-52
19.35833,-53
19.36667,-53
19.37500,-54
19.38333,-55
19.39167,-56
19.40000,-57
19.40833,-58
19.41667,-60
19.42500,-61
19.43333,-61
19.44167,-62
19.45000,-62
19.45833,-63
19.46667,-64
19.47500,-64
19.48333,-64
19.49167,-65
19.50000,-65
19.50833,-66
19.51667,-67
19.52500,-68
19.53333,-68
19.54167,-69
19.55000,-70
19.55833,-71
19.56667,-72
19.57500,-73
19.58333,-73
19.59167,-74
19.60000,-75
19.60833,-76
19.61667,-76
19.62500,-77
19.63333,-78
19.64167,-79
19.65000,-79
19.65833,-80
19.66667,-80
19.67500,-81
19.68333,-81
19.69167,-82
19.70000,-82
19.70833,-83
19.71667,-84
19.72500,-85
19.73333,-86
19.74167,-87
19.75000,-87
19.75833,-88
19.76667,-88
19.77500,-89
19.78333,-89
19.79167,-90
19.80000,-90
19.80833,-91
19.81667,-92
19.82500,-92
19.83333,-92
19.84167,-93
19.85000,-93
19.85833,-93
19.86667,-93
19.87500,-94
19.88333,-94
19.89167,-95
19.90000,-95
19.90833,-95
19.91667,-95
19.92500,-95
19.93333,-95
19.94167,-96
19.95000,-96
19.95833,-97
19.96667,-97
19.97500,-97
19.98333,-97
19.99167,-97
20.00000,-97
20.00833,-97
20.01667,-98
20.02500,-98
20.03333,-97
20.04167,-97
20.05000,-97
20.05833,-97
20.06667,-97
20.07500,-97
20.08333,-97
20.09167,-97
20.10000,-97
20.10833,-97
20.11667,-98
20.12500,-98
20.13333,-98
20.14167,-97
20.15000,-97
20.15833,-97
20.16667,-97
20.17500,-97
20.18333,-98
20.19167,-99
20.20000,-99
20.20833,-99
20.21667,-99
20.22500,-99
20.23333,-100
20.24167,-100
20.25000,-100
20.25833,-100
20.26667,-100
20.27500,-100
20.28333,-100
20.29167,-100
20.30000,-100
20.30833,-100
20.31667,-101
20.32500,-102
20.33333,-102
20.34167,-103
20.35000,-103
20.35833,-103
20.36667,-103
20.37500,-104
20.38333,-104
20.39167,-105
20.40000,-105
20.40833,-105
20.41667,-106
20.42500,-106
20.43333,-106
20.44167,-107
20.45000,-108
20.45833,-108
20.46667,-109
20.47500,-109
20.48333,-109
20.49167,-109
20.50000,-109
20.50833,-110
20.51667,-110
20.52500,-110
20.53333,-111
20.54167,-111
20.55000,-111
20.55833,-111
20.56667,-112
20.57500,-112
20.58333,-113
20.59167,-113
20.60000,-113
20.60833,-113
20.61667,-113
20.62500,-113
20.63333,-113
20.64167,-113
20.65000,-113
20.65833,-113
20.66667,-114
20.67500,-114
20.68333,-113
20.69167,-114
20.70000,-114
20.70833,-114
20.71667,-114
20.72500,-113
20.73333,-113
20.74167,-113
20.75000,-113
20.75833,-113
20.76667,-113
20.77500,-113
20.78333,-113
20.79167,-114
20.80000,-114
20.80833,-114
20.81667,-114
20.82500,-114
20.83333,-114
20.84167,-114
20.85000,-113
20.85833,-113
20.86667,-112
20.87500,-112
20.88333,-112
20.89167,-112
20.90000,-112
20.90833,-112
20.91667,-112
20.92500,-111
20.93333,-112
20.94167,-112
20.95000,-112
20.95833,-112
20.96667,-112
20.97500,-111
20.98333,-110
20.99167,-110
21.00000,-110
21.00833,-109
21.01667,-108
21.02500,-108
21.03333,-108
21.04167,-108
21.05000,-108
21.05833,-108
21.06667,-108
21.07500,-108
21.08333,-109
21.09167,-109
21.10000,-109
21.10833,-109
21.11667,-108
21.12500,-108
21.13333,-108
21.14167,-108
21.15000,-107
21.15833,-107
21.16667,-107
21.17500,-107
21.18333,-106
21.19167,-106
21.20000,-106
21.20833,-106
21.21667,-106
21.22500,-105
21.23333,-105
21.24167,-104
21.25000,-104
21.25833,-103
21.26667,-103
21.27500,-102
21.28333,-102
21.29167,-101
21.30000,-100
21.30833,-99
21.31667,-98
21.32500,-97
21.33333,-95
21.34167,-93
21.35000,-91
21.35833,-89
21.36667,-87
21.37500,-84
21.38333,-80
21.39167,-76
21.40000,-71
21.40833,-65
21.41667,-59
21.42500,-52
21.43333,-44
21.44167,-34
21.45000,-23
21.45833,-10
21.46667,4
21.47500,20
21.48333,39
21.49167,61
21.50000,85
21.50833,113
21.51667,145
21.52500,181
21.53333,222
21.54167,269
21.55000,322
21.55833,381
21.56667,449
21.57500,526
21.58333,613
21.59167,709
21.60000,818
21.60833,940
21.61667,1076
21.62500,1227
21.63333,1395
21.64167,1582
21.65000,1787
21.65833,2015
21.66667,2265
21.67500,2539
21.68333,2840
21.69167,3169
21.70000,3526
21.70833,3912
21.71667,4331
21.72500,4782
21.73333,5266
21.74167,5786
21.75000,6340
21.75833,6930
21.76667,7555
21.77500,8215
21.78333,8910
21.79167,9640
21.80000,10402
21.80833,11197
21.81667,12022
21.82500,12875
21.83333,13753
21.84167,14654
21.85000,15575
21.85833,16512
21.86667,17461
21.87500,18418
21.88333,19378
21.89167,20338
21.90000,21292
21.90833,22234
21.91667,23162
21.92500,24068
21.93333,24948
21.94167,25797
21.95000,26611
21.95833,27383
21.96667,28111
21.97500,28789
21.98333,29413
21.99167,29980
22.00000,30487
22.00833,30930
22.01667,31307
22.02500,31616
22.03333,31856
22.04167,32025
22.05000,32123
22.05833,32149
22.06667,32105
22.07500,31991
22.08333,31809
22.09167,31559
22.10000,31246
22.10833,30870
22.11667,30436
22.12500,29946
22.13333,29403
22.14167,28813
22.15000,28177
22.15833,27502
22.16667,26790
22.17500,26046
22.18333,25275
22.19167,24480
22.20000,23667
22.20833,22838
22.21667,21999
22.22500,21153
22.23333,20303
22.24167,19454
22.25000,18608
22.25833,17769
22.26667,16940
22.27500,16123
22.28333,15322
22.29167,14537
22.30000,13771
22.30833,13025
22.31667,12302
22.32500,11603
22.33333,10928
22.34167,10277
22.35000,9653
22.35833,9054
22.36667,8482
22.37500,7937
22.38333,7417
22.39167,6924
22.40000,6456
22.40833,6013
22.41667,5595
22.42500,5201
22.43333,4830
22.44167,4482
22.45000,4155
22.45833,3850
22.46667,3564
22.47500,3297
22.48333,3048
22.49167,2817
22.50000,2602
22.50833,2402
22.51667,2217
22.52500,2045
22.53333,1886
22.54167,1739
22.55000,1604
22.55833,1479
22.56667,1365
22.57500,1259
22.58333,1161
22.59167,1071
22.60000,988
22.60833,912
22.61667,842
22.62500,778
22.63333,720
22.64167,666
22.65000,616
22.65833,571
22.66667,529
22.67500,491
22.68333,456
22.69167,424
22.70000,394
22.70833,366
22.71667,341
22.72500,318
22.73333,296
22.74167,276
22.75000,258
22.75833,242
22.76667,227
22.77500,213
22.78333,200
22.79167,188
22.80000,176
22.80833,166
22.81667,156
22.82500,148
22.83333,139
22.84167,132
22.85000,125
22.85833,118
22.86667,112
22.87500,106
22.88333,101
22.89167,95
22.90000,90
22.90833,85
22.91667,81
22.92500,77
22.93333,73
22.94167,69
22.95000,66
22.95833,63
22.96667,60
22.97500,57
22.98333,54
22.99167,52
23.00000,49
23.00833,47
23.01667,44
23.02500,42
23.03333,39
23.04167,37
23.05000,35
23.05833,33
23.06667,31
23.07500,29
23.08333,27
23.09167,25
23.10000,23
23.10833,22
23.11667,20
23.12500,19
23.13333,17
23.14167,16
23.15000,15
23.15833,13
23.16667,11
23.17500,10
23.18333,8
23.19167,7
23.20000,5
23.20833,4
23.21667,2
23.22500,0
23.23333,-1
23.24167,-3
23.25000,-4
23.25833,-5
23.26667,-7
23.27500,-8
23.28333,-9
23.29167,-10
23.30000,-11
23.30833,-12
23.31667,-14
23.32500,-15
23.33333,-16
23.34167,-17
23.35000,-18
23.35833,-20
23.36667,-21
23.37500,-22
23.38333,-23
23.39167,-24
23.40000,-25
23.40833,-27
23.41667,-28
23.42500,-29
23.43333,-30
23.44167,-30
23.45000,-31
23.45833,-32
23.46667,-33
23.47500,-33
23.48333,-34
23.49167,-35
23.50000,-36
23.50833,-37
23.51667,-38
23.52500,-39
23.53333,-40
23.54167,-40
23.55000,-40
23.55833,-41
23.56667,-41
23.57500,-41
23.58333,-42
23.59167,-42
23.60000,-42
23.60833,-43
23.61667,-43
23.62500,-44
23.63333,-45
23.64167,-45
23.65000,-45
23.65833,-46
23.66667,-46
23.67500,-47
23.68333,-47
23.69167,-47
23.70000,-48
23.70833,-48
23.71667,-48
23.72500,-49
23.73333,-49
23.74167,-49
23.75000,-49
23.75833,-49
23.76667,-49
23.77500,-49
23.78333,-49
23.79167,-49
23.80000,-50
23.80833,-50
23.81667,-50
23.82500,-50
23.83333,-50
23.84167,-50
23.85000,-50
23.85833,-50
23.86667,-50
23.87500,-50
23.88333,-50
23.89167,-50
23.90000,-50
23.90833,-50
23.91667,-50
23.92500,-51
23.93333,-51
23.94167,-51
23.95000,-51
23.95833,-51
23.96667,-51
23.97500,-51
23.98333,-51
23.99167,-51
24.00000,-51
24.00833,-52
24.01667,-52
24.02500,-52
24.03333,-52
24.04167,-53
24.05000,-53
24.05833,-53
24.06667,-53
24.07500,-53
24.08333,-53
24.09167,-53
24.10000,-54
24.10833,-54
24.11667,-54
24.12500,-54
24.13333,-54
24.14167,-55
24.15000,-55
24.15833,-55
24.16667,-55
24.17500,-55
24.18333,-56
24.19167,-56
24.20000,-56
24.20833,-55
24.21667,-55
24.22500,-55
24.23333,-55
24.24167,-55
24.25000,-55
24.25833,-54
24.26667,-54
24.27500,-53
24.28333,-51
24.29167,-50
24.30000,-48
24.30833,-46
24.31667,-43
24.32500,-40
24.33333,-37
24.34167,-34
24.35000,-30
24.35833,-26
24.36667,-21
24.37500,-15
24.38333,-8
24.39167,0
24.40000,9
24.40833,19
24.41667,31
24.42500,43
24.43333,57
24.44167,73
24.45000,91
24.45833,112
24.46667,134
24.47500,160
24.48333,188
24.49167,220
24.50000,255
24.50833,294
24.51667,337
24.52500,384
24.53333,437
24.54167,495
24.55000,558
24.55833,628
24.56667,705
24.57500,789
24.58333,880
24.59167,979
24.60000,1087
24.60833,1203
24.61667,1329
24.62500,1464
24.63333,1610
24.64167,1765
24.65000,1932
24.65833,2110
24.66667,2299
24.67500,2500
24.68333,2712
24.69167,2936
24.70000,3173
24.70833,3421
24.71667,3680
24.72500,3951
24.73333,4232
24.74167,4524
24.75000,4825
24.75833,5136
24.76667,5455
24.77500,5781
24.78333,6114
24.79167,6453
24.80000,6796
24.80833,7141
24.81667,7489
24.82500,7837
24.83333,8183
24.84167,8528
24.85000,8868
24.85833,9202
24.86667,9529
24.87500,9847
24.88333,10155
24.89167,10451
24.90000,10734
24.90833,11001
24.91667,11253
24.92500,11488
24.93333,11704
24.94167,11901
24.95000,12077
24.95833,12231
24.96667,12363
24.97500,12473
24.98333,12559
24.99167,12621
25.00000,12660
25.00833,12676
25.01667,12667
25.02500,12636
25.03333,12581
25.04167,12503
25.05000,12404
25.05833,12283
25.06667,12142
25.07500,11981
25.08333,11801
25.09167,11604
25.10000,11391
25.10833,11162
25.11667,10919
25.12500,10664
25.13333,10397
25.14167,10120
25.15000,9834
25.15833,9541
25.16667,9241
25.17500,8937
25.18333,8629
25.19167,8319
25.20000,8007
25.20833,7694
25.21667,7383
25.22500,7074
25.23333,6768
25.24167,6465
25.25000,6167
25.25833,5874
25.26667,5587
25.27500,5307
25.28333,5034
25.29167,4768
25.30000,4510
25.30833,4260
25.31667,4020
25.32500,3787
25.33333,3563
25.34167,3349
25.35000,3143
25.35833,2947
25.36667,2760
25.37500,2581
25.38333,2412
25.39167,2251
25.40000,2098
25.40833,1953
25.41667,1817
25.42500,1688
25.43333,1567
25.44167,1453
25.45000,1346
25.45833,1246
25.46667,1153
25.47500,1065
25.48333,984
25.49167,908
25.50000,837
25.50833,770
25.51667,709
25.52500,652
25.53333,599
25.54167,550
25.55000,506
25.55833,464
25.56667,425
25.57500,390
25.58333,357
25.59167,326
25.60000,298
25.60833,273
25.61667,249
25.62500,227
25.63333,207
25.64167,189
25.65000,172
25.65833,156
25.66667,142
25.67500,128
25.68333,116
25.69167,105
25.70000,95
25.70833,85
25.71667,76
25.72500,68
25.73333,60
25.74167,53
25.75000,46
25.75833,40
25.76667,34
25.77500,29
25.78333,24
25.79167,20
25.80000,15
25.80833,11
25.81667,8
25.82500,4
25.83333,1
25.84167,-3
25.85000,-6
25.85833,-8
25.86667,-11
25.87500,-13
25.88333,-16
25.89167,-18
25.90000,-20
25.90833,-23
25.91667,-25
25.92500,-26
25.93333,-28
25.94167,-30
25.95000,-31
25.95833,-32
25.96667,-34
25.97500,-36
25.98333,-37
25.99167,-39
26.00000,-40
26.00833,-42
26.01667,-43
26.02500,-43
26.03333,-44
26.04167,-45
26.05000,-46
26.05833,-47
26.06667,-48
26.07500,-49
26.08333,-50
26.09167,-51
26.10000,-52
26.10833,-52
26.11667,-52
26.12500,-52
26.13333,-53
26.14167,-54
26.15000,-54
26.15833,-54
26.16667,-55
26.17500,-55
26.18333,-56
26.19167,-57
26.20000,-57
26.20833,-58
26.21667,-58
26.22500,-58
26.23333,-59
26.24167,-59
26.25000,-59
26.25833,-59
26.26667,-59
26.27500,-60
26.28333,-60
26.29167,-61
26.30000,-61
26.30833,-61
26.31667,-61
26.32500,-61
26.33333,-61
26.34167,-61
26.35000,-61
26.35833,-61
26.36667,-62
26.37500,-62
26.38333,-62
26.39167,-62
26.40000,-62
26.40833,-62
26.41667,-62
26.42500,-62
26.43333,-62
26.44167,-62
26.45000,-62
26.45833,-62
26.46667,-62
26.47500,-62
26.48333,-62
26.49167,-62
26.50000,-61
26.50833,-62
26.51667,-62
26.52500,-62
26.53333,-62
26.54167,-62
26.55000,-62
26.55833,-62
26.56667,-62
26.57500,-62
26.58333,-62
26.59167,-62
26.60000,-62
26.60833,-62
26.61667,-62
26.62500,-62
26.63333,-62
26.64167,-62
26.65000,-61
26.65833,-61
26.66667,-61
26.67500,-61
26.68333,-61
26.69167,-61
26.70000,-61
26.70833,-61
26.71667,-62
26.72500,-62
26.73333,-62
26.74167,-62
26.75000,-62
26.75833,-63
26.76667,-63
26.77500,-64
26.78333,-64
26.79167,-65
26.80000,-65
26.80833,-65
26.81667,-66
26.82500,-66
26.83333,-67
26.84167,-67
26.85000,-68
26.85833,-69
26.86667,-69
26.87500,-70
26.88333,-71
26.89167,-71
26.90000,-72
26.90833,-73
26.91667,-73
26.92500,-74
26.93333,-75
26.94167,-76
26.95000,-77
26.95833,-77
26.96667,-78
26.97500,-79
26.98333,-79
26.99167,-80
27.00000,-81
27.00833,-82
27.01667,-83
27.02500,-84
27.03333,-84
27.04167,-85
27.05000,-85
27.05833,-86
27.06667,-87
27.07500,-87
27.08333,-88
27.09167,-89
27.10000,-90
27.10833,-90
27.11667,-90
27.12500,-91
27.13333,-91
27.14167,-92
27.15000,-93
27.15833,-93
27.16667,-93
27.17500,-93
27.18333,-93
27.19167,-93
27.20000,-94
27.20833,-94
27.21667,-94
27.22500,-94
27.23333,-94
27.24167,-94
27.25000,-94
27.25833,-94
27.26667,-94
27.27500,-94
27.28333,-94
27.29167,-94
27.30000,-94
27.30833,-95
27.31667,-95
27.32500,-96
27.33333,-96
27.34167,-96
27.35000,-96
27.35833,-96
27.36667,-96
27.37500,-96
27.38333,-95
27.39167,-95
27.40000,-95
27.40833,-95
27.41667,-95
27.42500,-95
27.43333,-95
27.44167,-95
27.45000,-94
27.45833,-94
27.46667,-94
27.47500,-94
27.48333,-94
27.49167,-93
27.50000,-93
27.50833,-93
27.51667,-93
27.52500,-94
27.53333,-94
27.54167,-94
27.55000,-94
27.55833,-94
27.56667,-93
27.57500,-93
27.58333,-93
27.59167,-92
27.60000,-92
27.60833,-92
27.61667,-92
27.62500,-92
27.63333,-92
27.64167,-91
27.65000,-92
27.65833,-92
27.66667,-92
27.67500,-92
27.68333,-92
27.69167,-91
27.70000,-91
27.70833,-92
27.71667,-92
27.72500,-92
27.73333,-92
27.74167,-92
27.75000,-92
27.75833,-93
27.76667,-94
27.77500,-94
27.78333,-95
27.79167,-96
27.80000,-96
27.80833,-97
27.81667,-98
27.82500,-98
27.83333,-99
27.84167,-100
27.85000,-101
27.85833,-102
27.86667,-102
27.87500,-103
27.88333,-104
27.89167,-106
27.90000,-107
27.90833,-108
27.91667,-109
27.92500,-111
27.93333,-112
27.94167,-114
27.95000,-116
27.95833,-118
27.96667,-120
27.97500,-122
27.98333,-123
27.99167,-125
28.00000,-127
28.00833,-129
28.01667,-132
28.02500,-134
28.03333,-137
28.04167,-139
28.05000,-141
28.05833,-144
28.06667,-146
28.07500,-149
28.08333,-152
28.09167,-155
28.10000,-157
28.10833,-160
28.11667,-163
28.12500,-165
28.13333,-167
28.14167,-170
28.15000,-172
28.15833,-175
28.16667,-178
28.17500,-181
28.18333,-183
28.19167,-186
28.20000,-188
28.20833,-190
28.21667,-192
28.22500,-195
28.23333,-197
28.24167,-199
28.25000,-202
28.25833,-204
28.26667,-206
28.27500,-208
28.28333,-210
28.29167,-212
28.30000,-214
28.30833,-215
28.31667,-216
28.32500,-217
28.33333,-218
28.34167,-219
28.35000,-220
28.35833,-221
28.36667,-221
28.37500,-222
28.38333,-222
28.39167,-222
28.40000,-222
28.40833,-222
28.41667,-222
28.42500,-221
28.43333,-221
28.44167,-221
28.45000,-220
28.45833,-219
28.46667,-218
28.47500,-216
28.48333,-215
28.49167,-213
28.50000,-212
28.50833,-210
28.51667,-209
28.52500,-208
28.53333,-206
28.54167,-204
28.55000,-202
28.55833,-200
28.56667,-198
28.57500,-196
28.58333,-194
28.59167,-192
28.60000,-190
28.60833,-188
28.61667,-186
28.62500,-183
28.63333,-181
28.64167,-178
28.65000,-176
28.65833,-174
28.66667,-172
28.67500,-170
28.68333,-168
28.69167,-166
28.70000,-164
28.70833,-161
28.71667,-159
28.72500,-157
28.73333,-155
28.74167,-153
28.75000,-151
28.75833,-150
28.76667,-148
28.77500,-146
28.78333,-144
28.79167,-143
28.80000,-141
28.80833,-140
28.81667,-138
28.82500,-136
28.83333,-134
28.84167,-133
28.85000,-132
28.85833,-130
28.86667,-129
28.87500,-128
28.88333,-127
28.89167,-126
28.90000,-125
28.90833,-124
28.91667,-122
28.92500,-121
28.93333,-120
28.94167,-119
28.95000,-118
28.95833,-117
28.96667,-117
28.97500,-116
28.98333,-115
28.99167,-115
29.00000,-113
29.00833,-112
29.01667,-111
29.02500,-110
29.03333,-110
29.04167,-109
29.05000,-108
29.05833,-108
29.06667,-108
29.07500,-107
29.08333,-106
29.09167,-106
29.10000,-105
29.10833,-105
29.11667,-105
29.12500,-105
29.13333,-104
29.14167,-104
29.15000,-103
29.15833,-103
29.16667,-103
29.17500,-103
29.18333,-102
29.19167,-102
29.20000,-101
29.20833,-100
29.21667,-100
29.22500,-100
29.23333,-101
29.24167,-101
29.25000,-101
29.25833,-100
29.26667,-100
29.27500,-100
29.28333,-100
29.29167,-100
29.30000,-100
29.30833,-100
29.31667,-99
29.32500,-99
29.33333,-100
29.34167,-100
29.35000,-100
29.35833,-100
29.36667,-100
29.37500,-99
29.38333,-100
29.39167,-100
29.40000,-100
29.40833,-99
29.41667,-99
29.42500,-99
29.43333,-99
29.44167,-100
29.45000,-100
29.45833,-100
29.46667,-100
29.47500,-100
29.48333,-101
29.49167,-101
29.50000,-101
29.50833,-101
29.51667,-101
29.52500,-101
29.53333,-101
29.54167,-101
29.55000,-101
29.55833,-102
29.56667,-102
29.57500,-102
29.58333,-102
29.59167,-103
29.60000,-103
29.60833,-104
29.61667,-104
29.62500,-105
29.63333,-105
29.64167,-106
29.65000,-106
29.65833,-107
29.66667,-108
29.67500,-108
29.68333,-108
29.69167,-109
29.70000,-109
29.70833,-110
29.71667,-110
29.72500,-111
29.73333,-112
29.74167,-113
29.75000,-113
29.75833,-114
29.76667,-115
29.77500,-116
29.78333,-117
29.79167,-118
29.80000,-119
29.80833,-119
29.81667,-120
29.82500,-121
29.83333,-122
29.84167,-123
29.85000,-124
29.85833,-125
29.86667,-126
29.87500,-127
29.88333,-128
29.89167,-129
29.90000,-130
29.90833,-131
29.91667,-132
29.92500,-133
29.93333,-134
29.94167,-135
29.95000,-136
29.95833,-136
29.96667,-137
29.97500,-138
29.98333,-139
29.99167,-139
30.00000,-140
30.00833,-141
30.01667,-142
30.02500,-143
30.03333,-144
30.04167,-144
30.05000,-145
30.05833,-146
30.06667,-147
30.07500,-148
30.08333,-149
30.09167,-149
30.10000,-149
30.10833,-150
30.11667,-151
30.12500,-151
30.13333,-151
30.14167,-151
30.15000,-151
30.15833,-151
30.16667,-151
30.17500,-152
30.18333,-152
30.19167,-151
30.20000,-151
30.20833,-151
30.21667,-152
30.22500,-152
30.23333,-152
30.24167,-152
30.25000,-152
30.25833,-152
30.26667,-151
30.27500,-151
30.28333,-151
30.29167,-150
30.30000,-150
30.30833,-149
30.31667,-149
30.32500,-149
30.33333,-148
30.34167,-148
30.35000,-147
30.35833,-146
30.36667,-146
30.37500,-145
30.38333,-144
30.39167,-143
30.40000,-142
30.40833,-141
30.41667,-140
30.42500,-139
30.43333,-138
30.44167,-137
30.45000,-136
30.45833,-135
30.46667,-135
30.47500,-134
30.48333,-133
30.49167,-132
30.50000,-130
30.50833,-130
30.51667,-129
30.52500,-128
30.53333,-127
30.54167,-126
30.55000,-125
30.55833,-125
30.56667,-124
30.57500,-123
30.58333,-122
30.59167,-121
30.60000,-121
30.60833,-120
30.61667,-120
30.62500,-119
30.63333,-118
30.64167,-118
30.65000,-117
30.65833,-117
30.66667,-116
30.67500,-116
30.68333,-115
30.69167,-115
30.70000,-114
30.70833,-114
30.71667,-114
30.72500,-114
30.73333,-113
30.74167,-113
30.75000,-112
30.75833,-112
30.76667,-112
30.77500,-112
30.78333,-112
30.79167,-112
30.80000,-112
30.80833,-112
30.81667,-112
30.82500,-112
30.83333,-112
30.84167,-112
30.85000,-112
30.85833,-112
30.86667,-112
30.87500,-111
30.88333,-111
30.89167,-111
30.90000,-111
30.90833,-111
30.91667,-111
30.92500,-111
30.93333,-111
30.94167,-111
30.95000,-110
30.95833,-110
30.96667,-110
30.97500,-110
30.98333,-110
30.99167,-109
31.00000,-109
31.00833,-109
31.01667,-109
31.02500,-109
31.03333,-109
31.04167,-110
31.05000,-110
31.05833,-110
31.06667,-110
31.07500,-110
31.08333,-110
31.09167,-110
31.10000,-110
31.10833,-110
31.11667,-110
31.12500,-110
31.13333,-110
31.14167,-109
31.15000,-109
31.15833,-109
31.16667,-109
31.17500,-110
31.18333,-110
31.19167,-110
31.20000,-110
31.20833,-110
31.21667,-110
31.22500,-110
31.23333,-110
31.24167,-110
31.25000,-111
31.25833,-111
31.26667,-111
31.27500,-112
31.28333,-112
31.29167,-112
31.30000,-112
31.30833,-112
31.31667,-112
31.32500,-112
31.33333,-112
31.34167,-112
31.35000,-112
31.35833,-113
31.36667,-113
31.37500,-113
31.38333,-113
31.39167,-114
31.40000,-114
31.40833,-114
31.41667,-114
31.42500,-114
31.43333,-114
31.44167,-114
31.45000,-115
31.45833,-115
31.46667,-115
31.47500,-116
31.48333,-116
31.49167,-116
31.50000,-116
31.50833,-115
31.51667,-115
31.52500,-116
31.53333,-116
31.54167,-116
31.55000,-116
31.55833,-116
31.56667,-116
31.57500,-117
31.58333,-117
31.59167,-116
31.60000,-116
31.60833,-116
31.61667,-116
31.62500,-115
31.63333,-115
31.64167,-115
31.65000,-115
31.65833,-115
31.66667,-115
31.67500,-115
31.68333,-116
31.69167,-116
31.70000,-116
31.70833,-116
31.71667,-116
31.72500,-116
31.73333,-116
31.74167,-116
31.75000,-116
31.75833,-116
31.76667,-116
31.77500,-116
31.78333,-116
31.79167,-116
31.80000,-116
31.80833,-116
31.81667,-115
31.82500,-114
31.83333,-114
31.84167,-114
31.85000,-114
31.85833,-114
31.86667,-114
31.87500,-114
31.88333,-114
31.89167,-114
31.90000,-114
31.90833,-114
31.91667,-114
31.92500,-114
31.93333,-114
31.94167,-114
31.95000,-114
31.95833,-113
31.96667,-113
31.97500,-113
31.98333,-114
31.99167,-114
32.00000,-114
32.00833,-114
32.01667,-114
32.02500,-114
32.03333,-114
32.04167,-113
32.05000,-113
32.05833,-112
32.06667,-112
32.07500,-112
32.08333,-111
32.09167,-111
32.10000,-111
32.10833,-111
32.11667,-112
32.12500,-112
32.13333,-112
32.14167,-111
32.15000,-111
32.15833,-111
32.16667,-111
32.17500,-111
32.18333,-111
32.19167,-111
32.20000,-110
32.20833,-110
32.21667,-110
32.22500,-110
32.23333,-110
32.24167,-109
32.25000,-109
32.25833,-109
32.26667,-108
32.27500,-108
32.28333,-108
32.29167,-107
32.30000,-107
32.30833,-107
32.31667,-107
32.32500,-107
32.33333,-107
32.34167,-106
32.35000,-106
32.35833,-107
32.36667,-106
32.37500,-106
32.38333,-106
32.39167,-106
32.40000,-105
32.40833,-105
32.41667,-104
32.42500,-104
32.43333,-104
32.44167,-104
32.45000,-103
32.45833,-103
32.46667,-102
32.47500,-102
32.48333,-102
32.49167,-102
32.50000,-102
32.50833,-102
32.51667,-102
32.52500,-101
32.53333,-101
32.54167,-101
32.55000,-101
32.55833,-101
32.56667,-101
32.57500,-101
32.58333,-102
32.59167,-102
32.60000,-102
32.60833,-102
32.61667,-102
32.62500,-101
32.63333,-101
32.64167,-102
32.65000,-102
32.65833,-103
32.66667,-103
32.67500,-103
32.68333,-103
32.69167,-104
32.70000,-104
32.70833,-104
32.71667,-104
32.72500,-105
32.73333,-105
32.74167,-105
32.75000,-105
32.75833,-105
32.76667,-105
32.77500,-106
32.78333,-106
32.79167,-107
32.80000,-107
32.80833,-108
32.81667,-108
32.82500,-108
32.83333,-108
32.84167,-108
32.85000,-108
32.85833,-109
32.86667,-110
32.87500,-110
32.88333,-111
32.89167,-111
32.90000,-111
32.90833,-112
32.91667,-112
32.92500,-112
32.93333,-112
32.94167,-112
32.95000,-113
32.95833,-113
32.96667,-114
32.97500,-114
32.98333,-114
32.99167,-115
33.00000,-115
33.00833,-116
33.01667,-116
33.02500,-116
33.03333,-116
33.04167,-117
33.05000,-118
33.05833,-118
33.06667,-118
33.07500,-118
33.08333,-118
33.09167,-118
33.10000,-119
33.10833,-119
33.11667,-119
33.12500,-120
33.13333,-120
33.14167,-120
33.15000,-121
33.15833,-121
33.16667,-121
33.17500,-122
33.18333,-122
33.19167,-122
33.20000,-122
33.20833,-122
33.21667,-122
33.22500,-122
33.23333,-122
33.24167,-123
33.25000,-123
33.25833,-123
33.26667,-124
33.27500,-124
33.28333,-124
33.29167,-124
33.30000,-123
33.30833,-123
33.31667,-123
33.32500,-123
33.33333,-123
33.34167,-123
33.35000,-123
33.35833,-123
33.36667,-123
33.37500,-123
33.38333,-122
33.39167,-122
33.40000,-122
33.40833,-122
33.41667,-122
33.42500,-123
33.43333,-123
33.44167,-122
33.45000,-122
33.45833,-122
33.46667,-122
33.47500,-121
33.48333,-121
33.49167,-121
33.50000,-121
33.50833,-121
33.51667,-120
33.52500,-120
33.53333,-119
33.54167,-119
33.55000,-118
33.55833,-118
33.56667,-118
33.57500,-118
33.58333,-117
33.59167,-117
33.60000,-117
33.60833,-117
33.61667,-117
33.62500,-116
33.63333,-116
33.64167,-116
33.65000,-115
33.65833,-115
33.66667,-115
33.67500,-115
33.68333,-114
33.69167,-114
33.70000,-114
33.70833,-114
33.71667,-113
33.72500,-113
33.73333,-113
33.74167,-113
33.75000,-113
33.75833,-112
33.76667,-112
33.77500,-111
33.78333,-111
33.79167,-111
33.80000,-111
33.80833,-110
33.81667,-110
33.82500,-109
33.83333,-109
33.84167,-109
33.85000,-108
33.85833,-108
33.86667,-108
33.87500,-107
33.88333,-107
33.89167,-107
33.90000,-107
33.90833,-107
33.91667,-107
33.92500,-106
33.93333,-106
33.94167,-106
33.95000,-106
33.95833,-106
33.96667,-105
33.97500,-105
33.98333,-105
33.99167,-105
34.00000,-105
34.00833,-105
34.01667,-105
34.02500,-104
34.03333,-104
34.04167,-104
34.05000,-105
34.05833,-104
34.06667,-104
34.07500,-105
34.08333,-105
34.09167,-105
34.10000,-105
34.10833,-106
34.11667,-106
34.12500,-106
34.13333,-106
34.14167,-106
34.15000,-106
34.15833,-106
34.16667,-106
34.17500,-106
34.18333,-105
34.19167,-105
34.20000,-106
34.20833,-106
34.21667,-107
34.22500,-107
34.23333,-108
34.24167,-108
34.25000,-108
34.25833,-109
34.26667,-110
34.27500,-110
34.28333,-111
34.29167,-111
34.30000,-111
34.30833,-111
34.31667,-111
34.32500,-111
34.33333,-111
34.34167,-112
34.35000,-112
34.35833,-112
34.36667,-112
34.37500,-112
34.38333,-113
34.39167,-113
34.40000,-113
34.40833,-113
34.41667,-113
34.42500,-113
34.43333,-113
34.44167,-113
34.45000,-114
34.45833,-114
34.46667,-114
34.47500,-114
34.48333,-114
34.49167,-114
34.50000,-115
34.50833,-115
34.51667,-115
34.52500,-115
34.53333,-115
34.54167,-115
34.55000,-115
34.55833,-115
34.56667,-115
34.57500,-115
34.58333,-115
34.59167,-115
34.60000,-115
34.60833,-115
34.61667,-115
34.62500,-115
34.63333,-115
34.64167,-115
34.65000,-115
34.65833,-115
34.66667,-115
34.67500,-115
34.68333,-115
34.69167,-115
34.70000,-115
34.70833,-115
34.71667,-115
34.72500,-115
34.73333,-115
34.74167,-115
34.75000,-115
34.75833,-115
34.76667,-115
34.77500,-115
34.78333,-115
34.79167,-114
34.80000,-114
34.80833,-115
34.81667,-115
34.82500,-114
34.83333,-114
34.84167,-114
34.85000,-114
34.85833,-114
34.86667,-114
34.87500,-114
34.88333,-113
34.89167,-113
34.90000,-113
34.90833,-113
34.91667,-113
34.92500,-113
34.93333,-113
34.94167,-113
34.95000,-112
34.95833,-112
34.96667,-112
34.97500,-112
34.98333,-112
34.99167,-112
35.00000,-112
35.00833,-112
35.01667,-111
35.02500,-111
35.03333,-111
35.04167,-111
35.05000,-111
35.05833,-111
35.06667,-111
35.07500,-111
35.08333,-111
35.09167,-110
35.10000,-110
35.10833,-110
35.11667,-110
35.12500,-110
35.13333,-110
35.14167,-110
35.15000,-110
35.15833,-110
35.16667,-110
35.17500,-110
35.18333,-109
35.19167,-109
35.20000,-108
35.20833,-108
35.21667,-108
35.22500,-108
35.23333,-108
35.24167,-107
35.25000,-107
35.25833,-107
35.26667,-107
35.27500,-107
35.28333,-107
35.29167,-107
35.30000,-106
35.30833,-106
35.31667,-106
35.32500,-106
35.33333,-106
35.34167,-106
35.35000,-106
35.35833,-106
35.36667,-106
35.37500,-106
35.38333,-106
35.39167,-105
35.40000,-105
35.40833,-106
35.41667,-106
35.42500,-106
35.43333,-107
35.44167,-107
35.45000,-108
35.45833,-108
35.46667,-108
35.47500,-107
35.48333,-107
35.49167,-107
35.50000,-107
35.50833,-107
35.51667,-107
35.52500,-107
35.53333,-107
35.54167,-108
35.55000,-108
35.55833,-109
35.56667,-109
35.57500,-109
35.58333,-109
35.59167,-108
35.60000,-108
35.60833,-108
35.61667,-108
35.62500,-108
35.63333,-108
35.64167,-109
35.65000,-109
35.65833,-109
35.66667,-109
35.67500,-109
35.68333,-109
35.69167,-109
35.70000,-109
35.70833,-109
35.71667,-110
35.72500,-110
35.73333,-110
35.74167,-110
35.75000,-110
35.75833,-110
35.76667,-111
35.77500,-111
35.78333,-112
35.79167,-112
35.80000,-112
35.80833,-112
35.81667,-111
35.82500,-111
35.83333,-112
35.84167,-112
35.85000,-112
35.85833,-112
35.86667,-112
35.87500,-112
35.88333,-113
35.89167,-113
35.90000,-113
35.90833,-113
35.91667,-113
35.92500,-113
35.93333,-113
35.94167,-113
35.95000,-113
35.95833,-114
35.96667,-114
35.97500,-114
35.98333,-114
35.99167,-114
36.00000,-114
36.00833,-114
36.01667,-115
36.02500,-115
36.03333,-115
36.04167,-115
36.05000,-115
36.05833,-116
36.06667,-116
36.07500,-116
36.08333,-116
36.09167,-116
36.10000,-116
36.10833,-116
36.11667,-116
36.12500,-115
36.13333,-115
36.14167,-116
36.15000,-116
36.15833,-117
36.16667,-117
36.17500,-117
36.18333,-117
36.19167,-118
36.20000,-118
36.20833,-118
36.21667,-118
36.22500,-118
36.23333,-118
36.24167,-118
36.25000,-118
36.25833,-118
36.26667,-118
36.27500,-118
36.28333,-118
36.29167,-118
36.30000,-118
36.30833,-119
36.31667,-119
36.32500,-119
36.33333,-119
36.34167,-119
36.35000,-119
36.35833,-119
36.36667,-118
36.37500,-118
36.38333,-117
36.39167,-117
36.40000,-116
36.40833,-116
36.41667,-116
36.42500,-115
36.43333,-115
36.44167,-115
36.45000,-116
36.45833,-116
36.46667,-116
36.47500,-115
36.48333,-115
36.49167,-114
36.50000,-114
36.50833,-114
36.51667,-114
36.52500,-114
36.53333,-113
36.54167,-113
36.55000,-113
36.55833,-112
36.56667,-112
36.57500,-112
36.58333,-111
36.59167,-111
36.60000,-111
36.60833,-111
36.61667,-111
36.62500,-111
36.63333,-110
36.64167,-110
36.65000,-110
36.65833,-110
36.66667,-110
36.67500,-110
36.68333,-110
36.69167,-110
36.70000,-110
36.70833,-110
36.71667,-109
36.72500,-110
36.73333,-110
36.74167,-110
36.75000,-110
36.75833,-110
36.76667,-110
36.77500,-110
36.78333,-110
36.79167,-111
36.80000,-111
36.80833,-111
36.81667,-111
36.82500,-111
36.83333,-111
36.84167,-111
36.85000,-111
36.85833,-111
36.86667,-111
36.87500,-111
36.88333,-111
36.89167,-112
36.90000,-112
36.90833,-112
36.91667,-112
36.92500,-112
36.93333,-112
36.94167,-112
36.95000,-112
36.95833,-112
36.96667,-113
36.97500,-113
36.98333,-113
36.99167,-113
37.00000,-113
37.00833,-113
37.01667,-113
37.02500,-113
37.03333,-113
37.04167,-113
37.05000,-113
37.05833,-113
37.06667,-113
37.07500,-113
37.08333,-114
37.09167,-114
37.10000,-114
37.10833,-115
37.11667,-114
37.12500,-114
37.13333,-114
37.14167,-114
37.15000,-115
37.15833,-115
37.16667,-115
37.17500,-115
37.18333,-115
37.19167,-116
37.20000,-116
37.20833,-116
37.21667,-116
37.22500,-116
37.23333,-116
37.24167,-116
37.25000,-116
37.25833,-116
37.26667,-116
37.27500,-116
37.28333,-117
37.29167,-117
37.30000,-117
37.30833,-117
37.31667,-118
37.32500,-118
37.33333,-118
37.34167,-118
37.35000,-118
37.35833,-118
37.36667,-118
37.37500,-119
37.38333,-119
37.39167,-119
37.40000,-119
37.40833,-119
37.41667,-120
37.42500,-120
37.43333,-120
37.44167,-120
37.45000,-120
37.45833,-120
37.46667,-119
37.47500,-119
37.48333,-119
37.49167,-119
37.50000,-119
37.50833,-118
37.51667,-118
37.52500,-118
37.53333,-118
37.54167,-117
37.55000,-117
37.55833,-117
37.56667,-117
37.57500,-117
37.58333,-117
37.59167,-116
37.60000,-116
37.60833,-116
37.61667,-116
37.62500,-116
37.63333,-116
37.64167,-115
37.65000,-115
37.65833,-115
37.66667,-114
37.67500,-114
37.68333,-113
37.69167,-113
37.70000,-112
37.70833,-112
37.71667,-112
37.72500,-111
37.73333,-111
37.74167,-111
37.75000,-111
37.75833,-111
37.76667,-110
37.77500,-110
37.78333,-109
37.79167,-109
37.80000,-109
37.80833,-109
37.81667,-108
37.82500,-108
37.83333,-107
37.84167,-107
37.85000,-107
37.85833,-107
37.86667,-107
37.87500,-107
37.88333,-106
37.89167,-106
37.90000,-106
37.90833,-106
37.91667,-106
37.92500,-106
37.93333,-106
37.94167,-106
37.95000,-105
37.95833,-105
37.96667,-105
37.97500,-106
37.98333,-105
37.99167,-105
38.00000,-105
38.00833,-105
38.01667,-106
38.02500,-106
38.03333,-106
38.04167,-106
38.05000,-107
38.05833,-107
38.06667,-106
38.07500,-106
38.08333,-106
38.09167,-107
38.10000,-107
38.10833,-107
38.11667,-107
38.12500,-107
38.13333,-108
38.14167,-108
38.15000,-108
38.15833,-109
38.16667,-109
38.17500,-109
38.18333,-109
38.19167,-109
38.20000,-109
38.20833,-110
38.21667,-110
38.22500,-111
38.23333,-111
38.24167,-111
38.25000,-111
38.25833,-111
38.26667,-112
38.27500,-112
38.28333,-112
38.29167,-113
38.30000,-113
38.30833,-113
38.31667,-113
38.32500,-113
38.33333,-114
38.34167,-114
38.35000,-114
38.35833,-114
38.36667,-114
38.37500,-114
38.38333,-115
38.39167,-115
38.40000,-114
38.40833,-114
38.41667,-114
38.42500,-114
38.43333,-115
38.44167,-115
38.45000,-115
38.45833,-115
38.46667,-115
38.47500,-115
38.48333,-115
38.49167,-115
38.50000,-114
38.50833,-114
38.51667,-115
38.52500,-114
38.53333,-114
38.54167,-115
38.55000,-115
38.55833,-115
38.56667,-115
38.57500,-115
38.58333,-115
38.59167,-115
38.60000,-115
38.60833,-115
38.61667,-115
38.62500,-115
38.63333,-115
38.64167,-115
38.65000,-115
38.65833,-116
38.66667,-116
38.67500,-117
38.68333,-117
38.69167,-117
38.70000,-118
38.70833,-118
38.71667,-118
38.72500,-118
38.73333,-118
38.74167,-118
38.75000,-118
38.75833,-118
38.76667,-118
38.77500,-119
38.78333,-119
38.79167,-119
38.80000,-119
38.80833,-119
38.81667,-119
38.82500,-119
38.83333,-119
38.84167,-119
38.85000,-119
38.85833,-120
38.86667,-120
38.87500,-120
38.88333,-120
38.89167,-120
38.90000,-120
38.90833,-120
38.91667,-120
38.92500,-120
38.93333,-120
38.94167,-120
38.95000,-120
38.95833,-121
38.96667,-121
38.97500,-121
38.98333,-120
38.99167,-120
39.00000,-120
39.00833,-120
39.01667,-120
39.02500,-120
39.03333,-119
39.04167,-119
39.05000,-119
39.05833,-118
39.06667,-118
39.07500,-118
39.08333,-117
39.09167,-117
39.10000,-117
39.10833,-116
39.11667,-116
39.12500,-116
39.13333,-117
39.14167,-117
39.15000,-116
39.15833,-115
39.16667,-115
39.17500,-115
39.18333,-115
39.19167,-114
39.20000,-114
39.20833,-114
39.21667,-114
39.22500,-114
39.23333,-113
39.24167,-113
39.25000,-113
39.25833,-112
39.26667,-112
39.27500,-112
39.28333,-112
39.29167,-112
39.30000,-112
39.30833,-112
39.31667,-111
39.32500,-111
39.33333,-112
39.34167,-112
39.35000,-112
39.35833,-112
39.36667,-111
39.37500,-111
39.38333,-111
39.39167,-111
39.40000,-111
39.40833,-110
39.41667,-110
39.42500,-110
39.43333,-110
39.44167,-109
39.45000,-109
39.45833,-109
39.46667,-109
39.47500,-109
39.48333,-109
39.49167,-109
39.50000,-109
39.50833,-108
39.51667,-108
39.52500,-108
39.53333,-108
39.54167,-108
39.55000,-108
39.55833,-108
39.56667,-108
39.57500,-108
39.58333,-107
39.59167,-107
39.60000,-107
39.60833,-107
39.61667,-107
39.62500,-107
39.63333,-107
39.64167,-107
39.65000,-107
39.65833,-107
39.66667,-107
39.67500,-107
39.68333,-106
39.69167,-106
39.70000,-106
39.70833,-105
39.71667,-105
39.72500,-105
39.73333,-105
39.74167,-105
39.75000,-105
39.75833,-104
39.76667,-104
39.77500,-105
39.78333,-105
39.79167,-105
39.80000,-104
39.80833,-104
39.81667,-104
39.82500,-104
39.83333,-104
39.84167,-104
39.85000,-104
39.85833,-105
39.86667,-105
39.87500,-105
39.88333,-106
39.89167,-106
39.90000,-106
39.90833,-105
39.91667,-106
39.92500,-106
39.93333,-107
39.94167,-107
39.95000,-107
39.95833,-108
39.96667,-108
39.97500,-108
39.98333,-108
39.99167,-108
40.00000,-109

