[Header]
Application Name,LabSolutions
Version,5.97 SP1
Data File Name,C:\Users\cremerlab\Desktop\griffin\2021-04-05_NC_DM_calibration\2021-04-05_NC_DM_2.5mM_calibration_452021_006_019.lcd
Output Date,4/6/2021
Output Time,6:31:59 AM

[File Information]
Type,Data File
Generated,4/6/2021 5:51:40 AM
Generated by,System Administrator
Modified,4/6/2021 6:31:59 AM
Modified by,System Administrator

[Sample Information]
Operator Name,System Administrator
Acquired,4/6/2021 5:51:59 AM
Sample Type,1:Standard
Level,6
Sample Name,2021-04-05_DM_glucose_glycerol_acetate_05mM
Sample ID,006
ISTD Amount1,1
ISTD Amount2,1
ISTD Amount3,1
ISTD Amount4,1
ISTD Amount5,1
ISTD Amount6,1
ISTD Amount7,1
ISTD Amount8,1
ISTD Amount9,1
ISTD Amount10,1
ISTD Amount11,1
ISTD Amount12,1
ISTD Amount13,1
ISTD Amount14,1
ISTD Amount15,1
ISTD Amount16,1
ISTD Amount17,1
ISTD Amount18,1
ISTD Amount19,1
ISTD Amount20,1
ISTD Amount21,1
ISTD Amount22,1
ISTD Amount23,1
ISTD Amount24,1
ISTD Amount25,1
ISTD Amount26,1
ISTD Amount27,1
ISTD Amount28,1
ISTD Amount29,1
ISTD Amount30,1
ISTD Amount31,1
ISTD Amount32,1
Sample Amount,1
Dilution Factor,1
Vial#,24
Injection Volume,20

[Original Files]
Data File,C:\Users\cremerlab\Desktop\griffin\2021-04-05_NC_DM_calibration\2021-04-05_NC_DM_2.5mM_calibration_452021_006_019.lcd
Method File,C:\Users\cremerlab\Desktop\griffin\2021-04-05_NC_DM_calibration\2021-04-05_2.5mM_mobile.lcm
Batch File,C:\Users\cremerlab\Desktop\griffin\2021-04-05_NC_DM_calibration\2021-04-05_NC_DM_2.5mM_calibration.lcb
Report Format File,c:\LabSolutions\System\DEFAULT.lsr

[File Description]


[Configuration]
Instrument Name,HPLC-PC-Instrument1
Instrument #,1
Line #,1
# of Detectors,2
Detector ID,Detector A,Detector B
Detector Name,Detector A,Detector B
# of Channels,1,1

[Peak Table(Detector A)]
# of Peaks,0

[Peak Table(Detector B)]
# of Peaks,6
Peak#,R.Time,I.Time,F.Time,Area,Height,A/H,Conc.,Mark,ID#,Name,k',Plate #,Plate Ht.,Tailing,Resolution,Sep.Factor,Area Ratio,Height Ratio,Conc. %,Norm Conc.
1,10.888,10.425,12.067,248248,14651,16.944,8.201,   ,,,0.000,9392,15.971,1.038,0.000,0.000,0,0,0.000,0.000
2,13.963,12.542,14.225,1793873,47046,38.130,59.262,   ,,,0.282,3082,48.672,0.000,4.225,0.000,0,0,0.000,0.000
3,14.334,14.225,15.025,174893,10131,17.263,5.778, V ,,,0.316,4064,36.910,0.000,0.389,1.121,0,0,0.000,0.000
4,15.677,15.025,16.892,587209,23733,24.743,19.399, V ,,,0.440,9372,16.005,1.144,1.735,1.390,0,0,0.000,0.000
5,22.068,21.408,23.050,159838,5823,27.449,5.280,   ,,,1.027,14751,10.169,1.082,9.300,2.335,0,0,0.000,0.000
6,25.041,24.392,26.058,62981,2127,29.609,2.081,   ,,,1.300,16315,9.194,1.061,3.935,1.266,0,0,0.000,0.000

[LC Chromatogram(Detector B-Ch1)]
Interval(msec),500
# of Points,4801
Start Time(min),0.000
End Time(min),40.000
Intensity Units,mV
Intensity Multiplier,0.001
R.Time (min),Intensity
0.00000,-5
0.00833,-5
0.01667,-3
0.02500,-0
0.03333,-0
0.04167,-0
0.05000,-0
0.05833,-1
0.06667,-1
0.07500,-1
0.08333,-1
0.09167,-1
0.10000,-2
0.10833,-2
0.11667,-2
0.12500,-3
0.13333,-3
0.14167,-3
0.15000,-3
0.15833,-3
0.16667,-3
0.17500,-3
0.18333,-3
0.19167,-3
0.20000,-3
0.20833,-3
0.21667,-3
0.22500,-3
0.23333,-3
0.24167,-3
0.25000,-3
0.25833,-3
0.26667,-3
0.27500,-3
0.28333,-2
0.29167,-2
0.30000,-2
0.30833,-1
0.31667,-1
0.32500,-1
0.33333,-1
0.34167,-1
0.35000,-1
0.35833,-1
0.36667,-1
0.37500,-1
0.38333,-1
0.39167,-1
0.40000,-0
0.40833,-0
0.41667,0
0.42500,0
0.43333,0
0.44167,0
0.45000,0
0.45833,1
0.46667,2
0.47500,2
0.48333,2
0.49167,2
0.50000,2
0.50833,2
0.51667,3
0.52500,4
0.53333,4
0.54167,4
0.55000,5
0.55833,5
0.56667,6
0.57500,6
0.58333,6
0.59167,6
0.60000,7
0.60833,7
0.61667,7
0.62500,7
0.63333,7
0.64167,7
0.65000,7
0.65833,7
0.66667,8
0.67500,8
0.68333,8
0.69167,8
0.70000,8
0.70833,8
0.71667,8
0.72500,8
0.73333,8
0.74167,8
0.75000,8
0.75833,8
0.76667,9
0.77500,9
0.78333,9
0.79167,9
0.80000,9
0.80833,9
0.81667,9
0.82500,9
0.83333,8
0.84167,8
0.85000,7
0.85833,7
0.86667,6
0.87500,6
0.88333,5
0.89167,5
0.90000,4
0.90833,4
0.91667,3
0.92500,2
0.93333,1
0.94167,1
0.95000,-0
0.95833,-1
0.96667,-1
0.97500,-2
0.98333,-2
0.99167,-3
1.00000,-3
1.00833,-3
1.01667,-3
1.02500,-4
1.03333,-4
1.04167,-4
1.05000,-5
1.05833,-5
1.06667,-6
1.07500,-6
1.08333,-6
1.09167,-7
1.10000,-7
1.10833,-7
1.11667,-8
1.12500,-8
1.13333,-8
1.14167,-8
1.15000,-8
1.15833,-8
1.16667,-7
1.17500,-7
1.18333,-7
1.19167,-7
1.20000,-6
1.20833,-6
1.21667,-5
1.22500,-4
1.23333,-4
1.24167,-3
1.25000,-2
1.25833,-1
1.26667,-1
1.27500,-0
1.28333,0
1.29167,1
1.30000,1
1.30833,2
1.31667,3
1.32500,4
1.33333,5
1.34167,6
1.35000,7
1.35833,8
1.36667,9
1.37500,10
1.38333,11
1.39167,11
1.40000,12
1.40833,13
1.41667,14
1.42500,15
1.43333,15
1.44167,15
1.45000,16
1.45833,17
1.46667,17
1.47500,18
1.48333,19
1.49167,19
1.50000,20
1.50833,20
1.51667,20
1.52500,20
1.53333,20
1.54167,21
1.55000,21
1.55833,21
1.56667,21
1.57500,21
1.58333,21
1.59167,21
1.60000,21
1.60833,21
1.61667,21
1.62500,21
1.63333,21
1.64167,21
1.65000,20
1.65833,20
1.66667,20
1.67500,20
1.68333,19
1.69167,19
1.70000,18
1.70833,18
1.71667,18
1.72500,17
1.73333,17
1.74167,16
1.75000,16
1.75833,15
1.76667,15
1.77500,14
1.78333,13
1.79167,13
1.80000,12
1.80833,12
1.81667,11
1.82500,11
1.83333,10
1.84167,9
1.85000,8
1.85833,7
1.86667,7
1.87500,6
1.88333,6
1.89167,5
1.90000,5
1.90833,4
1.91667,4
1.92500,4
1.93333,3
1.94167,2
1.95000,2
1.95833,1
1.96667,0
1.97500,-0
1.98333,-1
1.99167,-1
2.00000,-2
2.00833,-3
2.01667,-3
2.02500,-3
2.03333,-4
2.04167,-4
2.05000,-4
2.05833,-4
2.06667,-4
2.07500,-5
2.08333,-5
2.09167,-5
2.10000,-5
2.10833,-6
2.11667,-6
2.12500,-6
2.13333,-6
2.14167,-6
2.15000,-6
2.15833,-6
2.16667,-6
2.17500,-6
2.18333,-6
2.19167,-6
2.20000,-6
2.20833,-6
2.21667,-6
2.22500,-6
2.23333,-6
2.24167,-5
2.25000,-4
2.25833,-4
2.26667,-4
2.27500,-3
2.28333,-3
2.29167,-2
2.30000,-2
2.30833,-1
2.31667,-1
2.32500,-0
2.33333,0
2.34167,-0
2.35000,0
2.35833,1
2.36667,1
2.37500,1
2.38333,2
2.39167,2
2.40000,2
2.40833,3
2.41667,3
2.42500,3
2.43333,3
2.44167,3
2.45000,3
2.45833,4
2.46667,4
2.47500,4
2.48333,5
2.49167,5
2.50000,5
2.50833,5
2.51667,6
2.52500,6
2.53333,6
2.54167,6
2.55000,5
2.55833,5
2.56667,5
2.57500,5
2.58333,5
2.59167,5
2.60000,5
2.60833,4
2.61667,4
2.62500,4
2.63333,4
2.64167,4
2.65000,4
2.65833,3
2.66667,3
2.67500,3
2.68333,2
2.69167,2
2.70000,2
2.70833,2
2.71667,2
2.72500,2
2.73333,1
2.74167,1
2.75000,1
2.75833,0
2.76667,-0
2.77500,-1
2.78333,-1
2.79167,-1
2.80000,-1
2.80833,-1
2.81667,-1
2.82500,-2
2.83333,-1
2.84167,-1
2.85000,-1
2.85833,-1
2.86667,-1
2.87500,-1
2.88333,-2
2.89167,-2
2.90000,-2
2.90833,-2
2.91667,-3
2.92500,-3
2.93333,-2
2.94167,-2
2.95000,-2
2.95833,-2
2.96667,-1
2.97500,-1
2.98333,-1
2.99167,-1
3.00000,-0
3.00833,0
3.01667,0
3.02500,0
3.03333,0
3.04167,1
3.05000,1
3.05833,1
3.06667,1
3.07500,1
3.08333,1
3.09167,1
3.10000,1
3.10833,1
3.11667,1
3.12500,2
3.13333,2
3.14167,2
3.15000,2
3.15833,3
3.16667,3
3.17500,3
3.18333,4
3.19167,4
3.20000,4
3.20833,5
3.21667,5
3.22500,6
3.23333,6
3.24167,7
3.25000,7
3.25833,7
3.26667,7
3.27500,7
3.28333,7
3.29167,7
3.30000,7
3.30833,8
3.31667,8
3.32500,8
3.33333,9
3.34167,9
3.35000,9
3.35833,9
3.36667,9
3.37500,9
3.38333,10
3.39167,10
3.40000,11
3.40833,11
3.41667,12
3.42500,12
3.43333,12
3.44167,12
3.45000,13
3.45833,13
3.46667,13
3.47500,13
3.48333,14
3.49167,14
3.50000,15
3.50833,15
3.51667,15
3.52500,15
3.53333,15
3.54167,15
3.55000,16
3.55833,16
3.56667,16
3.57500,16
3.58333,16
3.59167,16
3.60000,16
3.60833,16
3.61667,16
3.62500,16
3.63333,16
3.64167,16
3.65000,17
3.65833,17
3.66667,17
3.67500,17
3.68333,17
3.69167,17
3.70000,17
3.70833,17
3.71667,17
3.72500,17
3.73333,16
3.74167,16
3.75000,15
3.75833,15
3.76667,15
3.77500,14
3.78333,14
3.79167,14
3.80000,14
3.80833,13
3.81667,13
3.82500,13
3.83333,13
3.84167,12
3.85000,12
3.85833,12
3.86667,12
3.87500,12
3.88333,12
3.89167,12
3.90000,12
3.90833,12
3.91667,11
3.92500,11
3.93333,11
3.94167,10
3.95000,10
3.95833,10
3.96667,9
3.97500,9
3.98333,9
3.99167,8
4.00000,8
4.00833,8
4.01667,8
4.02500,7
4.03333,7
4.04167,7
4.05000,6
4.05833,6
4.06667,5
4.07500,5
4.08333,4
4.09167,4
4.10000,4
4.10833,3
4.11667,3
4.12500,2
4.13333,2
4.14167,1
4.15000,0
4.15833,-0
4.16667,-0
4.17500,-1
4.18333,-2
4.19167,-2
4.20000,-3
4.20833,-3
4.21667,-3
4.22500,-3
4.23333,-4
4.24167,-4
4.25000,-4
4.25833,-4
4.26667,-5
4.27500,-5
4.28333,-5
4.29167,-6
4.30000,-6
4.30833,-6
4.31667,-7
4.32500,-7
4.33333,-7
4.34167,-7
4.35000,-7
4.35833,-8
4.36667,-8
4.37500,-7
4.38333,-7
4.39167,-7
4.40000,-7
4.40833,-7
4.41667,-7
4.42500,-7
4.43333,-6
4.44167,-6
4.45000,-5
4.45833,-5
4.46667,-4
4.47500,-4
4.48333,-4
4.49167,-3
4.50000,-2
4.50833,-2
4.51667,-1
4.52500,-0
4.53333,1
4.54167,2
4.55000,2
4.55833,3
4.56667,3
4.57500,4
4.58333,5
4.59167,6
4.60000,8
4.60833,9
4.61667,10
4.62500,10
4.63333,11
4.64167,12
4.65000,12
4.65833,13
4.66667,14
4.67500,15
4.68333,16
4.69167,17
4.70000,17
4.70833,18
4.71667,19
4.72500,19
4.73333,20
4.74167,20
4.75000,20
4.75833,21
4.76667,21
4.77500,22
4.78333,22
4.79167,22
4.80000,22
4.80833,23
4.81667,23
4.82500,23
4.83333,23
4.84167,23
4.85000,22
4.85833,22
4.86667,22
4.87500,21
4.88333,21
4.89167,21
4.90000,21
4.90833,20
4.91667,20
4.92500,19
4.93333,19
4.94167,19
4.95000,18
4.95833,18
4.96667,17
4.97500,17
4.98333,16
4.99167,15
5.00000,15
5.00833,14
5.01667,13
5.02500,13
5.03333,12
5.04167,12
5.05000,12
5.05833,11
5.06667,10
5.07500,10
5.08333,9
5.09167,9
5.10000,8
5.10833,7
5.11667,6
5.12500,5
5.13333,5
5.14167,4
5.15000,4
5.15833,3
5.16667,3
5.17500,2
5.18333,1
5.19167,0
5.20000,0
5.20833,-0
5.21667,-0
5.22500,-0
5.23333,-1
5.24167,-1
5.25000,-1
5.25833,-1
5.26667,-1
5.27500,-2
5.28333,-1
5.29167,-1
5.30000,-1
5.30833,-1
5.31667,-1
5.32500,-1
5.33333,-1
5.34167,-2
5.35000,-2
5.35833,-1
5.36667,-1
5.37500,-1
5.38333,-0
5.39167,0
5.40000,0
5.40833,0
5.41667,0
5.42500,1
5.43333,1
5.44167,2
5.45000,2
5.45833,2
5.46667,3
5.47500,3
5.48333,3
5.49167,3
5.50000,3
5.50833,3
5.51667,4
5.52500,4
5.53333,4
5.54167,4
5.55000,5
5.55833,5
5.56667,5
5.57500,6
5.58333,6
5.59167,6
5.60000,6
5.60833,6
5.61667,6
5.62500,7
5.63333,7
5.64167,8
5.65000,8
5.65833,9
5.66667,9
5.67500,10
5.68333,10
5.69167,10
5.70000,11
5.70833,11
5.71667,12
5.72500,12
5.73333,12
5.74167,13
5.75000,13
5.75833,13
5.76667,13
5.77500,12
5.78333,12
5.79167,13
5.80000,13
5.80833,14
5.81667,14
5.82500,15
5.83333,15
5.84167,16
5.85000,16
5.85833,17
5.86667,17
5.87500,18
5.88333,19
5.89167,19
5.90000,19
5.90833,19
5.91667,19
5.92500,19
5.93333,20
5.94167,20
5.95000,20
5.95833,20
5.96667,20
5.97500,21
5.98333,21
5.99167,21
6.00000,21
6.00833,21
6.01667,21
6.02500,21
6.03333,21
6.04167,21
6.05000,22
6.05833,23
6.06667,23
6.07500,24
6.08333,24
6.09167,24
6.10000,24
6.10833,24
6.11667,24
6.12500,24
6.13333,25
6.14167,25
6.15000,25
6.15833,25
6.16667,25
6.17500,25
6.18333,25
6.19167,26
6.20000,26
6.20833,27
6.21667,27
6.22500,27
6.23333,27
6.24167,28
6.25000,28
6.25833,28
6.26667,28
6.27500,28
6.28333,29
6.29167,29
6.30000,29
6.30833,29
6.31667,29
6.32500,29
6.33333,29
6.34167,29
6.35000,29
6.35833,30
6.36667,30
6.37500,30
6.38333,31
6.39167,31
6.40000,30
6.40833,30
6.41667,30
6.42500,30
6.43333,29
6.44167,29
6.45000,28
6.45833,28
6.46667,28
6.47500,28
6.48333,28
6.49167,27
6.50000,27
6.50833,27
6.51667,27
6.52500,27
6.53333,26
6.54167,26
6.55000,25
6.55833,25
6.56667,25
6.57500,25
6.58333,24
6.59167,24
6.60000,24
6.60833,23
6.61667,23
6.62500,22
6.63333,21
6.64167,20
6.65000,20
6.65833,19
6.66667,18
6.67500,17
6.68333,16
6.69167,16
6.70000,15
6.70833,15
6.71667,15
6.72500,14
6.73333,14
6.74167,13
6.75000,12
6.75833,11
6.76667,11
6.77500,11
6.78333,11
6.79167,11
6.80000,10
6.80833,10
6.81667,9
6.82500,8
6.83333,8
6.84167,7
6.85000,6
6.85833,5
6.86667,5
6.87500,4
6.88333,4
6.89167,4
6.90000,4
6.90833,4
6.91667,4
6.92500,3
6.93333,3
6.94167,3
6.95000,4
6.95833,4
6.96667,4
6.97500,4
6.98333,3
6.99167,3
7.00000,3
7.00833,2
7.01667,3
7.02500,3
7.03333,3
7.04167,3
7.05000,3
7.05833,3
7.06667,3
7.07500,3
7.08333,4
7.09167,4
7.10000,5
7.10833,5
7.11667,5
7.12500,6
7.13333,6
7.14167,6
7.15000,7
7.15833,7
7.16667,8
7.17500,9
7.18333,9
7.19167,10
7.20000,10
7.20833,10
7.21667,11
7.22500,12
7.23333,12
7.24167,13
7.25000,14
7.25833,15
7.26667,15
7.27500,16
7.28333,16
7.29167,16
7.30000,17
7.30833,17
7.31667,18
7.32500,18
7.33333,18
7.34167,19
7.35000,19
7.35833,20
7.36667,21
7.37500,21
7.38333,22
7.39167,22
7.40000,22
7.40833,22
7.41667,22
7.42500,22
7.43333,22
7.44167,22
7.45000,22
7.45833,23
7.46667,23
7.47500,24
7.48333,24
7.49167,24
7.50000,24
7.50833,25
7.51667,25
7.52500,25
7.53333,26
7.54167,26
7.55000,25
7.55833,25
7.56667,25
7.57500,25
7.58333,25
7.59167,25
7.60000,25
7.60833,25
7.61667,25
7.62500,25
7.63333,25
7.64167,25
7.65000,25
7.65833,26
7.66667,26
7.67500,25
7.68333,25
7.69167,25
7.70000,25
7.70833,25
7.71667,25
7.72500,25
7.73333,25
7.74167,24
7.75000,24
7.75833,24
7.76667,24
7.77500,24
7.78333,24
7.79167,24
7.80000,24
7.80833,24
7.81667,25
7.82500,24
7.83333,24
7.84167,24
7.85000,24
7.85833,24
7.86667,25
7.87500,25
7.88333,25
7.89167,25
7.90000,25
7.90833,24
7.91667,24
7.92500,24
7.93333,24
7.94167,25
7.95000,25
7.95833,25
7.96667,25
7.97500,26
7.98333,26
7.99167,26
8.00000,26
8.00833,26
8.01667,26
8.02500,26
8.03333,27
8.04167,27
8.05000,27
8.05833,27
8.06667,27
8.07500,27
8.08333,26
8.09167,26
8.10000,26
8.10833,27
8.11667,27
8.12500,27
8.13333,27
8.14167,27
8.15000,26
8.15833,26
8.16667,25
8.17500,25
8.18333,25
8.19167,25
8.20000,24
8.20833,24
8.21667,24
8.22500,24
8.23333,24
8.24167,24
8.25000,23
8.25833,23
8.26667,22
8.27500,22
8.28333,21
8.29167,21
8.30000,20
8.30833,20
8.31667,19
8.32500,19
8.33333,18
8.34167,18
8.35000,17
8.35833,16
8.36667,15
8.37500,15
8.38333,14
8.39167,14
8.40000,13
8.40833,12
8.41667,11
8.42500,11
8.43333,10
8.44167,10
8.45000,9
8.45833,9
8.46667,8
8.47500,8
8.48333,8
8.49167,7
8.50000,7
8.50833,7
8.51667,7
8.52500,6
8.53333,6
8.54167,6
8.55000,6
8.55833,6
8.56667,5
8.57500,5
8.58333,4
8.59167,4
8.60000,4
8.60833,4
8.61667,4
8.62500,4
8.63333,4
8.64167,4
8.65000,4
8.65833,4
8.66667,3
8.67500,3
8.68333,3
8.69167,3
8.70000,3
8.70833,3
8.71667,3
8.72500,3
8.73333,3
8.74167,3
8.75000,4
8.75833,4
8.76667,4
8.77500,4
8.78333,4
8.79167,4
8.80000,3
8.80833,3
8.81667,3
8.82500,3
8.83333,4
8.84167,4
8.85000,4
8.85833,4
8.86667,5
8.87500,5
8.88333,4
8.89167,4
8.90000,5
8.90833,5
8.91667,5
8.92500,5
8.93333,5
8.94167,5
8.95000,5
8.95833,5
8.96667,6
8.97500,6
8.98333,6
8.99167,7
9.00000,7
9.00833,7
9.01667,8
9.02500,8
9.03333,8
9.04167,9
9.05000,9
9.05833,9
9.06667,10
9.07500,10
9.08333,10
9.09167,10
9.10000,10
9.10833,11
9.11667,11
9.12500,11
9.13333,12
9.14167,12
9.15000,13
9.15833,13
9.16667,13
9.17500,13
9.18333,13
9.19167,13
9.20000,13
9.20833,13
9.21667,14
9.22500,14
9.23333,15
9.24167,15
9.25000,15
9.25833,15
9.26667,16
9.27500,16
9.28333,17
9.29167,17
9.30000,17
9.30833,17
9.31667,18
9.32500,18
9.33333,18
9.34167,18
9.35000,18
9.35833,18
9.36667,18
9.37500,18
9.38333,18
9.39167,18
9.40000,18
9.40833,18
9.41667,17
9.42500,17
9.43333,18
9.44167,18
9.45000,19
9.45833,19
9.46667,19
9.47500,19
9.48333,19
9.49167,19
9.50000,19
9.50833,19
9.51667,19
9.52500,19
9.53333,19
9.54167,20
9.55000,20
9.55833,19
9.56667,19
9.57500,19
9.58333,19
9.59167,19
9.60000,19
9.60833,19
9.61667,19
9.62500,19
9.63333,19
9.64167,19
9.65000,19
9.65833,19
9.66667,19
9.67500,19
9.68333,19
9.69167,19
9.70000,19
9.70833,19
9.71667,19
9.72500,19
9.73333,19
9.74167,18
9.75000,18
9.75833,18
9.76667,18
9.77500,18
9.78333,18
9.79167,19
9.80000,19
9.80833,19
9.81667,19
9.82500,19
9.83333,19
9.84167,19
9.85000,19
9.85833,19
9.86667,19
9.87500,20
9.88333,20
9.89167,20
9.90000,20
9.90833,21
9.91667,21
9.92500,21
9.93333,21
9.94167,21
9.95000,21
9.95833,22
9.96667,22
9.97500,23
9.98333,23
9.99167,23
10.00000,23
10.00833,23
10.01667,23
10.02500,23
10.03333,24
10.04167,24
10.05000,25
10.05833,25
10.06667,25
10.07500,25
10.08333,25
10.09167,25
10.10000,26
10.10833,26
10.11667,26
10.12500,26
10.13333,26
10.14167,26
10.15000,26
10.15833,26
10.16667,26
10.17500,26
10.18333,26
10.19167,26
10.20000,26
10.20833,26
10.21667,26
10.22500,26
10.23333,27
10.24167,27
10.25000,26
10.25833,26
10.26667,26
10.27500,26
10.28333,26
10.29167,26
10.30000,26
10.30833,26
10.31667,26
10.32500,26
10.33333,27
10.34167,27
10.35000,27
10.35833,28
10.36667,28
10.37500,28
10.38333,29
10.39167,29
10.40000,29
10.40833,29
10.41667,29
10.42500,30
10.43333,30
10.44167,31
10.45000,33
10.45833,34
10.46667,36
10.47500,39
10.48333,42
10.49167,46
10.50000,52
10.50833,60
10.51667,70
10.52500,83
10.53333,99
10.54167,120
10.55000,147
10.55833,181
10.56667,223
10.57500,274
10.58333,338
10.59167,414
10.60000,505
10.60833,614
10.61667,743
10.62500,893
10.63333,1067
10.64167,1268
10.65000,1496
10.65833,1755
10.66667,2045
10.67500,2369
10.68333,2727
10.69167,3120
10.70000,3548
10.70833,4012
10.71667,4510
10.72500,5040
10.73333,5601
10.74167,6189
10.75000,6800
10.75833,7431
10.76667,8077
10.77500,8731
10.78333,9388
10.79167,10040
10.80000,10680
10.80833,11299
10.81667,11891
10.82500,12445
10.83333,12955
10.84167,13412
10.85000,13808
10.85833,14137
10.86667,14392
10.87500,14568
10.88333,14662
10.89167,14671
10.90000,14594
10.90833,14433
10.91667,14190
10.92500,13869
10.93333,13475
10.94167,13016
10.95000,12499
10.95833,11934
10.96667,11329
10.97500,10695
10.98333,10041
10.99167,9377
11.00000,8711
11.00833,8052
11.01667,7406
11.02500,6780
11.03333,6180
11.04167,5609
11.05000,5070
11.05833,4565
11.06667,4096
11.07500,3663
11.08333,3265
11.09167,2902
11.10000,2573
11.10833,2276
11.11667,2008
11.12500,1769
11.13333,1555
11.14167,1366
11.15000,1198
11.15833,1050
11.16667,919
11.17500,804
11.18333,703
11.19167,616
11.20000,540
11.20833,473
11.21667,416
11.22500,366
11.23333,323
11.24167,286
11.25000,254
11.25833,227
11.26667,204
11.27500,184
11.28333,167
11.29167,152
11.30000,140
11.30833,130
11.31667,121
11.32500,114
11.33333,108
11.34167,102
11.35000,98
11.35833,94
11.36667,91
11.37500,88
11.38333,85
11.39167,82
11.40000,80
11.40833,78
11.41667,76
11.42500,74
11.43333,73
11.44167,71
11.45000,70
11.45833,68
11.46667,66
11.47500,64
11.48333,62
11.49167,60
11.50000,59
11.50833,57
11.51667,56
11.52500,54
11.53333,53
11.54167,52
11.55000,50
11.55833,48
11.56667,47
11.57500,45
11.58333,43
11.59167,42
11.60000,41
11.60833,39
11.61667,38
11.62500,37
11.63333,36
11.64167,35
11.65000,34
11.65833,32
11.66667,31
11.67500,30
11.68333,29
11.69167,28
11.70000,27
11.70833,26
11.71667,25
11.72500,24
11.73333,23
11.74167,22
11.75000,21
11.75833,21
11.76667,20
11.77500,20
11.78333,19
11.79167,18
11.80000,18
11.80833,17
11.81667,17
11.82500,16
11.83333,15
11.84167,14
11.85000,13
11.85833,12
11.86667,12
11.87500,11
11.88333,10
11.89167,9
11.90000,8
11.90833,7
11.91667,6
11.92500,6
11.93333,5
11.94167,4
11.95000,4
11.95833,3
11.96667,3
11.97500,3
11.98333,2
11.99167,1
12.00000,0
12.00833,-0
12.01667,-1
12.02500,-2
12.03333,-3
12.04167,-3
12.05000,-4
12.05833,-4
12.06667,-4
12.07500,-4
12.08333,-5
12.09167,-5
12.10000,-6
12.10833,-7
12.11667,-7
12.12500,-7
12.13333,-7
12.14167,-7
12.15000,-7
12.15833,-7
12.16667,-7
12.17500,-7
12.18333,-7
12.19167,-7
12.20000,-7
12.20833,-7
12.21667,-7
12.22500,-7
12.23333,-7
12.24167,-6
12.25000,-6
12.25833,-6
12.26667,-5
12.27500,-5
12.28333,-4
12.29167,-3
12.30000,-3
12.30833,-2
12.31667,-1
12.32500,-0
12.33333,1
12.34167,2
12.35000,3
12.35833,4
12.36667,5
12.37500,6
12.38333,7
12.39167,8
12.40000,8
12.40833,9
12.41667,10
12.42500,11
12.43333,12
12.44167,13
12.45000,14
12.45833,15
12.46667,17
12.47500,18
12.48333,19
12.49167,21
12.50000,22
12.50833,24
12.51667,25
12.52500,25
12.53333,26
12.54167,27
12.55000,28
12.55833,29
12.56667,30
12.57500,32
12.58333,34
12.59167,36
12.60000,38
12.60833,41
12.61667,44
12.62500,48
12.63333,53
12.64167,58
12.65000,65
12.65833,73
12.66667,83
12.67500,94
12.68333,108
12.69167,125
12.70000,144
12.70833,167
12.71667,193
12.72500,223
12.73333,258
12.74167,297
12.75000,341
12.75833,390
12.76667,445
12.77500,505
12.78333,572
12.79167,645
12.80000,724
12.80833,810
12.81667,903
12.82500,1002
12.83333,1109
12.84167,1222
12.85000,1341
12.85833,1468
12.86667,1601
12.87500,1740
12.88333,1886
12.89167,2038
12.90000,2196
12.90833,2360
12.91667,2530
12.92500,2705
12.93333,2885
12.94167,3070
12.95000,3261
12.95833,3456
12.96667,3656
12.97500,3861
12.98333,4071
12.99167,4285
13.00000,4503
13.00833,4725
13.01667,4950
13.02500,5179
13.03333,5412
13.04167,5648
13.05000,5888
13.05833,6131
13.06667,6377
13.07500,6626
13.08333,6879
13.09167,7135
13.10000,7394
13.10833,7655
13.11667,7920
13.12500,8187
13.13333,8457
13.14167,8729
13.15000,9004
13.15833,9281
13.16667,9562
13.17500,9844
13.18333,10129
13.19167,10417
13.20000,10707
13.20833,11000
13.21667,11296
13.22500,11594
13.23333,11895
13.24167,12198
13.25000,12503
13.25833,12810
13.26667,13119
13.27500,13432
13.28333,13746
13.29167,14064
13.30000,14383
13.30833,14705
13.31667,15030
13.32500,15356
13.33333,15686
13.34167,16017
13.35000,16351
13.35833,16687
13.36667,17025
13.37500,17366
13.38333,17710
13.39167,18056
13.40000,18405
13.40833,18756
13.41667,19110
13.42500,19466
13.43333,19825
13.44167,20186
13.45000,20549
13.45833,20916
13.46667,21285
13.47500,21656
13.48333,22030
13.49167,22406
13.50000,22785
13.50833,23167
13.51667,23552
13.52500,23939
13.53333,24329
13.54167,24722
13.55000,25118
13.55833,25516
13.56667,25917
13.57500,26320
13.58333,26727
13.59167,27137
13.60000,27549
13.60833,27964
13.61667,28382
13.62500,28804
13.63333,29228
13.64167,29655
13.65000,30085
13.65833,30519
13.66667,30955
13.67500,31394
13.68333,31837
13.69167,32283
13.70000,32732
13.70833,33184
13.71667,33639
13.72500,34098
13.73333,34559
13.74167,35024
13.75000,35492
13.75833,35964
13.76667,36438
13.77500,36916
13.78333,37397
13.79167,37882
13.80000,38371
13.80833,38863
13.81667,39358
13.82500,39857
13.83333,40360
13.84167,40865
13.85000,41374
13.85833,41886
13.86667,42401
13.87500,42918
13.88333,43437
13.89167,43954
13.90000,44467
13.90833,44970
13.91667,45456
13.92500,45912
13.93333,46325
13.94167,46675
13.95000,46941
13.95833,47097
13.96667,47116
13.97500,46970
13.98333,46634
13.99167,46086
14.00000,45308
14.00833,44292
14.01667,43037
14.02500,41551
14.03333,39852
14.04167,37966
14.05000,35925
14.05833,33768
14.06667,31538
14.07500,29277
14.08333,27027
14.09167,24829
14.10000,22718
14.10833,20723
14.11667,18867
14.12500,17168
14.13333,15637
14.14167,14278
14.15000,13092
14.15833,12076
14.16667,11222
14.17500,10521
14.18333,9963
14.19167,9533
14.20000,9220
14.20833,9010
14.21667,8890
14.22500,8845
14.23333,8864
14.24167,8933
14.25000,9041
14.25833,9178
14.26667,9331
14.27500,9492
14.28333,9653
14.29167,9803
14.30000,9938
14.30833,10051
14.31667,10137
14.32500,10191
14.33333,10212
14.34167,10197
14.35000,10145
14.35833,10056
14.36667,9929
14.37500,9766
14.38333,9570
14.39167,9343
14.40000,9087
14.40833,8807
14.41667,8505
14.42500,8185
14.43333,7851
14.44167,7505
14.45000,7153
14.45833,6797
14.46667,6440
14.47500,6085
14.48333,5735
14.49167,5391
14.50000,5058
14.50833,4734
14.51667,4424
14.52500,4126
14.53333,3842
14.54167,3573
14.55000,3319
14.55833,3080
14.56667,2856
14.57500,2647
14.58333,2452
14.59167,2271
14.60000,2102
14.60833,1947
14.61667,1803
14.62500,1671
14.63333,1550
14.64167,1438
14.65000,1336
14.65833,1242
14.66667,1157
14.67500,1079
14.68333,1007
14.69167,942
14.70000,882
14.70833,828
14.71667,778
14.72500,733
14.73333,692
14.74167,655
14.75000,621
14.75833,590
14.76667,561
14.77500,535
14.78333,512
14.79167,490
14.80000,471
14.80833,453
14.81667,437
14.82500,422
14.83333,408
14.84167,394
14.85000,382
14.85833,371
14.86667,361
14.87500,352
14.88333,344
14.89167,336
14.90000,329
14.90833,323
14.91667,318
14.92500,313
14.93333,308
14.94167,304
14.95000,301
14.95833,297
14.96667,294
14.97500,292
14.98333,290
14.99167,289
15.00000,288
15.00833,287
15.01667,286
15.02500,286
15.03333,286
15.04167,287
15.05000,288
15.05833,289
15.06667,290
15.07500,292
15.08333,294
15.09167,296
15.10000,298
15.10833,301
15.11667,304
15.12500,308
15.13333,312
15.14167,317
15.15000,322
15.15833,329
15.16667,336
15.17500,346
15.18333,356
15.19167,370
15.20000,385
15.20833,403
15.21667,426
15.22500,452
15.23333,484
15.24167,521
15.25000,566
15.25833,619
15.26667,680
15.27500,753
15.28333,838
15.29167,936
15.30000,1050
15.30833,1180
15.31667,1330
15.32500,1500
15.33333,1693
15.34167,1911
15.35000,2155
15.35833,2428
15.36667,2730
15.37500,3065
15.38333,3432
15.39167,3834
15.40000,4272
15.40833,4746
15.41667,5256
15.42500,5803
15.43333,6386
15.44167,7004
15.45000,7656
15.45833,8340
15.46667,9054
15.47500,9795
15.48333,10559
15.49167,11343
15.50000,12144
15.50833,12956
15.51667,13774
15.52500,14595
15.53333,15412
15.54167,16219
15.55000,17012
15.55833,17785
15.56667,18531
15.57500,19246
15.58333,19925
15.59167,20562
15.60000,21152
15.60833,21693
15.61667,22179
15.62500,22608
15.63333,22976
15.64167,23282
15.65000,23523
15.65833,23700
15.66667,23810
15.67500,23855
15.68333,23834
15.69167,23749
15.70000,23602
15.70833,23395
15.71667,23130
15.72500,22810
15.73333,22439
15.74167,22021
15.75000,21559
15.75833,21056
15.76667,20518
15.77500,19948
15.78333,19350
15.79167,18730
15.80000,18091
15.80833,17436
15.81667,16771
15.82500,16099
15.83333,15423
15.84167,14747
15.85000,14075
15.85833,13409
15.86667,12752
15.87500,12105
15.88333,11472
15.89167,10855
15.90000,10254
15.90833,9672
15.91667,9110
15.92500,8568
15.93333,8048
15.94167,7549
15.95000,7071
15.95833,6617
15.96667,6184
15.97500,5774
15.98333,5386
15.99167,5019
16.00000,4673
16.00833,4347
16.01667,4042
16.02500,3756
16.03333,3488
16.04167,3238
16.05000,3006
16.05833,2789
16.06667,2587
16.07500,2400
16.08333,2226
16.09167,2066
16.10000,1917
16.10833,1780
16.11667,1653
16.12500,1536
16.13333,1428
16.14167,1329
16.15000,1238
16.15833,1155
16.16667,1078
16.17500,1008
16.18333,943
16.19167,884
16.20000,829
16.20833,779
16.21667,732
16.22500,690
16.23333,652
16.24167,616
16.25000,584
16.25833,554
16.26667,527
16.27500,502
16.28333,479
16.29167,458
16.30000,438
16.30833,421
16.31667,404
16.32500,389
16.33333,375
16.34167,362
16.35000,350
16.35833,339
16.36667,328
16.37500,319
16.38333,310
16.39167,302
16.40000,294
16.40833,287
16.41667,280
16.42500,273
16.43333,267
16.44167,262
16.45000,256
16.45833,252
16.46667,247
16.47500,243
16.48333,239
16.49167,235
16.50000,231
16.50833,228
16.51667,225
16.52500,221
16.53333,218
16.54167,215
16.55000,212
16.55833,209
16.56667,207
16.57500,204
16.58333,202
16.59167,199
16.60000,197
16.60833,195
16.61667,193
16.62500,192
16.63333,190
16.64167,188
16.65000,186
16.65833,184
16.66667,183
16.67500,181
16.68333,180
16.69167,179
16.70000,178
16.70833,177
16.71667,175
16.72500,174
16.73333,173
16.74167,172
16.75000,171
16.75833,170
16.76667,169
16.77500,168
16.78333,167
16.79167,167
16.80000,166
16.80833,165
16.81667,164
16.82500,163
16.83333,163
16.84167,162
16.85000,161
16.85833,160
16.86667,160
16.87500,159
16.88333,159
16.89167,159
16.90000,158
16.90833,158
16.91667,158
16.92500,157
16.93333,157
16.94167,156
16.95000,155
16.95833,154
16.96667,153
16.97500,153
16.98333,152
16.99167,152
17.00000,152
17.00833,152
17.01667,151
17.02500,151
17.03333,150
17.04167,150
17.05000,149
17.05833,149
17.06667,148
17.07500,148
17.08333,147
17.09167,147
17.10000,146
17.10833,146
17.11667,145
17.12500,144
17.13333,144
17.14167,143
17.15000,142
17.15833,141
17.16667,141
17.17500,140
17.18333,140
17.19167,140
17.20000,139
17.20833,139
17.21667,138
17.22500,138
17.23333,137
17.24167,136
17.25000,135
17.25833,134
17.26667,134
17.27500,133
17.28333,133
17.29167,132
17.30000,132
17.30833,131
17.31667,131
17.32500,130
17.33333,129
17.34167,128
17.35000,128
17.35833,127
17.36667,126
17.37500,125
17.38333,125
17.39167,124
17.40000,124
17.40833,123
17.41667,123
17.42500,123
17.43333,122
17.44167,122
17.45000,122
17.45833,121
17.46667,120
17.47500,120
17.48333,120
17.49167,119
17.50000,119
17.50833,119
17.51667,118
17.52500,118
17.53333,118
17.54167,118
17.55000,117
17.55833,117
17.56667,117
17.57500,117
17.58333,117
17.59167,117
17.60000,117
17.60833,117
17.61667,117
17.62500,117
17.63333,117
17.64167,117
17.65000,117
17.65833,117
17.66667,117
17.67500,117
17.68333,116
17.69167,116
17.70000,117
17.70833,116
17.71667,116
17.72500,116
17.73333,115
17.74167,115
17.75000,115
17.75833,115
17.76667,115
17.77500,114
17.78333,114
17.79167,114
17.80000,113
17.80833,112
17.81667,111
17.82500,111
17.83333,111
17.84167,110
17.85000,110
17.85833,109
17.86667,108
17.87500,107
17.88333,107
17.89167,106
17.90000,106
17.90833,105
17.91667,104
17.92500,103
17.93333,102
17.94167,101
17.95000,100
17.95833,99
17.96667,98
17.97500,97
17.98333,96
17.99167,95
18.00000,95
18.00833,94
18.01667,93
18.02500,92
18.03333,91
18.04167,91
18.05000,90
18.05833,89
18.06667,89
18.07500,88
18.08333,88
18.09167,87
18.10000,87
18.10833,87
18.11667,86
18.12500,86
18.13333,86
18.14167,86
18.15000,86
18.15833,85
18.16667,85
18.17500,85
18.18333,85
18.19167,85
18.20000,85
18.20833,85
18.21667,84
18.22500,84
18.23333,84
18.24167,85
18.25000,85
18.25833,85
18.26667,85
18.27500,86
18.28333,85
18.29167,85
18.30000,85
18.30833,85
18.31667,85
18.32500,85
18.33333,85
18.34167,85
18.35000,85
18.35833,85
18.36667,85
18.37500,85
18.38333,85
18.39167,85
18.40000,85
18.40833,85
18.41667,84
18.42500,84
18.43333,84
18.44167,83
18.45000,83
18.45833,83
18.46667,83
18.47500,83
18.48333,83
18.49167,83
18.50000,83
18.50833,83
18.51667,82
18.52500,82
18.53333,81
18.54167,81
18.55000,80
18.55833,80
18.56667,80
18.57500,80
18.58333,79
18.59167,79
18.60000,79
18.60833,79
18.61667,79
18.62500,79
18.63333,78
18.64167,78
18.65000,78
18.65833,78
18.66667,78
18.67500,78
18.68333,78
18.69167,78
18.70000,78
18.70833,78
18.71667,78
18.72500,78
18.73333,79
18.74167,79
18.75000,79
18.75833,80
18.76667,80
18.77500,81
18.78333,81
18.79167,82
18.80000,83
18.80833,84
18.81667,85
18.82500,86
18.83333,87
18.84167,88
18.85000,89
18.85833,90
18.86667,91
18.87500,92
18.88333,94
18.89167,95
18.90000,96
18.90833,98
18.91667,99
18.92500,101
18.93333,102
18.94167,104
18.95000,105
18.95833,107
18.96667,108
18.97500,109
18.98333,110
18.99167,111
19.00000,112
19.00833,113
19.01667,114
19.02500,114
19.03333,115
19.04167,115
19.05000,115
19.05833,115
19.06667,115
19.07500,114
19.08333,114
19.09167,113
19.10000,113
19.10833,112
19.11667,111
19.12500,110
19.13333,109
19.14167,108
19.15000,107
19.15833,105
19.16667,103
19.17500,101
19.18333,99
19.19167,97
19.20000,95
19.20833,93
19.21667,91
19.22500,89
19.23333,87
19.24167,85
19.25000,83
19.25833,81
19.26667,79
19.27500,77
19.28333,74
19.29167,73
19.30000,71
19.30833,69
19.31667,68
19.32500,66
19.33333,65
19.34167,63
19.35000,62
19.35833,61
19.36667,60
19.37500,58
19.38333,57
19.39167,56
19.40000,55
19.40833,54
19.41667,54
19.42500,53
19.43333,52
19.44167,52
19.45000,51
19.45833,50
19.46667,49
19.47500,48
19.48333,47
19.49167,47
19.50000,46
19.50833,46
19.51667,45
19.52500,45
19.53333,45
19.54167,44
19.55000,44
19.55833,44
19.56667,44
19.57500,44
19.58333,44
19.59167,43
19.60000,43
19.60833,43
19.61667,43
19.62500,43
19.63333,43
19.64167,43
19.65000,43
19.65833,43
19.66667,43
19.67500,43
19.68333,42
19.69167,43
19.70000,43
19.70833,43
19.71667,43
19.72500,43
19.73333,42
19.74167,43
19.75000,43
19.75833,43
19.76667,43
19.77500,44
19.78333,44
19.79167,45
19.80000,45
19.80833,45
19.81667,45
19.82500,45
19.83333,45
19.84167,45
19.85000,45
19.85833,45
19.86667,45
19.87500,45
19.88333,46
19.89167,46
19.90000,46
19.90833,47
19.91667,47
19.92500,47
19.93333,47
19.94167,48
19.95000,48
19.95833,49
19.96667,49
19.97500,49
19.98333,50
19.99167,50
20.00000,50
20.00833,51
20.01667,51
20.02500,51
20.03333,52
20.04167,52
20.05000,53
20.05833,54
20.06667,55
20.07500,55
20.08333,55
20.09167,56
20.10000,56
20.10833,56
20.11667,57
20.12500,57
20.13333,57
20.14167,57
20.15000,58
20.15833,58
20.16667,59
20.17500,60
20.18333,60
20.19167,60
20.20000,61
20.20833,62
20.21667,62
20.22500,63
20.23333,63
20.24167,63
20.25000,63
20.25833,63
20.26667,64
20.27500,64
20.28333,64
20.29167,65
20.30000,65
20.30833,65
20.31667,64
20.32500,64
20.33333,64
20.34167,65
20.35000,65
20.35833,65
20.36667,65
20.37500,65
20.38333,65
20.39167,65
20.40000,64
20.40833,64
20.41667,63
20.42500,63
20.43333,63
20.44167,63
20.45000,62
20.45833,61
20.46667,61
20.47500,60
20.48333,59
20.49167,59
20.50000,58
20.50833,58
20.51667,58
20.52500,57
20.53333,57
20.54167,56
20.55000,55
20.55833,55
20.56667,54
20.57500,53
20.58333,52
20.59167,51
20.60000,50
20.60833,50
20.61667,49
20.62500,48
20.63333,47
20.64167,47
20.65000,46
20.65833,46
20.66667,45
20.67500,45
20.68333,44
20.69167,44
20.70000,43
20.70833,43
20.71667,42
20.72500,41
20.73333,41
20.74167,40
20.75000,40
20.75833,39
20.76667,39
20.77500,39
20.78333,39
20.79167,38
20.80000,38
20.80833,38
20.81667,37
20.82500,37
20.83333,37
20.84167,37
20.85000,37
20.85833,36
20.86667,36
20.87500,37
20.88333,37
20.89167,37
20.90000,37
20.90833,37
20.91667,38
20.92500,38
20.93333,39
20.94167,39
20.95000,39
20.95833,40
20.96667,40
20.97500,40
20.98333,41
20.99167,42
21.00000,42
21.00833,43
21.01667,43
21.02500,44
21.03333,44
21.04167,45
21.05000,45
21.05833,46
21.06667,47
21.07500,47
21.08333,48
21.09167,48
21.10000,48
21.10833,48
21.11667,48
21.12500,49
21.13333,49
21.14167,49
21.15000,49
21.15833,50
21.16667,51
21.17500,51
21.18333,52
21.19167,52
21.20000,52
21.20833,52
21.21667,52
21.22500,52
21.23333,53
21.24167,53
21.25000,53
21.25833,54
21.26667,54
21.27500,54
21.28333,55
21.29167,55
21.30000,55
21.30833,56
21.31667,56
21.32500,57
21.33333,57
21.34167,58
21.35000,58
21.35833,59
21.36667,60
21.37500,61
21.38333,62
21.39167,63
21.40000,64
21.40833,64
21.41667,65
21.42500,67
21.43333,68
21.44167,70
21.45000,72
21.45833,74
21.46667,77
21.47500,80
21.48333,83
21.49167,87
21.50000,91
21.50833,96
21.51667,100
21.52500,106
21.53333,113
21.54167,121
21.55000,130
21.55833,139
21.56667,150
21.57500,163
21.58333,176
21.59167,192
21.60000,209
21.60833,229
21.61667,251
21.62500,276
21.63333,304
21.64167,334
21.65000,368
21.65833,405
21.66667,447
21.67500,492
21.68333,542
21.69167,596
21.70000,655
21.70833,719
21.71667,788
21.72500,864
21.73333,945
21.74167,1033
21.75000,1127
21.75833,1227
21.76667,1333
21.77500,1445
21.78333,1564
21.79167,1690
21.80000,1821
21.80833,1958
21.81667,2101
21.82500,2249
21.83333,2402
21.84167,2560
21.85000,2722
21.85833,2887
21.86667,3055
21.87500,3226
21.88333,3397
21.89167,3570
21.90000,3742
21.90833,3914
21.91667,4083
21.92500,4249
21.93333,4412
21.94167,4570
21.95000,4724
21.95833,4871
21.96667,5011
21.97500,5143
21.98333,5267
21.99167,5380
22.00000,5484
22.00833,5577
22.01667,5659
22.02500,5730
22.03333,5788
22.04167,5834
22.05000,5868
22.05833,5889
22.06667,5898
22.07500,5894
22.08333,5877
22.09167,5848
22.10000,5807
22.10833,5754
22.11667,5690
22.12500,5616
22.13333,5532
22.14167,5438
22.15000,5335
22.15833,5224
22.16667,5107
22.17500,4982
22.18333,4851
22.19167,4715
22.20000,4574
22.20833,4430
22.21667,4282
22.22500,4132
22.23333,3981
22.24167,3828
22.25000,3675
22.25833,3523
22.26667,3371
22.27500,3221
22.28333,3073
22.29167,2927
22.30000,2784
22.30833,2644
22.31667,2507
22.32500,2375
22.33333,2246
22.34167,2121
22.35000,2001
22.35833,1885
22.36667,1775
22.37500,1668
22.38333,1567
22.39167,1470
22.40000,1378
22.40833,1290
22.41667,1207
22.42500,1128
22.43333,1054
22.44167,984
22.45000,918
22.45833,856
22.46667,798
22.47500,744
22.48333,693
22.49167,646
22.50000,602
22.50833,561
22.51667,523
22.52500,488
22.53333,455
22.54167,425
22.55000,397
22.55833,371
22.56667,348
22.57500,326
22.58333,305
22.59167,287
22.60000,270
22.60833,254
22.61667,240
22.62500,227
22.63333,216
22.64167,205
22.65000,195
22.65833,186
22.66667,178
22.67500,171
22.68333,164
22.69167,159
22.70000,153
22.70833,148
22.71667,144
22.72500,139
22.73333,136
22.74167,132
22.75000,129
22.75833,127
22.76667,124
22.77500,122
22.78333,119
22.79167,117
22.80000,115
22.80833,114
22.81667,112
22.82500,110
22.83333,109
22.84167,108
22.85000,107
22.85833,106
22.86667,105
22.87500,104
22.88333,103
22.89167,102
22.90000,102
22.90833,101
22.91667,100
22.92500,99
22.93333,98
22.94167,98
22.95000,97
22.95833,96
22.96667,96
22.97500,95
22.98333,95
22.99167,94
23.00000,93
23.00833,92
23.01667,92
23.02500,91
23.03333,91
23.04167,90
23.05000,90
23.05833,90
23.06667,89
23.07500,88
23.08333,87
23.09167,87
23.10000,86
23.10833,86
23.11667,85
23.12500,85
23.13333,84
23.14167,84
23.15000,84
23.15833,83
23.16667,83
23.17500,82
23.18333,82
23.19167,81
23.20000,81
23.20833,80
23.21667,80
23.22500,79
23.23333,79
23.24167,78
23.25000,78
23.25833,77
23.26667,77
23.27500,77
23.28333,77
23.29167,76
23.30000,75
23.30833,75
23.31667,75
23.32500,74
23.33333,73
23.34167,73
23.35000,72
23.35833,71
23.36667,71
23.37500,70
23.38333,70
23.39167,69
23.40000,69
23.40833,68
23.41667,67
23.42500,67
23.43333,67
23.44167,67
23.45000,66
23.45833,66
23.46667,65
23.47500,65
23.48333,64
23.49167,64
23.50000,64
23.50833,64
23.51667,64
23.52500,64
23.53333,63
23.54167,63
23.55000,64
23.55833,63
23.56667,63
23.57500,63
23.58333,63
23.59167,63
23.60000,63
23.60833,63
23.61667,63
23.62500,63
23.63333,63
23.64167,63
23.65000,64
23.65833,64
23.66667,64
23.67500,64
23.68333,65
23.69167,65
23.70000,65
23.70833,65
23.71667,65
23.72500,66
23.73333,66
23.74167,66
23.75000,67
23.75833,67
23.76667,68
23.77500,68
23.78333,69
23.79167,69
23.80000,70
23.80833,70
23.81667,70
23.82500,70
23.83333,71
23.84167,71
23.85000,72
23.85833,72
23.86667,72
23.87500,72
23.88333,72
23.89167,72
23.90000,72
23.90833,72
23.91667,72
23.92500,72
23.93333,72
23.94167,72
23.95000,72
23.95833,72
23.96667,71
23.97500,71
23.98333,71
23.99167,70
24.00000,70
24.00833,70
24.01667,70
24.02500,70
24.03333,69
24.04167,69
24.05000,68
24.05833,68
24.06667,67
24.07500,67
24.08333,66
24.09167,66
24.10000,66
24.10833,65
24.11667,65
24.12500,64
24.13333,64
24.14167,63
24.15000,63
24.15833,62
24.16667,61
24.17500,61
24.18333,60
24.19167,60
24.20000,59
24.20833,58
24.21667,58
24.22500,58
24.23333,58
24.24167,58
24.25000,58
24.25833,58
24.26667,59
24.27500,59
24.28333,59
24.29167,59
24.30000,59
24.30833,59
24.31667,59
24.32500,59
24.33333,60
24.34167,60
24.35000,61
24.35833,62
24.36667,62
24.37500,63
24.38333,64
24.39167,65
24.40000,66
24.40833,67
24.41667,68
24.42500,69
24.43333,71
24.44167,73
24.45000,75
24.45833,78
24.46667,81
24.47500,84
24.48333,88
24.49167,92
24.50000,97
24.50833,102
24.51667,108
24.52500,114
24.53333,120
24.54167,128
24.55000,136
24.55833,144
24.56667,154
24.57500,164
24.58333,176
24.59167,188
24.60000,202
24.60833,217
24.61667,233
24.62500,251
24.63333,270
24.64167,291
24.65000,313
24.65833,337
24.66667,362
24.67500,390
24.68333,419
24.69167,450
24.70000,483
24.70833,518
24.71667,555
24.72500,594
24.73333,635
24.74167,677
24.75000,722
24.75833,768
24.76667,815
24.77500,864
24.78333,915
24.79167,967
24.80000,1021
24.80833,1076
24.81667,1131
24.82500,1187
24.83333,1244
24.84167,1301
24.85000,1358
24.85833,1415
24.86667,1473
24.87500,1529
24.88333,1585
24.89167,1639
24.90000,1693
24.90833,1745
24.91667,1795
24.92500,1843
24.93333,1889
24.94167,1933
24.95000,1974
24.95833,2011
24.96667,2046
24.97500,2078
24.98333,2106
24.99167,2130
25.00000,2151
25.00833,2167
25.01667,2180
25.02500,2189
25.03333,2195
25.04167,2197
25.05000,2194
25.05833,2188
25.06667,2178
25.07500,2164
25.08333,2146
25.09167,2125
25.10000,2100
25.10833,2072
25.11667,2041
25.12500,2007
25.13333,1971
25.14167,1932
25.15000,1891
25.15833,1848
25.16667,1803
25.17500,1756
25.18333,1707
25.19167,1657
25.20000,1607
25.20833,1555
25.21667,1503
25.22500,1451
25.23333,1398
25.24167,1345
25.25000,1293
25.25833,1241
25.26667,1190
25.27500,1139
25.28333,1088
25.29167,1039
25.30000,991
25.30833,944
25.31667,898
25.32500,854
25.33333,810
25.34167,768
25.35000,728
25.35833,689
25.36667,652
25.37500,616
25.38333,582
25.39167,550
25.40000,519
25.40833,489
25.41667,461
25.42500,434
25.43333,409
25.44167,386
25.45000,363
25.45833,342
25.46667,323
25.47500,304
25.48333,287
25.49167,271
25.50000,256
25.50833,242
25.51667,229
25.52500,218
25.53333,207
25.54167,197
25.55000,187
25.55833,178
25.56667,170
25.57500,162
25.58333,156
25.59167,149
25.60000,144
25.60833,139
25.61667,134
25.62500,130
25.63333,126
25.64167,123
25.65000,120
25.65833,117
25.66667,115
25.67500,113
25.68333,111
25.69167,109
25.70000,107
25.70833,106
25.71667,104
25.72500,103
25.73333,101
25.74167,100
25.75000,99
25.75833,98
25.76667,97
25.77500,96
25.78333,95
25.79167,94
25.80000,93
25.80833,93
25.81667,92
25.82500,91
25.83333,90
25.84167,90
25.85000,90
25.85833,89
25.86667,89
25.87500,88
25.88333,88
25.89167,87
25.90000,87
25.90833,86
25.91667,86
25.92500,85
25.93333,85
25.94167,84
25.95000,84
25.95833,83
25.96667,82
25.97500,82
25.98333,81
25.99167,81
26.00000,80
26.00833,80
26.01667,79
26.02500,78
26.03333,78
26.04167,77
26.05000,77
26.05833,77
26.06667,76
26.07500,77
26.08333,77
26.09167,77
26.10000,76
26.10833,76
26.11667,76
26.12500,76
26.13333,75
26.14167,75
26.15000,74
26.15833,74
26.16667,73
26.17500,73
26.18333,73
26.19167,73
26.20000,73
26.20833,73
26.21667,73
26.22500,73
26.23333,73
26.24167,73
26.25000,73
26.25833,72
26.26667,72
26.27500,71
26.28333,71
26.29167,71
26.30000,70
26.30833,70
26.31667,70
26.32500,70
26.33333,69
26.34167,69
26.35000,69
26.35833,68
26.36667,68
26.37500,67
26.38333,67
26.39167,67
26.40000,67
26.40833,66
26.41667,65
26.42500,65
26.43333,64
26.44167,64
26.45000,64
26.45833,63
26.46667,63
26.47500,62
26.48333,62
26.49167,62
26.50000,61
26.50833,61
26.51667,61
26.52500,60
26.53333,59
26.54167,59
26.55000,58
26.55833,58
26.56667,57
26.57500,57
26.58333,57
26.59167,56
26.60000,56
26.60833,55
26.61667,55
26.62500,54
26.63333,54
26.64167,54
26.65000,53
26.65833,52
26.66667,52
26.67500,51
26.68333,51
26.69167,51
26.70000,51
26.70833,50
26.71667,50
26.72500,50
26.73333,49
26.74167,49
26.75000,48
26.75833,48
26.76667,48
26.77500,47
26.78333,47
26.79167,47
26.80000,46
26.80833,46
26.81667,47
26.82500,47
26.83333,47
26.84167,47
26.85000,47
26.85833,47
26.86667,47
26.87500,47
26.88333,47
26.89167,47
26.90000,47
26.90833,48
26.91667,48
26.92500,48
26.93333,48
26.94167,49
26.95000,49
26.95833,49
26.96667,50
26.97500,50
26.98333,51
26.99167,51
27.00000,52
27.00833,52
27.01667,52
27.02500,53
27.03333,54
27.04167,54
27.05000,55
27.05833,55
27.06667,56
27.07500,56
27.08333,57
27.09167,57
27.10000,58
27.10833,58
27.11667,58
27.12500,59
27.13333,59
27.14167,60
27.15000,60
27.15833,60
27.16667,60
27.17500,61
27.18333,61
27.19167,62
27.20000,62
27.20833,62
27.21667,63
27.22500,63
27.23333,63
27.24167,63
27.25000,64
27.25833,64
27.26667,64
27.27500,65
27.28333,65
27.29167,65
27.30000,65
27.30833,65
27.31667,65
27.32500,66
27.33333,66
27.34167,66
27.35000,66
27.35833,65
27.36667,65
27.37500,65
27.38333,65
27.39167,65
27.40000,65
27.40833,65
27.41667,64
27.42500,64
27.43333,64
27.44167,64
27.45000,64
27.45833,64
27.46667,64
27.47500,64
27.48333,64
27.49167,64
27.50000,65
27.50833,64
27.51667,64
27.52500,64
27.53333,64
27.54167,64
27.55000,64
27.55833,64
27.56667,64
27.57500,64
27.58333,64
27.59167,64
27.60000,63
27.60833,63
27.61667,63
27.62500,64
27.63333,64
27.64167,64
27.65000,64
27.65833,64
27.66667,64
27.67500,65
27.68333,65
27.69167,65
27.70000,65
27.70833,65
27.71667,65
27.72500,65
27.73333,65
27.74167,65
27.75000,65
27.75833,65
27.76667,65
27.77500,65
27.78333,65
27.79167,64
27.80000,64
27.80833,63
27.81667,63
27.82500,62
27.83333,61
27.84167,60
27.85000,59
27.85833,58
27.86667,57
27.87500,56
27.88333,55
27.89167,54
27.90000,53
27.90833,52
27.91667,50
27.92500,48
27.93333,46
27.94167,44
27.95000,43
27.95833,41
27.96667,38
27.97500,36
27.98333,34
27.99167,31
28.00000,28
28.00833,26
28.01667,23
28.02500,20
28.03333,17
28.04167,14
28.05000,11
28.05833,7
28.06667,4
28.07500,0
28.08333,-3
28.09167,-7
28.10000,-10
28.10833,-14
28.11667,-18
28.12500,-22
28.13333,-25
28.14167,-29
28.15000,-33
28.15833,-37
28.16667,-40
28.17500,-44
28.18333,-47
28.19167,-50
28.20000,-54
28.20833,-57
28.21667,-60
28.22500,-63
28.23333,-66
28.24167,-68
28.25000,-71
28.25833,-74
28.26667,-77
28.27500,-79
28.28333,-81
28.29167,-83
28.30000,-85
28.30833,-87
28.31667,-89
28.32500,-90
28.33333,-91
28.34167,-92
28.35000,-92
28.35833,-93
28.36667,-93
28.37500,-94
28.38333,-94
28.39167,-94
28.40000,-93
28.40833,-92
28.41667,-91
28.42500,-90
28.43333,-89
28.44167,-87
28.45000,-86
28.45833,-84
28.46667,-82
28.47500,-81
28.48333,-79
28.49167,-76
28.50000,-74
28.50833,-72
28.51667,-69
28.52500,-66
28.53333,-63
28.54167,-60
28.55000,-57
28.55833,-54
28.56667,-51
28.57500,-48
28.58333,-45
28.59167,-42
28.60000,-39
28.60833,-36
28.61667,-34
28.62500,-31
28.63333,-28
28.64167,-25
28.65000,-22
28.65833,-19
28.66667,-16
28.67500,-14
28.68333,-11
28.69167,-8
28.70000,-6
28.70833,-3
28.71667,-0
28.72500,2
28.73333,5
28.74167,7
28.75000,10
28.75833,12
28.76667,14
28.77500,16
28.78333,18
28.79167,19
28.80000,21
28.80833,23
28.81667,25
28.82500,27
28.83333,28
28.84167,30
28.85000,31
28.85833,33
28.86667,34
28.87500,35
28.88333,36
28.89167,37
28.90000,38
28.90833,40
28.91667,41
28.92500,42
28.93333,43
28.94167,44
28.95000,45
28.95833,47
28.96667,47
28.97500,48
28.98333,49
28.99167,50
29.00000,51
29.00833,52
29.01667,53
29.02500,53
29.03333,55
29.04167,56
29.05000,57
29.05833,57
29.06667,58
29.07500,58
29.08333,59
29.09167,60
29.10000,60
29.10833,61
29.11667,62
29.12500,63
29.13333,64
29.14167,64
29.15000,65
29.15833,66
29.16667,66
29.17500,67
29.18333,68
29.19167,69
29.20000,69
29.20833,70
29.21667,70
29.22500,70
29.23333,70
29.24167,71
29.25000,71
29.25833,72
29.26667,72
29.27500,72
29.28333,72
29.29167,72
29.30000,72
29.30833,72
29.31667,72
29.32500,72
29.33333,72
29.34167,72
29.35000,71
29.35833,71
29.36667,70
29.37500,70
29.38333,69
29.39167,68
29.40000,68
29.40833,67
29.41667,67
29.42500,67
29.43333,66
29.44167,65
29.45000,64
29.45833,63
29.46667,62
29.47500,61
29.48333,60
29.49167,59
29.50000,58
29.50833,56
29.51667,55
29.52500,54
29.53333,53
29.54167,52
29.55000,51
29.55833,50
29.56667,49
29.57500,47
29.58333,46
29.59167,45
29.60000,44
29.60833,42
29.61667,42
29.62500,41
29.63333,40
29.64167,39
29.65000,38
29.65833,37
29.66667,36
29.67500,35
29.68333,34
29.69167,33
29.70000,32
29.70833,31
29.71667,30
29.72500,30
29.73333,29
29.74167,28
29.75000,27
29.75833,26
29.76667,25
29.77500,25
29.78333,24
29.79167,23
29.80000,23
29.80833,22
29.81667,22
29.82500,21
29.83333,20
29.84167,20
29.85000,19
29.85833,18
29.86667,17
29.87500,17
29.88333,16
29.89167,16
29.90000,15
29.90833,14
29.91667,14
29.92500,13
29.93333,13
29.94167,13
29.95000,12
29.95833,11
29.96667,11
29.97500,10
29.98333,10
29.99167,10
30.00000,9
30.00833,9
30.01667,8
30.02500,7
30.03333,7
30.04167,7
30.05000,7
30.05833,6
30.06667,6
30.07500,6
30.08333,6
30.09167,6
30.10000,6
30.10833,5
30.11667,5
30.12500,4
30.13333,4
30.14167,4
30.15000,3
30.15833,4
30.16667,4
30.17500,5
30.18333,5
30.19167,6
30.20000,6
30.20833,6
30.21667,6
30.22500,6
30.23333,7
30.24167,7
30.25000,8
30.25833,8
30.26667,8
30.27500,9
30.28333,9
30.29167,9
30.30000,9
30.30833,9
30.31667,9
30.32500,9
30.33333,10
30.34167,10
30.35000,11
30.35833,12
30.36667,12
30.37500,13
30.38333,13
30.39167,13
30.40000,14
30.40833,15
30.41667,16
30.42500,17
30.43333,17
30.44167,18
30.45000,18
30.45833,18
30.46667,19
30.47500,20
30.48333,20
30.49167,21
30.50000,21
30.50833,22
30.51667,23
30.52500,23
30.53333,24
30.54167,24
30.55000,25
30.55833,25
30.56667,26
30.57500,26
30.58333,27
30.59167,27
30.60000,28
30.60833,29
30.61667,29
30.62500,30
30.63333,31
30.64167,31
30.65000,31
30.65833,32
30.66667,32
30.67500,33
30.68333,33
30.69167,34
30.70000,34
30.70833,35
30.71667,35
30.72500,35
30.73333,36
30.74167,36
30.75000,36
30.75833,37
30.76667,37
30.77500,38
30.78333,38
30.79167,38
30.80000,38
30.80833,38
30.81667,39
30.82500,39
30.83333,39
30.84167,40
30.85000,40
30.85833,41
30.86667,41
30.87500,41
30.88333,42
30.89167,42
30.90000,42
30.90833,42
30.91667,42
30.92500,42
30.93333,42
30.94167,42
30.95000,42
30.95833,43
30.96667,43
30.97500,44
30.98333,45
30.99167,45
31.00000,45
31.00833,45
31.01667,45
31.02500,45
31.03333,45
31.04167,45
31.05000,46
31.05833,46
31.06667,46
31.07500,46
31.08333,47
31.09167,47
31.10000,47
31.10833,47
31.11667,48
31.12500,48
31.13333,48
31.14167,48
31.15000,49
31.15833,49
31.16667,50
31.17500,50
31.18333,50
31.19167,50
31.20000,51
31.20833,51
31.21667,52
31.22500,52
31.23333,53
31.24167,53
31.25000,54
31.25833,54
31.26667,54
31.27500,55
31.28333,55
31.29167,56
31.30000,57
31.30833,57
31.31667,57
31.32500,58
31.33333,58
31.34167,58
31.35000,59
31.35833,59
31.36667,59
31.37500,59
31.38333,59
31.39167,60
31.40000,60
31.40833,60
31.41667,60
31.42500,60
31.43333,61
31.44167,61
31.45000,61
31.45833,61
31.46667,61
31.47500,61
31.48333,62
31.49167,62
31.50000,63
31.50833,63
31.51667,63
31.52500,63
31.53333,63
31.54167,63
31.55000,63
31.55833,63
31.56667,63
31.57500,63
31.58333,63
31.59167,63
31.60000,63
31.60833,63
31.61667,63
31.62500,63
31.63333,63
31.64167,63
31.65000,63
31.65833,63
31.66667,63
31.67500,63
31.68333,63
31.69167,63
31.70000,63
31.70833,64
31.71667,64
31.72500,64
31.73333,64
31.74167,64
31.75000,64
31.75833,64
31.76667,64
31.77500,64
31.78333,64
31.79167,65
31.80000,65
31.80833,65
31.81667,66
31.82500,66
31.83333,66
31.84167,66
31.85000,66
31.85833,66
31.86667,66
31.87500,66
31.88333,66
31.89167,66
31.90000,67
31.90833,67
31.91667,67
31.92500,68
31.93333,68
31.94167,69
31.95000,70
31.95833,70
31.96667,71
31.97500,71
31.98333,71
31.99167,71
32.00000,72
32.00833,72
32.01667,73
32.02500,73
32.03333,73
32.04167,73
32.05000,74
32.05833,74
32.06667,74
32.07500,75
32.08333,75
32.09167,76
32.10000,77
32.10833,77
32.11667,77
32.12500,77
32.13333,77
32.14167,78
32.15000,78
32.15833,79
32.16667,79
32.17500,80
32.18333,80
32.19167,80
32.20000,81
32.20833,81
32.21667,81
32.22500,81
32.23333,81
32.24167,81
32.25000,81
32.25833,81
32.26667,81
32.27500,80
32.28333,80
32.29167,80
32.30000,80
32.30833,80
32.31667,80
32.32500,80
32.33333,80
32.34167,80
32.35000,79
32.35833,79
32.36667,79
32.37500,79
32.38333,79
32.39167,79
32.40000,79
32.40833,79
32.41667,79
32.42500,78
32.43333,78
32.44167,78
32.45000,78
32.45833,77
32.46667,77
32.47500,77
32.48333,77
32.49167,77
32.50000,78
32.50833,78
32.51667,77
32.52500,77
32.53333,77
32.54167,76
32.55000,76
32.55833,76
32.56667,75
32.57500,75
32.58333,75
32.59167,75
32.60000,75
32.60833,74
32.61667,74
32.62500,73
32.63333,73
32.64167,73
32.65000,72
32.65833,72
32.66667,72
32.67500,71
32.68333,71
32.69167,71
32.70000,70
32.70833,70
32.71667,69
32.72500,68
32.73333,67
32.74167,66
32.75000,66
32.75833,66
32.76667,65
32.77500,65
32.78333,65
32.79167,65
32.80000,65
32.80833,64
32.81667,64
32.82500,64
32.83333,64
32.84167,63
32.85000,63
32.85833,63
32.86667,62
32.87500,62
32.88333,61
32.89167,61
32.90000,61
32.90833,60
32.91667,60
32.92500,60
32.93333,60
32.94167,60
32.95000,60
32.95833,60
32.96667,60
32.97500,60
32.98333,60
32.99167,60
33.00000,60
33.00833,60
33.01667,60
33.02500,60
33.03333,60
33.04167,60
33.05000,60
33.05833,60
33.06667,60
33.07500,60
33.08333,60
33.09167,60
33.10000,60
33.10833,60
33.11667,60
33.12500,61
33.13333,61
33.14167,62
33.15000,62
33.15833,62
33.16667,62
33.17500,63
33.18333,63
33.19167,63
33.20000,63
33.20833,64
33.21667,64
33.22500,64
33.23333,63
33.24167,63
33.25000,64
33.25833,64
33.26667,64
33.27500,65
33.28333,65
33.29167,65
33.30000,66
33.30833,66
33.31667,66
33.32500,67
33.33333,67
33.34167,67
33.35000,67
33.35833,67
33.36667,68
33.37500,68
33.38333,68
33.39167,68
33.40000,68
33.40833,68
33.41667,69
33.42500,69
33.43333,69
33.44167,69
33.45000,69
33.45833,68
33.46667,68
33.47500,68
33.48333,68
33.49167,68
33.50000,68
33.50833,67
33.51667,67
33.52500,67
33.53333,67
33.54167,66
33.55000,66
33.55833,65
33.56667,65
33.57500,64
33.58333,64
33.59167,63
33.60000,63
33.60833,62
33.61667,61
33.62500,61
33.63333,60
33.64167,60
33.65000,60
33.65833,60
33.66667,59
33.67500,59
33.68333,59
33.69167,59
33.70000,58
33.70833,58
33.71667,58
33.72500,58
33.73333,57
33.74167,57
33.75000,56
33.75833,56
33.76667,56
33.77500,55
33.78333,55
33.79167,56
33.80000,56
33.80833,56
33.81667,56
33.82500,56
33.83333,56
33.84167,56
33.85000,56
33.85833,57
33.86667,57
33.87500,57
33.88333,57
33.89167,58
33.90000,58
33.90833,59
33.91667,60
33.92500,60
33.93333,60
33.94167,60
33.95000,61
33.95833,61
33.96667,62
33.97500,62
33.98333,63
33.99167,63
34.00000,64
34.00833,64
34.01667,65
34.02500,65
34.03333,65
34.04167,66
34.05000,66
34.05833,67
34.06667,68
34.07500,68
34.08333,68
34.09167,68
34.10000,68
34.10833,68
34.11667,68
34.12500,68
34.13333,68
34.14167,68
34.15000,68
34.15833,68
34.16667,68
34.17500,68
34.18333,68
34.19167,67
34.20000,67
34.20833,68
34.21667,68
34.22500,68
34.23333,68
34.24167,67
34.25000,67
34.25833,67
34.26667,67
34.27500,67
34.28333,67
34.29167,67
34.30000,67
34.30833,67
34.31667,67
34.32500,66
34.33333,66
34.34167,66
34.35000,66
34.35833,65
34.36667,65
34.37500,65
34.38333,65
34.39167,65
34.40000,65
34.40833,65
34.41667,65
34.42500,65
34.43333,65
34.44167,65
34.45000,66
34.45833,66
34.46667,66
34.47500,66
34.48333,66
34.49167,67
34.50000,67
34.50833,67
34.51667,68
34.52500,68
34.53333,68
34.54167,69
34.55000,69
34.55833,70
34.56667,70
34.57500,70
34.58333,71
34.59167,71
34.60000,72
34.60833,72
34.61667,73
34.62500,73
34.63333,74
34.64167,74
34.65000,75
34.65833,75
34.66667,76
34.67500,76
34.68333,76
34.69167,76
34.70000,76
34.70833,76
34.71667,76
34.72500,76
34.73333,76
34.74167,76
34.75000,75
34.75833,75
34.76667,75
34.77500,75
34.78333,74
34.79167,74
34.80000,74
34.80833,73
34.81667,73
34.82500,73
34.83333,73
34.84167,72
34.85000,72
34.85833,71
34.86667,71
34.87500,71
34.88333,70
34.89167,70
34.90000,69
34.90833,69
34.91667,68
34.92500,68
34.93333,68
34.94167,67
34.95000,67
34.95833,66
34.96667,66
34.97500,65
34.98333,65
34.99167,65
35.00000,64
35.00833,64
35.01667,63
35.02500,63
35.03333,63
35.04167,63
35.05000,63
35.05833,63
35.06667,63
35.07500,64
35.08333,64
35.09167,64
35.10000,65
35.10833,65
35.11667,65
35.12500,65
35.13333,65
35.14167,65
35.15000,66
35.15833,67
35.16667,67
35.17500,68
35.18333,68
35.19167,68
35.20000,68
35.20833,69
35.21667,69
35.22500,70
35.23333,70
35.24167,71
35.25000,71
35.25833,71
35.26667,72
35.27500,73
35.28333,74
35.29167,75
35.30000,75
35.30833,75
35.31667,76
35.32500,76
35.33333,77
35.34167,77
35.35000,77
35.35833,77
35.36667,78
35.37500,78
35.38333,78
35.39167,79
35.40000,79
35.40833,78
35.41667,78
35.42500,78
35.43333,78
35.44167,78
35.45000,77
35.45833,77
35.46667,77
35.47500,77
35.48333,76
35.49167,76
35.50000,76
35.50833,76
35.51667,75
35.52500,75
35.53333,74
35.54167,74
35.55000,73
35.55833,73
35.56667,72
35.57500,72
35.58333,71
35.59167,71
35.60000,71
35.60833,71
35.61667,70
35.62500,69
35.63333,69
35.64167,68
35.65000,67
35.65833,67
35.66667,66
35.67500,66
35.68333,65
35.69167,65
35.70000,65
35.70833,64
35.71667,63
35.72500,63
35.73333,62
35.74167,61
35.75000,61
35.75833,60
35.76667,60
35.77500,59
35.78333,59
35.79167,58
35.80000,58
35.80833,57
35.81667,57
35.82500,56
35.83333,55
35.84167,55
35.85000,54
35.85833,54
35.86667,53
35.87500,53
35.88333,53
35.89167,53
35.90000,53
35.90833,53
35.91667,52
35.92500,52
35.93333,52
35.94167,52
35.95000,51
35.95833,51
35.96667,51
35.97500,51
35.98333,51
35.99167,51
36.00000,51
36.00833,51
36.01667,51
36.02500,51
36.03333,51
36.04167,51
36.05000,52
36.05833,52
36.06667,53
36.07500,54
36.08333,54
36.09167,55
36.10000,55
36.10833,56
36.11667,57
36.12500,57
36.13333,58
36.14167,58
36.15000,59
36.15833,60
36.16667,61
36.17500,61
36.18333,62
36.19167,63
36.20000,64
36.20833,65
36.21667,66
36.22500,67
36.23333,68
36.24167,69
36.25000,70
36.25833,72
36.26667,73
36.27500,73
36.28333,74
36.29167,75
36.30000,75
36.30833,76
36.31667,77
36.32500,77
36.33333,78
36.34167,79
36.35000,80
36.35833,82
36.36667,83
36.37500,84
36.38333,85
36.39167,86
36.40000,87
36.40833,87
36.41667,88
36.42500,88
36.43333,89
36.44167,89
36.45000,90
36.45833,91
36.46667,91
36.47500,92
36.48333,92
36.49167,92
36.50000,93
36.50833,93
36.51667,93
36.52500,94
36.53333,94
36.54167,94
36.55000,94
36.55833,93
36.56667,93
36.57500,93
36.58333,93
36.59167,93
36.60000,93
36.60833,93
36.61667,93
36.62500,92
36.63333,92
36.64167,92
36.65000,91
36.65833,90
36.66667,90
36.67500,90
36.68333,89
36.69167,89
36.70000,89
36.70833,88
36.71667,87
36.72500,86
36.73333,85
36.74167,85
36.75000,84
36.75833,84
36.76667,83
36.77500,83
36.78333,82
36.79167,82
36.80000,81
36.80833,80
36.81667,80
36.82500,79
36.83333,78
36.84167,78
36.85000,77
36.85833,76
36.86667,75
36.87500,75
36.88333,74
36.89167,74
36.90000,73
36.90833,72
36.91667,72
36.92500,71
36.93333,71
36.94167,71
36.95000,70
36.95833,69
36.96667,69
36.97500,68
36.98333,68
36.99167,68
37.00000,67
37.00833,67
37.01667,67
37.02500,66
37.03333,66
37.04167,66
37.05000,66
37.05833,66
37.06667,66
37.07500,66
37.08333,66
37.09167,66
37.10000,66
37.10833,66
37.11667,65
37.12500,65
37.13333,65
37.14167,65
37.15000,65
37.15833,65
37.16667,65
37.17500,65
37.18333,65
37.19167,65
37.20000,65
37.20833,66
37.21667,66
37.22500,66
37.23333,66
37.24167,66
37.25000,66
37.25833,67
37.26667,67
37.27500,67
37.28333,67
37.29167,67
37.30000,67
37.30833,67
37.31667,68
37.32500,68
37.33333,69
37.34167,69
37.35000,70
37.35833,70
37.36667,70
37.37500,71
37.38333,71
37.39167,71
37.40000,71
37.40833,72
37.41667,72
37.42500,72
37.43333,72
37.44167,73
37.45000,73
37.45833,73
37.46667,74
37.47500,74
37.48333,74
37.49167,75
37.50000,75
37.50833,76
37.51667,76
37.52500,76
37.53333,77
37.54167,77
37.55000,77
37.55833,77
37.56667,78
37.57500,78
37.58333,79
37.59167,79
37.60000,79
37.60833,79
37.61667,80
37.62500,80
37.63333,80
37.64167,80
37.65000,80
37.65833,80
37.66667,81
37.67500,81
37.68333,81
37.69167,81
37.70000,81
37.70833,81
37.71667,81
37.72500,82
37.73333,82
37.74167,81
37.75000,82
37.75833,82
37.76667,82
37.77500,82
37.78333,82
37.79167,83
37.80000,82
37.80833,82
37.81667,83
37.82500,82
37.83333,82
37.84167,82
37.85000,82
37.85833,82
37.86667,82
37.87500,82
37.88333,81
37.89167,81
37.90000,81
37.90833,82
37.91667,82
37.92500,82
37.93333,82
37.94167,82
37.95000,82
37.95833,82
37.96667,82
37.97500,82
37.98333,82
37.99167,82
38.00000,82
38.00833,82
38.01667,82
38.02500,82
38.03333,82
38.04167,82
38.05000,82
38.05833,81
38.06667,81
38.07500,81
38.08333,81
38.09167,81
38.10000,81
38.10833,81
38.11667,81
38.12500,81
38.13333,81
38.14167,81
38.15000,81
38.15833,81
38.16667,80
38.17500,79
38.18333,79
38.19167,78
38.20000,78
38.20833,78
38.21667,77
38.22500,77
38.23333,77
38.24167,76
38.25000,76
38.25833,75
38.26667,74
38.27500,73
38.28333,72
38.29167,72
38.30000,71
38.30833,71
38.31667,71
38.32500,70
38.33333,69
38.34167,69
38.35000,68
38.35833,67
38.36667,67
38.37500,66
38.38333,65
38.39167,65
38.40000,64
38.40833,63
38.41667,63
38.42500,63
38.43333,63
38.44167,62
38.45000,62
38.45833,61
38.46667,61
38.47500,61
38.48333,60
38.49167,60
38.50000,60
38.50833,60
38.51667,60
38.52500,60
38.53333,60
38.54167,60
38.55000,60
38.55833,60
38.56667,60
38.57500,60
38.58333,60
38.59167,60
38.60000,61
38.60833,61
38.61667,61
38.62500,61
38.63333,61
38.64167,61
38.65000,61
38.65833,62
38.66667,63
38.67500,63
38.68333,63
38.69167,64
38.70000,64
38.70833,65
38.71667,65
38.72500,66
38.73333,66
38.74167,67
38.75000,67
38.75833,68
38.76667,68
38.77500,69
38.78333,69
38.79167,70
38.80000,71
38.80833,71
38.81667,72
38.82500,72
38.83333,73
38.84167,73
38.85000,74
38.85833,75
38.86667,75
38.87500,76
38.88333,77
38.89167,77
38.90000,77
38.90833,77
38.91667,78
38.92500,78
38.93333,79
38.94167,79
38.95000,80
38.95833,80
38.96667,80
38.97500,80
38.98333,80
38.99167,80
39.00000,80
39.00833,80
39.01667,80
39.02500,80
39.03333,80
39.04167,80
39.05000,80
39.05833,79
39.06667,79
39.07500,79
39.08333,78
39.09167,78
39.10000,77
39.10833,77
39.11667,77
39.12500,77
39.13333,76
39.14167,76
39.15000,75
39.15833,75
39.16667,74
39.17500,74
39.18333,73
39.19167,73
39.20000,73
39.20833,72
39.21667,72
39.22500,72
39.23333,71
39.24167,71
39.25000,70
39.25833,70
39.26667,70
39.27500,70
39.28333,69
39.29167,69
39.30000,68
39.30833,68
39.31667,67
39.32500,67
39.33333,67
39.34167,67
39.35000,67
39.35833,67
39.36667,66
39.37500,66
39.38333,66
39.39167,65
39.40000,66
39.40833,66
39.41667,65
39.42500,65
39.43333,65
39.44167,65
39.45000,65
39.45833,65
39.46667,65
39.47500,65
39.48333,66
39.49167,66
39.50000,66
39.50833,66
39.51667,66
39.52500,66
39.53333,67
39.54167,67
39.55000,67
39.55833,68
39.56667,68
39.57500,69
39.58333,69
39.59167,69
39.60000,70
39.60833,70
39.61667,70
39.62500,71
39.63333,71
39.64167,72
39.65000,72
39.65833,73
39.66667,74
39.67500,74
39.68333,74
39.69167,75
39.70000,75
39.70833,76
39.71667,77
39.72500,77
39.73333,78
39.74167,79
39.75000,79
39.75833,79
39.76667,79
39.77500,80
39.78333,81
39.79167,81
39.80000,81
39.80833,81
39.81667,82
39.82500,82
39.83333,82
39.84167,82
39.85000,83
39.85833,83
39.86667,84
39.87500,85
39.88333,85
39.89167,85
39.90000,85
39.90833,86
39.91667,86
39.92500,86
39.93333,87
39.94167,87
39.95000,88
39.95833,89
39.96667,89
39.97500,89
39.98333,89
39.99167,90
40.00000,90

