[Header]
Application Name,LabSolutions
Version,5.97 SP1
Data File Name,C:\Users\cremerlab\Desktop\griffin\2021-04-05_NC_DM_calibration\2021-04-05_NC_DM_2.5mM_calibration_452021_012_012.lcd
Output Date,4/6/2021
Output Time,1:09:03 AM

[File Information]
Type,Data File
Generated,4/6/2021 12:28:42 AM
Generated by,System Administrator
Modified,4/6/2021 1:09:03 AM
Modified by,System Administrator

[Sample Information]
Operator Name,System Administrator
Acquired,4/6/2021 12:29:01 AM
Sample Type,1:Standard
Level,3
Sample Name,2021-04-05_NC_glucose_glycerol_acetate_0.1mM
Sample ID,012
ISTD Amount1,1
ISTD Amount2,1
ISTD Amount3,1
ISTD Amount4,1
ISTD Amount5,1
ISTD Amount6,1
ISTD Amount7,1
ISTD Amount8,1
ISTD Amount9,1
ISTD Amount10,1
ISTD Amount11,1
ISTD Amount12,1
ISTD Amount13,1
ISTD Amount14,1
ISTD Amount15,1
ISTD Amount16,1
ISTD Amount17,1
ISTD Amount18,1
ISTD Amount19,1
ISTD Amount20,1
ISTD Amount21,1
ISTD Amount22,1
ISTD Amount23,1
ISTD Amount24,1
ISTD Amount25,1
ISTD Amount26,1
ISTD Amount27,1
ISTD Amount28,1
ISTD Amount29,1
ISTD Amount30,1
ISTD Amount31,1
ISTD Amount32,1
Sample Amount,1
Dilution Factor,1
Vial#,12
Injection Volume,20

[Original Files]
Data File,C:\Users\cremerlab\Desktop\griffin\2021-04-05_NC_DM_calibration\2021-04-05_NC_DM_2.5mM_calibration_452021_012_012.lcd
Method File,C:\Users\cremerlab\Desktop\griffin\2021-04-05_NC_DM_calibration\2021-04-05_2.5mM_mobile.lcm
Batch File,C:\Users\cremerlab\Desktop\griffin\2021-04-05_NC_DM_calibration\2021-04-05_NC_DM_2.5mM_calibration.lcb
Report Format File,c:\LabSolutions\System\DEFAULT.lsr

[File Description]


[Configuration]
Instrument Name,HPLC-PC-Instrument1
Instrument #,1
Line #,1
# of Detectors,2
Detector ID,Detector A,Detector B
Detector Name,Detector A,Detector B
# of Channels,1,1

[Peak Table(Detector A)]
# of Peaks,0

[Peak Table(Detector B)]
# of Peaks,4
Peak#,R.Time,I.Time,F.Time,Area,Height,A/H,Conc.,Mark,ID#,Name,k',Plate #,Plate Ht.,Tailing,Resolution,Sep.Factor,Area Ratio,Height Ratio,Conc. %,Norm Conc.
1,11.004,10.608,12.342,1382701,80554,17.165,0.000,   ,,,0.000,9437,15.895,0.954,0.000,0.000,0,0,0.000,0.000
2,14.357,12.625,15.325,3558395,81327,43.754,0.000,   ,,,0.305,2895,51.814,0.617,4.410,0.000,0,0,0.000,0.000
3,15.652,15.325,16.392,15399,521,29.536,0.000, V ,,,0.422,5447,27.537,0.000,1.352,1.386,0,0,0.000,0.000
4,22.057,21.692,22.575,2370,92,25.768,0.000,   ,,,1.004,15712,9.547,1.163,8.254,2.378,0,0,0.000,0.000

[LC Chromatogram(Detector B-Ch1)]
Interval(msec),500
# of Points,4801
Start Time(min),0.000
End Time(min),40.000
Intensity Units,mV
Intensity Multiplier,0.001
R.Time (min),Intensity
0.00000,3
0.00833,3
0.01667,1
0.02500,0
0.03333,0
0.04167,0
0.05000,0
0.05833,0
0.06667,0
0.07500,0
0.08333,0
0.09167,1
0.10000,1
0.10833,2
0.11667,2
0.12500,2
0.13333,2
0.14167,3
0.15000,3
0.15833,3
0.16667,3
0.17500,4
0.18333,4
0.19167,4
0.20000,4
0.20833,5
0.21667,5
0.22500,5
0.23333,6
0.24167,6
0.25000,6
0.25833,6
0.26667,7
0.27500,7
0.28333,6
0.29167,6
0.30000,6
0.30833,7
0.31667,6
0.32500,6
0.33333,7
0.34167,7
0.35000,7
0.35833,7
0.36667,7
0.37500,7
0.38333,6
0.39167,6
0.40000,6
0.40833,5
0.41667,5
0.42500,5
0.43333,4
0.44167,4
0.45000,4
0.45833,4
0.46667,3
0.47500,3
0.48333,3
0.49167,3
0.50000,3
0.50833,2
0.51667,2
0.52500,1
0.53333,0
0.54167,-0
0.55000,-1
0.55833,-1
0.56667,-1
0.57500,-2
0.58333,-2
0.59167,-2
0.60000,-3
0.60833,-3
0.61667,-3
0.62500,-4
0.63333,-4
0.64167,-4
0.65000,-4
0.65833,-5
0.66667,-5
0.67500,-5
0.68333,-5
0.69167,-4
0.70000,-4
0.70833,-4
0.71667,-4
0.72500,-3
0.73333,-3
0.74167,-3
0.75000,-3
0.75833,-3
0.76667,-2
0.77500,-2
0.78333,-2
0.79167,-2
0.80000,-2
0.80833,-1
0.81667,-1
0.82500,-2
0.83333,-1
0.84167,-1
0.85000,-1
0.85833,-1
0.86667,-1
0.87500,-1
0.88333,-1
0.89167,-0
0.90000,-0
0.90833,0
0.91667,1
0.92500,1
0.93333,1
0.94167,1
0.95000,1
0.95833,1
0.96667,1
0.97500,0
0.98333,0
0.99167,-0
1.00000,-0
1.00833,-0
1.01667,-1
1.02500,-1
1.03333,-1
1.04167,-1
1.05000,-1
1.05833,-1
1.06667,-1
1.07500,-2
1.08333,-2
1.09167,-2
1.10000,-3
1.10833,-3
1.11667,-3
1.12500,-3
1.13333,-3
1.14167,-3
1.15000,-3
1.15833,-3
1.16667,-3
1.17500,-2
1.18333,-3
1.19167,-3
1.20000,-3
1.20833,-3
1.21667,-3
1.22500,-3
1.23333,-3
1.24167,-3
1.25000,-3
1.25833,-3
1.26667,-3
1.27500,-2
1.28333,-2
1.29167,-2
1.30000,-2
1.30833,-2
1.31667,-2
1.32500,-2
1.33333,-2
1.34167,-2
1.35000,-2
1.35833,-2
1.36667,-1
1.37500,-1
1.38333,-1
1.39167,-1
1.40000,-1
1.40833,-1
1.41667,-1
1.42500,-1
1.43333,-1
1.44167,-1
1.45000,-1
1.45833,-1
1.46667,-1
1.47500,-1
1.48333,-1
1.49167,-1
1.50000,-1
1.50833,-1
1.51667,-1
1.52500,-1
1.53333,-0
1.54167,-0
1.55000,-0
1.55833,-0
1.56667,-0
1.57500,-0
1.58333,0
1.59167,0
1.60000,1
1.60833,1
1.61667,1
1.62500,2
1.63333,2
1.64167,2
1.65000,2
1.65833,3
1.66667,3
1.67500,3
1.68333,4
1.69167,5
1.70000,5
1.70833,5
1.71667,6
1.72500,7
1.73333,7
1.74167,8
1.75000,8
1.75833,9
1.76667,9
1.77500,10
1.78333,11
1.79167,11
1.80000,12
1.80833,12
1.81667,13
1.82500,13
1.83333,13
1.84167,13
1.85000,14
1.85833,14
1.86667,15
1.87500,15
1.88333,15
1.89167,16
1.90000,16
1.90833,16
1.91667,17
1.92500,17
1.93333,17
1.94167,18
1.95000,18
1.95833,19
1.96667,19
1.97500,19
1.98333,19
1.99167,19
2.00000,19
2.00833,20
2.01667,20
2.02500,20
2.03333,20
2.04167,20
2.05000,20
2.05833,20
2.06667,20
2.07500,20
2.08333,20
2.09167,20
2.10000,21
2.10833,21
2.11667,21
2.12500,20
2.13333,20
2.14167,20
2.15000,20
2.15833,20
2.16667,20
2.17500,20
2.18333,19
2.19167,19
2.20000,19
2.20833,18
2.21667,18
2.22500,17
2.23333,17
2.24167,17
2.25000,17
2.25833,17
2.26667,17
2.27500,17
2.28333,16
2.29167,16
2.30000,16
2.30833,15
2.31667,15
2.32500,15
2.33333,15
2.34167,15
2.35000,15
2.35833,14
2.36667,14
2.37500,14
2.38333,14
2.39167,14
2.40000,13
2.40833,13
2.41667,13
2.42500,13
2.43333,12
2.44167,12
2.45000,12
2.45833,12
2.46667,12
2.47500,11
2.48333,11
2.49167,11
2.50000,11
2.50833,11
2.51667,11
2.52500,11
2.53333,10
2.54167,10
2.55000,9
2.55833,9
2.56667,9
2.57500,9
2.58333,8
2.59167,8
2.60000,7
2.60833,7
2.61667,7
2.62500,7
2.63333,7
2.64167,7
2.65000,7
2.65833,7
2.66667,6
2.67500,6
2.68333,5
2.69167,5
2.70000,5
2.70833,5
2.71667,4
2.72500,3
2.73333,3
2.74167,3
2.75000,2
2.75833,1
2.76667,1
2.77500,0
2.78333,0
2.79167,-0
2.80000,-1
2.80833,-1
2.81667,-2
2.82500,-3
2.83333,-3
2.84167,-3
2.85000,-4
2.85833,-4
2.86667,-5
2.87500,-5
2.88333,-5
2.89167,-6
2.90000,-6
2.90833,-7
2.91667,-7
2.92500,-8
2.93333,-9
2.94167,-9
2.95000,-9
2.95833,-10
2.96667,-10
2.97500,-11
2.98333,-11
2.99167,-11
3.00000,-12
3.00833,-12
3.01667,-12
3.02500,-12
3.03333,-12
3.04167,-13
3.05000,-13
3.05833,-13
3.06667,-13
3.07500,-13
3.08333,-13
3.09167,-13
3.10000,-13
3.10833,-13
3.11667,-14
3.12500,-14
3.13333,-14
3.14167,-14
3.15000,-14
3.15833,-15
3.16667,-15
3.17500,-15
3.18333,-14
3.19167,-14
3.20000,-14
3.20833,-13
3.21667,-13
3.22500,-12
3.23333,-12
3.24167,-11
3.25000,-11
3.25833,-11
3.26667,-10
3.27500,-9
3.28333,-8
3.29167,-7
3.30000,-7
3.30833,-6
3.31667,-5
3.32500,-4
3.33333,-4
3.34167,-3
3.35000,-3
3.35833,-2
3.36667,-2
3.37500,-1
3.38333,-0
3.39167,0
3.40000,1
3.40833,2
3.41667,2
3.42500,3
3.43333,4
3.44167,4
3.45000,5
3.45833,6
3.46667,7
3.47500,7
3.48333,7
3.49167,8
3.50000,8
3.50833,9
3.51667,10
3.52500,10
3.53333,10
3.54167,10
3.55000,11
3.55833,11
3.56667,11
3.57500,11
3.58333,11
3.59167,11
3.60000,11
3.60833,12
3.61667,12
3.62500,12
3.63333,12
3.64167,12
3.65000,12
3.65833,11
3.66667,11
3.67500,11
3.68333,10
3.69167,10
3.70000,10
3.70833,10
3.71667,10
3.72500,10
3.73333,10
3.74167,10
3.75000,10
3.75833,10
3.76667,10
3.77500,10
3.78333,10
3.79167,10
3.80000,10
3.80833,10
3.81667,10
3.82500,10
3.83333,10
3.84167,10
3.85000,10
3.85833,10
3.86667,10
3.87500,11
3.88333,11
3.89167,11
3.90000,11
3.90833,11
3.91667,11
3.92500,11
3.93333,11
3.94167,11
3.95000,11
3.95833,12
3.96667,12
3.97500,12
3.98333,12
3.99167,12
4.00000,12
4.00833,12
4.01667,11
4.02500,11
4.03333,11
4.04167,11
4.05000,10
4.05833,10
4.06667,10
4.07500,9
4.08333,9
4.09167,8
4.10000,8
4.10833,7
4.11667,7
4.12500,7
4.13333,7
4.14167,6
4.15000,6
4.15833,5
4.16667,5
4.17500,5
4.18333,4
4.19167,4
4.20000,4
4.20833,3
4.21667,3
4.22500,2
4.23333,1
4.24167,1
4.25000,0
4.25833,-0
4.26667,-1
4.27500,-1
4.28333,-2
4.29167,-3
4.30000,-3
4.30833,-4
4.31667,-5
4.32500,-5
4.33333,-6
4.34167,-7
4.35000,-8
4.35833,-8
4.36667,-9
4.37500,-10
4.38333,-10
4.39167,-11
4.40000,-11
4.40833,-12
4.41667,-12
4.42500,-13
4.43333,-14
4.44167,-14
4.45000,-14
4.45833,-15
4.46667,-16
4.47500,-16
4.48333,-17
4.49167,-17
4.50000,-18
4.50833,-18
4.51667,-18
4.52500,-18
4.53333,-18
4.54167,-18
4.55000,-19
4.55833,-19
4.56667,-19
4.57500,-19
4.58333,-19
4.59167,-19
4.60000,-19
4.60833,-19
4.61667,-18
4.62500,-18
4.63333,-18
4.64167,-18
4.65000,-18
4.65833,-17
4.66667,-17
4.67500,-16
4.68333,-16
4.69167,-15
4.70000,-15
4.70833,-14
4.71667,-14
4.72500,-13
4.73333,-13
4.74167,-13
4.75000,-12
4.75833,-11
4.76667,-10
4.77500,-9
4.78333,-8
4.79167,-8
4.80000,-7
4.80833,-6
4.81667,-5
4.82500,-5
4.83333,-4
4.84167,-4
4.85000,-3
4.85833,-3
4.86667,-2
4.87500,-2
4.88333,-1
4.89167,-0
4.90000,-0
4.90833,0
4.91667,1
4.92500,1
4.93333,1
4.94167,2
4.95000,2
4.95833,2
4.96667,2
4.97500,2
4.98333,3
4.99167,3
5.00000,3
5.00833,4
5.01667,4
5.02500,4
5.03333,4
5.04167,5
5.05000,5
5.05833,6
5.06667,5
5.07500,5
5.08333,5
5.09167,5
5.10000,5
5.10833,5
5.11667,5
5.12500,5
5.13333,4
5.14167,4
5.15000,4
5.15833,4
5.16667,4
5.17500,4
5.18333,4
5.19167,4
5.20000,3
5.20833,3
5.21667,3
5.22500,3
5.23333,2
5.24167,2
5.25000,2
5.25833,1
5.26667,1
5.27500,1
5.28333,1
5.29167,1
5.30000,0
5.30833,0
5.31667,0
5.32500,0
5.33333,0
5.34167,0
5.35000,0
5.35833,0
5.36667,0
5.37500,0
5.38333,0
5.39167,0
5.40000,0
5.40833,1
5.41667,1
5.42500,2
5.43333,2
5.44167,2
5.45000,3
5.45833,3
5.46667,3
5.47500,3
5.48333,4
5.49167,4
5.50000,4
5.50833,4
5.51667,5
5.52500,5
5.53333,5
5.54167,5
5.55000,5
5.55833,6
5.56667,6
5.57500,6
5.58333,6
5.59167,6
5.60000,6
5.60833,6
5.61667,6
5.62500,5
5.63333,5
5.64167,5
5.65000,4
5.65833,4
5.66667,4
5.67500,4
5.68333,4
5.69167,3
5.70000,3
5.70833,3
5.71667,2
5.72500,1
5.73333,1
5.74167,1
5.75000,0
5.75833,0
5.76667,0
5.77500,0
5.78333,0
5.79167,-0
5.80000,-1
5.80833,-1
5.81667,-1
5.82500,-1
5.83333,-1
5.84167,-2
5.85000,-2
5.85833,-2
5.86667,-2
5.87500,-2
5.88333,-2
5.89167,-2
5.90000,-1
5.90833,-1
5.91667,-1
5.92500,-0
5.93333,0
5.94167,1
5.95000,1
5.95833,1
5.96667,2
5.97500,2
5.98333,2
5.99167,3
6.00000,4
6.00833,4
6.01667,5
6.02500,5
6.03333,6
6.04167,7
6.05000,7
6.05833,8
6.06667,9
6.07500,9
6.08333,10
6.09167,11
6.10000,11
6.10833,12
6.11667,12
6.12500,13
6.13333,13
6.14167,14
6.15000,14
6.15833,14
6.16667,14
6.17500,15
6.18333,15
6.19167,15
6.20000,15
6.20833,16
6.21667,16
6.22500,16
6.23333,16
6.24167,16
6.25000,16
6.25833,17
6.26667,17
6.27500,17
6.28333,16
6.29167,16
6.30000,16
6.30833,16
6.31667,15
6.32500,15
6.33333,15
6.34167,14
6.35000,14
6.35833,13
6.36667,13
6.37500,12
6.38333,12
6.39167,11
6.40000,11
6.40833,11
6.41667,10
6.42500,10
6.43333,9
6.44167,8
6.45000,8
6.45833,7
6.46667,6
6.47500,6
6.48333,5
6.49167,5
6.50000,4
6.50833,4
6.51667,4
6.52500,4
6.53333,3
6.54167,3
6.55000,3
6.55833,3
6.56667,3
6.57500,3
6.58333,3
6.59167,2
6.60000,2
6.60833,2
6.61667,2
6.62500,2
6.63333,2
6.64167,1
6.65000,1
6.65833,1
6.66667,1
6.67500,2
6.68333,2
6.69167,2
6.70000,2
6.70833,2
6.71667,2
6.72500,3
6.73333,3
6.74167,3
6.75000,3
6.75833,3
6.76667,3
6.77500,3
6.78333,3
6.79167,3
6.80000,4
6.80833,4
6.81667,5
6.82500,5
6.83333,5
6.84167,5
6.85000,5
6.85833,5
6.86667,5
6.87500,6
6.88333,6
6.89167,6
6.90000,6
6.90833,6
6.91667,6
6.92500,6
6.93333,7
6.94167,7
6.95000,6
6.95833,6
6.96667,6
6.97500,6
6.98333,5
6.99167,5
7.00000,5
7.00833,5
7.01667,5
7.02500,5
7.03333,5
7.04167,4
7.05000,4
7.05833,4
7.06667,4
7.07500,3
7.08333,3
7.09167,2
7.10000,2
7.10833,2
7.11667,1
7.12500,1
7.13333,0
7.14167,-0
7.15000,-0
7.15833,-1
7.16667,-1
7.17500,-1
7.18333,-1
7.19167,-1
7.20000,-1
7.20833,-1
7.21667,-1
7.22500,-1
7.23333,-1
7.24167,-1
7.25000,-1
7.25833,-1
7.26667,-0
7.27500,0
7.28333,1
7.29167,1
7.30000,2
7.30833,2
7.31667,2
7.32500,2
7.33333,3
7.34167,3
7.35000,3
7.35833,4
7.36667,4
7.37500,4
7.38333,5
7.39167,5
7.40000,5
7.40833,5
7.41667,5
7.42500,6
7.43333,6
7.44167,6
7.45000,7
7.45833,7
7.46667,7
7.47500,7
7.48333,7
7.49167,7
7.50000,7
7.50833,7
7.51667,8
7.52500,8
7.53333,8
7.54167,8
7.55000,8
7.55833,7
7.56667,7
7.57500,7
7.58333,6
7.59167,6
7.60000,6
7.60833,6
7.61667,6
7.62500,5
7.63333,5
7.64167,4
7.65000,4
7.65833,3
7.66667,2
7.67500,1
7.68333,1
7.69167,1
7.70000,1
7.70833,0
7.71667,0
7.72500,-0
7.73333,-0
7.74167,-0
7.75000,-1
7.75833,-1
7.76667,-2
7.77500,-2
7.78333,-3
7.79167,-3
7.80000,-4
7.80833,-5
7.81667,-5
7.82500,-6
7.83333,-6
7.84167,-7
7.85000,-8
7.85833,-8
7.86667,-9
7.87500,-9
7.88333,-10
7.89167,-10
7.90000,-11
7.90833,-11
7.91667,-12
7.92500,-12
7.93333,-12
7.94167,-12
7.95000,-12
7.95833,-12
7.96667,-12
7.97500,-12
7.98333,-12
7.99167,-12
8.00000,-13
8.00833,-13
8.01667,-13
8.02500,-14
8.03333,-14
8.04167,-14
8.05000,-14
8.05833,-14
8.06667,-14
8.07500,-14
8.08333,-14
8.09167,-13
8.10000,-14
8.10833,-14
8.11667,-14
8.12500,-13
8.13333,-12
8.14167,-12
8.15000,-11
8.15833,-10
8.16667,-10
8.17500,-9
8.18333,-9
8.19167,-9
8.20000,-8
8.20833,-8
8.21667,-7
8.22500,-6
8.23333,-6
8.24167,-6
8.25000,-5
8.25833,-4
8.26667,-4
8.27500,-3
8.28333,-3
8.29167,-3
8.30000,-2
8.30833,-2
8.31667,-2
8.32500,-2
8.33333,-2
8.34167,-1
8.35000,-1
8.35833,-1
8.36667,-1
8.37500,-1
8.38333,-1
8.39167,-1
8.40000,-1
8.40833,-1
8.41667,-1
8.42500,-1
8.43333,-1
8.44167,-2
8.45000,-2
8.45833,-3
8.46667,-4
8.47500,-4
8.48333,-5
8.49167,-5
8.50000,-5
8.50833,-5
8.51667,-5
8.52500,-5
8.53333,-5
8.54167,-5
8.55000,-6
8.55833,-6
8.56667,-6
8.57500,-6
8.58333,-6
8.59167,-6
8.60000,-5
8.60833,-5
8.61667,-5
8.62500,-6
8.63333,-6
8.64167,-6
8.65000,-5
8.65833,-5
8.66667,-5
8.67500,-5
8.68333,-4
8.69167,-4
8.70000,-3
8.70833,-3
8.71667,-3
8.72500,-3
8.73333,-2
8.74167,-2
8.75000,-1
8.75833,0
8.76667,1
8.77500,2
8.78333,3
8.79167,4
8.80000,5
8.80833,6
8.81667,7
8.82500,8
8.83333,9
8.84167,10
8.85000,12
8.85833,13
8.86667,14
8.87500,15
8.88333,16
8.89167,18
8.90000,19
8.90833,21
8.91667,22
8.92500,24
8.93333,25
8.94167,26
8.95000,27
8.95833,28
8.96667,29
8.97500,30
8.98333,31
8.99167,32
9.00000,33
9.00833,34
9.01667,34
9.02500,35
9.03333,37
9.04167,38
9.05000,39
9.05833,40
9.06667,40
9.07500,41
9.08333,42
9.09167,43
9.10000,44
9.10833,45
9.11667,46
9.12500,47
9.13333,47
9.14167,47
9.15000,47
9.15833,47
9.16667,47
9.17500,48
9.18333,48
9.19167,48
9.20000,49
9.20833,49
9.21667,49
9.22500,49
9.23333,49
9.24167,49
9.25000,49
9.25833,49
9.26667,49
9.27500,49
9.28333,49
9.29167,49
9.30000,48
9.30833,47
9.31667,46
9.32500,45
9.33333,45
9.34167,44
9.35000,43
9.35833,42
9.36667,41
9.37500,41
9.38333,40
9.39167,39
9.40000,38
9.40833,37
9.41667,37
9.42500,35
9.43333,34
9.44167,33
9.45000,32
9.45833,31
9.46667,30
9.47500,29
9.48333,27
9.49167,26
9.50000,25
9.50833,24
9.51667,23
9.52500,22
9.53333,21
9.54167,19
9.55000,18
9.55833,17
9.56667,16
9.57500,15
9.58333,15
9.59167,14
9.60000,13
9.60833,12
9.61667,11
9.62500,11
9.63333,10
9.64167,10
9.65000,10
9.65833,9
9.66667,9
9.67500,8
9.68333,8
9.69167,8
9.70000,7
9.70833,7
9.71667,8
9.72500,8
9.73333,9
9.74167,9
9.75000,9
9.75833,10
9.76667,10
9.77500,11
9.78333,11
9.79167,11
9.80000,12
9.80833,13
9.81667,13
9.82500,14
9.83333,14
9.84167,15
9.85000,15
9.85833,16
9.86667,17
9.87500,18
9.88333,18
9.89167,19
9.90000,19
9.90833,19
9.91667,20
9.92500,20
9.93333,20
9.94167,21
9.95000,21
9.95833,21
9.96667,22
9.97500,22
9.98333,22
9.99167,22
10.00000,22
10.00833,23
10.01667,23
10.02500,23
10.03333,22
10.04167,22
10.05000,21
10.05833,21
10.06667,20
10.07500,20
10.08333,19
10.09167,19
10.10000,18
10.10833,17
10.11667,16
10.12500,15
10.13333,14
10.14167,14
10.15000,12
10.15833,11
10.16667,9
10.17500,8
10.18333,7
10.19167,6
10.20000,4
10.20833,3
10.21667,2
10.22500,1
10.23333,-0
10.24167,-1
10.25000,-2
10.25833,-4
10.26667,-5
10.27500,-5
10.28333,-6
10.29167,-7
10.30000,-7
10.30833,-8
10.31667,-10
10.32500,-10
10.33333,-11
10.34167,-11
10.35000,-12
10.35833,-12
10.36667,-13
10.37500,-13
10.38333,-14
10.39167,-15
10.40000,-17
10.40833,-19
10.41667,-21
10.42500,-25
10.43333,-31
10.44167,-38
10.45000,-48
10.45833,-62
10.46667,-79
10.47500,-102
10.48333,-131
10.49167,-167
10.50000,-210
10.50833,-261
10.51667,-322
10.52500,-390
10.53333,-467
10.54167,-550
10.55000,-638
10.55833,-728
10.56667,-816
10.57500,-898
10.58333,-969
10.59167,-1022
10.60000,-1052
10.60833,-1052
10.61667,-1014
10.62500,-930
10.63333,-792
10.64167,-594
10.65000,-327
10.65833,15
10.66667,439
10.67500,950
10.68333,1554
10.69167,2257
10.70000,3061
10.70833,3970
10.71667,4987
10.72500,6114
10.73333,7353
10.74167,8704
10.75000,10167
10.75833,11744
10.76667,13432
10.77500,15231
10.78333,17139
10.79167,19154
10.80000,21273
10.80833,23495
10.81667,25816
10.82500,28231
10.83333,30737
10.84167,33329
10.85000,36000
10.85833,38745
10.86667,41556
10.87500,44425
10.88333,47340
10.89167,50292
10.90000,53264
10.90833,56241
10.91667,59201
10.92500,62119
10.93333,64967
10.94167,67708
10.95000,70301
10.95833,72697
10.96667,74844
10.97500,76683
10.98333,78152
10.99167,79190
11.00000,79743
11.00833,79762
11.01667,79213
11.02500,78079
11.03333,76362
11.04167,74087
11.05000,71297
11.05833,68054
11.06667,64435
11.07500,60526
11.08333,56418
11.09167,52201
11.10000,47960
11.10833,43773
11.11667,39707
11.12500,35814
11.13333,32136
11.14167,28702
11.15000,25530
11.15833,22627
11.16667,19992
11.17500,17618
11.18333,15493
11.19167,13603
11.20000,11931
11.20833,10456
11.21667,9162
11.22500,8030
11.23333,7041
11.24167,6181
11.25000,5434
11.25833,4786
11.26667,4224
11.27500,3737
11.28333,3317
11.29167,2953
11.30000,2637
11.30833,2364
11.31667,2127
11.32500,1922
11.33333,1743
11.34167,1588
11.35000,1452
11.35833,1332
11.36667,1227
11.37500,1135
11.38333,1054
11.39167,982
11.40000,918
11.40833,860
11.41667,808
11.42500,762
11.43333,719
11.44167,681
11.45000,646
11.45833,614
11.46667,585
11.47500,557
11.48333,532
11.49167,508
11.50000,486
11.50833,465
11.51667,446
11.52500,428
11.53333,410
11.54167,394
11.55000,379
11.55833,364
11.56667,350
11.57500,337
11.58333,325
11.59167,313
11.60000,302
11.60833,292
11.61667,282
11.62500,273
11.63333,264
11.64167,255
11.65000,247
11.65833,240
11.66667,232
11.67500,225
11.68333,219
11.69167,212
11.70000,206
11.70833,200
11.71667,195
11.72500,190
11.73333,185
11.74167,181
11.75000,176
11.75833,172
11.76667,169
11.77500,166
11.78333,162
11.79167,159
11.80000,156
11.80833,154
11.81667,151
11.82500,149
11.83333,147
11.84167,145
11.85000,143
11.85833,141
11.86667,140
11.87500,138
11.88333,137
11.89167,135
11.90000,133
11.90833,132
11.91667,131
11.92500,129
11.93333,128
11.94167,126
11.95000,125
11.95833,124
11.96667,123
11.97500,121
11.98333,120
11.99167,119
12.00000,118
12.00833,117
12.01667,116
12.02500,114
12.03333,113
12.04167,112
12.05000,111
12.05833,110
12.06667,109
12.07500,108
12.08333,107
12.09167,106
12.10000,105
12.10833,104
12.11667,103
12.12500,102
12.13333,101
12.14167,100
12.15000,99
12.15833,98
12.16667,97
12.17500,96
12.18333,95
12.19167,94
12.20000,94
12.20833,93
12.21667,93
12.22500,92
12.23333,91
12.24167,90
12.25000,89
12.25833,88
12.26667,87
12.27500,87
12.28333,86
12.29167,86
12.30000,85
12.30833,84
12.31667,83
12.32500,83
12.33333,83
12.34167,83
12.35000,82
12.35833,82
12.36667,81
12.37500,81
12.38333,80
12.39167,80
12.40000,80
12.40833,79
12.41667,79
12.42500,79
12.43333,79
12.44167,80
12.45000,80
12.45833,80
12.46667,80
12.47500,80
12.48333,80
12.49167,80
12.50000,80
12.50833,80
12.51667,80
12.52500,81
12.53333,81
12.54167,82
12.55000,82
12.55833,82
12.56667,83
12.57500,83
12.58333,84
12.59167,85
12.60000,85
12.60833,86
12.61667,87
12.62500,87
12.63333,88
12.64167,89
12.65000,91
12.65833,92
12.66667,94
12.67500,97
12.68333,100
12.69167,104
12.70000,108
12.70833,113
12.71667,119
12.72500,127
12.73333,137
12.74167,148
12.75000,161
12.75833,177
12.76667,195
12.77500,217
12.78333,243
12.79167,273
12.80000,307
12.80833,346
12.81667,390
12.82500,440
12.83333,495
12.84167,556
12.85000,624
12.85833,698
12.86667,779
12.87500,867
12.88333,962
12.89167,1064
12.90000,1173
12.90833,1289
12.91667,1412
12.92500,1543
12.93333,1681
12.94167,1825
12.95000,1977
12.95833,2135
12.96667,2299
12.97500,2470
12.98333,2647
12.99167,2830
13.00000,3019
13.00833,3214
13.01667,3415
13.02500,3620
13.03333,3831
13.04167,4047
13.05000,4267
13.05833,4492
13.06667,4722
13.07500,4956
13.08333,5194
13.09167,5436
13.10000,5683
13.10833,5933
13.11667,6187
13.12500,6445
13.13333,6706
13.14167,6971
13.15000,7239
13.15833,7510
13.16667,7785
13.17500,8063
13.18333,8344
13.19167,8628
13.20000,8916
13.20833,9207
13.21667,9500
13.22500,9797
13.23333,10096
13.24167,10398
13.25000,10703
13.25833,11011
13.26667,11321
13.27500,11635
13.28333,11951
13.29167,12270
13.30000,12592
13.30833,12917
13.31667,13244
13.32500,13575
13.33333,13908
13.34167,14244
13.35000,14582
13.35833,14923
13.36667,15267
13.37500,15614
13.38333,15964
13.39167,16318
13.40000,16674
13.40833,17032
13.41667,17394
13.42500,17758
13.43333,18125
13.44167,18495
13.45000,18867
13.45833,19243
13.46667,19622
13.47500,20003
13.48333,20388
13.49167,20775
13.50000,21166
13.50833,21559
13.51667,21956
13.52500,22356
13.53333,22759
13.54167,23165
13.55000,23575
13.55833,23988
13.56667,24403
13.57500,24822
13.58333,25244
13.59167,25669
13.60000,26097
13.60833,26529
13.61667,26964
13.62500,27403
13.63333,27845
13.64167,28290
13.65000,28739
13.65833,29191
13.66667,29647
13.67500,30107
13.68333,30570
13.69167,31037
13.70000,31508
13.70833,31982
13.71667,32460
13.72500,32941
13.73333,33426
13.74167,33915
13.75000,34408
13.75833,34905
13.76667,35406
13.77500,35912
13.78333,36421
13.79167,36934
13.80000,37451
13.80833,37973
13.81667,38499
13.82500,39029
13.83333,39564
13.84167,40103
13.85000,40646
13.85833,41193
13.86667,41745
13.87500,42302
13.88333,42863
13.89167,43429
13.90000,43999
13.90833,44574
13.91667,45154
13.92500,45738
13.93333,46327
13.94167,46922
13.95000,47521
13.95833,48125
13.96667,48735
13.97500,49349
13.98333,49969
13.99167,50594
14.00000,51225
14.00833,51860
14.01667,52502
14.02500,53148
14.03333,53800
14.04167,54458
14.05000,55121
14.05833,55790
14.06667,56465
14.07500,57146
14.08333,57833
14.09167,58525
14.10000,59223
14.10833,59928
14.11667,60639
14.12500,61356
14.13333,62080
14.14167,62810
14.15000,63546
14.15833,64288
14.16667,65037
14.17500,65793
14.18333,66555
14.19167,67324
14.20000,68100
14.20833,68883
14.21667,69673
14.22500,70470
14.23333,71274
14.24167,72085
14.25000,72902
14.25833,73726
14.26667,74555
14.27500,75388
14.28333,76221
14.29167,77048
14.30000,77862
14.30833,78649
14.31667,79392
14.32500,80069
14.33333,80652
14.34167,81105
14.35000,81391
14.35833,81468
14.36667,81294
14.37500,80826
14.38333,80028
14.39167,78872
14.40000,77337
14.40833,75415
14.41667,73110
14.42500,70440
14.43333,67435
14.44167,64138
14.45000,60598
14.45833,56876
14.46667,53034
14.47500,49136
14.48333,45243
14.49167,41414
14.50000,37700
14.50833,34146
14.51667,30784
14.52500,27641
14.53333,24732
14.54167,22064
14.55000,19638
14.55833,17449
14.56667,15487
14.57500,13737
14.58333,12185
14.59167,10814
14.60000,9606
14.60833,8545
14.61667,7615
14.62500,6800
14.63333,6088
14.64167,5465
14.65000,4920
14.65833,4442
14.66667,4024
14.67500,3657
14.68333,3335
14.69167,3052
14.70000,2802
14.70833,2581
14.71667,2385
14.72500,2211
14.73333,2057
14.74167,1919
14.75000,1796
14.75833,1685
14.76667,1586
14.77500,1496
14.78333,1415
14.79167,1342
14.80000,1275
14.80833,1214
14.81667,1158
14.82500,1107
14.83333,1060
14.84167,1017
14.85000,978
14.85833,941
14.86667,907
14.87500,875
14.88333,846
14.89167,819
14.90000,794
14.90833,770
14.91667,749
14.92500,728
14.93333,709
14.94167,691
14.95000,675
14.95833,659
14.96667,644
14.97500,631
14.98333,619
14.99167,607
15.00000,596
15.00833,586
15.01667,577
15.02500,568
15.03333,560
15.04167,553
15.05000,546
15.05833,540
15.06667,534
15.07500,528
15.08333,523
15.09167,519
15.10000,515
15.10833,511
15.11667,507
15.12500,503
15.13333,500
15.14167,497
15.15000,493
15.15833,490
15.16667,487
15.17500,484
15.18333,481
15.19167,478
15.20000,475
15.20833,472
15.21667,469
15.22500,467
15.23333,465
15.24167,462
15.25000,460
15.25833,458
15.26667,455
15.27500,453
15.28333,451
15.29167,450
15.30000,448
15.30833,447
15.31667,447
15.32500,447
15.33333,447
15.34167,448
15.35000,450
15.35833,451
15.36667,453
15.37500,456
15.38333,459
15.39167,463
15.40000,468
15.40833,473
15.41667,479
15.42500,485
15.43333,493
15.44167,501
15.45000,510
15.45833,519
15.46667,528
15.47500,538
15.48333,548
15.49167,559
15.50000,570
15.50833,581
15.51667,592
15.52500,603
15.53333,614
15.54167,625
15.55000,635
15.55833,644
15.56667,654
15.57500,663
15.58333,671
15.59167,678
15.60000,685
15.60833,691
15.61667,695
15.62500,699
15.63333,701
15.64167,703
15.65000,704
15.65833,704
15.66667,702
15.67500,700
15.68333,696
15.69167,692
15.70000,686
15.70833,679
15.71667,672
15.72500,664
15.73333,655
15.74167,645
15.75000,635
15.75833,624
15.76667,612
15.77500,600
15.78333,588
15.79167,576
15.80000,563
15.80833,551
15.81667,538
15.82500,525
15.83333,512
15.84167,499
15.85000,486
15.85833,474
15.86667,462
15.87500,450
15.88333,438
15.89167,426
15.90000,415
15.90833,405
15.91667,394
15.92500,385
15.93333,375
15.94167,366
15.95000,357
15.95833,349
15.96667,341
15.97500,333
15.98333,326
15.99167,319
16.00000,312
16.00833,306
16.01667,300
16.02500,294
16.03333,289
16.04167,284
16.05000,279
16.05833,275
16.06667,270
16.07500,266
16.08333,262
16.09167,259
16.10000,255
16.10833,252
16.11667,249
16.12500,246
16.13333,244
16.14167,241
16.15000,239
16.15833,237
16.16667,235
16.17500,233
16.18333,231
16.19167,229
16.20000,228
16.20833,226
16.21667,225
16.22500,223
16.23333,222
16.24167,220
16.25000,219
16.25833,218
16.26667,217
16.27500,216
16.28333,216
16.29167,214
16.30000,213
16.30833,212
16.31667,211
16.32500,210
16.33333,210
16.34167,209
16.35000,208
16.35833,207
16.36667,207
16.37500,206
16.38333,206
16.39167,206
16.40000,205
16.40833,205
16.41667,204
16.42500,204
16.43333,203
16.44167,203
16.45000,202
16.45833,202
16.46667,201
16.47500,200
16.48333,200
16.49167,199
16.50000,198
16.50833,197
16.51667,196
16.52500,195
16.53333,194
16.54167,193
16.55000,192
16.55833,191
16.56667,190
16.57500,190
16.58333,189
16.59167,188
16.60000,188
16.60833,187
16.61667,186
16.62500,185
16.63333,184
16.64167,183
16.65000,182
16.65833,180
16.66667,179
16.67500,178
16.68333,178
16.69167,177
16.70000,176
16.70833,175
16.71667,174
16.72500,172
16.73333,171
16.74167,170
16.75000,169
16.75833,168
16.76667,167
16.77500,166
16.78333,165
16.79167,163
16.80000,162
16.80833,161
16.81667,160
16.82500,159
16.83333,158
16.84167,157
16.85000,156
16.85833,155
16.86667,154
16.87500,153
16.88333,152
16.89167,151
16.90000,150
16.90833,149
16.91667,148
16.92500,147
16.93333,145
16.94167,144
16.95000,143
16.95833,142
16.96667,141
16.97500,140
16.98333,139
16.99167,138
17.00000,137
17.00833,136
17.01667,135
17.02500,134
17.03333,133
17.04167,132
17.05000,131
17.05833,130
17.06667,129
17.07500,128
17.08333,127
17.09167,126
17.10000,125
17.10833,124
17.11667,124
17.12500,123
17.13333,122
17.14167,121
17.15000,120
17.15833,119
17.16667,118
17.17500,117
17.18333,117
17.19167,116
17.20000,115
17.20833,115
17.21667,114
17.22500,114
17.23333,113
17.24167,112
17.25000,112
17.25833,112
17.26667,112
17.27500,112
17.28333,112
17.29167,111
17.30000,112
17.30833,112
17.31667,112
17.32500,112
17.33333,112
17.34167,111
17.35000,112
17.35833,112
17.36667,113
17.37500,113
17.38333,114
17.39167,114
17.40000,114
17.40833,114
17.41667,115
17.42500,116
17.43333,116
17.44167,117
17.45000,117
17.45833,118
17.46667,119
17.47500,119
17.48333,120
17.49167,120
17.50000,121
17.50833,121
17.51667,122
17.52500,122
17.53333,123
17.54167,123
17.55000,124
17.55833,124
17.56667,124
17.57500,125
17.58333,125
17.59167,125
17.60000,126
17.60833,125
17.61667,125
17.62500,125
17.63333,125
17.64167,124
17.65000,124
17.65833,123
17.66667,123
17.67500,122
17.68333,121
17.69167,120
17.70000,120
17.70833,120
17.71667,120
17.72500,119
17.73333,118
17.74167,117
17.75000,116
17.75833,115
17.76667,114
17.77500,113
17.78333,112
17.79167,111
17.80000,110
17.80833,109
17.81667,108
17.82500,107
17.83333,106
17.84167,104
17.85000,103
17.85833,102
17.86667,101
17.87500,99
17.88333,98
17.89167,97
17.90000,95
17.90833,94
17.91667,92
17.92500,91
17.93333,90
17.94167,89
17.95000,87
17.95833,86
17.96667,85
17.97500,84
17.98333,83
17.99167,82
18.00000,80
18.00833,79
18.01667,78
18.02500,76
18.03333,75
18.04167,74
18.05000,73
18.05833,72
18.06667,71
18.07500,70
18.08333,69
18.09167,68
18.10000,67
18.10833,66
18.11667,65
18.12500,64
18.13333,63
18.14167,62
18.15000,60
18.15833,60
18.16667,59
18.17500,58
18.18333,57
18.19167,56
18.20000,55
18.20833,54
18.21667,54
18.22500,53
18.23333,52
18.24167,52
18.25000,51
18.25833,50
18.26667,50
18.27500,49
18.28333,48
18.29167,48
18.30000,48
18.30833,47
18.31667,47
18.32500,47
18.33333,47
18.34167,46
18.35000,46
18.35833,46
18.36667,46
18.37500,45
18.38333,45
18.39167,45
18.40000,45
18.40833,45
18.41667,46
18.42500,46
18.43333,46
18.44167,46
18.45000,46
18.45833,46
18.46667,47
18.47500,47
18.48333,48
18.49167,48
18.50000,49
18.50833,49
18.51667,50
18.52500,51
18.53333,51
18.54167,52
18.55000,52
18.55833,53
18.56667,53
18.57500,53
18.58333,54
18.59167,54
18.60000,54
18.60833,55
18.61667,55
18.62500,56
18.63333,56
18.64167,57
18.65000,57
18.65833,57
18.66667,58
18.67500,58
18.68333,59
18.69167,59
18.70000,60
18.70833,60
18.71667,61
18.72500,61
18.73333,62
18.74167,62
18.75000,63
18.75833,64
18.76667,65
18.77500,66
18.78333,67
18.79167,68
18.80000,69
18.80833,70
18.81667,71
18.82500,72
18.83333,73
18.84167,74
18.85000,75
18.85833,76
18.86667,78
18.87500,79
18.88333,81
18.89167,83
18.90000,84
18.90833,86
18.91667,87
18.92500,89
18.93333,90
18.94167,92
18.95000,93
18.95833,94
18.96667,95
18.97500,96
18.98333,97
18.99167,98
19.00000,99
19.00833,99
19.01667,100
19.02500,101
19.03333,102
19.04167,102
19.05000,103
19.05833,103
19.06667,104
19.07500,104
19.08333,104
19.09167,103
19.10000,103
19.10833,103
19.11667,102
19.12500,101
19.13333,101
19.14167,100
19.15000,100
19.15833,99
19.16667,98
19.17500,97
19.18333,96
19.19167,95
19.20000,94
19.20833,93
19.21667,92
19.22500,91
19.23333,91
19.24167,90
19.25000,89
19.25833,88
19.26667,87
19.27500,86
19.28333,85
19.29167,84
19.30000,83
19.30833,82
19.31667,81
19.32500,80
19.33333,80
19.34167,79
19.35000,79
19.35833,78
19.36667,78
19.37500,77
19.38333,77
19.39167,76
19.40000,76
19.40833,75
19.41667,75
19.42500,75
19.43333,75
19.44167,75
19.45000,75
19.45833,75
19.46667,75
19.47500,75
19.48333,74
19.49167,74
19.50000,74
19.50833,74
19.51667,74
19.52500,73
19.53333,73
19.54167,73
19.55000,73
19.55833,73
19.56667,72
19.57500,71
19.58333,70
19.59167,69
19.60000,69
19.60833,68
19.61667,68
19.62500,68
19.63333,68
19.64167,67
19.65000,66
19.65833,65
19.66667,64
19.67500,64
19.68333,63
19.69167,63
19.70000,62
19.70833,62
19.71667,61
19.72500,60
19.73333,59
19.74167,59
19.75000,58
19.75833,57
19.76667,56
19.77500,56
19.78333,55
19.79167,54
19.80000,53
19.80833,52
19.81667,51
19.82500,50
19.83333,50
19.84167,49
19.85000,49
19.85833,48
19.86667,48
19.87500,48
19.88333,48
19.89167,47
19.90000,47
19.90833,47
19.91667,47
19.92500,47
19.93333,47
19.94167,47
19.95000,47
19.95833,47
19.96667,47
19.97500,47
19.98333,48
19.99167,48
20.00000,49
20.00833,49
20.01667,49
20.02500,50
20.03333,50
20.04167,50
20.05000,51
20.05833,51
20.06667,52
20.07500,53
20.08333,54
20.09167,54
20.10000,55
20.10833,55
20.11667,56
20.12500,56
20.13333,57
20.14167,58
20.15000,59
20.15833,60
20.16667,60
20.17500,61
20.18333,62
20.19167,63
20.20000,64
20.20833,65
20.21667,65
20.22500,65
20.23333,65
20.24167,65
20.25000,66
20.25833,67
20.26667,68
20.27500,68
20.28333,69
20.29167,69
20.30000,70
20.30833,70
20.31667,71
20.32500,71
20.33333,72
20.34167,72
20.35000,73
20.35833,73
20.36667,74
20.37500,74
20.38333,74
20.39167,74
20.40000,74
20.40833,74
20.41667,74
20.42500,74
20.43333,73
20.44167,73
20.45000,73
20.45833,73
20.46667,73
20.47500,72
20.48333,72
20.49167,72
20.50000,72
20.50833,72
20.51667,71
20.52500,71
20.53333,71
20.54167,70
20.55000,70
20.55833,69
20.56667,69
20.57500,68
20.58333,68
20.59167,67
20.60000,66
20.60833,65
20.61667,65
20.62500,64
20.63333,63
20.64167,63
20.65000,62
20.65833,62
20.66667,61
20.67500,61
20.68333,61
20.69167,61
20.70000,60
20.70833,59
20.71667,59
20.72500,58
20.73333,58
20.74167,57
20.75000,56
20.75833,55
20.76667,55
20.77500,54
20.78333,54
20.79167,54
20.80000,54
20.80833,53
20.81667,52
20.82500,52
20.83333,51
20.84167,51
20.85000,51
20.85833,51
20.86667,51
20.87500,51
20.88333,50
20.89167,50
20.90000,50
20.90833,50
20.91667,49
20.92500,49
20.93333,49
20.94167,49
20.95000,49
20.95833,49
20.96667,49
20.97500,49
20.98333,50
20.99167,50
21.00000,50
21.00833,51
21.01667,51
21.02500,51
21.03333,52
21.04167,52
21.05000,52
21.05833,52
21.06667,53
21.07500,53
21.08333,53
21.09167,54
21.10000,54
21.10833,55
21.11667,55
21.12500,56
21.13333,56
21.14167,56
21.15000,56
21.15833,57
21.16667,57
21.17500,57
21.18333,57
21.19167,57
21.20000,57
21.20833,57
21.21667,58
21.22500,58
21.23333,58
21.24167,58
21.25000,58
21.25833,59
21.26667,59
21.27500,59
21.28333,59
21.29167,59
21.30000,58
21.30833,58
21.31667,58
21.32500,58
21.33333,58
21.34167,58
21.35000,57
21.35833,58
21.36667,58
21.37500,57
21.38333,57
21.39167,57
21.40000,56
21.40833,56
21.41667,57
21.42500,57
21.43333,57
21.44167,57
21.45000,56
21.45833,56
21.46667,56
21.47500,56
21.48333,55
21.49167,55
21.50000,55
21.50833,55
21.51667,55
21.52500,55
21.53333,55
21.54167,55
21.55000,56
21.55833,56
21.56667,56
21.57500,56
21.58333,56
21.59167,56
21.60000,56
21.60833,57
21.61667,58
21.62500,58
21.63333,59
21.64167,59
21.65000,59
21.65833,60
21.66667,61
21.67500,62
21.68333,63
21.69167,64
21.70000,65
21.70833,66
21.71667,68
21.72500,69
21.73333,71
21.74167,73
21.75000,74
21.75833,76
21.76667,78
21.77500,80
21.78333,82
21.79167,84
21.80000,87
21.80833,89
21.81667,92
21.82500,94
21.83333,97
21.84167,99
21.85000,102
21.85833,105
21.86667,108
21.87500,111
21.88333,114
21.89167,117
21.90000,120
21.90833,122
21.91667,125
21.92500,128
21.93333,130
21.94167,133
21.95000,135
21.95833,138
21.96667,140
21.97500,143
21.98333,144
21.99167,146
22.00000,148
22.00833,149
22.01667,150
22.02500,151
22.03333,152
22.04167,152
22.05000,153
22.05833,153
22.06667,153
22.07500,152
22.08333,151
22.09167,151
22.10000,150
22.10833,149
22.11667,148
22.12500,147
22.13333,145
22.14167,144
22.15000,142
22.15833,140
22.16667,139
22.17500,136
22.18333,134
22.19167,132
22.20000,130
22.20833,127
22.21667,125
22.22500,123
22.23333,120
22.24167,117
22.25000,115
22.25833,113
22.26667,110
22.27500,108
22.28333,105
22.29167,102
22.30000,100
22.30833,98
22.31667,96
22.32500,94
22.33333,92
22.34167,89
22.35000,87
22.35833,85
22.36667,83
22.37500,81
22.38333,80
22.39167,78
22.40000,77
22.40833,75
22.41667,74
22.42500,73
22.43333,72
22.44167,70
22.45000,69
22.45833,68
22.46667,66
22.47500,65
22.48333,65
22.49167,63
22.50000,62
22.50833,61
22.51667,61
22.52500,60
22.53333,59
22.54167,58
22.55000,58
22.55833,57
22.56667,57
22.57500,57
22.58333,56
22.59167,56
22.60000,55
22.60833,54
22.61667,54
22.62500,53
22.63333,53
22.64167,53
22.65000,52
22.65833,52
22.66667,52
22.67500,52
22.68333,51
22.69167,51
22.70000,51
22.70833,50
22.71667,50
22.72500,50
22.73333,50
22.74167,49
22.75000,49
22.75833,49
22.76667,49
22.77500,49
22.78333,48
22.79167,48
22.80000,48
22.80833,48
22.81667,48
22.82500,48
22.83333,48
22.84167,48
22.85000,48
22.85833,48
22.86667,48
22.87500,47
22.88333,47
22.89167,47
22.90000,47
22.90833,47
22.91667,47
22.92500,47
22.93333,47
22.94167,47
22.95000,47
22.95833,47
22.96667,46
22.97500,46
22.98333,46
22.99167,46
23.00000,46
23.00833,46
23.01667,46
23.02500,46
23.03333,45
23.04167,45
23.05000,45
23.05833,45
23.06667,44
23.07500,44
23.08333,44
23.09167,44
23.10000,43
23.10833,43
23.11667,43
23.12500,43
23.13333,43
23.14167,43
23.15000,43
23.15833,43
23.16667,43
23.17500,42
23.18333,42
23.19167,41
23.20000,41
23.20833,40
23.21667,39
23.22500,39
23.23333,39
23.24167,39
23.25000,39
23.25833,39
23.26667,39
23.27500,38
23.28333,38
23.29167,38
23.30000,38
23.30833,37
23.31667,37
23.32500,37
23.33333,37
23.34167,38
23.35000,38
23.35833,38
23.36667,38
23.37500,39
23.38333,39
23.39167,39
23.40000,39
23.40833,39
23.41667,39
23.42500,39
23.43333,39
23.44167,39
23.45000,40
23.45833,40
23.46667,41
23.47500,41
23.48333,41
23.49167,41
23.50000,42
23.50833,42
23.51667,42
23.52500,43
23.53333,43
23.54167,44
23.55000,44
23.55833,44
23.56667,44
23.57500,44
23.58333,45
23.59167,45
23.60000,45
23.60833,46
23.61667,46
23.62500,46
23.63333,46
23.64167,46
23.65000,46
23.65833,46
23.66667,46
23.67500,46
23.68333,46
23.69167,46
23.70000,46
23.70833,47
23.71667,47
23.72500,47
23.73333,47
23.74167,47
23.75000,47
23.75833,47
23.76667,47
23.77500,47
23.78333,47
23.79167,47
23.80000,47
23.80833,47
23.81667,47
23.82500,47
23.83333,47
23.84167,47
23.85000,47
23.85833,47
23.86667,47
23.87500,48
23.88333,48
23.89167,48
23.90000,48
23.90833,48
23.91667,49
23.92500,49
23.93333,49
23.94167,49
23.95000,48
23.95833,48
23.96667,48
23.97500,48
23.98333,48
23.99167,49
24.00000,49
24.00833,49
24.01667,49
24.02500,48
24.03333,48
24.04167,48
24.05000,48
24.05833,48
24.06667,48
24.07500,48
24.08333,48
24.09167,49
24.10000,49
24.10833,49
24.11667,49
24.12500,50
24.13333,50
24.14167,50
24.15000,50
24.15833,50
24.16667,51
24.17500,51
24.18333,51
24.19167,51
24.20000,51
24.20833,51
24.21667,51
24.22500,51
24.23333,52
24.24167,52
24.25000,52
24.25833,52
24.26667,52
24.27500,52
24.28333,53
24.29167,53
24.30000,52
24.30833,52
24.31667,51
24.32500,51
24.33333,51
24.34167,50
24.35000,50
24.35833,50
24.36667,50
24.37500,49
24.38333,49
24.39167,49
24.40000,48
24.40833,48
24.41667,47
24.42500,47
24.43333,47
24.44167,46
24.45000,45
24.45833,44
24.46667,44
24.47500,43
24.48333,43
24.49167,42
24.50000,41
24.50833,41
24.51667,40
24.52500,40
24.53333,40
24.54167,40
24.55000,39
24.55833,38
24.56667,38
24.57500,37
24.58333,37
24.59167,37
24.60000,37
24.60833,37
24.61667,37
24.62500,37
24.63333,37
24.64167,37
24.65000,37
24.65833,37
24.66667,38
24.67500,39
24.68333,39
24.69167,40
24.70000,41
24.70833,42
24.71667,42
24.72500,43
24.73333,43
24.74167,44
24.75000,45
24.75833,47
24.76667,48
24.77500,50
24.78333,51
24.79167,53
24.80000,54
24.80833,56
24.81667,57
24.82500,59
24.83333,60
24.84167,62
24.85000,64
24.85833,65
24.86667,67
24.87500,69
24.88333,71
24.89167,73
24.90000,75
24.90833,76
24.91667,77
24.92500,79
24.93333,80
24.94167,82
24.95000,84
24.95833,85
24.96667,86
24.97500,87
24.98333,88
24.99167,89
25.00000,89
25.00833,90
25.01667,91
25.02500,92
25.03333,92
25.04167,93
25.05000,93
25.05833,93
25.06667,93
25.07500,93
25.08333,93
25.09167,93
25.10000,93
25.10833,93
25.11667,92
25.12500,92
25.13333,92
25.14167,92
25.15000,91
25.15833,91
25.16667,91
25.17500,91
25.18333,90
25.19167,89
25.20000,89
25.20833,88
25.21667,87
25.22500,86
25.23333,86
25.24167,84
25.25000,83
25.25833,82
25.26667,81
25.27500,80
25.28333,79
25.29167,78
25.30000,77
25.30833,76
25.31667,75
25.32500,74
25.33333,73
25.34167,72
25.35000,71
25.35833,70
25.36667,69
25.37500,68
25.38333,67
25.39167,66
25.40000,65
25.40833,64
25.41667,63
25.42500,62
25.43333,61
25.44167,61
25.45000,60
25.45833,59
25.46667,59
25.47500,58
25.48333,57
25.49167,57
25.50000,56
25.50833,55
25.51667,55
25.52500,54
25.53333,53
25.54167,53
25.55000,52
25.55833,51
25.56667,51
25.57500,50
25.58333,50
25.59167,49
25.60000,48
25.60833,47
25.61667,47
25.62500,46
25.63333,45
25.64167,45
25.65000,44
25.65833,44
25.66667,44
25.67500,43
25.68333,43
25.69167,42
25.70000,42
25.70833,41
25.71667,40
25.72500,40
25.73333,40
25.74167,40
25.75000,40
25.75833,39
25.76667,40
25.77500,40
25.78333,41
25.79167,41
25.80000,41
25.80833,41
25.81667,41
25.82500,41
25.83333,42
25.84167,42
25.85000,42
25.85833,42
25.86667,43
25.87500,43
25.88333,44
25.89167,45
25.90000,46
25.90833,46
25.91667,47
25.92500,48
25.93333,49
25.94167,49
25.95000,50
25.95833,51
25.96667,52
25.97500,52
25.98333,53
25.99167,54
26.00000,54
26.00833,55
26.01667,56
26.02500,57
26.03333,58
26.04167,59
26.05000,60
26.05833,60
26.06667,61
26.07500,62
26.08333,62
26.09167,63
26.10000,64
26.10833,64
26.11667,64
26.12500,64
26.13333,64
26.14167,65
26.15000,65
26.15833,65
26.16667,66
26.17500,66
26.18333,66
26.19167,65
26.20000,65
26.20833,65
26.21667,64
26.22500,64
26.23333,64
26.24167,64
26.25000,64
26.25833,63
26.26667,62
26.27500,62
26.28333,61
26.29167,61
26.30000,60
26.30833,60
26.31667,60
26.32500,59
26.33333,59
26.34167,58
26.35000,57
26.35833,56
26.36667,55
26.37500,54
26.38333,53
26.39167,53
26.40000,52
26.40833,51
26.41667,51
26.42500,51
26.43333,50
26.44167,49
26.45000,48
26.45833,48
26.46667,47
26.47500,47
26.48333,47
26.49167,46
26.50000,46
26.50833,45
26.51667,45
26.52500,44
26.53333,45
26.54167,45
26.55000,44
26.55833,44
26.56667,44
26.57500,43
26.58333,44
26.59167,44
26.60000,44
26.60833,44
26.61667,45
26.62500,45
26.63333,45
26.64167,45
26.65000,46
26.65833,46
26.66667,47
26.67500,47
26.68333,47
26.69167,48
26.70000,48
26.70833,48
26.71667,49
26.72500,49
26.73333,50
26.74167,50
26.75000,51
26.75833,52
26.76667,52
26.77500,53
26.78333,54
26.79167,54
26.80000,55
26.80833,56
26.81667,57
26.82500,57
26.83333,58
26.84167,58
26.85000,59
26.85833,59
26.86667,60
26.87500,60
26.88333,61
26.89167,61
26.90000,62
26.90833,62
26.91667,63
26.92500,63
26.93333,64
26.94167,64
26.95000,64
26.95833,65
26.96667,65
26.97500,65
26.98333,66
26.99167,66
27.00000,67
27.00833,68
27.01667,69
27.02500,69
27.03333,69
27.04167,70
27.05000,70
27.05833,70
27.06667,70
27.07500,71
27.08333,71
27.09167,72
27.10000,72
27.10833,73
27.11667,73
27.12500,73
27.13333,73
27.14167,73
27.15000,73
27.15833,73
27.16667,73
27.17500,73
27.18333,73
27.19167,73
27.20000,74
27.20833,74
27.21667,74
27.22500,74
27.23333,74
27.24167,74
27.25000,73
27.25833,73
27.26667,74
27.27500,73
27.28333,73
27.29167,73
27.30000,73
27.30833,72
27.31667,72
27.32500,71
27.33333,71
27.34167,71
27.35000,70
27.35833,70
27.36667,70
27.37500,69
27.38333,69
27.39167,69
27.40000,68
27.40833,68
27.41667,67
27.42500,67
27.43333,67
27.44167,66
27.45000,66
27.45833,65
27.46667,64
27.47500,64
27.48333,63
27.49167,63
27.50000,63
27.50833,62
27.51667,62
27.52500,62
27.53333,62
27.54167,61
27.55000,61
27.55833,60
27.56667,59
27.57500,59
27.58333,58
27.59167,58
27.60000,57
27.60833,57
27.61667,57
27.62500,57
27.63333,56
27.64167,56
27.65000,55
27.65833,54
27.66667,54
27.67500,53
27.68333,53
27.69167,52
27.70000,51
27.70833,51
27.71667,50
27.72500,49
27.73333,49
27.74167,48
27.75000,47
27.75833,46
27.76667,46
27.77500,45
27.78333,44
27.79167,43
27.80000,42
27.80833,41
27.81667,40
27.82500,39
27.83333,37
27.84167,36
27.85000,35
27.85833,33
27.86667,31
27.87500,29
27.88333,27
27.89167,25
27.90000,24
27.90833,22
27.91667,20
27.92500,17
27.93333,15
27.94167,13
27.95000,11
27.95833,8
27.96667,5
27.97500,3
27.98333,-0
27.99167,-3
28.00000,-6
28.00833,-9
28.01667,-12
28.02500,-16
28.03333,-20
28.04167,-23
28.05000,-27
28.05833,-30
28.06667,-33
28.07500,-37
28.08333,-40
28.09167,-44
28.10000,-47
28.10833,-51
28.11667,-54
28.12500,-58
28.13333,-62
28.14167,-65
28.15000,-69
28.15833,-73
28.16667,-77
28.17500,-81
28.18333,-85
28.19167,-89
28.20000,-92
28.20833,-95
28.21667,-98
28.22500,-101
28.23333,-104
28.24167,-106
28.25000,-109
28.25833,-111
28.26667,-113
28.27500,-115
28.28333,-117
28.29167,-119
28.30000,-121
28.30833,-123
28.31667,-124
28.32500,-125
28.33333,-126
28.34167,-127
28.35000,-128
28.35833,-128
28.36667,-128
28.37500,-127
28.38333,-127
28.39167,-126
28.40000,-126
28.40833,-125
28.41667,-124
28.42500,-122
28.43333,-120
28.44167,-119
28.45000,-117
28.45833,-115
28.46667,-113
28.47500,-111
28.48333,-109
28.49167,-106
28.50000,-104
28.50833,-101
28.51667,-98
28.52500,-96
28.53333,-93
28.54167,-90
28.55000,-87
28.55833,-83
28.56667,-80
28.57500,-77
28.58333,-73
28.59167,-70
28.60000,-67
28.60833,-64
28.61667,-61
28.62500,-58
28.63333,-55
28.64167,-52
28.65000,-49
28.65833,-46
28.66667,-42
28.67500,-39
28.68333,-36
28.69167,-33
28.70000,-30
28.70833,-27
28.71667,-24
28.72500,-21
28.73333,-18
28.74167,-16
28.75000,-13
28.75833,-11
28.76667,-9
28.77500,-7
28.78333,-5
28.79167,-3
28.80000,-1
28.80833,1
28.81667,3
28.82500,5
28.83333,6
28.84167,8
28.85000,9
28.85833,10
28.86667,12
28.87500,13
28.88333,14
28.89167,16
28.90000,17
28.90833,18
28.91667,19
28.92500,20
28.93333,21
28.94167,22
28.95000,23
28.95833,24
28.96667,25
28.97500,25
28.98333,26
28.99167,26
29.00000,27
29.00833,27
29.01667,28
29.02500,29
29.03333,29
29.04167,30
29.05000,31
29.05833,32
29.06667,32
29.07500,32
29.08333,32
29.09167,33
29.10000,33
29.10833,34
29.11667,35
29.12500,35
29.13333,35
29.14167,35
29.15000,36
29.15833,36
29.16667,37
29.17500,37
29.18333,37
29.19167,37
29.20000,37
29.20833,38
29.21667,38
29.22500,39
29.23333,39
29.24167,39
29.25000,39
29.25833,39
29.26667,40
29.27500,41
29.28333,41
29.29167,41
29.30000,41
29.30833,41
29.31667,41
29.32500,41
29.33333,41
29.34167,41
29.35000,41
29.35833,41
29.36667,41
29.37500,41
29.38333,41
29.39167,41
29.40000,41
29.40833,41
29.41667,41
29.42500,41
29.43333,40
29.44167,40
29.45000,41
29.45833,41
29.46667,41
29.47500,41
29.48333,41
29.49167,40
29.50000,40
29.50833,40
29.51667,39
29.52500,39
29.53333,39
29.54167,38
29.55000,38
29.55833,38
29.56667,38
29.57500,38
29.58333,37
29.59167,37
29.60000,36
29.60833,35
29.61667,35
29.62500,34
29.63333,33
29.64167,33
29.65000,32
29.65833,31
29.66667,30
29.67500,29
29.68333,29
29.69167,28
29.70000,27
29.70833,26
29.71667,25
29.72500,24
29.73333,23
29.74167,22
29.75000,20
29.75833,19
29.76667,18
29.77500,16
29.78333,15
29.79167,13
29.80000,12
29.80833,11
29.81667,9
29.82500,8
29.83333,7
29.84167,5
29.85000,4
29.85833,2
29.86667,1
29.87500,-0
29.88333,-2
29.89167,-3
29.90000,-5
29.90833,-6
29.91667,-7
29.92500,-9
29.93333,-10
29.94167,-11
29.95000,-13
29.95833,-14
29.96667,-15
29.97500,-16
29.98333,-17
29.99167,-18
30.00000,-20
30.00833,-21
30.01667,-22
30.02500,-23
30.03333,-23
30.04167,-24
30.05000,-25
30.05833,-25
30.06667,-25
30.07500,-25
30.08333,-26
30.09167,-25
30.10000,-25
30.10833,-25
30.11667,-25
30.12500,-26
30.13333,-25
30.14167,-26
30.15000,-26
30.15833,-25
30.16667,-25
30.17500,-24
30.18333,-23
30.19167,-23
30.20000,-22
30.20833,-22
30.21667,-21
30.22500,-20
30.23333,-19
30.24167,-18
30.25000,-16
30.25833,-15
30.26667,-14
30.27500,-13
30.28333,-11
30.29167,-10
30.30000,-9
30.30833,-7
30.31667,-6
30.32500,-5
30.33333,-3
30.34167,-2
30.35000,-1
30.35833,1
30.36667,2
30.37500,4
30.38333,5
30.39167,7
30.40000,8
30.40833,10
30.41667,11
30.42500,12
30.43333,13
30.44167,15
30.45000,16
30.45833,17
30.46667,18
30.47500,19
30.48333,20
30.49167,21
30.50000,21
30.50833,22
30.51667,23
30.52500,24
30.53333,25
30.54167,26
30.55000,27
30.55833,28
30.56667,29
30.57500,30
30.58333,30
30.59167,31
30.60000,31
30.60833,32
30.61667,32
30.62500,33
30.63333,34
30.64167,34
30.65000,35
30.65833,35
30.66667,36
30.67500,36
30.68333,36
30.69167,37
30.70000,37
30.70833,38
30.71667,38
30.72500,38
30.73333,38
30.74167,38
30.75000,38
30.75833,39
30.76667,40
30.77500,40
30.78333,41
30.79167,42
30.80000,42
30.80833,43
30.81667,43
30.82500,43
30.83333,44
30.84167,44
30.85000,44
30.85833,45
30.86667,46
30.87500,46
30.88333,47
30.89167,47
30.90000,47
30.90833,47
30.91667,47
30.92500,47
30.93333,48
30.94167,48
30.95000,48
30.95833,48
30.96667,49
30.97500,49
30.98333,50
30.99167,50
31.00000,50
31.00833,50
31.01667,50
31.02500,50
31.03333,50
31.04167,51
31.05000,51
31.05833,51
31.06667,51
31.07500,51
31.08333,51
31.09167,51
31.10000,51
31.10833,51
31.11667,51
31.12500,51
31.13333,52
31.14167,52
31.15000,51
31.15833,51
31.16667,52
31.17500,52
31.18333,52
31.19167,52
31.20000,52
31.20833,52
31.21667,52
31.22500,53
31.23333,53
31.24167,54
31.25000,54
31.25833,54
31.26667,54
31.27500,54
31.28333,54
31.29167,54
31.30000,54
31.30833,54
31.31667,54
31.32500,54
31.33333,54
31.34167,54
31.35000,54
31.35833,54
31.36667,54
31.37500,54
31.38333,54
31.39167,53
31.40000,53
31.40833,53
31.41667,53
31.42500,54
31.43333,54
31.44167,54
31.45000,54
31.45833,54
31.46667,54
31.47500,54
31.48333,54
31.49167,54
31.50000,54
31.50833,54
31.51667,54
31.52500,54
31.53333,53
31.54167,53
31.55000,53
31.55833,53
31.56667,53
31.57500,53
31.58333,53
31.59167,52
31.60000,52
31.60833,52
31.61667,52
31.62500,51
31.63333,51
31.64167,51
31.65000,51
31.65833,50
31.66667,50
31.67500,50
31.68333,50
31.69167,49
31.70000,49
31.70833,48
31.71667,48
31.72500,47
31.73333,47
31.74167,47
31.75000,47
31.75833,46
31.76667,46
31.77500,45
31.78333,45
31.79167,45
31.80000,45
31.80833,44
31.81667,43
31.82500,43
31.83333,43
31.84167,42
31.85000,42
31.85833,42
31.86667,42
31.87500,42
31.88333,42
31.89167,41
31.90000,41
31.90833,41
31.91667,41
31.92500,41
31.93333,41
31.94167,41
31.95000,41
31.95833,41
31.96667,41
31.97500,41
31.98333,41
31.99167,41
32.00000,40
32.00833,40
32.01667,40
32.02500,40
32.03333,41
32.04167,41
32.05000,41
32.05833,41
32.06667,41
32.07500,42
32.08333,42
32.09167,42
32.10000,42
32.10833,42
32.11667,42
32.12500,43
32.13333,43
32.14167,43
32.15000,43
32.15833,43
32.16667,43
32.17500,43
32.18333,43
32.19167,44
32.20000,44
32.20833,44
32.21667,44
32.22500,44
32.23333,44
32.24167,43
32.25000,43
32.25833,43
32.26667,44
32.27500,44
32.28333,44
32.29167,44
32.30000,44
32.30833,44
32.31667,44
32.32500,44
32.33333,44
32.34167,44
32.35000,44
32.35833,44
32.36667,44
32.37500,44
32.38333,44
32.39167,45
32.40000,45
32.40833,45
32.41667,45
32.42500,45
32.43333,44
32.44167,45
32.45000,45
32.45833,45
32.46667,45
32.47500,45
32.48333,46
32.49167,46
32.50000,46
32.50833,46
32.51667,46
32.52500,47
32.53333,47
32.54167,47
32.55000,47
32.55833,47
32.56667,47
32.57500,47
32.58333,48
32.59167,48
32.60000,48
32.60833,49
32.61667,49
32.62500,49
32.63333,48
32.64167,48
32.65000,48
32.65833,48
32.66667,48
32.67500,49
32.68333,49
32.69167,49
32.70000,49
32.70833,49
32.71667,49
32.72500,50
32.73333,50
32.74167,50
32.75000,50
32.75833,50
32.76667,51
32.77500,51
32.78333,51
32.79167,52
32.80000,52
32.80833,52
32.81667,52
32.82500,52
32.83333,52
32.84167,52
32.85000,53
32.85833,53
32.86667,53
32.87500,54
32.88333,54
32.89167,54
32.90000,54
32.90833,54
32.91667,54
32.92500,54
32.93333,54
32.94167,54
32.95000,54
32.95833,54
32.96667,55
32.97500,55
32.98333,55
32.99167,55
33.00000,54
33.00833,54
33.01667,54
33.02500,54
33.03333,53
33.04167,53
33.05000,53
33.05833,52
33.06667,52
33.07500,52
33.08333,52
33.09167,52
33.10000,51
33.10833,51
33.11667,51
33.12500,51
33.13333,51
33.14167,51
33.15000,51
33.15833,50
33.16667,50
33.17500,50
33.18333,50
33.19167,49
33.20000,49
33.20833,49
33.21667,48
33.22500,48
33.23333,47
33.24167,47
33.25000,47
33.25833,47
33.26667,46
33.27500,46
33.28333,46
33.29167,45
33.30000,45
33.30833,45
33.31667,44
33.32500,44
33.33333,44
33.34167,44
33.35000,43
33.35833,43
33.36667,43
33.37500,43
33.38333,42
33.39167,42
33.40000,42
33.40833,41
33.41667,41
33.42500,41
33.43333,41
33.44167,41
33.45000,41
33.45833,41
33.46667,41
33.47500,41
33.48333,41
33.49167,42
33.50000,42
33.50833,42
33.51667,42
33.52500,41
33.53333,41
33.54167,41
33.55000,41
33.55833,41
33.56667,41
33.57500,42
33.58333,42
33.59167,42
33.60000,43
33.60833,43
33.61667,43
33.62500,44
33.63333,44
33.64167,45
33.65000,45
33.65833,45
33.66667,46
33.67500,46
33.68333,47
33.69167,48
33.70000,48
33.70833,49
33.71667,50
33.72500,50
33.73333,51
33.74167,51
33.75000,51
33.75833,52
33.76667,52
33.77500,52
33.78333,53
33.79167,53
33.80000,53
33.80833,54
33.81667,55
33.82500,55
33.83333,56
33.84167,56
33.85000,56
33.85833,56
33.86667,56
33.87500,57
33.88333,57
33.89167,57
33.90000,58
33.90833,58
33.91667,59
33.92500,59
33.93333,59
33.94167,59
33.95000,59
33.95833,59
33.96667,59
33.97500,59
33.98333,59
33.99167,59
34.00000,59
34.00833,59
34.01667,60
34.02500,60
34.03333,60
34.04167,60
34.05000,61
34.05833,61
34.06667,60
34.07500,60
34.08333,60
34.09167,60
34.10000,60
34.10833,60
34.11667,61
34.12500,61
34.13333,61
34.14167,61
34.15000,61
34.15833,61
34.16667,61
34.17500,61
34.18333,61
34.19167,60
34.20000,60
34.20833,60
34.21667,60
34.22500,60
34.23333,61
34.24167,60
34.25000,60
34.25833,60
34.26667,60
34.27500,60
34.28333,60
34.29167,60
34.30000,60
34.30833,59
34.31667,59
34.32500,58
34.33333,58
34.34167,57
34.35000,57
34.35833,56
34.36667,56
34.37500,56
34.38333,55
34.39167,55
34.40000,55
34.40833,55
34.41667,55
34.42500,55
34.43333,54
34.44167,53
34.45000,53
34.45833,52
34.46667,52
34.47500,52
34.48333,52
34.49167,52
34.50000,51
34.50833,51
34.51667,51
34.52500,51
34.53333,51
34.54167,51
34.55000,51
34.55833,50
34.56667,50
34.57500,50
34.58333,50
34.59167,50
34.60000,49
34.60833,49
34.61667,49
34.62500,49
34.63333,49
34.64167,49
34.65000,49
34.65833,49
34.66667,48
34.67500,48
34.68333,48
34.69167,48
34.70000,48
34.70833,48
34.71667,48
34.72500,48
34.73333,48
34.74167,48
34.75000,48
34.75833,47
34.76667,47
34.77500,46
34.78333,46
34.79167,46
34.80000,46
34.80833,45
34.81667,45
34.82500,45
34.83333,45
34.84167,45
34.85000,45
34.85833,45
34.86667,44
34.87500,44
34.88333,43
34.89167,43
34.90000,42
34.90833,42
34.91667,41
34.92500,41
34.93333,41
34.94167,41
34.95000,41
34.95833,41
34.96667,40
34.97500,40
34.98333,40
34.99167,40
35.00000,39
35.00833,39
35.01667,38
35.02500,38
35.03333,37
35.04167,36
35.05000,36
35.05833,35
35.06667,35
35.07500,34
35.08333,34
35.09167,34
35.10000,33
35.10833,33
35.11667,33
35.12500,32
35.13333,32
35.14167,31
35.15000,31
35.15833,30
35.16667,29
35.17500,28
35.18333,28
35.19167,28
35.20000,27
35.20833,27
35.21667,26
35.22500,26
35.23333,25
35.24167,25
35.25000,25
35.25833,25
35.26667,25
35.27500,24
35.28333,24
35.29167,24
35.30000,23
35.30833,23
35.31667,23
35.32500,23
35.33333,23
35.34167,23
35.35000,22
35.35833,22
35.36667,22
35.37500,22
35.38333,22
35.39167,23
35.40000,23
35.40833,23
35.41667,23
35.42500,23
35.43333,23
35.44167,23
35.45000,24
35.45833,24
35.46667,25
35.47500,25
35.48333,26
35.49167,26
35.50000,26
35.50833,26
35.51667,26
35.52500,26
35.53333,27
35.54167,27
35.55000,27
35.55833,28
35.56667,28
35.57500,28
35.58333,29
35.59167,29
35.60000,29
35.60833,29
35.61667,29
35.62500,29
35.63333,29
35.64167,30
35.65000,30
35.65833,30
35.66667,30
35.67500,30
35.68333,30
35.69167,30
35.70000,30
35.70833,31
35.71667,31
35.72500,31
35.73333,30
35.74167,30
35.75000,30
35.75833,30
35.76667,31
35.77500,31
35.78333,31
35.79167,30
35.80000,30
35.80833,30
35.81667,30
35.82500,30
35.83333,30
35.84167,31
35.85000,31
35.85833,31
35.86667,31
35.87500,32
35.88333,32
35.89167,33
35.90000,33
35.90833,33
35.91667,33
35.92500,34
35.93333,34
35.94167,35
35.95000,35
35.95833,36
35.96667,37
35.97500,37
35.98333,38
35.99167,39
36.00000,40
36.00833,41
36.01667,42
36.02500,43
36.03333,44
36.04167,45
36.05000,46
36.05833,47
36.06667,48
36.07500,49
36.08333,50
36.09167,50
36.10000,51
36.10833,51
36.11667,52
36.12500,53
36.13333,54
36.14167,54
36.15000,55
36.15833,56
36.16667,56
36.17500,57
36.18333,57
36.19167,58
36.20000,59
36.20833,59
36.21667,60
36.22500,60
36.23333,60
36.24167,60
36.25000,60
36.25833,61
36.26667,61
36.27500,61
36.28333,61
36.29167,61
36.30000,61
36.30833,61
36.31667,61
36.32500,61
36.33333,61
36.34167,60
36.35000,60
36.35833,60
36.36667,60
36.37500,60
36.38333,60
36.39167,59
36.40000,59
36.40833,58
36.41667,58
36.42500,57
36.43333,57
36.44167,56
36.45000,56
36.45833,55
36.46667,55
36.47500,55
36.48333,54
36.49167,54
36.50000,53
36.50833,53
36.51667,53
36.52500,52
36.53333,52
36.54167,52
36.55000,52
36.55833,52
36.56667,52
36.57500,52
36.58333,52
36.59167,52
36.60000,52
36.60833,52
36.61667,52
36.62500,52
36.63333,52
36.64167,52
36.65000,53
36.65833,53
36.66667,53
36.67500,53
36.68333,54
36.69167,54
36.70000,54
36.70833,54
36.71667,54
36.72500,55
36.73333,55
36.74167,56
36.75000,56
36.75833,57
36.76667,57
36.77500,57
36.78333,58
36.79167,58
36.80000,58
36.80833,58
36.81667,58
36.82500,58
36.83333,59
36.84167,59
36.85000,60
36.85833,60
36.86667,60
36.87500,59
36.88333,59
36.89167,60
36.90000,60
36.90833,60
36.91667,60
36.92500,60
36.93333,59
36.94167,59
36.95000,59
36.95833,58
36.96667,58
36.97500,58
36.98333,58
36.99167,57
37.00000,57
37.00833,56
37.01667,56
37.02500,55
37.03333,54
37.04167,53
37.05000,52
37.05833,52
37.06667,52
37.07500,51
37.08333,50
37.09167,49
37.10000,49
37.10833,48
37.11667,47
37.12500,46
37.13333,46
37.14167,46
37.15000,45
37.15833,44
37.16667,43
37.17500,42
37.18333,41
37.19167,41
37.20000,40
37.20833,39
37.21667,38
37.22500,37
37.23333,37
37.24167,36
37.25000,36
37.25833,35
37.26667,34
37.27500,34
37.28333,33
37.29167,33
37.30000,32
37.30833,31
37.31667,30
37.32500,29
37.33333,29
37.34167,28
37.35000,28
37.35833,27
37.36667,27
37.37500,26
37.38333,26
37.39167,25
37.40000,25
37.40833,24
37.41667,24
37.42500,23
37.43333,23
37.44167,22
37.45000,22
37.45833,22
37.46667,22
37.47500,22
37.48333,22
37.49167,22
37.50000,22
37.50833,22
37.51667,22
37.52500,23
37.53333,23
37.54167,24
37.55000,24
37.55833,24
37.56667,25
37.57500,26
37.58333,26
37.59167,27
37.60000,28
37.60833,28
37.61667,29
37.62500,30
37.63333,31
37.64167,32
37.65000,33
37.65833,34
37.66667,35
37.67500,36
37.68333,37
37.69167,38
37.70000,39
37.70833,40
37.71667,41
37.72500,42
37.73333,44
37.74167,45
37.75000,46
37.75833,47
37.76667,49
37.77500,50
37.78333,51
37.79167,52
37.80000,53
37.80833,53
37.81667,54
37.82500,55
37.83333,56
37.84167,57
37.85000,57
37.85833,58
37.86667,59
37.87500,60
37.88333,60
37.89167,61
37.90000,61
37.90833,62
37.91667,63
37.92500,63
37.93333,64
37.94167,64
37.95000,64
37.95833,64
37.96667,64
37.97500,64
37.98333,64
37.99167,64
38.00000,64
38.00833,64
38.01667,63
38.02500,63
38.03333,63
38.04167,62
38.05000,62
38.05833,61
38.06667,61
38.07500,60
38.08333,60
38.09167,60
38.10000,59
38.10833,59
38.11667,59
38.12500,58
38.13333,58
38.14167,57
38.15000,57
38.15833,57
38.16667,56
38.17500,56
38.18333,55
38.19167,55
38.20000,54
38.20833,54
38.21667,53
38.22500,53
38.23333,53
38.24167,53
38.25000,53
38.25833,53
38.26667,53
38.27500,53
38.28333,53
38.29167,53
38.30000,53
38.30833,53
38.31667,53
38.32500,54
38.33333,54
38.34167,54
38.35000,54
38.35833,54
38.36667,54
38.37500,54
38.38333,55
38.39167,55
38.40000,56
38.40833,56
38.41667,56
38.42500,57
38.43333,57
38.44167,57
38.45000,58
38.45833,58
38.46667,58
38.47500,59
38.48333,60
38.49167,60
38.50000,60
38.50833,61
38.51667,61
38.52500,61
38.53333,61
38.54167,61
38.55000,61
38.55833,61
38.56667,62
38.57500,62
38.58333,62
38.59167,62
38.60000,62
38.60833,63
38.61667,63
38.62500,63
38.63333,62
38.64167,62
38.65000,62
38.65833,62
38.66667,62
38.67500,62
38.68333,62
38.69167,62
38.70000,62
38.70833,62
38.71667,62
38.72500,62
38.73333,62
38.74167,62
38.75000,61
38.75833,61
38.76667,61
38.77500,61
38.78333,60
38.79167,60
38.80000,60
38.80833,60
38.81667,60
38.82500,60
38.83333,59
38.84167,59
38.85000,58
38.85833,58
38.86667,59
38.87500,59
38.88333,59
38.89167,59
38.90000,59
38.90833,59
38.91667,59
38.92500,59
38.93333,59
38.94167,59
38.95000,59
38.95833,58
38.96667,58
38.97500,57
38.98333,57
38.99167,57
39.00000,57
39.00833,57
39.01667,57
39.02500,56
39.03333,56
39.04167,56
39.05000,56
39.05833,56
39.06667,57
39.07500,57
39.08333,57
39.09167,57
39.10000,57
39.10833,57
39.11667,56
39.12500,56
39.13333,56
39.14167,56
39.15000,55
39.15833,55
39.16667,55
39.17500,55
39.18333,55
39.19167,55
39.20000,55
39.20833,55
39.21667,55
39.22500,55
39.23333,55
39.24167,55
39.25000,55
39.25833,55
39.26667,55
39.27500,55
39.28333,54
39.29167,54
39.30000,54
39.30833,54
39.31667,53
39.32500,53
39.33333,53
39.34167,53
39.35000,53
39.35833,53
39.36667,54
39.37500,54
39.38333,54
39.39167,53
39.40000,53
39.40833,53
39.41667,53
39.42500,53
39.43333,53
39.44167,54
39.45000,54
39.45833,53
39.46667,53
39.47500,53
39.48333,53
39.49167,53
39.50000,53
39.50833,52
39.51667,52
39.52500,52
39.53333,52
39.54167,52
39.55000,52
39.55833,52
39.56667,52
39.57500,52
39.58333,52
39.59167,52
39.60000,52
39.60833,52
39.61667,52
39.62500,52
39.63333,53
39.64167,53
39.65000,53
39.65833,52
39.66667,52
39.67500,52
39.68333,52
39.69167,53
39.70000,53
39.70833,52
39.71667,52
39.72500,52
39.73333,52
39.74167,52
39.75000,52
39.75833,52
39.76667,51
39.77500,51
39.78333,51
39.79167,51
39.80000,51
39.80833,51
39.81667,51
39.82500,51
39.83333,51
39.84167,51
39.85000,51
39.85833,51
39.86667,51
39.87500,51
39.88333,51
39.89167,51
39.90000,50
39.90833,50
39.91667,50
39.92500,50
39.93333,50
39.94167,50
39.95000,49
39.95833,49
39.96667,48
39.97500,48
39.98333,48
39.99167,48
40.00000,48

