[Header]
Application Name,LabSolutions
Version,5.97 SP1
Data File Name,C:\Users\cremerlab\Desktop\griffin\2021-04-05_NC_DM_calibration\2021-04-05_NC_DM_2.5mM_calibration_452021_007_007.lcd
Output Date,4/5/2021
Output Time,9:47:19 PM

[File Information]
Type,Data File
Generated,4/5/2021 9:06:59 PM
Generated by,System Administrator
Modified,4/5/2021 9:47:19 PM
Modified by,System Administrator

[Sample Information]
Operator Name,System Administrator
Acquired,4/5/2021 9:07:18 PM
Sample Type,1:Standard
Level,7
Sample Name,2021-04-05_NC_glucose_glycerol_acetate_03mM
Sample ID,007
ISTD Amount1,1
ISTD Amount2,1
ISTD Amount3,1
ISTD Amount4,1
ISTD Amount5,1
ISTD Amount6,1
ISTD Amount7,1
ISTD Amount8,1
ISTD Amount9,1
ISTD Amount10,1
ISTD Amount11,1
ISTD Amount12,1
ISTD Amount13,1
ISTD Amount14,1
ISTD Amount15,1
ISTD Amount16,1
ISTD Amount17,1
ISTD Amount18,1
ISTD Amount19,1
ISTD Amount20,1
ISTD Amount21,1
ISTD Amount22,1
ISTD Amount23,1
ISTD Amount24,1
ISTD Amount25,1
ISTD Amount26,1
ISTD Amount27,1
ISTD Amount28,1
ISTD Amount29,1
ISTD Amount30,1
ISTD Amount31,1
ISTD Amount32,1
Sample Amount,1
Dilution Factor,1
Vial#,7
Injection Volume,20

[Original Files]
Data File,C:\Users\cremerlab\Desktop\griffin\2021-04-05_NC_DM_calibration\2021-04-05_NC_DM_2.5mM_calibration_452021_007_007.lcd
Method File,C:\Users\cremerlab\Desktop\griffin\2021-04-05_NC_DM_calibration\2021-04-05_2.5mM_mobile.lcm
Batch File,C:\Users\cremerlab\Desktop\griffin\2021-04-05_NC_DM_calibration\2021-04-05_NC_DM_2.5mM_calibration.lcb
Report Format File,c:\LabSolutions\System\DEFAULT.lsr

[File Description]


[Configuration]
Instrument Name,HPLC-PC-Instrument1
Instrument #,1
Line #,1
# of Detectors,2
Detector ID,Detector A,Detector B
Detector Name,Detector A,Detector B
# of Channels,1,1

[Peak Table(Detector A)]
# of Peaks,0

[Peak Table(Detector B)]
# of Peaks,5
Peak#,R.Time,I.Time,F.Time,Area,Height,A/H,Conc.,Mark,ID#,Name,k',Plate #,Plate Ht.,Tailing,Resolution,Sep.Factor,Area Ratio,Height Ratio,Conc. %,Norm Conc.
1,11.000,10.600,12.492,1387138,80630,17.204,25.842,   ,,,0.000,9451,15.872,0.957,0.000,0.000,0,0,0.000,0.000
2,14.350,12.625,15.142,3560425,81209,43.843,66.330,   ,,,0.305,2875,52.172,0.618,4.399,0.000,0,0,0.000,0.000
3,15.660,15.142,17.567,301384,11747,25.655,5.615, V ,,,0.424,9280,16.164,1.123,1.522,1.391,0,0,0.000,0.000
4,22.052,21.425,22.842,82886,3035,27.309,1.544,   ,,,1.005,14840,10.108,1.079,9.302,2.372,0,0,0.000,0.000
5,25.018,24.375,25.758,35877,1221,29.392,0.668,   ,,,1.274,16333,9.184,1.036,3.936,1.268,0,0,0.000,0.000

[LC Chromatogram(Detector B-Ch1)]
Interval(msec),500
# of Points,4801
Start Time(min),0.000
End Time(min),40.000
Intensity Units,mV
Intensity Multiplier,0.001
R.Time (min),Intensity
0.00000,5
0.00833,5
0.01667,2
0.02500,3
0.03333,4
0.04167,6
0.05000,7
0.05833,8
0.06667,9
0.07500,11
0.08333,13
0.09167,14
0.10000,16
0.10833,17
0.11667,19
0.12500,20
0.13333,21
0.14167,22
0.15000,23
0.15833,24
0.16667,25
0.17500,26
0.18333,27
0.19167,28
0.20000,29
0.20833,30
0.21667,31
0.22500,32
0.23333,32
0.24167,33
0.25000,34
0.25833,34
0.26667,34
0.27500,34
0.28333,35
0.29167,35
0.30000,35
0.30833,35
0.31667,35
0.32500,35
0.33333,35
0.34167,35
0.35000,35
0.35833,35
0.36667,35
0.37500,35
0.38333,34
0.39167,34
0.40000,34
0.40833,34
0.41667,34
0.42500,34
0.43333,33
0.44167,33
0.45000,32
0.45833,32
0.46667,31
0.47500,30
0.48333,30
0.49167,29
0.50000,28
0.50833,27
0.51667,27
0.52500,26
0.53333,26
0.54167,25
0.55000,25
0.55833,24
0.56667,23
0.57500,23
0.58333,22
0.59167,22
0.60000,21
0.60833,21
0.61667,20
0.62500,19
0.63333,19
0.64167,18
0.65000,17
0.65833,16
0.66667,15
0.67500,15
0.68333,14
0.69167,13
0.70000,12
0.70833,11
0.71667,11
0.72500,10
0.73333,10
0.74167,9
0.75000,8
0.75833,7
0.76667,7
0.77500,7
0.78333,6
0.79167,6
0.80000,6
0.80833,5
0.81667,5
0.82500,5
0.83333,5
0.84167,5
0.85000,5
0.85833,5
0.86667,5
0.87500,5
0.88333,5
0.89167,5
0.90000,5
0.90833,5
0.91667,6
0.92500,6
0.93333,6
0.94167,7
0.95000,7
0.95833,7
0.96667,8
0.97500,8
0.98333,8
0.99167,9
1.00000,10
1.00833,10
1.01667,11
1.02500,11
1.03333,12
1.04167,12
1.05000,12
1.05833,13
1.06667,14
1.07500,14
1.08333,14
1.09167,14
1.10000,14
1.10833,14
1.11667,14
1.12500,15
1.13333,15
1.14167,15
1.15000,15
1.15833,15
1.16667,14
1.17500,14
1.18333,14
1.19167,14
1.20000,14
1.20833,14
1.21667,13
1.22500,13
1.23333,13
1.24167,13
1.25000,13
1.25833,13
1.26667,13
1.27500,13
1.28333,13
1.29167,12
1.30000,12
1.30833,12
1.31667,11
1.32500,12
1.33333,11
1.34167,11
1.35000,11
1.35833,11
1.36667,11
1.37500,10
1.38333,10
1.39167,10
1.40000,11
1.40833,11
1.41667,11
1.42500,11
1.43333,11
1.44167,12
1.45000,12
1.45833,12
1.46667,13
1.47500,13
1.48333,13
1.49167,13
1.50000,13
1.50833,13
1.51667,14
1.52500,15
1.53333,16
1.54167,16
1.55000,17
1.55833,18
1.56667,18
1.57500,19
1.58333,20
1.59167,20
1.60000,21
1.60833,21
1.61667,22
1.62500,23
1.63333,23
1.64167,24
1.65000,25
1.65833,25
1.66667,25
1.67500,25
1.68333,26
1.69167,26
1.70000,27
1.70833,27
1.71667,27
1.72500,27
1.73333,26
1.74167,27
1.75000,27
1.75833,27
1.76667,27
1.77500,27
1.78333,27
1.79167,26
1.80000,26
1.80833,25
1.81667,25
1.82500,25
1.83333,24
1.84167,24
1.85000,23
1.85833,23
1.86667,23
1.87500,22
1.88333,22
1.89167,21
1.90000,20
1.90833,19
1.91667,19
1.92500,18
1.93333,17
1.94167,16
1.95000,16
1.95833,16
1.96667,15
1.97500,14
1.98333,14
1.99167,13
2.00000,13
2.00833,12
2.01667,12
2.02500,11
2.03333,11
2.04167,10
2.05000,10
2.05833,9
2.06667,9
2.07500,9
2.08333,9
2.09167,8
2.10000,8
2.10833,8
2.11667,8
2.12500,7
2.13333,7
2.14167,7
2.15000,7
2.15833,7
2.16667,7
2.17500,7
2.18333,7
2.19167,8
2.20000,7
2.20833,7
2.21667,7
2.22500,8
2.23333,8
2.24167,9
2.25000,9
2.25833,9
2.26667,10
2.27500,10
2.28333,11
2.29167,11
2.30000,12
2.30833,12
2.31667,13
2.32500,13
2.33333,13
2.34167,14
2.35000,15
2.35833,15
2.36667,16
2.37500,16
2.38333,17
2.39167,18
2.40000,18
2.40833,19
2.41667,19
2.42500,20
2.43333,20
2.44167,20
2.45000,21
2.45833,21
2.46667,21
2.47500,22
2.48333,22
2.49167,23
2.50000,23
2.50833,24
2.51667,24
2.52500,25
2.53333,26
2.54167,26
2.55000,27
2.55833,27
2.56667,27
2.57500,27
2.58333,27
2.59167,28
2.60000,28
2.60833,28
2.61667,29
2.62500,29
2.63333,29
2.64167,29
2.65000,29
2.65833,28
2.66667,28
2.67500,28
2.68333,28
2.69167,28
2.70000,28
2.70833,28
2.71667,28
2.72500,28
2.73333,28
2.74167,28
2.75000,28
2.75833,28
2.76667,27
2.77500,27
2.78333,27
2.79167,26
2.80000,26
2.80833,26
2.81667,25
2.82500,25
2.83333,24
2.84167,24
2.85000,24
2.85833,23
2.86667,22
2.87500,22
2.88333,21
2.89167,21
2.90000,20
2.90833,19
2.91667,19
2.92500,18
2.93333,18
2.94167,18
2.95000,18
2.95833,18
2.96667,17
2.97500,17
2.98333,17
2.99167,17
3.00000,17
3.00833,16
3.01667,16
3.02500,16
3.03333,16
3.04167,15
3.05000,15
3.05833,16
3.06667,16
3.07500,16
3.08333,16
3.09167,17
3.10000,17
3.10833,17
3.11667,17
3.12500,17
3.13333,17
3.14167,17
3.15000,17
3.15833,17
3.16667,17
3.17500,17
3.18333,17
3.19167,18
3.20000,18
3.20833,19
3.21667,19
3.22500,19
3.23333,19
3.24167,19
3.25000,19
3.25833,19
3.26667,20
3.27500,20
3.28333,20
3.29167,20
3.30000,21
3.30833,21
3.31667,21
3.32500,22
3.33333,21
3.34167,21
3.35000,21
3.35833,21
3.36667,21
3.37500,21
3.38333,22
3.39167,22
3.40000,22
3.40833,22
3.41667,22
3.42500,22
3.43333,22
3.44167,22
3.45000,21
3.45833,21
3.46667,21
3.47500,21
3.48333,21
3.49167,21
3.50000,21
3.50833,21
3.51667,21
3.52500,20
3.53333,20
3.54167,20
3.55000,20
3.55833,19
3.56667,19
3.57500,19
3.58333,18
3.59167,18
3.60000,18
3.60833,18
3.61667,18
3.62500,18
3.63333,18
3.64167,18
3.65000,18
3.65833,18
3.66667,18
3.67500,18
3.68333,18
3.69167,18
3.70000,18
3.70833,18
3.71667,17
3.72500,17
3.73333,17
3.74167,16
3.75000,16
3.75833,16
3.76667,16
3.77500,17
3.78333,17
3.79167,17
3.80000,17
3.80833,17
3.81667,17
3.82500,16
3.83333,16
3.84167,16
3.85000,16
3.85833,16
3.86667,17
3.87500,17
3.88333,17
3.89167,17
3.90000,17
3.90833,17
3.91667,16
3.92500,16
3.93333,16
3.94167,16
3.95000,16
3.95833,16
3.96667,16
3.97500,17
3.98333,17
3.99167,17
4.00000,17
4.00833,17
4.01667,17
4.02500,17
4.03333,17
4.04167,17
4.05000,16
4.05833,16
4.06667,16
4.07500,16
4.08333,16
4.09167,15
4.10000,15
4.10833,15
4.11667,15
4.12500,15
4.13333,15
4.14167,15
4.15000,14
4.15833,14
4.16667,13
4.17500,12
4.18333,12
4.19167,12
4.20000,12
4.20833,12
4.21667,11
4.22500,11
4.23333,11
4.24167,11
4.25000,11
4.25833,11
4.26667,11
4.27500,11
4.28333,11
4.29167,11
4.30000,11
4.30833,11
4.31667,11
4.32500,12
4.33333,12
4.34167,12
4.35000,12
4.35833,13
4.36667,13
4.37500,13
4.38333,14
4.39167,14
4.40000,14
4.40833,15
4.41667,16
4.42500,17
4.43333,18
4.44167,19
4.45000,19
4.45833,20
4.46667,20
4.47500,21
4.48333,21
4.49167,21
4.50000,22
4.50833,23
4.51667,24
4.52500,24
4.53333,25
4.54167,25
4.55000,26
4.55833,27
4.56667,27
4.57500,28
4.58333,28
4.59167,29
4.60000,29
4.60833,29
4.61667,30
4.62500,30
4.63333,31
4.64167,31
4.65000,32
4.65833,32
4.66667,32
4.67500,32
4.68333,32
4.69167,33
4.70000,33
4.70833,33
4.71667,34
4.72500,34
4.73333,34
4.74167,34
4.75000,34
4.75833,34
4.76667,34
4.77500,34
4.78333,33
4.79167,33
4.80000,33
4.80833,33
4.81667,33
4.82500,33
4.83333,33
4.84167,33
4.85000,32
4.85833,32
4.86667,32
4.87500,31
4.88333,31
4.89167,30
4.90000,31
4.90833,31
4.91667,31
4.92500,30
4.93333,30
4.94167,30
4.95000,30
4.95833,30
4.96667,29
4.97500,29
4.98333,29
4.99167,28
5.00000,28
5.00833,27
5.01667,27
5.02500,26
5.03333,26
5.04167,26
5.05000,26
5.05833,26
5.06667,26
5.07500,26
5.08333,26
5.09167,26
5.10000,26
5.10833,26
5.11667,25
5.12500,25
5.13333,25
5.14167,24
5.15000,24
5.15833,24
5.16667,24
5.17500,23
5.18333,23
5.19167,22
5.20000,22
5.20833,22
5.21667,21
5.22500,21
5.23333,20
5.24167,20
5.25000,20
5.25833,19
5.26667,19
5.27500,18
5.28333,18
5.29167,18
5.30000,17
5.30833,16
5.31667,16
5.32500,16
5.33333,16
5.34167,16
5.35000,16
5.35833,16
5.36667,16
5.37500,15
5.38333,15
5.39167,15
5.40000,15
5.40833,15
5.41667,15
5.42500,15
5.43333,14
5.44167,14
5.45000,14
5.45833,14
5.46667,13
5.47500,13
5.48333,13
5.49167,13
5.50000,13
5.50833,12
5.51667,12
5.52500,12
5.53333,12
5.54167,12
5.55000,13
5.55833,13
5.56667,14
5.57500,14
5.58333,14
5.59167,14
5.60000,14
5.60833,14
5.61667,15
5.62500,15
5.63333,15
5.64167,16
5.65000,16
5.65833,16
5.66667,16
5.67500,16
5.68333,16
5.69167,16
5.70000,17
5.70833,17
5.71667,17
5.72500,17
5.73333,18
5.74167,18
5.75000,18
5.75833,18
5.76667,18
5.77500,19
5.78333,19
5.79167,19
5.80000,19
5.80833,19
5.81667,20
5.82500,20
5.83333,20
5.84167,19
5.85000,19
5.85833,19
5.86667,19
5.87500,18
5.88333,18
5.89167,19
5.90000,19
5.90833,19
5.91667,19
5.92500,19
5.93333,19
5.94167,19
5.95000,19
5.95833,19
5.96667,19
5.97500,19
5.98333,19
5.99167,19
6.00000,19
6.00833,19
6.01667,20
6.02500,20
6.03333,20
6.04167,20
6.05000,21
6.05833,21
6.06667,21
6.07500,22
6.08333,22
6.09167,23
6.10000,24
6.10833,24
6.11667,24
6.12500,25
6.13333,25
6.14167,25
6.15000,26
6.15833,27
6.16667,27
6.17500,27
6.18333,28
6.19167,28
6.20000,29
6.20833,29
6.21667,30
6.22500,30
6.23333,30
6.24167,31
6.25000,31
6.25833,31
6.26667,31
6.27500,31
6.28333,31
6.29167,31
6.30000,31
6.30833,31
6.31667,31
6.32500,31
6.33333,31
6.34167,31
6.35000,31
6.35833,30
6.36667,30
6.37500,30
6.38333,30
6.39167,30
6.40000,30
6.40833,29
6.41667,28
6.42500,28
6.43333,28
6.44167,27
6.45000,27
6.45833,26
6.46667,25
6.47500,25
6.48333,25
6.49167,24
6.50000,24
6.50833,23
6.51667,23
6.52500,23
6.53333,23
6.54167,22
6.55000,22
6.55833,22
6.56667,21
6.57500,20
6.58333,20
6.59167,19
6.60000,19
6.60833,19
6.61667,19
6.62500,19
6.63333,19
6.64167,19
6.65000,19
6.65833,19
6.66667,20
6.67500,20
6.68333,20
6.69167,20
6.70000,21
6.70833,21
6.71667,21
6.72500,22
6.73333,22
6.74167,22
6.75000,23
6.75833,23
6.76667,23
6.77500,24
6.78333,24
6.79167,24
6.80000,24
6.80833,25
6.81667,25
6.82500,26
6.83333,27
6.84167,28
6.85000,28
6.85833,29
6.86667,29
6.87500,29
6.88333,30
6.89167,30
6.90000,31
6.90833,31
6.91667,31
6.92500,31
6.93333,31
6.94167,31
6.95000,32
6.95833,32
6.96667,32
6.97500,33
6.98333,33
6.99167,33
7.00000,34
7.00833,34
7.01667,34
7.02500,34
7.03333,34
7.04167,35
7.05000,35
7.05833,35
7.06667,35
7.07500,35
7.08333,34
7.09167,34
7.10000,34
7.10833,34
7.11667,34
7.12500,33
7.13333,33
7.14167,32
7.15000,32
7.15833,32
7.16667,32
7.17500,32
7.18333,31
7.19167,31
7.20000,31
7.20833,31
7.21667,30
7.22500,30
7.23333,29
7.24167,29
7.25000,29
7.25833,28
7.26667,28
7.27500,28
7.28333,28
7.29167,27
7.30000,26
7.30833,26
7.31667,25
7.32500,25
7.33333,24
7.34167,24
7.35000,23
7.35833,22
7.36667,22
7.37500,21
7.38333,20
7.39167,20
7.40000,19
7.40833,18
7.41667,17
7.42500,17
7.43333,16
7.44167,16
7.45000,15
7.45833,14
7.46667,14
7.47500,13
7.48333,12
7.49167,11
7.50000,10
7.50833,9
7.51667,9
7.52500,8
7.53333,8
7.54167,7
7.55000,7
7.55833,6
7.56667,6
7.57500,5
7.58333,5
7.59167,4
7.60000,4
7.60833,3
7.61667,3
7.62500,2
7.63333,2
7.64167,2
7.65000,1
7.65833,1
7.66667,1
7.67500,1
7.68333,1
7.69167,1
7.70000,1
7.70833,1
7.71667,1
7.72500,0
7.73333,0
7.74167,0
7.75000,0
7.75833,-0
7.76667,-0
7.77500,-0
7.78333,-0
7.79167,-0
7.80000,0
7.80833,0
7.81667,0
7.82500,1
7.83333,1
7.84167,2
7.85000,2
7.85833,3
7.86667,3
7.87500,4
7.88333,4
7.89167,5
7.90000,6
7.90833,7
7.91667,7
7.92500,8
7.93333,9
7.94167,10
7.95000,11
7.95833,11
7.96667,12
7.97500,12
7.98333,13
7.99167,14
8.00000,15
8.00833,16
8.01667,16
8.02500,17
8.03333,18
8.04167,18
8.05000,19
8.05833,20
8.06667,21
8.07500,22
8.08333,23
8.09167,24
8.10000,25
8.10833,26
8.11667,27
8.12500,27
8.13333,28
8.14167,28
8.15000,29
8.15833,29
8.16667,30
8.17500,31
8.18333,31
8.19167,32
8.20000,32
8.20833,33
8.21667,33
8.22500,33
8.23333,33
8.24167,34
8.25000,34
8.25833,34
8.26667,34
8.27500,34
8.28333,34
8.29167,35
8.30000,35
8.30833,35
8.31667,35
8.32500,35
8.33333,36
8.34167,35
8.35000,35
8.35833,34
8.36667,34
8.37500,34
8.38333,33
8.39167,33
8.40000,33
8.40833,33
8.41667,33
8.42500,32
8.43333,32
8.44167,32
8.45000,31
8.45833,31
8.46667,31
8.47500,31
8.48333,30
8.49167,30
8.50000,29
8.50833,29
8.51667,29
8.52500,29
8.53333,28
8.54167,28
8.55000,28
8.55833,28
8.56667,28
8.57500,27
8.58333,27
8.59167,27
8.60000,27
8.60833,27
8.61667,27
8.62500,26
8.63333,26
8.64167,25
8.65000,25
8.65833,25
8.66667,24
8.67500,24
8.68333,24
8.69167,23
8.70000,23
8.70833,23
8.71667,23
8.72500,22
8.73333,22
8.74167,22
8.75000,22
8.75833,22
8.76667,22
8.77500,22
8.78333,22
8.79167,22
8.80000,22
8.80833,22
8.81667,22
8.82500,23
8.83333,22
8.84167,22
8.85000,23
8.85833,23
8.86667,24
8.87500,24
8.88333,24
8.89167,24
8.90000,24
8.90833,24
8.91667,25
8.92500,25
8.93333,25
8.94167,26
8.95000,26
8.95833,26
8.96667,27
8.97500,28
8.98333,28
8.99167,28
9.00000,29
9.00833,29
9.01667,29
9.02500,29
9.03333,30
9.04167,30
9.05000,30
9.05833,30
9.06667,31
9.07500,32
9.08333,32
9.09167,33
9.10000,33
9.10833,33
9.11667,33
9.12500,34
9.13333,34
9.14167,33
9.15000,33
9.15833,33
9.16667,33
9.17500,33
9.18333,32
9.19167,32
9.20000,33
9.20833,33
9.21667,33
9.22500,32
9.23333,32
9.24167,31
9.25000,31
9.25833,31
9.26667,30
9.27500,30
9.28333,30
9.29167,30
9.30000,30
9.30833,29
9.31667,29
9.32500,28
9.33333,27
9.34167,27
9.35000,26
9.35833,26
9.36667,25
9.37500,24
9.38333,24
9.39167,23
9.40000,23
9.40833,23
9.41667,23
9.42500,23
9.43333,22
9.44167,21
9.45000,21
9.45833,20
9.46667,20
9.47500,19
9.48333,19
9.49167,19
9.50000,19
9.50833,19
9.51667,19
9.52500,19
9.53333,19
9.54167,19
9.55000,19
9.55833,19
9.56667,19
9.57500,19
9.58333,19
9.59167,19
9.60000,19
9.60833,19
9.61667,19
9.62500,19
9.63333,19
9.64167,20
9.65000,20
9.65833,21
9.66667,21
9.67500,22
9.68333,22
9.69167,22
9.70000,23
9.70833,23
9.71667,23
9.72500,23
9.73333,23
9.74167,23
9.75000,24
9.75833,24
9.76667,24
9.77500,24
9.78333,25
9.79167,25
9.80000,24
9.80833,24
9.81667,24
9.82500,25
9.83333,25
9.84167,25
9.85000,26
9.85833,26
9.86667,27
9.87500,27
9.88333,27
9.89167,28
9.90000,28
9.90833,28
9.91667,29
9.92500,29
9.93333,29
9.94167,29
9.95000,29
9.95833,29
9.96667,30
9.97500,30
9.98333,30
9.99167,30
10.00000,30
10.00833,31
10.01667,31
10.02500,31
10.03333,32
10.04167,31
10.05000,31
10.05833,32
10.06667,32
10.07500,32
10.08333,32
10.09167,32
10.10000,32
10.10833,32
10.11667,33
10.12500,33
10.13333,33
10.14167,33
10.15000,33
10.15833,33
10.16667,33
10.17500,33
10.18333,33
10.19167,33
10.20000,33
10.20833,33
10.21667,33
10.22500,33
10.23333,33
10.24167,33
10.25000,33
10.25833,33
10.26667,33
10.27500,33
10.28333,34
10.29167,34
10.30000,35
10.30833,35
10.31667,35
10.32500,35
10.33333,35
10.34167,35
10.35000,35
10.35833,35
10.36667,35
10.37500,35
10.38333,34
10.39167,34
10.40000,32
10.40833,30
10.41667,27
10.42500,22
10.43333,16
10.44167,7
10.45000,-5
10.45833,-21
10.46667,-42
10.47500,-68
10.48333,-101
10.49167,-141
10.50000,-188
10.50833,-245
10.51667,-310
10.52500,-383
10.53333,-463
10.54167,-549
10.55000,-639
10.55833,-729
10.56667,-816
10.57500,-894
10.58333,-959
10.59167,-1003
10.60000,-1021
10.60833,-1004
10.61667,-946
10.62500,-839
10.63333,-675
10.64167,-447
10.65000,-148
10.65833,230
10.66667,692
10.67500,1243
10.68333,1890
10.69167,2637
10.70000,3488
10.70833,4446
10.71667,5512
10.72500,6690
10.73333,7980
10.74167,9383
10.75000,10898
10.75833,12527
10.76667,14267
10.77500,16118
10.78333,18077
10.79167,20144
10.80000,22314
10.80833,24585
10.81667,26954
10.82500,29416
10.83333,31966
10.84167,34601
10.85000,37313
10.85833,40096
10.86667,42942
10.87500,45841
10.88333,48782
10.89167,51753
10.90000,54737
10.90833,57715
10.91667,60664
10.92500,63558
10.93333,66364
10.94167,69043
10.95000,71549
10.95833,73832
10.96667,75834
10.97500,77496
10.98333,78757
10.99167,79556
11.00000,79844
11.00833,79579
11.01667,78735
11.02500,77306
11.03333,75305
11.04167,72766
11.05000,69742
11.05833,66304
11.06667,62534
11.07500,58520
11.08333,54353
11.09167,50121
11.10000,45905
11.10833,41778
11.11667,37799
11.12500,34015
11.13333,30461
11.14167,27159
11.15000,24123
11.15833,21354
11.16667,18851
11.17500,16602
11.18333,14596
11.19167,12814
11.20000,11240
11.20833,9854
11.21667,8638
11.22500,7576
11.23333,6649
11.24167,5844
11.25000,5144
11.25833,4536
11.26667,4010
11.27500,3554
11.28333,3159
11.29167,2817
11.30000,2521
11.30833,2263
11.31667,2040
11.32500,1846
11.33333,1676
11.34167,1529
11.35000,1400
11.35833,1287
11.36667,1187
11.37500,1099
11.38333,1021
11.39167,953
11.40000,891
11.40833,836
11.41667,787
11.42500,742
11.43333,701
11.44167,665
11.45000,631
11.45833,600
11.46667,572
11.47500,546
11.48333,523
11.49167,501
11.50000,480
11.50833,461
11.51667,443
11.52500,426
11.53333,410
11.54167,395
11.55000,381
11.55833,368
11.56667,356
11.57500,344
11.58333,333
11.59167,323
11.60000,313
11.60833,303
11.61667,294
11.62500,286
11.63333,278
11.64167,270
11.65000,262
11.65833,255
11.66667,248
11.67500,241
11.68333,235
11.69167,229
11.70000,223
11.70833,217
11.71667,212
11.72500,207
11.73333,202
11.74167,198
11.75000,193
11.75833,188
11.76667,184
11.77500,180
11.78333,177
11.79167,173
11.80000,170
11.80833,167
11.81667,164
11.82500,161
11.83333,158
11.84167,155
11.85000,153
11.85833,150
11.86667,148
11.87500,146
11.88333,145
11.89167,144
11.90000,142
11.90833,141
11.91667,139
11.92500,138
11.93333,136
11.94167,135
11.95000,134
11.95833,133
11.96667,132
11.97500,131
11.98333,130
11.99167,129
12.00000,128
12.00833,126
12.01667,125
12.02500,124
12.03333,124
12.04167,123
12.05000,122
12.05833,122
12.06667,121
12.07500,120
12.08333,119
12.09167,119
12.10000,118
12.10833,117
12.11667,116
12.12500,116
12.13333,115
12.14167,114
12.15000,113
12.15833,113
12.16667,112
12.17500,111
12.18333,111
12.19167,111
12.20000,110
12.20833,109
12.21667,109
12.22500,108
12.23333,107
12.24167,106
12.25000,105
12.25833,105
12.26667,104
12.27500,104
12.28333,103
12.29167,102
12.30000,101
12.30833,101
12.31667,100
12.32500,99
12.33333,98
12.34167,97
12.35000,96
12.35833,96
12.36667,95
12.37500,95
12.38333,94
12.39167,94
12.40000,93
12.40833,93
12.41667,92
12.42500,92
12.43333,91
12.44167,90
12.45000,90
12.45833,89
12.46667,89
12.47500,89
12.48333,88
12.49167,87
12.50000,87
12.50833,87
12.51667,87
12.52500,87
12.53333,87
12.54167,87
12.55000,86
12.55833,86
12.56667,86
12.57500,86
12.58333,87
12.59167,87
12.60000,88
12.60833,88
12.61667,89
12.62500,90
12.63333,91
12.64167,91
12.65000,93
12.65833,94
12.66667,96
12.67500,99
12.68333,102
12.69167,106
12.70000,110
12.70833,116
12.71667,124
12.72500,133
12.73333,144
12.74167,158
12.75000,173
12.75833,192
12.76667,213
12.77500,238
12.78333,267
12.79167,300
12.80000,337
12.80833,380
12.81667,428
12.82500,481
12.83333,541
12.84167,607
12.85000,679
12.85833,758
12.86667,843
12.87500,935
12.88333,1034
12.89167,1141
12.90000,1254
12.90833,1375
12.91667,1503
12.92500,1637
12.93333,1779
12.94167,1927
12.95000,2083
12.95833,2245
12.96667,2413
12.97500,2587
12.98333,2767
12.99167,2954
13.00000,3146
13.00833,3345
13.01667,3548
13.02500,3756
13.03333,3969
13.04167,4187
13.05000,4410
13.05833,4638
13.06667,4870
13.07500,5107
13.08333,5348
13.09167,5593
13.10000,5842
13.10833,6094
13.11667,6350
13.12500,6611
13.13333,6874
13.14167,7142
13.15000,7412
13.15833,7687
13.16667,7964
13.17500,8245
13.18333,8528
13.19167,8815
13.20000,9105
13.20833,9397
13.21667,9693
13.22500,9992
13.23333,10294
13.24167,10598
13.25000,10905
13.25833,11216
13.26667,11529
13.27500,11845
13.28333,12165
13.29167,12486
13.30000,12810
13.30833,13137
13.31667,13467
13.32500,13799
13.33333,14134
13.34167,14473
13.35000,14814
13.35833,15157
13.36667,15504
13.37500,15854
13.38333,16205
13.39167,16560
13.40000,16918
13.40833,17278
13.41667,17641
13.42500,18006
13.43333,18375
13.44167,18747
13.45000,19122
13.45833,19499
13.46667,19879
13.47500,20263
13.48333,20649
13.49167,21038
13.50000,21430
13.50833,21826
13.51667,22224
13.52500,22625
13.53333,23029
13.54167,23437
13.55000,23847
13.55833,24261
13.56667,24679
13.57500,25099
13.58333,25522
13.59167,25949
13.60000,26380
13.60833,26813
13.61667,27250
13.62500,27690
13.63333,28133
13.64167,28580
13.65000,29031
13.65833,29485
13.66667,29943
13.67500,30404
13.68333,30869
13.69167,31337
13.70000,31810
13.70833,32286
13.71667,32766
13.72500,33250
13.73333,33738
13.74167,34230
13.75000,34725
13.75833,35224
13.76667,35728
13.77500,36235
13.78333,36747
13.79167,37262
13.80000,37782
13.80833,38306
13.81667,38835
13.82500,39367
13.83333,39904
13.84167,40445
13.85000,40990
13.85833,41541
13.86667,42095
13.87500,42655
13.88333,43219
13.89167,43787
13.90000,44361
13.90833,44939
13.91667,45522
13.92500,46109
13.93333,46702
13.94167,47299
13.95000,47902
13.95833,48510
13.96667,49123
13.97500,49741
13.98333,50364
13.99167,50992
14.00000,51625
14.00833,52264
14.01667,52908
14.02500,53558
14.03333,54213
14.04167,54874
14.05000,55541
14.05833,56213
14.06667,56892
14.07500,57576
14.08333,58266
14.09167,58962
14.10000,59665
14.10833,60373
14.11667,61087
14.12500,61808
14.13333,62535
14.14167,63268
14.15000,64008
14.15833,64755
14.16667,65508
14.17500,66268
14.18333,67035
14.19167,67808
14.20000,68588
14.20833,69375
14.21667,70169
14.22500,70970
14.23333,71778
14.24167,72593
14.25000,73414
14.25833,74241
14.26667,75071
14.27500,75902
14.28333,76729
14.29167,77543
14.30000,78333
14.30833,79083
14.31667,79773
14.32500,80375
14.33333,80857
14.34167,81184
14.35000,81315
14.35833,81209
14.36667,80828
14.37500,80133
14.38333,79095
14.39167,77691
14.40000,75909
14.40833,73750
14.41667,71226
14.42500,68364
14.43333,65199
14.44167,61778
14.45000,58156
14.45833,54392
14.46667,50549
14.47500,46688
14.48333,42868
14.49167,39141
14.50000,35553
14.50833,32142
14.51667,28936
14.52500,25955
14.53333,23208
14.54167,20700
14.55000,18428
14.55833,16384
14.56667,14555
14.57500,12927
14.58333,11485
14.59167,10212
14.60000,9091
14.60833,8106
14.61667,7242
14.62500,6485
14.63333,5823
14.64167,5242
14.65000,4733
14.65833,4286
14.66667,3894
14.67500,3549
14.68333,3245
14.69167,2978
14.70000,2741
14.70833,2532
14.71667,2345
14.72500,2180
14.73333,2032
14.74167,1899
14.75000,1780
14.75833,1673
14.76667,1577
14.77500,1489
14.78333,1410
14.79167,1338
14.80000,1272
14.80833,1212
14.81667,1157
14.82500,1107
14.83333,1061
14.84167,1018
14.85000,978
14.85833,941
14.86667,907
14.87500,875
14.88333,846
14.89167,818
14.90000,793
14.90833,769
14.91667,747
14.92500,726
14.93333,707
14.94167,689
14.95000,672
14.95833,656
14.96667,641
14.97500,627
14.98333,614
14.99167,602
15.00000,590
15.00833,580
15.01667,570
15.02500,561
15.03333,553
15.04167,545
15.05000,538
15.05833,531
15.06667,525
15.07500,520
15.08333,515
15.09167,510
15.10000,506
15.10833,503
15.11667,501
15.12500,499
15.13333,497
15.14167,496
15.15000,496
15.15833,497
15.16667,499
15.17500,503
15.18333,507
15.19167,513
15.20000,521
15.20833,531
15.21667,543
15.22500,559
15.23333,577
15.24167,599
15.25000,626
15.25833,658
15.26667,696
15.27500,740
15.28333,791
15.29167,851
15.30000,919
15.30833,997
15.31667,1086
15.32500,1187
15.33333,1300
15.34167,1427
15.35000,1568
15.35833,1725
15.36667,1898
15.37500,2087
15.38333,2294
15.39167,2519
15.40000,2761
15.40833,3021
15.41667,3300
15.42500,3595
15.43333,3909
15.44167,4238
15.45000,4583
15.45833,4941
15.46667,5312
15.47500,5693
15.48333,6082
15.49167,6478
15.50000,6878
15.50833,7280
15.51667,7681
15.52500,8077
15.53333,8467
15.54167,8848
15.55000,9216
15.55833,9569
15.56667,9904
15.57500,10220
15.58333,10513
15.59167,10782
15.60000,11024
15.60833,11238
15.61667,11421
15.62500,11574
15.63333,11696
15.64167,11785
15.65000,11841
15.65833,11864
15.66667,11856
15.67500,11815
15.68333,11743
15.69167,11641
15.70000,11511
15.70833,11353
15.71667,11170
15.72500,10963
15.73333,10734
15.74167,10486
15.75000,10220
15.75833,9938
15.76667,9643
15.77500,9335
15.78333,9019
15.79167,8696
15.80000,8367
15.80833,8036
15.81667,7703
15.82500,7369
15.83333,7038
15.84167,6710
15.85000,6386
15.85833,6069
15.86667,5758
15.87500,5456
15.88333,5161
15.89167,4876
15.90000,4601
15.90833,4335
15.91667,4081
15.92500,3837
15.93333,3605
15.94167,3383
15.95000,3173
15.95833,2973
15.96667,2785
15.97500,2607
15.98333,2439
15.99167,2282
16.00000,2134
16.00833,1995
16.01667,1866
16.02500,1745
16.03333,1633
16.04167,1528
16.05000,1431
16.05833,1341
16.06667,1258
16.07500,1180
16.08333,1109
16.09167,1043
16.10000,983
16.10833,927
16.11667,875
16.12500,827
16.13333,784
16.14167,744
16.15000,707
16.15833,674
16.16667,643
16.17500,614
16.18333,588
16.19167,564
16.20000,541
16.20833,521
16.21667,502
16.22500,485
16.23333,469
16.24167,454
16.25000,441
16.25833,428
16.26667,417
16.27500,407
16.28333,398
16.29167,389
16.30000,381
16.30833,373
16.31667,366
16.32500,360
16.33333,354
16.34167,348
16.35000,342
16.35833,337
16.36667,332
16.37500,327
16.38333,323
16.39167,319
16.40000,315
16.40833,312
16.41667,308
16.42500,304
16.43333,301
16.44167,299
16.45000,296
16.45833,293
16.46667,291
16.47500,288
16.48333,286
16.49167,283
16.50000,281
16.50833,279
16.51667,277
16.52500,276
16.53333,274
16.54167,272
16.55000,271
16.55833,269
16.56667,268
16.57500,266
16.58333,265
16.59167,263
16.60000,262
16.60833,261
16.61667,260
16.62500,259
16.63333,257
16.64167,256
16.65000,254
16.65833,253
16.66667,251
16.67500,250
16.68333,249
16.69167,247
16.70000,246
16.70833,245
16.71667,244
16.72500,243
16.73333,242
16.74167,241
16.75000,239
16.75833,238
16.76667,237
16.77500,235
16.78333,234
16.79167,232
16.80000,231
16.80833,229
16.81667,228
16.82500,226
16.83333,225
16.84167,224
16.85000,223
16.85833,221
16.86667,219
16.87500,218
16.88333,217
16.89167,215
16.90000,214
16.90833,212
16.91667,210
16.92500,208
16.93333,207
16.94167,205
16.95000,204
16.95833,203
16.96667,201
16.97500,200
16.98333,199
16.99167,198
17.00000,196
17.00833,195
17.01667,193
17.02500,192
17.03333,191
17.04167,190
17.05000,189
17.05833,188
17.06667,187
17.07500,186
17.08333,185
17.09167,184
17.10000,183
17.10833,182
17.11667,182
17.12500,181
17.13333,180
17.14167,179
17.15000,178
17.15833,177
17.16667,176
17.17500,176
17.18333,175
17.19167,174
17.20000,173
17.20833,172
17.21667,172
17.22500,171
17.23333,170
17.24167,169
17.25000,168
17.25833,167
17.26667,166
17.27500,165
17.28333,165
17.29167,164
17.30000,163
17.30833,161
17.31667,160
17.32500,159
17.33333,157
17.34167,156
17.35000,156
17.35833,155
17.36667,153
17.37500,152
17.38333,152
17.39167,151
17.40000,150
17.40833,148
17.41667,147
17.42500,146
17.43333,145
17.44167,144
17.45000,143
17.45833,143
17.46667,142
17.47500,141
17.48333,140
17.49167,139
17.50000,138
17.50833,138
17.51667,137
17.52500,137
17.53333,136
17.54167,135
17.55000,135
17.55833,134
17.56667,134
17.57500,134
17.58333,133
17.59167,132
17.60000,132
17.60833,131
17.61667,131
17.62500,131
17.63333,130
17.64167,130
17.65000,130
17.65833,130
17.66667,130
17.67500,130
17.68333,130
17.69167,130
17.70000,130
17.70833,130
17.71667,130
17.72500,130
17.73333,130
17.74167,130
17.75000,131
17.75833,131
17.76667,131
17.77500,131
17.78333,131
17.79167,131
17.80000,131
17.80833,131
17.81667,130
17.82500,130
17.83333,129
17.84167,129
17.85000,129
17.85833,129
17.86667,129
17.87500,129
17.88333,128
17.89167,128
17.90000,128
17.90833,127
17.91667,126
17.92500,126
17.93333,126
17.94167,125
17.95000,125
17.95833,125
17.96667,125
17.97500,124
17.98333,124
17.99167,123
18.00000,123
18.00833,123
18.01667,122
18.02500,121
18.03333,121
18.04167,121
18.05000,121
18.05833,120
18.06667,120
18.07500,120
18.08333,120
18.09167,120
18.10000,120
18.10833,119
18.11667,119
18.12500,119
18.13333,118
18.14167,118
18.15000,118
18.15833,118
18.16667,118
18.17500,118
18.18333,119
18.19167,119
18.20000,118
18.20833,119
18.21667,119
18.22500,119
18.23333,119
18.24167,119
18.25000,118
18.25833,118
18.26667,119
18.27500,119
18.28333,119
18.29167,118
18.30000,117
18.30833,117
18.31667,116
18.32500,116
18.33333,115
18.34167,115
18.35000,115
18.35833,115
18.36667,115
18.37500,114
18.38333,114
18.39167,113
18.40000,113
18.40833,112
18.41667,111
18.42500,111
18.43333,110
18.44167,110
18.45000,109
18.45833,109
18.46667,108
18.47500,108
18.48333,107
18.49167,106
18.50000,106
18.50833,106
18.51667,105
18.52500,105
18.53333,105
18.54167,105
18.55000,104
18.55833,104
18.56667,103
18.57500,103
18.58333,103
18.59167,103
18.60000,103
18.60833,102
18.61667,101
18.62500,101
18.63333,101
18.64167,100
18.65000,100
18.65833,100
18.66667,100
18.67500,99
18.68333,99
18.69167,99
18.70000,99
18.70833,99
18.71667,99
18.72500,99
18.73333,100
18.74167,100
18.75000,100
18.75833,100
18.76667,100
18.77500,101
18.78333,101
18.79167,101
18.80000,101
18.80833,101
18.81667,101
18.82500,101
18.83333,102
18.84167,102
18.85000,102
18.85833,102
18.86667,103
18.87500,103
18.88333,104
18.89167,105
18.90000,106
18.90833,107
18.91667,107
18.92500,108
18.93333,109
18.94167,109
18.95000,110
18.95833,111
18.96667,112
18.97500,113
18.98333,113
18.99167,114
19.00000,114
19.00833,114
19.01667,114
19.02500,114
19.03333,114
19.04167,114
19.05000,114
19.05833,114
19.06667,114
19.07500,113
19.08333,113
19.09167,113
19.10000,112
19.10833,112
19.11667,111
19.12500,111
19.13333,110
19.14167,109
19.15000,108
19.15833,107
19.16667,106
19.17500,105
19.18333,105
19.19167,104
19.20000,103
19.20833,102
19.21667,101
19.22500,101
19.23333,99
19.24167,98
19.25000,97
19.25833,96
19.26667,96
19.27500,95
19.28333,94
19.29167,93
19.30000,92
19.30833,91
19.31667,90
19.32500,89
19.33333,89
19.34167,88
19.35000,87
19.35833,86
19.36667,86
19.37500,85
19.38333,84
19.39167,83
19.40000,83
19.40833,82
19.41667,82
19.42500,81
19.43333,81
19.44167,81
19.45000,80
19.45833,80
19.46667,80
19.47500,80
19.48333,80
19.49167,80
19.50000,80
19.50833,80
19.51667,80
19.52500,79
19.53333,79
19.54167,78
19.55000,78
19.55833,79
19.56667,79
19.57500,79
19.58333,79
19.59167,79
19.60000,79
19.60833,79
19.61667,79
19.62500,79
19.63333,80
19.64167,80
19.65000,80
19.65833,81
19.66667,81
19.67500,81
19.68333,81
19.69167,81
19.70000,81
19.70833,81
19.71667,81
19.72500,81
19.73333,81
19.74167,81
19.75000,81
19.75833,81
19.76667,81
19.77500,81
19.78333,81
19.79167,81
19.80000,81
19.80833,81
19.81667,81
19.82500,81
19.83333,81
19.84167,81
19.85000,81
19.85833,81
19.86667,80
19.87500,80
19.88333,80
19.89167,79
19.90000,79
19.90833,79
19.91667,78
19.92500,78
19.93333,78
19.94167,78
19.95000,78
19.95833,77
19.96667,77
19.97500,77
19.98333,77
19.99167,77
20.00000,76
20.00833,76
20.01667,76
20.02500,76
20.03333,76
20.04167,76
20.05000,75
20.05833,75
20.06667,75
20.07500,75
20.08333,75
20.09167,75
20.10000,74
20.10833,74
20.11667,74
20.12500,74
20.13333,74
20.14167,74
20.15000,74
20.15833,74
20.16667,74
20.17500,74
20.18333,74
20.19167,73
20.20000,73
20.20833,73
20.21667,73
20.22500,73
20.23333,73
20.24167,73
20.25000,73
20.25833,73
20.26667,72
20.27500,72
20.28333,72
20.29167,72
20.30000,72
20.30833,72
20.31667,72
20.32500,72
20.33333,72
20.34167,72
20.35000,72
20.35833,72
20.36667,71
20.37500,71
20.38333,71
20.39167,71
20.40000,70
20.40833,70
20.41667,70
20.42500,70
20.43333,69
20.44167,69
20.45000,69
20.45833,69
20.46667,69
20.47500,69
20.48333,70
20.49167,70
20.50000,70
20.50833,70
20.51667,70
20.52500,69
20.53333,69
20.54167,69
20.55000,69
20.55833,69
20.56667,69
20.57500,69
20.58333,69
20.59167,70
20.60000,69
20.60833,69
20.61667,69
20.62500,69
20.63333,68
20.64167,68
20.65000,69
20.65833,69
20.66667,69
20.67500,69
20.68333,69
20.69167,69
20.70000,69
20.70833,69
20.71667,68
20.72500,68
20.73333,68
20.74167,68
20.75000,68
20.75833,67
20.76667,67
20.77500,67
20.78333,67
20.79167,66
20.80000,66
20.80833,65
20.81667,65
20.82500,64
20.83333,64
20.84167,64
20.85000,64
20.85833,64
20.86667,64
20.87500,64
20.88333,64
20.89167,64
20.90000,64
20.90833,64
20.91667,64
20.92500,64
20.93333,64
20.94167,64
20.95000,64
20.95833,64
20.96667,63
20.97500,63
20.98333,63
20.99167,62
21.00000,62
21.00833,62
21.01667,62
21.02500,62
21.03333,61
21.04167,61
21.05000,61
21.05833,61
21.06667,61
21.07500,62
21.08333,61
21.09167,61
21.10000,61
21.10833,61
21.11667,61
21.12500,62
21.13333,62
21.14167,62
21.15000,62
21.15833,61
21.16667,61
21.17500,61
21.18333,61
21.19167,61
21.20000,61
21.20833,60
21.21667,60
21.22500,60
21.23333,59
21.24167,59
21.25000,58
21.25833,58
21.26667,58
21.27500,58
21.28333,58
21.29167,58
21.30000,58
21.30833,59
21.31667,59
21.32500,59
21.33333,59
21.34167,59
21.35000,60
21.35833,60
21.36667,60
21.37500,61
21.38333,61
21.39167,62
21.40000,62
21.40833,63
21.41667,64
21.42500,66
21.43333,68
21.44167,69
21.45000,71
21.45833,72
21.46667,74
21.47500,76
21.48333,79
21.49167,82
21.50000,85
21.50833,88
21.51667,92
21.52500,97
21.53333,102
21.54167,107
21.55000,113
21.55833,120
21.56667,127
21.57500,135
21.58333,144
21.59167,155
21.60000,166
21.60833,179
21.61667,194
21.62500,209
21.63333,227
21.64167,246
21.65000,267
21.65833,290
21.66667,316
21.67500,343
21.68333,374
21.69167,407
21.70000,442
21.70833,481
21.71667,523
21.72500,568
21.73333,616
21.74167,667
21.75000,723
21.75833,781
21.76667,842
21.77500,907
21.78333,974
21.79167,1045
21.80000,1118
21.80833,1195
21.81667,1275
21.82500,1356
21.83333,1440
21.84167,1526
21.85000,1614
21.85833,1702
21.86667,1792
21.87500,1882
21.88333,1972
21.89167,2062
21.90000,2151
21.90833,2239
21.91667,2324
21.92500,2408
21.93333,2488
21.94167,2566
21.95000,2640
21.95833,2709
21.96667,2774
21.97500,2835
21.98333,2890
21.99167,2939
22.00000,2983
22.00833,3021
22.01667,3052
22.02500,3078
22.03333,3096
22.04167,3108
22.05000,3113
22.05833,3111
22.06667,3103
22.07500,3089
22.08333,3068
22.09167,3041
22.10000,3008
22.10833,2969
22.11667,2925
22.12500,2876
22.13333,2823
22.14167,2765
22.15000,2704
22.15833,2638
22.16667,2570
22.17500,2498
22.18333,2425
22.19167,2349
22.20000,2272
22.20833,2193
22.21667,2114
22.22500,2035
22.23333,1955
22.24167,1876
22.25000,1796
22.25833,1718
22.26667,1640
22.27500,1564
22.28333,1489
22.29167,1415
22.30000,1344
22.30833,1275
22.31667,1208
22.32500,1143
22.33333,1081
22.34167,1021
22.35000,963
22.35833,908
22.36667,855
22.37500,805
22.38333,757
22.39167,712
22.40000,669
22.40833,628
22.41667,590
22.42500,554
22.43333,521
22.44167,489
22.45000,459
22.45833,430
22.46667,404
22.47500,379
22.48333,356
22.49167,335
22.50000,315
22.50833,297
22.51667,280
22.52500,264
22.53333,249
22.54167,236
22.55000,223
22.55833,212
22.56667,201
22.57500,191
22.58333,182
22.59167,174
22.60000,167
22.60833,160
22.61667,154
22.62500,149
22.63333,144
22.64167,139
22.65000,135
22.65833,130
22.66667,127
22.67500,123
22.68333,119
22.69167,116
22.70000,114
22.70833,111
22.71667,109
22.72500,107
22.73333,106
22.74167,104
22.75000,103
22.75833,101
22.76667,100
22.77500,99
22.78333,98
22.79167,97
22.80000,96
22.80833,95
22.81667,95
22.82500,94
22.83333,94
22.84167,93
22.85000,93
22.85833,93
22.86667,92
22.87500,92
22.88333,92
22.89167,92
22.90000,92
22.90833,92
22.91667,91
22.92500,91
22.93333,92
22.94167,92
22.95000,92
22.95833,93
22.96667,92
22.97500,92
22.98333,92
22.99167,92
23.00000,92
23.00833,92
23.01667,92
23.02500,92
23.03333,92
23.04167,92
23.05000,92
23.05833,92
23.06667,92
23.07500,93
23.08333,93
23.09167,94
23.10000,94
23.10833,94
23.11667,94
23.12500,94
23.13333,94
23.14167,94
23.15000,95
23.15833,95
23.16667,95
23.17500,94
23.18333,94
23.19167,94
23.20000,94
23.20833,94
23.21667,94
23.22500,94
23.23333,94
23.24167,94
23.25000,94
23.25833,94
23.26667,93
23.27500,93
23.28333,93
23.29167,93
23.30000,92
23.30833,92
23.31667,92
23.32500,92
23.33333,92
23.34167,92
23.35000,91
23.35833,91
23.36667,91
23.37500,90
23.38333,90
23.39167,90
23.40000,89
23.40833,89
23.41667,89
23.42500,88
23.43333,88
23.44167,88
23.45000,88
23.45833,88
23.46667,87
23.47500,87
23.48333,86
23.49167,86
23.50000,85
23.50833,85
23.51667,85
23.52500,85
23.53333,85
23.54167,84
23.55000,83
23.55833,83
23.56667,82
23.57500,82
23.58333,81
23.59167,81
23.60000,81
23.60833,80
23.61667,80
23.62500,80
23.63333,79
23.64167,79
23.65000,78
23.65833,78
23.66667,78
23.67500,78
23.68333,77
23.69167,77
23.70000,76
23.70833,75
23.71667,75
23.72500,74
23.73333,74
23.74167,73
23.75000,73
23.75833,72
23.76667,71
23.77500,71
23.78333,70
23.79167,69
23.80000,69
23.80833,68
23.81667,68
23.82500,67
23.83333,67
23.84167,66
23.85000,65
23.85833,65
23.86667,64
23.87500,64
23.88333,64
23.89167,63
23.90000,63
23.90833,62
23.91667,62
23.92500,62
23.93333,62
23.94167,61
23.95000,60
23.95833,60
23.96667,59
23.97500,59
23.98333,58
23.99167,58
24.00000,58
24.00833,58
24.01667,57
24.02500,57
24.03333,56
24.04167,56
24.05000,55
24.05833,55
24.06667,56
24.07500,56
24.08333,56
24.09167,56
24.10000,56
24.10833,56
24.11667,56
24.12500,56
24.13333,55
24.14167,56
24.15000,56
24.15833,56
24.16667,56
24.17500,56
24.18333,56
24.19167,57
24.20000,57
24.20833,57
24.21667,57
24.22500,58
24.23333,58
24.24167,59
24.25000,59
24.25833,60
24.26667,60
24.27500,61
24.28333,62
24.29167,63
24.30000,64
24.30833,65
24.31667,65
24.32500,66
24.33333,67
24.34167,68
24.35000,69
24.35833,70
24.36667,71
24.37500,72
24.38333,72
24.39167,73
24.40000,75
24.40833,77
24.41667,78
24.42500,80
24.43333,82
24.44167,84
24.45000,86
24.45833,89
24.46667,91
24.47500,94
24.48333,98
24.49167,101
24.50000,105
24.50833,109
24.51667,113
24.52500,118
24.53333,123
24.54167,129
24.55000,135
24.55833,142
24.56667,150
24.57500,158
24.58333,166
24.59167,176
24.60000,186
24.60833,196
24.61667,207
24.62500,219
24.63333,233
24.64167,247
24.65000,262
24.65833,278
24.66667,296
24.67500,314
24.68333,334
24.69167,354
24.70000,376
24.70833,399
24.71667,422
24.72500,447
24.73333,473
24.74167,500
24.75000,528
24.75833,557
24.76667,587
24.77500,617
24.78333,648
24.79167,680
24.80000,712
24.80833,744
24.81667,777
24.82500,810
24.83333,843
24.84167,875
24.85000,907
24.85833,939
24.86667,971
24.87500,1002
24.88333,1032
24.89167,1061
24.90000,1089
24.90833,1116
24.91667,1141
24.92500,1164
24.93333,1186
24.94167,1207
24.95000,1225
24.95833,1241
24.96667,1256
24.97500,1268
24.98333,1278
24.99167,1286
25.00000,1292
25.00833,1296
25.01667,1297
25.02500,1296
25.03333,1293
25.04167,1288
25.05000,1280
25.05833,1270
25.06667,1258
25.07500,1244
25.08333,1228
25.09167,1211
25.10000,1191
25.10833,1171
25.11667,1148
25.12500,1124
25.13333,1099
25.14167,1073
25.15000,1046
25.15833,1018
25.16667,990
25.17500,960
25.18333,930
25.19167,900
25.20000,870
25.20833,840
25.21667,810
25.22500,780
25.23333,750
25.24167,720
25.25000,691
25.25833,662
25.26667,634
25.27500,605
25.28333,578
25.29167,551
25.30000,526
25.30833,501
25.31667,476
25.32500,453
25.33333,430
25.34167,409
25.35000,388
25.35833,369
25.36667,350
25.37500,332
25.38333,315
25.39167,299
25.40000,284
25.40833,270
25.41667,256
25.42500,243
25.43333,230
25.44167,219
25.45000,209
25.45833,199
25.46667,190
25.47500,182
25.48333,173
25.49167,166
25.50000,158
25.50833,151
25.51667,144
25.52500,139
25.53333,134
25.54167,129
25.55000,125
25.55833,121
25.56667,117
25.57500,113
25.58333,110
25.59167,107
25.60000,104
25.60833,102
25.61667,99
25.62500,98
25.63333,96
25.64167,94
25.65000,93
25.65833,92
25.66667,90
25.67500,89
25.68333,88
25.69167,87
25.70000,86
25.70833,85
25.71667,84
25.72500,83
25.73333,83
25.74167,82
25.75000,82
25.75833,82
25.76667,82
25.77500,81
25.78333,81
25.79167,80
25.80000,80
25.80833,80
25.81667,80
25.82500,80
25.83333,79
25.84167,79
25.85000,79
25.85833,79
25.86667,79
25.87500,79
25.88333,79
25.89167,79
25.90000,79
25.90833,79
25.91667,79
25.92500,79
25.93333,79
25.94167,79
25.95000,79
25.95833,79
25.96667,79
25.97500,78
25.98333,79
25.99167,79
26.00000,79
26.00833,79
26.01667,80
26.02500,80
26.03333,80
26.04167,81
26.05000,81
26.05833,81
26.06667,81
26.07500,81
26.08333,82
26.09167,82
26.10000,82
26.10833,82
26.11667,82
26.12500,82
26.13333,82
26.14167,82
26.15000,83
26.15833,83
26.16667,83
26.17500,83
26.18333,82
26.19167,82
26.20000,82
26.20833,82
26.21667,82
26.22500,82
26.23333,82
26.24167,82
26.25000,82
26.25833,81
26.26667,81
26.27500,81
26.28333,82
26.29167,82
26.30000,81
26.30833,81
26.31667,80
26.32500,80
26.33333,79
26.34167,79
26.35000,79
26.35833,78
26.36667,78
26.37500,78
26.38333,78
26.39167,77
26.40000,77
26.40833,76
26.41667,75
26.42500,75
26.43333,74
26.44167,73
26.45000,73
26.45833,72
26.46667,72
26.47500,72
26.48333,71
26.49167,71
26.50000,70
26.50833,70
26.51667,69
26.52500,69
26.53333,68
26.54167,67
26.55000,67
26.55833,67
26.56667,66
26.57500,67
26.58333,66
26.59167,66
26.60000,66
26.60833,65
26.61667,65
26.62500,65
26.63333,65
26.64167,65
26.65000,65
26.65833,65
26.66667,65
26.67500,64
26.68333,64
26.69167,65
26.70000,65
26.70833,66
26.71667,66
26.72500,67
26.73333,67
26.74167,68
26.75000,68
26.75833,69
26.76667,69
26.77500,69
26.78333,69
26.79167,69
26.80000,69
26.80833,70
26.81667,70
26.82500,71
26.83333,71
26.84167,72
26.85000,72
26.85833,73
26.86667,73
26.87500,74
26.88333,75
26.89167,76
26.90000,76
26.90833,77
26.91667,77
26.92500,77
26.93333,78
26.94167,79
26.95000,80
26.95833,80
26.96667,80
26.97500,80
26.98333,81
26.99167,81
27.00000,82
27.00833,83
27.01667,83
27.02500,84
27.03333,84
27.04167,84
27.05000,85
27.05833,85
27.06667,85
27.07500,86
27.08333,86
27.09167,87
27.10000,87
27.10833,87
27.11667,87
27.12500,88
27.13333,88
27.14167,88
27.15000,88
27.15833,88
27.16667,88
27.17500,88
27.18333,88
27.19167,88
27.20000,88
27.20833,88
27.21667,88
27.22500,88
27.23333,89
27.24167,88
27.25000,88
27.25833,88
27.26667,88
27.27500,88
27.28333,87
27.29167,87
27.30000,87
27.30833,87
27.31667,87
27.32500,86
27.33333,86
27.34167,86
27.35000,86
27.35833,85
27.36667,85
27.37500,85
27.38333,85
27.39167,84
27.40000,84
27.40833,83
27.41667,83
27.42500,82
27.43333,82
27.44167,81
27.45000,81
27.45833,80
27.46667,80
27.47500,80
27.48333,80
27.49167,79
27.50000,79
27.50833,78
27.51667,78
27.52500,77
27.53333,77
27.54167,77
27.55000,76
27.55833,76
27.56667,76
27.57500,75
27.58333,75
27.59167,75
27.60000,74
27.60833,74
27.61667,73
27.62500,73
27.63333,72
27.64167,72
27.65000,71
27.65833,70
27.66667,70
27.67500,69
27.68333,69
27.69167,68
27.70000,68
27.70833,67
27.71667,66
27.72500,65
27.73333,65
27.74167,64
27.75000,63
27.75833,62
27.76667,61
27.77500,60
27.78333,59
27.79167,57
27.80000,56
27.80833,55
27.81667,54
27.82500,53
27.83333,52
27.84167,50
27.85000,48
27.85833,47
27.86667,45
27.87500,43
27.88333,41
27.89167,38
27.90000,36
27.90833,34
27.91667,32
27.92500,29
27.93333,27
27.94167,24
27.95000,22
27.95833,19
27.96667,16
27.97500,13
27.98333,9
27.99167,6
28.00000,3
28.00833,-1
28.01667,-4
28.02500,-8
28.03333,-11
28.04167,-15
28.05000,-18
28.05833,-22
28.06667,-25
28.07500,-29
28.08333,-33
28.09167,-37
28.10000,-41
28.10833,-45
28.11667,-48
28.12500,-52
28.13333,-57
28.14167,-61
28.15000,-65
28.15833,-70
28.16667,-74
28.17500,-78
28.18333,-82
28.19167,-86
28.20000,-90
28.20833,-94
28.21667,-97
28.22500,-101
28.23333,-104
28.24167,-107
28.25000,-111
28.25833,-114
28.26667,-116
28.27500,-119
28.28333,-121
28.29167,-123
28.30000,-126
28.30833,-128
28.31667,-129
28.32500,-131
28.33333,-132
28.34167,-133
28.35000,-134
28.35833,-134
28.36667,-135
28.37500,-136
28.38333,-136
28.39167,-135
28.40000,-134
28.40833,-134
28.41667,-133
28.42500,-131
28.43333,-130
28.44167,-128
28.45000,-127
28.45833,-125
28.46667,-123
28.47500,-121
28.48333,-118
28.49167,-116
28.50000,-113
28.50833,-110
28.51667,-107
28.52500,-104
28.53333,-100
28.54167,-97
28.55000,-94
28.55833,-91
28.56667,-88
28.57500,-85
28.58333,-81
28.59167,-77
28.60000,-73
28.60833,-69
28.61667,-65
28.62500,-62
28.63333,-58
28.64167,-54
28.65000,-51
28.65833,-47
28.66667,-43
28.67500,-39
28.68333,-36
28.69167,-32
28.70000,-28
28.70833,-25
28.71667,-21
28.72500,-17
28.73333,-13
28.74167,-10
28.75000,-7
28.75833,-4
28.76667,-1
28.77500,2
28.78333,5
28.79167,8
28.80000,10
28.80833,13
28.81667,16
28.82500,19
28.83333,22
28.84167,25
28.85000,27
28.85833,29
28.86667,31
28.87500,34
28.88333,35
28.89167,37
28.90000,39
28.90833,41
28.91667,42
28.92500,44
28.93333,46
28.94167,48
28.95000,50
28.95833,51
28.96667,53
28.97500,54
28.98333,56
28.99167,57
29.00000,58
29.00833,59
29.01667,60
29.02500,61
29.03333,62
29.04167,63
29.05000,63
29.05833,64
29.06667,64
29.07500,65
29.08333,66
29.09167,66
29.10000,67
29.10833,67
29.11667,67
29.12500,67
29.13333,68
29.14167,68
29.15000,68
29.15833,69
29.16667,69
29.17500,68
29.18333,69
29.19167,69
29.20000,69
29.20833,69
29.21667,69
29.22500,68
29.23333,68
29.24167,68
29.25000,68
29.25833,68
29.26667,68
29.27500,69
29.28333,69
29.29167,69
29.30000,69
29.30833,69
29.31667,68
29.32500,68
29.33333,68
29.34167,68
29.35000,68
29.35833,68
29.36667,68
29.37500,68
29.38333,68
29.39167,68
29.40000,67
29.40833,67
29.41667,67
29.42500,67
29.43333,66
29.44167,66
29.45000,66
29.45833,66
29.46667,66
29.47500,65
29.48333,65
29.49167,64
29.50000,64
29.50833,63
29.51667,63
29.52500,62
29.53333,61
29.54167,61
29.55000,60
29.55833,60
29.56667,59
29.57500,59
29.58333,58
29.59167,58
29.60000,57
29.60833,57
29.61667,56
29.62500,55
29.63333,54
29.64167,53
29.65000,52
29.65833,50
29.66667,49
29.67500,48
29.68333,47
29.69167,46
29.70000,44
29.70833,42
29.71667,41
29.72500,39
29.73333,38
29.74167,36
29.75000,35
29.75833,33
29.76667,32
29.77500,30
29.78333,28
29.79167,27
29.80000,25
29.80833,23
29.81667,21
29.82500,19
29.83333,18
29.84167,16
29.85000,14
29.85833,12
29.86667,10
29.87500,8
29.88333,6
29.89167,4
29.90000,3
29.90833,1
29.91667,-1
29.92500,-3
29.93333,-4
29.94167,-6
29.95000,-8
29.95833,-9
29.96667,-11
29.97500,-12
29.98333,-14
29.99167,-15
30.00000,-17
30.00833,-18
30.01667,-19
30.02500,-20
30.03333,-22
30.04167,-23
30.05000,-23
30.05833,-24
30.06667,-25
30.07500,-25
30.08333,-25
30.09167,-26
30.10000,-26
30.10833,-26
30.11667,-26
30.12500,-26
30.13333,-26
30.14167,-26
30.15000,-26
30.15833,-25
30.16667,-25
30.17500,-25
30.18333,-25
30.19167,-24
30.20000,-23
30.20833,-23
30.21667,-22
30.22500,-21
30.23333,-20
30.24167,-19
30.25000,-18
30.25833,-17
30.26667,-15
30.27500,-14
30.28333,-12
30.29167,-11
30.30000,-9
30.30833,-8
30.31667,-7
30.32500,-5
30.33333,-4
30.34167,-3
30.35000,-1
30.35833,-0
30.36667,1
30.37500,3
30.38333,4
30.39167,6
30.40000,7
30.40833,8
30.41667,10
30.42500,11
30.43333,12
30.44167,14
30.45000,16
30.45833,17
30.46667,18
30.47500,19
30.48333,21
30.49167,22
30.50000,24
30.50833,25
30.51667,26
30.52500,27
30.53333,29
30.54167,30
30.55000,31
30.55833,32
30.56667,33
30.57500,33
30.58333,34
30.59167,35
30.60000,36
30.60833,37
30.61667,38
30.62500,39
30.63333,40
30.64167,41
30.65000,43
30.65833,43
30.66667,44
30.67500,45
30.68333,46
30.69167,47
30.70000,48
30.70833,49
30.71667,50
30.72500,50
30.73333,51
30.74167,51
30.75000,52
30.75833,52
30.76667,53
30.77500,54
30.78333,54
30.79167,55
30.80000,55
30.80833,55
30.81667,56
30.82500,56
30.83333,57
30.84167,57
30.85000,58
30.85833,59
30.86667,59
30.87500,60
30.88333,60
30.89167,61
30.90000,61
30.90833,61
30.91667,61
30.92500,62
30.93333,62
30.94167,63
30.95000,63
30.95833,64
30.96667,64
30.97500,65
30.98333,65
30.99167,65
31.00000,66
31.00833,66
31.01667,67
31.02500,67
31.03333,68
31.04167,68
31.05000,68
31.05833,69
31.06667,69
31.07500,69
31.08333,69
31.09167,69
31.10000,69
31.10833,69
31.11667,69
31.12500,69
31.13333,69
31.14167,69
31.15000,69
31.15833,69
31.16667,69
31.17500,69
31.18333,69
31.19167,69
31.20000,69
31.20833,69
31.21667,70
31.22500,70
31.23333,69
31.24167,69
31.25000,68
31.25833,67
31.26667,67
31.27500,67
31.28333,66
31.29167,66
31.30000,66
31.30833,66
31.31667,65
31.32500,65
31.33333,64
31.34167,64
31.35000,64
31.35833,64
31.36667,63
31.37500,63
31.38333,63
31.39167,62
31.40000,61
31.40833,61
31.41667,60
31.42500,60
31.43333,60
31.44167,59
31.45000,59
31.45833,59
31.46667,58
31.47500,58
31.48333,58
31.49167,58
31.50000,57
31.50833,57
31.51667,57
31.52500,56
31.53333,56
31.54167,56
31.55000,55
31.55833,55
31.56667,55
31.57500,55
31.58333,55
31.59167,55
31.60000,55
31.60833,55
31.61667,56
31.62500,56
31.63333,56
31.64167,55
31.65000,55
31.65833,55
31.66667,56
31.67500,56
31.68333,57
31.69167,57
31.70000,58
31.70833,59
31.71667,60
31.72500,60
31.73333,60
31.74167,61
31.75000,61
31.75833,62
31.76667,62
31.77500,62
31.78333,63
31.79167,64
31.80000,65
31.80833,66
31.81667,66
31.82500,67
31.83333,67
31.84167,68
31.85000,69
31.85833,70
31.86667,71
31.87500,72
31.88333,72
31.89167,73
31.90000,73
31.90833,74
31.91667,75
31.92500,76
31.93333,77
31.94167,77
31.95000,78
31.95833,79
31.96667,79
31.97500,80
31.98333,80
31.99167,81
32.00000,82
32.00833,82
32.01667,82
32.02500,83
32.03333,83
32.04167,83
32.05000,83
32.05833,84
32.06667,84
32.07500,84
32.08333,84
32.09167,84
32.10000,84
32.10833,84
32.11667,84
32.12500,85
32.13333,85
32.14167,85
32.15000,85
32.15833,85
32.16667,84
32.17500,84
32.18333,83
32.19167,83
32.20000,83
32.20833,83
32.21667,83
32.22500,83
32.23333,82
32.24167,82
32.25000,82
32.25833,82
32.26667,81
32.27500,81
32.28333,81
32.29167,80
32.30000,80
32.30833,80
32.31667,79
32.32500,79
32.33333,78
32.34167,78
32.35000,78
32.35833,77
32.36667,77
32.37500,77
32.38333,77
32.39167,77
32.40000,76
32.40833,76
32.41667,75
32.42500,75
32.43333,75
32.44167,75
32.45000,75
32.45833,75
32.46667,74
32.47500,74
32.48333,74
32.49167,74
32.50000,74
32.50833,74
32.51667,74
32.52500,74
32.53333,74
32.54167,75
32.55000,75
32.55833,75
32.56667,75
32.57500,75
32.58333,75
32.59167,75
32.60000,75
32.60833,75
32.61667,75
32.62500,76
32.63333,76
32.64167,77
32.65000,77
32.65833,77
32.66667,78
32.67500,78
32.68333,78
32.69167,78
32.70000,78
32.70833,79
32.71667,79
32.72500,80
32.73333,80
32.74167,81
32.75000,81
32.75833,81
32.76667,81
32.77500,82
32.78333,82
32.79167,82
32.80000,83
32.80833,83
32.81667,83
32.82500,84
32.83333,84
32.84167,84
32.85000,84
32.85833,84
32.86667,84
32.87500,84
32.88333,84
32.89167,85
32.90000,85
32.90833,85
32.91667,86
32.92500,86
32.93333,86
32.94167,86
32.95000,86
32.95833,86
32.96667,86
32.97500,86
32.98333,85
32.99167,85
33.00000,85
33.00833,85
33.01667,85
33.02500,85
33.03333,85
33.04167,85
33.05000,85
33.05833,85
33.06667,85
33.07500,85
33.08333,84
33.09167,83
33.10000,83
33.10833,83
33.11667,83
33.12500,83
33.13333,82
33.14167,82
33.15000,81
33.15833,81
33.16667,81
33.17500,80
33.18333,80
33.19167,80
33.20000,80
33.20833,79
33.21667,79
33.22500,79
33.23333,78
33.24167,77
33.25000,76
33.25833,76
33.26667,75
33.27500,75
33.28333,74
33.29167,73
33.30000,72
33.30833,72
33.31667,71
33.32500,70
33.33333,69
33.34167,69
33.35000,68
33.35833,67
33.36667,67
33.37500,66
33.38333,66
33.39167,65
33.40000,65
33.40833,64
33.41667,64
33.42500,63
33.43333,62
33.44167,62
33.45000,62
33.45833,61
33.46667,61
33.47500,61
33.48333,61
33.49167,61
33.50000,61
33.50833,61
33.51667,61
33.52500,61
33.53333,61
33.54167,61
33.55000,62
33.55833,62
33.56667,63
33.57500,63
33.58333,64
33.59167,64
33.60000,65
33.60833,65
33.61667,66
33.62500,67
33.63333,67
33.64167,68
33.65000,69
33.65833,69
33.66667,70
33.67500,70
33.68333,71
33.69167,72
33.70000,73
33.70833,73
33.71667,74
33.72500,75
33.73333,76
33.74167,76
33.75000,77
33.75833,77
33.76667,78
33.77500,78
33.78333,79
33.79167,79
33.80000,79
33.80833,79
33.81667,79
33.82500,79
33.83333,79
33.84167,79
33.85000,79
33.85833,80
33.86667,80
33.87500,81
33.88333,81
33.89167,81
33.90000,81
33.90833,80
33.91667,80
33.92500,80
33.93333,80
33.94167,80
33.95000,80
33.95833,80
33.96667,80
33.97500,80
33.98333,80
33.99167,80
34.00000,81
34.00833,81
34.01667,81
34.02500,81
34.03333,80
34.04167,80
34.05000,80
34.05833,80
34.06667,79
34.07500,80
34.08333,80
34.09167,80
34.10000,80
34.10833,80
34.11667,80
34.12500,80
34.13333,80
34.14167,81
34.15000,80
34.15833,80
34.16667,80
34.17500,81
34.18333,81
34.19167,81
34.20000,80
34.20833,80
34.21667,79
34.22500,79
34.23333,78
34.24167,78
34.25000,78
34.25833,78
34.26667,78
34.27500,78
34.28333,78
34.29167,78
34.30000,78
34.30833,78
34.31667,78
34.32500,78
34.33333,78
34.34167,78
34.35000,77
34.35833,77
34.36667,77
34.37500,77
34.38333,77
34.39167,76
34.40000,76
34.40833,76
34.41667,75
34.42500,75
34.43333,75
34.44167,75
34.45000,75
34.45833,75
34.46667,75
34.47500,75
34.48333,75
34.49167,75
34.50000,74
34.50833,74
34.51667,74
34.52500,74
34.53333,73
34.54167,73
34.55000,72
34.55833,72
34.56667,72
34.57500,72
34.58333,72
34.59167,72
34.60000,72
34.60833,71
34.61667,71
34.62500,70
34.63333,70
34.64167,70
34.65000,70
34.65833,69
34.66667,69
34.67500,69
34.68333,68
34.69167,68
34.70000,68
34.70833,68
34.71667,68
34.72500,68
34.73333,68
34.74167,67
34.75000,67
34.75833,66
34.76667,66
34.77500,66
34.78333,65
34.79167,65
34.80000,65
34.80833,65
34.81667,65
34.82500,65
34.83333,65
34.84167,65
34.85000,65
34.85833,65
34.86667,64
34.87500,64
34.88333,64
34.89167,64
34.90000,63
34.90833,63
34.91667,63
34.92500,63
34.93333,63
34.94167,62
34.95000,63
34.95833,63
34.96667,62
34.97500,62
34.98333,61
34.99167,61
35.00000,61
35.00833,61
35.01667,60
35.02500,60
35.03333,60
35.04167,60
35.05000,60
35.05833,60
35.06667,59
35.07500,59
35.08333,59
35.09167,60
35.10000,60
35.10833,60
35.11667,59
35.12500,59
35.13333,59
35.14167,59
35.15000,59
35.15833,59
35.16667,59
35.17500,59
35.18333,59
35.19167,59
35.20000,59
35.20833,59
35.21667,59
35.22500,59
35.23333,59
35.24167,60
35.25000,60
35.25833,60
35.26667,61
35.27500,61
35.28333,62
35.29167,63
35.30000,63
35.30833,64
35.31667,64
35.32500,65
35.33333,65
35.34167,65
35.35000,65
35.35833,66
35.36667,66
35.37500,67
35.38333,68
35.39167,68
35.40000,69
35.40833,69
35.41667,69
35.42500,69
35.43333,70
35.44167,71
35.45000,71
35.45833,72
35.46667,72
35.47500,72
35.48333,72
35.49167,72
35.50000,73
35.50833,73
35.51667,74
35.52500,74
35.53333,75
35.54167,75
35.55000,75
35.55833,75
35.56667,75
35.57500,76
35.58333,76
35.59167,77
35.60000,77
35.60833,77
35.61667,78
35.62500,78
35.63333,78
35.64167,78
35.65000,78
35.65833,78
35.66667,79
35.67500,79
35.68333,79
35.69167,79
35.70000,80
35.70833,80
35.71667,81
35.72500,82
35.73333,82
35.74167,82
35.75000,82
35.75833,82
35.76667,82
35.77500,82
35.78333,82
35.79167,82
35.80000,82
35.80833,83
35.81667,82
35.82500,82
35.83333,83
35.84167,82
35.85000,82
35.85833,82
35.86667,82
35.87500,82
35.88333,82
35.89167,82
35.90000,82
35.90833,81
35.91667,81
35.92500,81
35.93333,80
35.94167,80
35.95000,79
35.95833,79
35.96667,78
35.97500,78
35.98333,77
35.99167,77
36.00000,77
36.00833,76
36.01667,75
36.02500,75
36.03333,74
36.04167,73
36.05000,73
36.05833,72
36.06667,72
36.07500,72
36.08333,71
36.09167,71
36.10000,70
36.10833,70
36.11667,69
36.12500,69
36.13333,68
36.14167,68
36.15000,68
36.15833,68
36.16667,67
36.17500,67
36.18333,66
36.19167,66
36.20000,65
36.20833,65
36.21667,65
36.22500,65
36.23333,64
36.24167,64
36.25000,63
36.25833,63
36.26667,63
36.27500,63
36.28333,63
36.29167,63
36.30000,63
36.30833,63
36.31667,63
36.32500,63
36.33333,64
36.34167,64
36.35000,64
36.35833,64
36.36667,65
36.37500,65
36.38333,65
36.39167,65
36.40000,65
36.40833,66
36.41667,66
36.42500,67
36.43333,67
36.44167,68
36.45000,68
36.45833,68
36.46667,68
36.47500,68
36.48333,68
36.49167,69
36.50000,69
36.50833,69
36.51667,70
36.52500,70
36.53333,70
36.54167,70
36.55000,70
36.55833,70
36.56667,70
36.57500,70
36.58333,71
36.59167,71
36.60000,71
36.60833,71
36.61667,71
36.62500,71
36.63333,71
36.64167,71
36.65000,70
36.65833,70
36.66667,71
36.67500,71
36.68333,71
36.69167,71
36.70000,71
36.70833,72
36.71667,72
36.72500,71
36.73333,71
36.74167,70
36.75000,70
36.75833,70
36.76667,70
36.77500,70
36.78333,70
36.79167,70
36.80000,69
36.80833,69
36.81667,70
36.82500,70
36.83333,70
36.84167,70
36.85000,70
36.85833,70
36.86667,69
36.87500,69
36.88333,69
36.89167,69
36.90000,68
36.90833,68
36.91667,68
36.92500,68
36.93333,68
36.94167,69
36.95000,69
36.95833,69
36.96667,69
36.97500,69
36.98333,69
36.99167,69
37.00000,69
37.00833,69
37.01667,68
37.02500,68
37.03333,68
37.04167,69
37.05000,69
37.05833,69
37.06667,69
37.07500,69
37.08333,69
37.09167,69
37.10000,69
37.10833,69
37.11667,70
37.12500,70
37.13333,70
37.14167,70
37.15000,70
37.15833,71
37.16667,71
37.17500,72
37.18333,72
37.19167,73
37.20000,73
37.20833,74
37.21667,74
37.22500,74
37.23333,75
37.24167,75
37.25000,75
37.25833,76
37.26667,76
37.27500,76
37.28333,76
37.29167,76
37.30000,77
37.30833,77
37.31667,78
37.32500,78
37.33333,78
37.34167,79
37.35000,79
37.35833,79
37.36667,80
37.37500,81
37.38333,81
37.39167,81
37.40000,81
37.40833,81
37.41667,81
37.42500,81
37.43333,81
37.44167,81
37.45000,82
37.45833,82
37.46667,82
37.47500,83
37.48333,83
37.49167,83
37.50000,83
37.50833,83
37.51667,83
37.52500,83
37.53333,83
37.54167,83
37.55000,83
37.55833,83
37.56667,83
37.57500,82
37.58333,82
37.59167,82
37.60000,82
37.60833,82
37.61667,81
37.62500,81
37.63333,81
37.64167,80
37.65000,80
37.65833,80
37.66667,79
37.67500,79
37.68333,78
37.69167,78
37.70000,77
37.70833,77
37.71667,76
37.72500,75
37.73333,75
37.74167,75
37.75000,74
37.75833,74
37.76667,73
37.77500,73
37.78333,72
37.79167,71
37.80000,70
37.80833,69
37.81667,69
37.82500,68
37.83333,67
37.84167,67
37.85000,66
37.85833,65
37.86667,65
37.87500,64
37.88333,64
37.89167,63
37.90000,63
37.90833,62
37.91667,62
37.92500,62
37.93333,61
37.94167,61
37.95000,60
37.95833,59
37.96667,59
37.97500,58
37.98333,58
37.99167,58
38.00000,57
38.00833,57
38.01667,56
38.02500,56
38.03333,56
38.04167,56
38.05000,56
38.05833,57
38.06667,57
38.07500,57
38.08333,57
38.09167,57
38.10000,58
38.10833,58
38.11667,59
38.12500,60
38.13333,60
38.14167,61
38.15000,61
38.15833,62
38.16667,63
38.17500,64
38.18333,64
38.19167,65
38.20000,66
38.20833,67
38.21667,67
38.22500,69
38.23333,70
38.24167,71
38.25000,72
38.25833,73
38.26667,73
38.27500,74
38.28333,75
38.29167,76
38.30000,77
38.30833,78
38.31667,79
38.32500,80
38.33333,81
38.34167,82
38.35000,83
38.35833,84
38.36667,85
38.37500,86
38.38333,87
38.39167,89
38.40000,90
38.40833,91
38.41667,91
38.42500,92
38.43333,93
38.44167,94
38.45000,94
38.45833,95
38.46667,96
38.47500,97
38.48333,97
38.49167,98
38.50000,98
38.50833,99
38.51667,100
38.52500,100
38.53333,101
38.54167,101
38.55000,102
38.55833,102
38.56667,102
38.57500,102
38.58333,102
38.59167,103
38.60000,103
38.60833,103
38.61667,103
38.62500,103
38.63333,103
38.64167,103
38.65000,103
38.65833,104
38.66667,103
38.67500,103
38.68333,103
38.69167,103
38.70000,103
38.70833,103
38.71667,103
38.72500,102
38.73333,102
38.74167,102
38.75000,102
38.75833,102
38.76667,102
38.77500,102
38.78333,102
38.79167,101
38.80000,101
38.80833,100
38.81667,100
38.82500,100
38.83333,100
38.84167,99
38.85000,99
38.85833,99
38.86667,99
38.87500,99
38.88333,99
38.89167,100
38.90000,100
38.90833,100
38.91667,99
38.92500,99
38.93333,99
38.94167,99
38.95000,99
38.95833,99
38.96667,99
38.97500,99
38.98333,99
38.99167,99
39.00000,99
39.00833,100
39.01667,100
39.02500,101
39.03333,101
39.04167,101
39.05000,102
39.05833,102
39.06667,102
39.07500,103
39.08333,103
39.09167,103
39.10000,103
39.10833,103
39.11667,103
39.12500,103
39.13333,103
39.14167,103
39.15000,103
39.15833,103
39.16667,103
39.17500,103
39.18333,103
39.19167,102
39.20000,102
39.20833,102
39.21667,102
39.22500,101
39.23333,101
39.24167,101
39.25000,101
39.25833,100
39.26667,100
39.27500,100
39.28333,99
39.29167,99
39.30000,99
39.30833,98
39.31667,98
39.32500,97
39.33333,97
39.34167,96
39.35000,95
39.35833,95
39.36667,95
39.37500,95
39.38333,94
39.39167,94
39.40000,93
39.40833,92
39.41667,91
39.42500,91
39.43333,89
39.44167,88
39.45000,87
39.45833,87
39.46667,86
39.47500,85
39.48333,85
39.49167,85
39.50000,84
39.50833,84
39.51667,83
39.52500,83
39.53333,82
39.54167,82
39.55000,81
39.55833,81
39.56667,81
39.57500,81
39.58333,81
39.59167,80
39.60000,80
39.60833,80
39.61667,80
39.62500,80
39.63333,80
39.64167,80
39.65000,80
39.65833,79
39.66667,79
39.67500,79
39.68333,79
39.69167,79
39.70000,79
39.70833,79
39.71667,79
39.72500,79
39.73333,79
39.74167,79
39.75000,80
39.75833,80
39.76667,81
39.77500,81
39.78333,81
39.79167,81
39.80000,82
39.80833,82
39.81667,82
39.82500,83
39.83333,83
39.84167,83
39.85000,83
39.85833,83
39.86667,84
39.87500,84
39.88333,84
39.89167,85
39.90000,85
39.90833,85
39.91667,86
39.92500,86
39.93333,87
39.94167,87
39.95000,87
39.95833,87
39.96667,87
39.97500,87
39.98333,87
39.99167,86
40.00000,87

