[Header]
Application Name,LabSolutions
Version,5.97 SP1
Data File Name,C:\Users\cremerlab\Desktop\griffin\2021-04-05_NC_DM_calibration\2021-04-05_NC_DM_2.5mM_calibration_452021_009_009.lcd
Output Date,4/5/2021
Output Time,11:08:01 PM

[File Information]
Type,Data File
Generated,4/5/2021 10:27:40 PM
Generated by,System Administrator
Modified,4/5/2021 11:08:01 PM
Modified by,System Administrator

[Sample Information]
Operator Name,System Administrator
Acquired,4/5/2021 10:27:59 PM
Sample Type,1:Standard
Level,9
Sample Name,2021-04-05_NC_glucose_glycerol_acetate_01mM
Sample ID,009
ISTD Amount1,1
ISTD Amount2,1
ISTD Amount3,1
ISTD Amount4,1
ISTD Amount5,1
ISTD Amount6,1
ISTD Amount7,1
ISTD Amount8,1
ISTD Amount9,1
ISTD Amount10,1
ISTD Amount11,1
ISTD Amount12,1
ISTD Amount13,1
ISTD Amount14,1
ISTD Amount15,1
ISTD Amount16,1
ISTD Amount17,1
ISTD Amount18,1
ISTD Amount19,1
ISTD Amount20,1
ISTD Amount21,1
ISTD Amount22,1
ISTD Amount23,1
ISTD Amount24,1
ISTD Amount25,1
ISTD Amount26,1
ISTD Amount27,1
ISTD Amount28,1
ISTD Amount29,1
ISTD Amount30,1
ISTD Amount31,1
ISTD Amount32,1
Sample Amount,1
Dilution Factor,1
Vial#,9
Injection Volume,20

[Original Files]
Data File,C:\Users\cremerlab\Desktop\griffin\2021-04-05_NC_DM_calibration\2021-04-05_NC_DM_2.5mM_calibration_452021_009_009.lcd
Method File,C:\Users\cremerlab\Desktop\griffin\2021-04-05_NC_DM_calibration\2021-04-05_2.5mM_mobile.lcm
Batch File,C:\Users\cremerlab\Desktop\griffin\2021-04-05_NC_DM_calibration\2021-04-05_NC_DM_2.5mM_calibration.lcb
Report Format File,c:\LabSolutions\System\DEFAULT.lsr

[File Description]


[Configuration]
Instrument Name,HPLC-PC-Instrument1
Instrument #,1
Line #,1
# of Detectors,2
Detector ID,Detector A,Detector B
Detector Name,Detector A,Detector B
# of Channels,1,1

[Peak Table(Detector A)]
# of Peaks,0

[Peak Table(Detector B)]
# of Peaks,5
Peak#,R.Time,I.Time,F.Time,Area,Height,A/H,Conc.,Mark,ID#,Name,k',Plate #,Plate Ht.,Tailing,Resolution,Sep.Factor,Area Ratio,Height Ratio,Conc. %,Norm Conc.
1,11.004,10.608,12.150,1374091,80470,17.076,27.063,   ,,,0.000,9448,15.876,0.953,0.000,0.000,0,0,0.000,0.000
2,14.355,12.658,15.208,3555576,81195,43.791,70.027,   ,,,0.305,2886,51.970,0.618,4.405,0.000,0,0,0.000,0.000
3,15.665,15.208,17.042,107550,4063,26.472,2.118, V ,,,0.424,8888,16.878,0.000,1.511,1.391,0,0,0.000,0.000
4,22.057,21.508,22.900,27979,1020,27.429,0.551,   ,,,1.004,14759,10.163,1.108,9.191,2.372,0,0,0.000,0.000
5,25.013,24.475,25.692,12234,423,28.930,0.241,   ,,,1.273,16594,9.039,1.044,3.934,1.267,0,0,0.000,0.000

[LC Chromatogram(Detector B-Ch1)]
Interval(msec),500
# of Points,4801
Start Time(min),0.000
End Time(min),40.000
Intensity Units,mV
Intensity Multiplier,0.001
R.Time (min),Intensity
0.00000,0
0.00833,0
0.01667,1
0.02500,1
0.03333,2
0.04167,3
0.05000,3
0.05833,3
0.06667,4
0.07500,5
0.08333,5
0.09167,6
0.10000,7
0.10833,8
0.11667,9
0.12500,10
0.13333,10
0.14167,11
0.15000,11
0.15833,12
0.16667,12
0.17500,12
0.18333,13
0.19167,14
0.20000,14
0.20833,14
0.21667,15
0.22500,15
0.23333,16
0.24167,16
0.25000,17
0.25833,17
0.26667,17
0.27500,18
0.28333,18
0.29167,19
0.30000,19
0.30833,19
0.31667,19
0.32500,19
0.33333,19
0.34167,19
0.35000,19
0.35833,19
0.36667,20
0.37500,20
0.38333,20
0.39167,20
0.40000,21
0.40833,21
0.41667,21
0.42500,21
0.43333,21
0.44167,22
0.45000,22
0.45833,23
0.46667,23
0.47500,23
0.48333,23
0.49167,24
0.50000,24
0.50833,24
0.51667,24
0.52500,24
0.53333,25
0.54167,25
0.55000,25
0.55833,25
0.56667,25
0.57500,26
0.58333,26
0.59167,27
0.60000,27
0.60833,27
0.61667,26
0.62500,26
0.63333,26
0.64167,26
0.65000,26
0.65833,25
0.66667,25
0.67500,25
0.68333,25
0.69167,24
0.70000,24
0.70833,24
0.71667,24
0.72500,23
0.73333,23
0.74167,22
0.75000,22
0.75833,22
0.76667,22
0.77500,21
0.78333,21
0.79167,21
0.80000,20
0.80833,20
0.81667,20
0.82500,21
0.83333,21
0.84167,21
0.85000,21
0.85833,20
0.86667,20
0.87500,20
0.88333,21
0.89167,21
0.90000,21
0.90833,21
0.91667,21
0.92500,20
0.93333,20
0.94167,20
0.95000,20
0.95833,20
0.96667,21
0.97500,21
0.98333,21
0.99167,21
1.00000,21
1.00833,21
1.01667,22
1.02500,22
1.03333,22
1.04167,22
1.05000,22
1.05833,22
1.06667,22
1.07500,22
1.08333,23
1.09167,23
1.10000,23
1.10833,23
1.11667,23
1.12500,22
1.13333,22
1.14167,22
1.15000,22
1.15833,22
1.16667,22
1.17500,22
1.18333,23
1.19167,23
1.20000,23
1.20833,22
1.21667,22
1.22500,22
1.23333,22
1.24167,22
1.25000,22
1.25833,23
1.26667,23
1.27500,23
1.28333,23
1.29167,22
1.30000,22
1.30833,22
1.31667,22
1.32500,21
1.33333,20
1.34167,20
1.35000,20
1.35833,20
1.36667,20
1.37500,19
1.38333,19
1.39167,18
1.40000,18
1.40833,17
1.41667,17
1.42500,17
1.43333,16
1.44167,16
1.45000,16
1.45833,16
1.46667,15
1.47500,15
1.48333,15
1.49167,14
1.50000,13
1.50833,13
1.51667,12
1.52500,12
1.53333,11
1.54167,11
1.55000,10
1.55833,10
1.56667,9
1.57500,9
1.58333,9
1.59167,9
1.60000,8
1.60833,8
1.61667,8
1.62500,7
1.63333,7
1.64167,6
1.65000,6
1.65833,5
1.66667,5
1.67500,5
1.68333,4
1.69167,4
1.70000,3
1.70833,3
1.71667,2
1.72500,2
1.73333,1
1.74167,1
1.75000,1
1.75833,0
1.76667,0
1.77500,0
1.78333,-0
1.79167,-0
1.80000,-1
1.80833,-1
1.81667,-2
1.82500,-2
1.83333,-2
1.84167,-2
1.85000,-3
1.85833,-3
1.86667,-3
1.87500,-3
1.88333,-3
1.89167,-2
1.90000,-2
1.90833,-1
1.91667,-1
1.92500,-1
1.93333,-1
1.94167,-1
1.95000,-1
1.95833,-1
1.96667,-1
1.97500,-0
1.98333,-0
1.99167,0
2.00000,0
2.00833,0
2.01667,0
2.02500,1
2.03333,1
2.04167,1
2.05000,1
2.05833,2
2.06667,2
2.07500,2
2.08333,3
2.09167,3
2.10000,3
2.10833,4
2.11667,4
2.12500,4
2.13333,5
2.14167,5
2.15000,6
2.15833,6
2.16667,6
2.17500,7
2.18333,6
2.19167,6
2.20000,6
2.20833,6
2.21667,6
2.22500,7
2.23333,7
2.24167,7
2.25000,7
2.25833,7
2.26667,7
2.27500,6
2.28333,6
2.29167,6
2.30000,6
2.30833,6
2.31667,6
2.32500,6
2.33333,6
2.34167,6
2.35000,6
2.35833,5
2.36667,6
2.37500,6
2.38333,6
2.39167,6
2.40000,5
2.40833,6
2.41667,6
2.42500,6
2.43333,6
2.44167,6
2.45000,6
2.45833,6
2.46667,7
2.47500,7
2.48333,7
2.49167,8
2.50000,8
2.50833,8
2.51667,8
2.52500,8
2.53333,9
2.54167,9
2.55000,9
2.55833,10
2.56667,10
2.57500,11
2.58333,11
2.59167,11
2.60000,12
2.60833,12
2.61667,13
2.62500,14
2.63333,14
2.64167,14
2.65000,15
2.65833,16
2.66667,16
2.67500,17
2.68333,17
2.69167,18
2.70000,18
2.70833,19
2.71667,19
2.72500,19
2.73333,19
2.74167,20
2.75000,20
2.75833,20
2.76667,20
2.77500,21
2.78333,21
2.79167,22
2.80000,22
2.80833,23
2.81667,23
2.82500,24
2.83333,24
2.84167,24
2.85000,24
2.85833,24
2.86667,25
2.87500,25
2.88333,25
2.89167,25
2.90000,25
2.90833,25
2.91667,26
2.92500,26
2.93333,26
2.94167,26
2.95000,26
2.95833,26
2.96667,26
2.97500,26
2.98333,26
2.99167,26
3.00000,26
3.00833,26
3.01667,26
3.02500,25
3.03333,25
3.04167,25
3.05000,25
3.05833,26
3.06667,25
3.07500,25
3.08333,25
3.09167,25
3.10000,25
3.10833,25
3.11667,26
3.12500,26
3.13333,26
3.14167,26
3.15000,26
3.15833,25
3.16667,25
3.17500,25
3.18333,25
3.19167,25
3.20000,25
3.20833,25
3.21667,25
3.22500,25
3.23333,25
3.24167,25
3.25000,24
3.25833,24
3.26667,24
3.27500,24
3.28333,24
3.29167,23
3.30000,23
3.30833,22
3.31667,22
3.32500,22
3.33333,21
3.34167,21
3.35000,20
3.35833,19
3.36667,19
3.37500,18
3.38333,18
3.39167,17
3.40000,17
3.40833,16
3.41667,15
3.42500,15
3.43333,14
3.44167,13
3.45000,13
3.45833,12
3.46667,12
3.47500,12
3.48333,11
3.49167,10
3.50000,9
3.50833,8
3.51667,7
3.52500,6
3.53333,6
3.54167,5
3.55000,5
3.55833,4
3.56667,4
3.57500,3
3.58333,3
3.59167,3
3.60000,3
3.60833,3
3.61667,3
3.62500,2
3.63333,2
3.64167,2
3.65000,2
3.65833,2
3.66667,2
3.67500,2
3.68333,2
3.69167,2
3.70000,2
3.70833,2
3.71667,2
3.72500,1
3.73333,1
3.74167,1
3.75000,1
3.75833,1
3.76667,0
3.77500,1
3.78333,1
3.79167,1
3.80000,2
3.80833,2
3.81667,2
3.82500,2
3.83333,2
3.84167,3
3.85000,3
3.85833,3
3.86667,3
3.87500,3
3.88333,3
3.89167,3
3.90000,3
3.90833,4
3.91667,4
3.92500,4
3.93333,4
3.94167,4
3.95000,5
3.95833,5
3.96667,5
3.97500,5
3.98333,5
3.99167,6
4.00000,6
4.00833,7
4.01667,7
4.02500,7
4.03333,7
4.04167,8
4.05000,8
4.05833,8
4.06667,9
4.07500,9
4.08333,10
4.09167,11
4.10000,11
4.10833,12
4.11667,13
4.12500,14
4.13333,15
4.14167,15
4.15000,16
4.15833,17
4.16667,17
4.17500,18
4.18333,18
4.19167,19
4.20000,19
4.20833,19
4.21667,20
4.22500,20
4.23333,21
4.24167,21
4.25000,22
4.25833,23
4.26667,24
4.27500,25
4.28333,25
4.29167,26
4.30000,26
4.30833,26
4.31667,27
4.32500,27
4.33333,27
4.34167,27
4.35000,28
4.35833,28
4.36667,29
4.37500,29
4.38333,29
4.39167,29
4.40000,29
4.40833,30
4.41667,29
4.42500,29
4.43333,29
4.44167,29
4.45000,29
4.45833,29
4.46667,28
4.47500,28
4.48333,27
4.49167,27
4.50000,27
4.50833,27
4.51667,26
4.52500,26
4.53333,26
4.54167,26
4.55000,25
4.55833,24
4.56667,24
4.57500,23
4.58333,23
4.59167,23
4.60000,22
4.60833,22
4.61667,22
4.62500,21
4.63333,21
4.64167,21
4.65000,20
4.65833,20
4.66667,19
4.67500,18
4.68333,18
4.69167,18
4.70000,17
4.70833,17
4.71667,17
4.72500,16
4.73333,16
4.74167,15
4.75000,15
4.75833,15
4.76667,14
4.77500,14
4.78333,14
4.79167,14
4.80000,14
4.80833,14
4.81667,14
4.82500,14
4.83333,14
4.84167,13
4.85000,14
4.85833,14
4.86667,14
4.87500,14
4.88333,14
4.89167,15
4.90000,15
4.90833,16
4.91667,16
4.92500,16
4.93333,17
4.94167,18
4.95000,18
4.95833,18
4.96667,18
4.97500,18
4.98333,19
4.99167,19
5.00000,19
5.00833,19
5.01667,19
5.02500,19
5.03333,20
5.04167,20
5.05000,20
5.05833,20
5.06667,20
5.07500,21
5.08333,21
5.09167,22
5.10000,22
5.10833,23
5.11667,23
5.12500,23
5.13333,23
5.14167,23
5.15000,23
5.15833,22
5.16667,22
5.17500,22
5.18333,23
5.19167,23
5.20000,23
5.20833,23
5.21667,22
5.22500,22
5.23333,22
5.24167,22
5.25000,22
5.25833,22
5.26667,22
5.27500,22
5.28333,22
5.29167,22
5.30000,22
5.30833,21
5.31667,21
5.32500,21
5.33333,21
5.34167,21
5.35000,21
5.35833,20
5.36667,20
5.37500,19
5.38333,19
5.39167,18
5.40000,18
5.40833,17
5.41667,17
5.42500,17
5.43333,17
5.44167,17
5.45000,17
5.45833,17
5.46667,17
5.47500,17
5.48333,18
5.49167,18
5.50000,18
5.50833,17
5.51667,17
5.52500,17
5.53333,17
5.54167,17
5.55000,18
5.55833,18
5.56667,18
5.57500,18
5.58333,18
5.59167,18
5.60000,18
5.60833,18
5.61667,18
5.62500,18
5.63333,18
5.64167,19
5.65000,19
5.65833,19
5.66667,19
5.67500,19
5.68333,19
5.69167,19
5.70000,19
5.70833,19
5.71667,19
5.72500,19
5.73333,19
5.74167,19
5.75000,19
5.75833,19
5.76667,19
5.77500,19
5.78333,19
5.79167,19
5.80000,19
5.80833,18
5.81667,18
5.82500,18
5.83333,17
5.84167,17
5.85000,16
5.85833,16
5.86667,15
5.87500,15
5.88333,15
5.89167,14
5.90000,14
5.90833,14
5.91667,13
5.92500,13
5.93333,13
5.94167,12
5.95000,11
5.95833,11
5.96667,10
5.97500,10
5.98333,9
5.99167,8
6.00000,8
6.00833,8
6.01667,7
6.02500,7
6.03333,7
6.04167,6
6.05000,6
6.05833,6
6.06667,5
6.07500,5
6.08333,5
6.09167,4
6.10000,4
6.10833,3
6.11667,3
6.12500,3
6.13333,2
6.14167,2
6.15000,2
6.15833,1
6.16667,0
6.17500,0
6.18333,0
6.19167,0
6.20000,0
6.20833,0
6.21667,0
6.22500,-0
6.23333,-0
6.24167,-1
6.25000,-1
6.25833,-1
6.26667,-2
6.27500,-2
6.28333,-2
6.29167,-2
6.30000,-2
6.30833,-2
6.31667,-2
6.32500,-2
6.33333,-2
6.34167,-2
6.35000,-2
6.35833,-2
6.36667,-1
6.37500,-1
6.38333,-0
6.39167,0
6.40000,0
6.40833,0
6.41667,0
6.42500,0
6.43333,0
6.44167,1
6.45000,1
6.45833,1
6.46667,2
6.47500,2
6.48333,2
6.49167,3
6.50000,4
6.50833,5
6.51667,6
6.52500,7
6.53333,7
6.54167,8
6.55000,8
6.55833,9
6.56667,9
6.57500,10
6.58333,10
6.59167,11
6.60000,12
6.60833,12
6.61667,13
6.62500,13
6.63333,14
6.64167,15
6.65000,15
6.65833,16
6.66667,16
6.67500,16
6.68333,16
6.69167,16
6.70000,16
6.70833,17
6.71667,17
6.72500,17
6.73333,17
6.74167,17
6.75000,18
6.75833,18
6.76667,18
6.77500,18
6.78333,18
6.79167,18
6.80000,18
6.80833,18
6.81667,19
6.82500,19
6.83333,19
6.84167,19
6.85000,19
6.85833,19
6.86667,18
6.87500,18
6.88333,18
6.89167,18
6.90000,19
6.90833,18
6.91667,18
6.92500,19
6.93333,19
6.94167,19
6.95000,19
6.95833,19
6.96667,19
6.97500,19
6.98333,20
6.99167,20
7.00000,20
7.00833,20
7.01667,20
7.02500,21
7.03333,21
7.04167,21
7.05000,21
7.05833,22
7.06667,22
7.07500,23
7.08333,23
7.09167,23
7.10000,23
7.10833,23
7.11667,23
7.12500,23
7.13333,24
7.14167,25
7.15000,26
7.15833,27
7.16667,27
7.17500,28
7.18333,28
7.19167,28
7.20000,28
7.20833,28
7.21667,28
7.22500,28
7.23333,29
7.24167,29
7.25000,29
7.25833,30
7.26667,30
7.27500,30
7.28333,30
7.29167,30
7.30000,30
7.30833,30
7.31667,30
7.32500,29
7.33333,29
7.34167,28
7.35000,28
7.35833,28
7.36667,27
7.37500,27
7.38333,27
7.39167,27
7.40000,27
7.40833,27
7.41667,27
7.42500,26
7.43333,25
7.44167,25
7.45000,24
7.45833,24
7.46667,23
7.47500,22
7.48333,21
7.49167,21
7.50000,21
7.50833,20
7.51667,19
7.52500,19
7.53333,18
7.54167,18
7.55000,17
7.55833,17
7.56667,16
7.57500,16
7.58333,16
7.59167,16
7.60000,15
7.60833,15
7.61667,15
7.62500,14
7.63333,14
7.64167,14
7.65000,14
7.65833,13
7.66667,13
7.67500,13
7.68333,13
7.69167,13
7.70000,13
7.70833,13
7.71667,13
7.72500,13
7.73333,13
7.74167,13
7.75000,13
7.75833,13
7.76667,13
7.77500,13
7.78333,14
7.79167,14
7.80000,15
7.80833,15
7.81667,15
7.82500,15
7.83333,16
7.84167,16
7.85000,16
7.85833,17
7.86667,17
7.87500,18
7.88333,18
7.89167,19
7.90000,19
7.90833,19
7.91667,20
7.92500,19
7.93333,20
7.94167,20
7.95000,20
7.95833,20
7.96667,20
7.97500,20
7.98333,20
7.99167,20
8.00000,20
8.00833,20
8.01667,20
8.02500,20
8.03333,20
8.04167,20
8.05000,20
8.05833,20
8.06667,20
8.07500,20
8.08333,19
8.09167,19
8.10000,19
8.10833,19
8.11667,18
8.12500,18
8.13333,18
8.14167,17
8.15000,17
8.15833,16
8.16667,16
8.17500,16
8.18333,16
8.19167,16
8.20000,16
8.20833,16
8.21667,16
8.22500,16
8.23333,16
8.24167,16
8.25000,16
8.25833,16
8.26667,16
8.27500,16
8.28333,16
8.29167,16
8.30000,16
8.30833,16
8.31667,16
8.32500,16
8.33333,17
8.34167,17
8.35000,17
8.35833,17
8.36667,18
8.37500,18
8.38333,19
8.39167,19
8.40000,20
8.40833,20
8.41667,20
8.42500,21
8.43333,21
8.44167,21
8.45000,21
8.45833,22
8.46667,22
8.47500,23
8.48333,23
8.49167,23
8.50000,23
8.50833,24
8.51667,24
8.52500,25
8.53333,25
8.54167,25
8.55000,26
8.55833,26
8.56667,26
8.57500,27
8.58333,27
8.59167,28
8.60000,28
8.60833,28
8.61667,29
8.62500,29
8.63333,30
8.64167,30
8.65000,30
8.65833,30
8.66667,31
8.67500,31
8.68333,30
8.69167,30
8.70000,30
8.70833,30
8.71667,30
8.72500,30
8.73333,30
8.74167,30
8.75000,30
8.75833,30
8.76667,29
8.77500,29
8.78333,29
8.79167,29
8.80000,29
8.80833,29
8.81667,28
8.82500,28
8.83333,27
8.84167,27
8.85000,26
8.85833,26
8.86667,25
8.87500,24
8.88333,23
8.89167,23
8.90000,23
8.90833,22
8.91667,22
8.92500,21
8.93333,21
8.94167,20
8.95000,20
8.95833,19
8.96667,18
8.97500,17
8.98333,17
8.99167,16
9.00000,16
9.00833,16
9.01667,16
9.02500,16
9.03333,15
9.04167,15
9.05000,14
9.05833,14
9.06667,13
9.07500,13
9.08333,12
9.09167,12
9.10000,11
9.10833,11
9.11667,11
9.12500,10
9.13333,10
9.14167,10
9.15000,10
9.15833,10
9.16667,10
9.17500,10
9.18333,10
9.19167,10
9.20000,10
9.20833,10
9.21667,9
9.22500,9
9.23333,9
9.24167,9
9.25000,10
9.25833,10
9.26667,10
9.27500,10
9.28333,11
9.29167,11
9.30000,12
9.30833,12
9.31667,13
9.32500,13
9.33333,13
9.34167,13
9.35000,14
9.35833,14
9.36667,14
9.37500,15
9.38333,15
9.39167,16
9.40000,16
9.40833,17
9.41667,17
9.42500,17
9.43333,18
9.44167,18
9.45000,19
9.45833,19
9.46667,20
9.47500,20
9.48333,20
9.49167,20
9.50000,20
9.50833,20
9.51667,20
9.52500,20
9.53333,21
9.54167,21
9.55000,21
9.55833,21
9.56667,21
9.57500,21
9.58333,20
9.59167,20
9.60000,19
9.60833,19
9.61667,19
9.62500,19
9.63333,19
9.64167,19
9.65000,18
9.65833,18
9.66667,17
9.67500,17
9.68333,16
9.69167,16
9.70000,16
9.70833,16
9.71667,16
9.72500,16
9.73333,15
9.74167,15
9.75000,14
9.75833,14
9.76667,14
9.77500,14
9.78333,14
9.79167,14
9.80000,14
9.80833,14
9.81667,14
9.82500,14
9.83333,14
9.84167,14
9.85000,14
9.85833,15
9.86667,15
9.87500,15
9.88333,14
9.89167,15
9.90000,15
9.90833,15
9.91667,16
9.92500,17
9.93333,17
9.94167,18
9.95000,19
9.95833,19
9.96667,20
9.97500,21
9.98333,22
9.99167,23
10.00000,24
10.00833,24
10.01667,25
10.02500,26
10.03333,27
10.04167,27
10.05000,28
10.05833,28
10.06667,29
10.07500,29
10.08333,30
10.09167,32
10.10000,32
10.10833,33
10.11667,33
10.12500,33
10.13333,34
10.14167,34
10.15000,35
10.15833,35
10.16667,35
10.17500,35
10.18333,35
10.19167,35
10.20000,35
10.20833,35
10.21667,35
10.22500,35
10.23333,35
10.24167,35
10.25000,35
10.25833,35
10.26667,35
10.27500,35
10.28333,35
10.29167,34
10.30000,34
10.30833,33
10.31667,33
10.32500,32
10.33333,32
10.34167,31
10.35000,31
10.35833,30
10.36667,30
10.37500,29
10.38333,29
10.39167,27
10.40000,26
10.40833,24
10.41667,20
10.42500,16
10.43333,9
10.44167,1
10.45000,-10
10.45833,-25
10.46667,-44
10.47500,-67
10.48333,-97
10.49167,-134
10.50000,-178
10.50833,-231
10.51667,-293
10.52500,-363
10.53333,-440
10.54167,-524
10.55000,-613
10.55833,-703
10.56667,-792
10.57500,-875
10.58333,-947
10.59167,-1002
10.60000,-1033
10.60833,-1033
10.61667,-996
10.62500,-913
10.63333,-777
10.64167,-581
10.65000,-315
10.65833,25
10.66667,447
10.67500,957
10.68333,1559
10.69167,2259
10.70000,3061
10.70833,3969
10.71667,4985
10.72500,6111
10.73333,7348
10.74167,8698
10.75000,10161
10.75833,11736
10.76667,13424
10.77500,15223
10.78333,17132
10.79167,19147
10.80000,21268
10.80833,23492
10.81667,25814
10.82500,28231
10.83333,30739
10.84167,33333
10.85000,36008
10.85833,38756
10.86667,41570
10.87500,44442
10.88333,47362
10.89167,50317
10.90000,53293
10.90833,56273
10.91667,59236
10.92500,62157
10.93333,65006
10.94167,67747
10.95000,70338
10.95833,72732
10.96667,74873
10.97500,76703
10.98333,78162
10.99167,79189
11.00000,79728
11.00833,79732
11.01667,79168
11.02500,78020
11.03333,76292
11.04167,74006
11.05000,71209
11.05833,67962
11.06667,64341
11.07500,60434
11.08333,56330
11.09167,52119
11.10000,47887
11.10833,43710
11.11667,39653
11.12500,35771
11.13333,32104
11.14167,28679
11.15000,25515
11.15833,22619
11.16667,19990
11.17500,17622
11.18333,15501
11.19167,13615
11.20000,11944
11.20833,10472
11.21667,9179
11.22500,8048
11.23333,7060
11.24167,6200
11.25000,5452
11.25833,4802
11.26667,4240
11.27500,3753
11.28333,3331
11.29167,2966
11.30000,2649
11.30833,2375
11.31667,2137
11.32500,1930
11.33333,1750
11.34167,1594
11.35000,1457
11.35833,1337
11.36667,1232
11.37500,1140
11.38333,1059
11.39167,986
11.40000,921
11.40833,863
11.41667,812
11.42500,765
11.43333,723
11.44167,685
11.45000,650
11.45833,618
11.46667,589
11.47500,562
11.48333,537
11.49167,514
11.50000,493
11.50833,473
11.51667,455
11.52500,437
11.53333,421
11.54167,405
11.55000,391
11.55833,377
11.56667,364
11.57500,351
11.58333,339
11.59167,327
11.60000,317
11.60833,307
11.61667,297
11.62500,287
11.63333,278
11.64167,269
11.65000,261
11.65833,254
11.66667,246
11.67500,240
11.68333,233
11.69167,227
11.70000,221
11.70833,215
11.71667,210
11.72500,205
11.73333,200
11.74167,195
11.75000,191
11.75833,186
11.76667,183
11.77500,179
11.78333,176
11.79167,173
11.80000,170
11.80833,167
11.81667,164
11.82500,162
11.83333,160
11.84167,158
11.85000,156
11.85833,154
11.86667,151
11.87500,149
11.88333,148
11.89167,146
11.90000,145
11.90833,144
11.91667,142
11.92500,141
11.93333,140
11.94167,139
11.95000,137
11.95833,136
11.96667,135
11.97500,133
11.98333,132
11.99167,130
12.00000,129
12.00833,128
12.01667,127
12.02500,126
12.03333,125
12.04167,124
12.05000,123
12.05833,122
12.06667,121
12.07500,121
12.08333,120
12.09167,119
12.10000,119
12.10833,118
12.11667,117
12.12500,116
12.13333,116
12.14167,115
12.15000,115
12.15833,115
12.16667,115
12.17500,115
12.18333,115
12.19167,115
12.20000,115
12.20833,115
12.21667,115
12.22500,115
12.23333,115
12.24167,115
12.25000,115
12.25833,116
12.26667,116
12.27500,116
12.28333,116
12.29167,116
12.30000,116
12.30833,116
12.31667,116
12.32500,117
12.33333,117
12.34167,118
12.35000,118
12.35833,118
12.36667,118
12.37500,118
12.38333,118
12.39167,118
12.40000,118
12.40833,118
12.41667,118
12.42500,118
12.43333,118
12.44167,117
12.45000,117
12.45833,117
12.46667,117
12.47500,116
12.48333,115
12.49167,114
12.50000,114
12.50833,113
12.51667,112
12.52500,112
12.53333,111
12.54167,110
12.55000,109
12.55833,109
12.56667,108
12.57500,107
12.58333,106
12.59167,105
12.60000,104
12.60833,103
12.61667,102
12.62500,101
12.63333,100
12.64167,100
12.65000,99
12.65833,99
12.66667,100
12.67500,100
12.68333,102
12.69167,103
12.70000,106
12.70833,110
12.71667,114
12.72500,120
12.73333,129
12.74167,139
12.75000,152
12.75833,167
12.76667,185
12.77500,206
12.78333,231
12.79167,261
12.80000,295
12.80833,334
12.81667,378
12.82500,427
12.83333,482
12.84167,544
12.85000,611
12.85833,685
12.86667,766
12.87500,854
12.88333,948
12.89167,1050
12.90000,1160
12.90833,1276
12.91667,1400
12.92500,1531
12.93333,1669
12.94167,1813
12.95000,1965
12.95833,2123
12.96667,2288
12.97500,2460
12.98333,2638
12.99167,2822
13.00000,3012
13.00833,3207
13.01667,3408
13.02500,3614
13.03333,3825
13.04167,4041
13.05000,4263
13.05833,4489
13.06667,4719
13.07500,4954
13.08333,5194
13.09167,5437
13.10000,5684
13.10833,5935
13.11667,6191
13.12500,6449
13.13333,6712
13.14167,6977
13.15000,7246
13.15833,7519
13.16667,7795
13.17500,8075
13.18333,8357
13.19167,8642
13.20000,8930
13.20833,9221
13.21667,9515
13.22500,9812
13.23333,10112
13.24167,10415
13.25000,10721
13.25833,11031
13.26667,11342
13.27500,11656
13.28333,11973
13.29167,12293
13.30000,12616
13.30833,12941
13.31667,13269
13.32500,13600
13.33333,13934
13.34167,14270
13.35000,14609
13.35833,14951
13.36667,15296
13.37500,15644
13.38333,15994
13.39167,16347
13.40000,16703
13.40833,17062
13.41667,17424
13.42500,17788
13.43333,18156
13.44167,18526
13.45000,18899
13.45833,19275
13.46667,19654
13.47500,20036
13.48333,20420
13.49167,20808
13.50000,21199
13.50833,21593
13.51667,21989
13.52500,22389
13.53333,22792
13.54167,23198
13.55000,23607
13.55833,24019
13.56667,24435
13.57500,24853
13.58333,25275
13.59167,25701
13.60000,26129
13.60833,26561
13.61667,26996
13.62500,27435
13.63333,27876
13.64167,28322
13.65000,28771
13.65833,29223
13.66667,29678
13.67500,30138
13.68333,30601
13.69167,31067
13.70000,31537
13.70833,32012
13.71667,32490
13.72500,32971
13.73333,33457
13.74167,33946
13.75000,34440
13.75833,34937
13.76667,35439
13.77500,35944
13.78333,36453
13.79167,36966
13.80000,37483
13.80833,38004
13.81667,38530
13.82500,39059
13.83333,39593
13.84167,40131
13.85000,40674
13.85833,41221
13.86667,41773
13.87500,42329
13.88333,42890
13.89167,43455
13.90000,44025
13.90833,44600
13.91667,45180
13.92500,45764
13.93333,46353
13.94167,46947
13.95000,47546
13.95833,48150
13.96667,48759
13.97500,49374
13.98333,49994
13.99167,50618
14.00000,51248
14.00833,51884
14.01667,52525
14.02500,53172
14.03333,53824
14.04167,54482
14.05000,55145
14.05833,55814
14.06667,56489
14.07500,57169
14.08333,57856
14.09167,58549
14.10000,59248
14.10833,59953
14.11667,60665
14.12500,61382
14.13333,62106
14.14167,62835
14.15000,63572
14.15833,64314
14.16667,65064
14.17500,65820
14.18333,66583
14.19167,67352
14.20000,68128
14.20833,68912
14.21667,69702
14.22500,70500
14.23333,71304
14.24167,72115
14.25000,72932
14.25833,73756
14.26667,74584
14.27500,75416
14.28333,76247
14.29167,77071
14.30000,77878
14.30833,78657
14.31667,79387
14.32500,80047
14.33333,80606
14.34167,81031
14.35000,81282
14.35833,81318
14.36667,81098
14.37500,80581
14.38333,79733
14.39167,78526
14.40000,76944
14.40833,74978
14.41667,72636
14.42500,69938
14.43333,66914
14.44167,63607
14.45000,60070
14.45833,56359
14.46667,52536
14.47500,48665
14.48333,44806
14.49167,41015
14.50000,37343
14.50833,33829
14.51667,30509
14.52500,27404
14.53333,24532
14.54167,21898
14.55000,19503
14.55833,17340
14.56667,15400
14.57500,13671
14.58333,12135
14.59167,10777
14.60000,9580
14.60833,8528
14.61667,7605
14.62500,6797
14.63333,6088
14.64167,5469
14.65000,4926
14.65833,4451
14.66667,4034
14.67500,3668
14.68333,3346
14.69167,3062
14.70000,2812
14.70833,2591
14.71667,2395
14.72500,2222
14.73333,2067
14.74167,1929
14.75000,1806
14.75833,1696
14.76667,1596
14.77500,1506
14.78333,1425
14.79167,1352
14.80000,1285
14.80833,1225
14.81667,1169
14.82500,1118
14.83333,1071
14.84167,1028
14.85000,988
14.85833,952
14.86667,918
14.87500,887
14.88333,858
14.89167,831
14.90000,806
14.90833,782
14.91667,761
14.92500,741
14.93333,723
14.94167,705
14.95000,689
14.95833,674
14.96667,659
14.97500,646
14.98333,634
14.99167,622
15.00000,611
15.00833,601
15.01667,592
15.02500,583
15.03333,575
15.04167,567
15.05000,560
15.05833,553
15.06667,547
15.07500,541
15.08333,536
15.09167,531
15.10000,526
15.10833,522
15.11667,518
15.12500,514
15.13333,510
15.14167,506
15.15000,503
15.15833,500
15.16667,497
15.17500,495
15.18333,493
15.19167,491
15.20000,491
15.20833,491
15.21667,491
15.22500,493
15.23333,495
15.24167,499
15.25000,504
15.25833,511
15.26667,519
15.27500,530
15.28333,542
15.29167,557
15.30000,575
15.30833,596
15.31667,620
15.32500,648
15.33333,681
15.34167,718
15.35000,759
15.35833,806
15.36667,858
15.37500,915
15.38333,979
15.39167,1048
15.40000,1123
15.40833,1205
15.41667,1293
15.42500,1388
15.43333,1487
15.44167,1593
15.45000,1703
15.45833,1819
15.46667,1939
15.47500,2064
15.48333,2192
15.49167,2323
15.50000,2456
15.50833,2590
15.51667,2724
15.52500,2857
15.53333,2989
15.54167,3119
15.55000,3245
15.55833,3366
15.56667,3482
15.57500,3592
15.58333,3695
15.59167,3790
15.60000,3876
15.60833,3954
15.61667,4021
15.62500,4079
15.63333,4126
15.64167,4162
15.65000,4187
15.65833,4201
15.66667,4204
15.67500,4196
15.68333,4177
15.69167,4148
15.70000,4110
15.70833,4062
15.71667,4005
15.72500,3939
15.73333,3866
15.74167,3786
15.75000,3699
15.75833,3607
15.76667,3509
15.77500,3408
15.78333,3303
15.79167,3195
15.80000,3085
15.80833,2973
15.81667,2860
15.82500,2747
15.83333,2634
15.84167,2522
15.85000,2412
15.85833,2303
15.86667,2196
15.87500,2091
15.88333,1990
15.89167,1891
15.90000,1795
15.90833,1703
15.91667,1615
15.92500,1530
15.93333,1449
15.94167,1371
15.95000,1297
15.95833,1226
15.96667,1159
15.97500,1096
15.98333,1037
15.99167,981
16.00000,929
16.00833,880
16.01667,834
16.02500,790
16.03333,750
16.04167,712
16.05000,678
16.05833,645
16.06667,615
16.07500,587
16.08333,561
16.09167,537
16.10000,514
16.10833,494
16.11667,475
16.12500,457
16.13333,441
16.14167,427
16.15000,413
16.15833,400
16.16667,388
16.17500,377
16.18333,367
16.19167,357
16.20000,349
16.20833,341
16.21667,333
16.22500,326
16.23333,320
16.24167,313
16.25000,308
16.25833,302
16.26667,297
16.27500,292
16.28333,288
16.29167,283
16.30000,279
16.30833,275
16.31667,271
16.32500,267
16.33333,264
16.34167,260
16.35000,257
16.35833,254
16.36667,251
16.37500,248
16.38333,245
16.39167,242
16.40000,240
16.40833,238
16.41667,235
16.42500,233
16.43333,231
16.44167,229
16.45000,226
16.45833,224
16.46667,222
16.47500,221
16.48333,219
16.49167,218
16.50000,216
16.50833,214
16.51667,213
16.52500,211
16.53333,210
16.54167,208
16.55000,207
16.55833,206
16.56667,205
16.57500,204
16.58333,202
16.59167,201
16.60000,201
16.60833,200
16.61667,199
16.62500,198
16.63333,197
16.64167,196
16.65000,196
16.65833,195
16.66667,194
16.67500,194
16.68333,193
16.69167,192
16.70000,191
16.70833,190
16.71667,190
16.72500,189
16.73333,189
16.74167,188
16.75000,187
16.75833,187
16.76667,186
16.77500,185
16.78333,184
16.79167,183
16.80000,182
16.80833,182
16.81667,181
16.82500,180
16.83333,179
16.84167,178
16.85000,177
16.85833,176
16.86667,175
16.87500,175
16.88333,174
16.89167,173
16.90000,172
16.90833,171
16.91667,170
16.92500,169
16.93333,168
16.94167,168
16.95000,167
16.95833,166
16.96667,165
16.97500,164
16.98333,164
16.99167,163
17.00000,163
17.00833,162
17.01667,161
17.02500,161
17.03333,161
17.04167,161
17.05000,161
17.05833,160
17.06667,160
17.07500,159
17.08333,158
17.09167,158
17.10000,157
17.10833,157
17.11667,156
17.12500,156
17.13333,156
17.14167,156
17.15000,155
17.15833,155
17.16667,155
17.17500,154
17.18333,154
17.19167,154
17.20000,153
17.20833,153
17.21667,152
17.22500,151
17.23333,151
17.24167,150
17.25000,149
17.25833,149
17.26667,148
17.27500,148
17.28333,147
17.29167,146
17.30000,146
17.30833,145
17.31667,144
17.32500,143
17.33333,142
17.34167,141
17.35000,140
17.35833,139
17.36667,138
17.37500,137
17.38333,136
17.39167,135
17.40000,134
17.40833,134
17.41667,132
17.42500,132
17.43333,131
17.44167,130
17.45000,129
17.45833,128
17.46667,127
17.47500,126
17.48333,125
17.49167,124
17.50000,123
17.50833,122
17.51667,121
17.52500,121
17.53333,120
17.54167,119
17.55000,118
17.55833,117
17.56667,117
17.57500,117
17.58333,116
17.59167,116
17.60000,116
17.60833,116
17.61667,115
17.62500,115
17.63333,115
17.64167,115
17.65000,115
17.65833,114
17.66667,114
17.67500,114
17.68333,114
17.69167,114
17.70000,114
17.70833,114
17.71667,114
17.72500,114
17.73333,114
17.74167,114
17.75000,114
17.75833,114
17.76667,115
17.77500,114
17.78333,114
17.79167,114
17.80000,114
17.80833,113
17.81667,113
17.82500,113
17.83333,113
17.84167,113
17.85000,112
17.85833,112
17.86667,111
17.87500,111
17.88333,111
17.89167,111
17.90000,110
17.90833,110
17.91667,109
17.92500,108
17.93333,108
17.94167,107
17.95000,106
17.95833,105
17.96667,105
17.97500,104
17.98333,103
17.99167,103
18.00000,102
18.00833,102
18.01667,101
18.02500,100
18.03333,99
18.04167,98
18.05000,98
18.05833,97
18.06667,97
18.07500,96
18.08333,95
18.09167,94
18.10000,93
18.10833,93
18.11667,92
18.12500,91
18.13333,90
18.14167,90
18.15000,89
18.15833,89
18.16667,88
18.17500,88
18.18333,87
18.19167,87
18.20000,86
18.20833,85
18.21667,84
18.22500,84
18.23333,83
18.24167,83
18.25000,83
18.25833,82
18.26667,82
18.27500,81
18.28333,80
18.29167,80
18.30000,80
18.30833,79
18.31667,79
18.32500,79
18.33333,79
18.34167,79
18.35000,78
18.35833,78
18.36667,77
18.37500,77
18.38333,77
18.39167,77
18.40000,78
18.40833,78
18.41667,78
18.42500,78
18.43333,78
18.44167,78
18.45000,77
18.45833,77
18.46667,77
18.47500,77
18.48333,77
18.49167,77
18.50000,77
18.50833,77
18.51667,77
18.52500,77
18.53333,77
18.54167,77
18.55000,77
18.55833,77
18.56667,77
18.57500,77
18.58333,76
18.59167,76
18.60000,76
18.60833,76
18.61667,75
18.62500,75
18.63333,76
18.64167,75
18.65000,75
18.65833,75
18.66667,75
18.67500,75
18.68333,75
18.69167,75
18.70000,75
18.70833,75
18.71667,75
18.72500,76
18.73333,76
18.74167,76
18.75000,77
18.75833,77
18.76667,78
18.77500,79
18.78333,80
18.79167,81
18.80000,82
18.80833,82
18.81667,83
18.82500,83
18.83333,84
18.84167,84
18.85000,86
18.85833,87
18.86667,88
18.87500,89
18.88333,90
18.89167,92
18.90000,93
18.90833,94
18.91667,95
18.92500,96
18.93333,98
18.94167,99
18.95000,100
18.95833,101
18.96667,102
18.97500,102
18.98333,103
18.99167,104
19.00000,106
19.00833,106
19.01667,107
19.02500,108
19.03333,109
19.04167,109
19.05000,109
19.05833,109
19.06667,109
19.07500,109
19.08333,109
19.09167,109
19.10000,108
19.10833,107
19.11667,107
19.12500,106
19.13333,105
19.14167,104
19.15000,104
19.15833,103
19.16667,102
19.17500,101
19.18333,100
19.19167,99
19.20000,98
19.20833,96
19.21667,95
19.22500,93
19.23333,92
19.24167,91
19.25000,89
19.25833,87
19.26667,86
19.27500,84
19.28333,83
19.29167,82
19.30000,81
19.30833,80
19.31667,79
19.32500,78
19.33333,77
19.34167,76
19.35000,75
19.35833,75
19.36667,74
19.37500,73
19.38333,73
19.39167,72
19.40000,71
19.40833,70
19.41667,70
19.42500,70
19.43333,69
19.44167,69
19.45000,69
19.45833,68
19.46667,68
19.47500,67
19.48333,67
19.49167,66
19.50000,66
19.50833,65
19.51667,65
19.52500,65
19.53333,64
19.54167,64
19.55000,64
19.55833,64
19.56667,63
19.57500,62
19.58333,61
19.59167,61
19.60000,60
19.60833,60
19.61667,60
19.62500,60
19.63333,59
19.64167,58
19.65000,58
19.65833,57
19.66667,57
19.67500,56
19.68333,56
19.69167,55
19.70000,55
19.70833,55
19.71667,55
19.72500,54
19.73333,54
19.74167,53
19.75000,52
19.75833,52
19.76667,51
19.77500,50
19.78333,50
19.79167,50
19.80000,49
19.80833,49
19.81667,48
19.82500,47
19.83333,46
19.84167,45
19.85000,44
19.85833,44
19.86667,43
19.87500,43
19.88333,42
19.89167,42
19.90000,41
19.90833,41
19.91667,41
19.92500,40
19.93333,39
19.94167,39
19.95000,38
19.95833,38
19.96667,37
19.97500,37
19.98333,37
19.99167,36
20.00000,36
20.00833,35
20.01667,35
20.02500,35
20.03333,35
20.04167,35
20.05000,35
20.05833,36
20.06667,35
20.07500,35
20.08333,35
20.09167,35
20.10000,35
20.10833,35
20.11667,36
20.12500,36
20.13333,36
20.14167,37
20.15000,37
20.15833,38
20.16667,39
20.17500,40
20.18333,41
20.19167,42
20.20000,42
20.20833,43
20.21667,45
20.22500,46
20.23333,47
20.24167,48
20.25000,48
20.25833,49
20.26667,50
20.27500,51
20.28333,52
20.29167,53
20.30000,54
20.30833,55
20.31667,55
20.32500,56
20.33333,57
20.34167,58
20.35000,59
20.35833,60
20.36667,60
20.37500,61
20.38333,62
20.39167,62
20.40000,63
20.40833,64
20.41667,65
20.42500,65
20.43333,66
20.44167,66
20.45000,67
20.45833,67
20.46667,67
20.47500,68
20.48333,68
20.49167,69
20.50000,70
20.50833,70
20.51667,70
20.52500,71
20.53333,71
20.54167,72
20.55000,72
20.55833,73
20.56667,74
20.57500,74
20.58333,74
20.59167,75
20.60000,75
20.60833,75
20.61667,76
20.62500,76
20.63333,77
20.64167,77
20.65000,77
20.65833,76
20.66667,76
20.67500,76
20.68333,76
20.69167,76
20.70000,77
20.70833,77
20.71667,77
20.72500,77
20.73333,77
20.74167,76
20.75000,76
20.75833,76
20.76667,75
20.77500,75
20.78333,74
20.79167,74
20.80000,73
20.80833,73
20.81667,72
20.82500,72
20.83333,71
20.84167,71
20.85000,71
20.85833,70
20.86667,69
20.87500,69
20.88333,68
20.89167,67
20.90000,67
20.90833,67
20.91667,66
20.92500,65
20.93333,64
20.94167,63
20.95000,62
20.95833,62
20.96667,62
20.97500,61
20.98333,60
20.99167,60
21.00000,60
21.00833,59
21.01667,59
21.02500,58
21.03333,57
21.04167,57
21.05000,56
21.05833,55
21.06667,55
21.07500,54
21.08333,54
21.09167,53
21.10000,52
21.10833,52
21.11667,51
21.12500,50
21.13333,49
21.14167,49
21.15000,48
21.15833,48
21.16667,48
21.17500,47
21.18333,47
21.19167,47
21.20000,46
21.20833,46
21.21667,46
21.22500,45
21.23333,45
21.24167,45
21.25000,45
21.25833,44
21.26667,44
21.27500,44
21.28333,43
21.29167,43
21.30000,43
21.30833,44
21.31667,44
21.32500,44
21.33333,44
21.34167,44
21.35000,44
21.35833,44
21.36667,44
21.37500,44
21.38333,43
21.39167,44
21.40000,44
21.40833,44
21.41667,45
21.42500,46
21.43333,46
21.44167,47
21.45000,47
21.45833,47
21.46667,48
21.47500,49
21.48333,51
21.49167,52
21.50000,53
21.50833,54
21.51667,56
21.52500,57
21.53333,58
21.54167,60
21.55000,62
21.55833,64
21.56667,66
21.57500,69
21.58333,72
21.59167,76
21.60000,79
21.60833,84
21.61667,88
21.62500,93
21.63333,99
21.64167,105
21.65000,112
21.65833,119
21.66667,127
21.67500,136
21.68333,146
21.69167,157
21.70000,169
21.70833,181
21.71667,195
21.72500,209
21.73333,225
21.74167,242
21.75000,260
21.75833,278
21.76667,298
21.77500,320
21.78333,342
21.79167,366
21.80000,390
21.80833,416
21.81667,442
21.82500,469
21.83333,497
21.84167,526
21.85000,555
21.85833,585
21.86667,615
21.87500,646
21.88333,676
21.89167,706
21.90000,736
21.90833,766
21.91667,795
21.92500,824
21.93333,852
21.94167,878
21.95000,904
21.95833,928
21.96667,950
21.97500,972
21.98333,992
21.99167,1009
22.00000,1025
22.00833,1039
22.01667,1051
22.02500,1061
22.03333,1069
22.04167,1074
22.05000,1077
22.05833,1078
22.06667,1077
22.07500,1073
22.08333,1067
22.09167,1059
22.10000,1049
22.10833,1038
22.11667,1024
22.12500,1008
22.13333,991
22.14167,972
22.15000,953
22.15833,931
22.16667,909
22.17500,886
22.18333,862
22.19167,838
22.20000,813
22.20833,787
22.21667,761
22.22500,735
22.23333,708
22.24167,682
22.25000,655
22.25833,629
22.26667,602
22.27500,577
22.28333,551
22.29167,526
22.30000,502
22.30833,479
22.31667,456
22.32500,434
22.33333,412
22.34167,392
22.35000,372
22.35833,353
22.36667,335
22.37500,317
22.38333,301
22.39167,286
22.40000,271
22.40833,257
22.41667,244
22.42500,231
22.43333,220
22.44167,208
22.45000,198
22.45833,188
22.46667,180
22.47500,171
22.48333,163
22.49167,156
22.50000,149
22.50833,142
22.51667,136
22.52500,131
22.53333,126
22.54167,121
22.55000,117
22.55833,113
22.56667,110
22.57500,107
22.58333,104
22.59167,101
22.60000,98
22.60833,96
22.61667,94
22.62500,92
22.63333,90
22.64167,88
22.65000,86
22.65833,85
22.66667,84
22.67500,82
22.68333,81
22.69167,80
22.70000,79
22.70833,79
22.71667,78
22.72500,77
22.73333,76
22.74167,75
22.75000,74
22.75833,73
22.76667,72
22.77500,71
22.78333,71
22.79167,70
22.80000,70
22.80833,69
22.81667,69
22.82500,68
22.83333,68
22.84167,67
22.85000,67
22.85833,66
22.86667,65
22.87500,65
22.88333,64
22.89167,64
22.90000,64
22.90833,64
22.91667,63
22.92500,63
22.93333,62
22.94167,62
22.95000,61
22.95833,60
22.96667,60
22.97500,60
22.98333,59
22.99167,59
23.00000,58
23.00833,58
23.01667,58
23.02500,58
23.03333,58
23.04167,58
23.05000,57
23.05833,57
23.06667,57
23.07500,57
23.08333,57
23.09167,57
23.10000,57
23.10833,57
23.11667,57
23.12500,57
23.13333,57
23.14167,57
23.15000,57
23.15833,57
23.16667,57
23.17500,57
23.18333,57
23.19167,57
23.20000,57
23.20833,57
23.21667,57
23.22500,57
23.23333,57
23.24167,58
23.25000,58
23.25833,58
23.26667,58
23.27500,58
23.28333,58
23.29167,58
23.30000,59
23.30833,59
23.31667,59
23.32500,59
23.33333,59
23.34167,60
23.35000,60
23.35833,60
23.36667,60
23.37500,60
23.38333,60
23.39167,60
23.40000,60
23.40833,60
23.41667,60
23.42500,60
23.43333,59
23.44167,59
23.45000,58
23.45833,58
23.46667,58
23.47500,58
23.48333,58
23.49167,58
23.50000,57
23.50833,57
23.51667,57
23.52500,56
23.53333,56
23.54167,55
23.55000,55
23.55833,54
23.56667,54
23.57500,53
23.58333,53
23.59167,53
23.60000,52
23.60833,52
23.61667,52
23.62500,51
23.63333,51
23.64167,50
23.65000,49
23.65833,49
23.66667,48
23.67500,48
23.68333,48
23.69167,47
23.70000,47
23.70833,47
23.71667,46
23.72500,46
23.73333,46
23.74167,46
23.75000,45
23.75833,45
23.76667,45
23.77500,45
23.78333,44
23.79167,44
23.80000,43
23.80833,43
23.81667,43
23.82500,43
23.83333,43
23.84167,43
23.85000,43
23.85833,43
23.86667,43
23.87500,43
23.88333,43
23.89167,43
23.90000,43
23.90833,43
23.91667,43
23.92500,42
23.93333,42
23.94167,42
23.95000,42
23.95833,42
23.96667,42
23.97500,42
23.98333,42
23.99167,43
24.00000,43
24.00833,43
24.01667,42
24.02500,42
24.03333,42
24.04167,42
24.05000,42
24.05833,42
24.06667,42
24.07500,42
24.08333,42
24.09167,42
24.10000,42
24.10833,41
24.11667,41
24.12500,41
24.13333,41
24.14167,41
24.15000,41
24.15833,42
24.16667,42
24.17500,42
24.18333,42
24.19167,42
24.20000,41
24.20833,41
24.21667,41
24.22500,42
24.23333,42
24.24167,42
24.25000,42
24.25833,42
24.26667,42
24.27500,42
24.28333,42
24.29167,42
24.30000,42
24.30833,42
24.31667,42
24.32500,43
24.33333,43
24.34167,43
24.35000,43
24.35833,43
24.36667,44
24.37500,44
24.38333,45
24.39167,46
24.40000,47
24.40833,47
24.41667,47
24.42500,48
24.43333,48
24.44167,49
24.45000,50
24.45833,51
24.46667,53
24.47500,54
24.48333,55
24.49167,56
24.50000,57
24.50833,59
24.51667,61
24.52500,63
24.53333,65
24.54167,67
24.55000,70
24.55833,73
24.56667,76
24.57500,79
24.58333,82
24.59167,86
24.60000,90
24.60833,94
24.61667,98
24.62500,103
24.63333,108
24.64167,114
24.65000,120
24.65833,125
24.66667,132
24.67500,138
24.68333,145
24.69167,152
24.70000,160
24.70833,168
24.71667,176
24.72500,185
24.73333,194
24.74167,203
24.75000,213
24.75833,223
24.76667,233
24.77500,244
24.78333,255
24.79167,266
24.80000,277
24.80833,288
24.81667,299
24.82500,310
24.83333,322
24.84167,333
24.85000,344
24.85833,354
24.86667,365
24.87500,375
24.88333,385
24.89167,395
24.90000,404
24.90833,413
24.91667,422
24.92500,430
24.93333,438
24.94167,444
24.95000,451
24.95833,456
24.96667,461
24.97500,465
24.98333,469
24.99167,472
25.00000,473
25.00833,474
25.01667,474
25.02500,474
25.03333,472
25.04167,470
25.05000,467
25.05833,463
25.06667,459
25.07500,455
25.08333,449
25.09167,443
25.10000,436
25.10833,429
25.11667,420
25.12500,412
25.13333,403
25.14167,393
25.15000,383
25.15833,373
25.16667,364
25.17500,353
25.18333,342
25.19167,332
25.20000,321
25.20833,310
25.21667,299
25.22500,288
25.23333,277
25.24167,266
25.25000,256
25.25833,246
25.26667,236
25.27500,226
25.28333,216
25.29167,206
25.30000,197
25.30833,188
25.31667,180
25.32500,172
25.33333,164
25.34167,156
25.35000,149
25.35833,142
25.36667,136
25.37500,129
25.38333,124
25.39167,118
25.40000,113
25.40833,107
25.41667,103
25.42500,98
25.43333,94
25.44167,90
25.45000,86
25.45833,83
25.46667,80
25.47500,77
25.48333,75
25.49167,73
25.50000,71
25.50833,69
25.51667,67
25.52500,66
25.53333,64
25.54167,62
25.55000,61
25.55833,60
25.56667,58
25.57500,57
25.58333,56
25.59167,55
25.60000,54
25.60833,54
25.61667,53
25.62500,52
25.63333,52
25.64167,51
25.65000,50
25.65833,50
25.66667,49
25.67500,49
25.68333,48
25.69167,48
25.70000,48
25.70833,48
25.71667,47
25.72500,46
25.73333,45
25.74167,45
25.75000,45
25.75833,45
25.76667,44
25.77500,44
25.78333,44
25.79167,43
25.80000,43
25.80833,43
25.81667,43
25.82500,43
25.83333,43
25.84167,43
25.85000,43
25.85833,43
25.86667,44
25.87500,45
25.88333,45
25.89167,45
25.90000,46
25.90833,46
25.91667,47
25.92500,48
25.93333,48
25.94167,49
25.95000,50
25.95833,51
25.96667,52
25.97500,53
25.98333,53
25.99167,54
26.00000,55
26.00833,56
26.01667,58
26.02500,59
26.03333,61
26.04167,62
26.05000,63
26.05833,64
26.06667,65
26.07500,66
26.08333,67
26.09167,68
26.10000,69
26.10833,70
26.11667,71
26.12500,72
26.13333,74
26.14167,75
26.15000,76
26.15833,76
26.16667,76
26.17500,77
26.18333,77
26.19167,78
26.20000,78
26.20833,79
26.21667,79
26.22500,80
26.23333,81
26.24167,81
26.25000,82
26.25833,82
26.26667,82
26.27500,82
26.28333,83
26.29167,83
26.30000,82
26.30833,83
26.31667,82
26.32500,82
26.33333,82
26.34167,82
26.35000,82
26.35833,82
26.36667,82
26.37500,82
26.38333,82
26.39167,82
26.40000,82
26.40833,82
26.41667,81
26.42500,81
26.43333,81
26.44167,81
26.45000,80
26.45833,80
26.46667,79
26.47500,79
26.48333,79
26.49167,79
26.50000,78
26.50833,78
26.51667,78
26.52500,77
26.53333,77
26.54167,77
26.55000,76
26.55833,76
26.56667,75
26.57500,75
26.58333,75
26.59167,74
26.60000,74
26.60833,73
26.61667,73
26.62500,73
26.63333,72
26.64167,72
26.65000,72
26.65833,71
26.66667,71
26.67500,71
26.68333,70
26.69167,70
26.70000,70
26.70833,69
26.71667,69
26.72500,68
26.73333,68
26.74167,68
26.75000,68
26.75833,68
26.76667,68
26.77500,68
26.78333,67
26.79167,67
26.80000,67
26.80833,67
26.81667,66
26.82500,66
26.83333,65
26.84167,65
26.85000,64
26.85833,64
26.86667,64
26.87500,64
26.88333,64
26.89167,64
26.90000,64
26.90833,64
26.91667,64
26.92500,63
26.93333,63
26.94167,63
26.95000,63
26.95833,63
26.96667,63
26.97500,62
26.98333,62
26.99167,63
27.00000,63
27.00833,63
27.01667,63
27.02500,63
27.03333,63
27.04167,63
27.05000,63
27.05833,63
27.06667,63
27.07500,63
27.08333,63
27.09167,63
27.10000,63
27.10833,63
27.11667,64
27.12500,64
27.13333,64
27.14167,64
27.15000,64
27.15833,64
27.16667,64
27.17500,65
27.18333,65
27.19167,65
27.20000,65
27.20833,65
27.21667,65
27.22500,65
27.23333,64
27.24167,64
27.25000,64
27.25833,64
27.26667,64
27.27500,63
27.28333,64
27.29167,64
27.30000,64
27.30833,64
27.31667,64
27.32500,64
27.33333,64
27.34167,64
27.35000,63
27.35833,63
27.36667,62
27.37500,62
27.38333,61
27.39167,62
27.40000,61
27.40833,61
27.41667,61
27.42500,60
27.43333,60
27.44167,60
27.45000,60
27.45833,60
27.46667,59
27.47500,58
27.48333,58
27.49167,58
27.50000,58
27.50833,58
27.51667,58
27.52500,58
27.53333,58
27.54167,57
27.55000,57
27.55833,57
27.56667,57
27.57500,57
27.58333,57
27.59167,57
27.60000,57
27.60833,57
27.61667,57
27.62500,57
27.63333,57
27.64167,57
27.65000,57
27.65833,58
27.66667,58
27.67500,58
27.68333,58
27.69167,58
27.70000,58
27.70833,58
27.71667,58
27.72500,58
27.73333,58
27.74167,58
27.75000,58
27.75833,57
27.76667,57
27.77500,56
27.78333,56
27.79167,55
27.80000,54
27.80833,54
27.81667,53
27.82500,52
27.83333,51
27.84167,50
27.85000,49
27.85833,48
27.86667,47
27.87500,46
27.88333,45
27.89167,43
27.90000,41
27.90833,39
27.91667,36
27.92500,34
27.93333,32
27.94167,30
27.95000,27
27.95833,24
27.96667,21
27.97500,17
27.98333,14
27.99167,11
28.00000,7
28.00833,4
28.01667,0
28.02500,-3
28.03333,-7
28.04167,-11
28.05000,-15
28.05833,-19
28.06667,-24
28.07500,-28
28.08333,-32
28.09167,-37
28.10000,-42
28.10833,-46
28.11667,-51
28.12500,-55
28.13333,-60
28.14167,-64
28.15000,-69
28.15833,-74
28.16667,-79
28.17500,-83
28.18333,-88
28.19167,-92
28.20000,-96
28.20833,-99
28.21667,-103
28.22500,-107
28.23333,-111
28.24167,-115
28.25000,-119
28.25833,-123
28.26667,-125
28.27500,-128
28.28333,-131
28.29167,-133
28.30000,-136
28.30833,-138
28.31667,-140
28.32500,-141
28.33333,-143
28.34167,-144
28.35000,-145
28.35833,-145
28.36667,-146
28.37500,-146
28.38333,-146
28.39167,-146
28.40000,-146
28.40833,-146
28.41667,-145
28.42500,-144
28.43333,-142
28.44167,-141
28.45000,-139
28.45833,-137
28.46667,-135
28.47500,-132
28.48333,-129
28.49167,-126
28.50000,-124
28.50833,-120
28.51667,-117
28.52500,-113
28.53333,-109
28.54167,-105
28.55000,-102
28.55833,-98
28.56667,-95
28.57500,-91
28.58333,-87
28.59167,-83
28.60000,-79
28.60833,-74
28.61667,-70
28.62500,-66
28.63333,-62
28.64167,-57
28.65000,-54
28.65833,-50
28.66667,-46
28.67500,-43
28.68333,-39
28.69167,-35
28.70000,-31
28.70833,-27
28.71667,-23
28.72500,-20
28.73333,-16
28.74167,-13
28.75000,-9
28.75833,-6
28.76667,-3
28.77500,0
28.78333,3
28.79167,6
28.80000,9
28.80833,12
28.81667,15
28.82500,17
28.83333,20
28.84167,23
28.85000,25
28.85833,27
28.86667,29
28.87500,32
28.88333,34
28.89167,37
28.90000,38
28.90833,40
28.91667,42
28.92500,43
28.93333,45
28.94167,46
28.95000,48
28.95833,49
28.96667,50
28.97500,51
28.98333,53
28.99167,54
29.00000,55
29.00833,56
29.01667,56
29.02500,57
29.03333,58
29.04167,59
29.05000,59
29.05833,59
29.06667,59
29.07500,60
29.08333,60
29.09167,60
29.10000,61
29.10833,61
29.11667,61
29.12500,61
29.13333,61
29.14167,60
29.15000,60
29.15833,60
29.16667,60
29.17500,59
29.18333,59
29.19167,60
29.20000,59
29.20833,59
29.21667,59
29.22500,59
29.23333,59
29.24167,59
29.25000,58
29.25833,58
29.26667,58
29.27500,57
29.28333,57
29.29167,57
29.30000,57
29.30833,57
29.31667,56
29.32500,56
29.33333,56
29.34167,55
29.35000,55
29.35833,54
29.36667,54
29.37500,54
29.38333,53
29.39167,53
29.40000,53
29.40833,53
29.41667,53
29.42500,52
29.43333,52
29.44167,52
29.45000,52
29.45833,52
29.46667,51
29.47500,50
29.48333,50
29.49167,49
29.50000,48
29.50833,47
29.51667,47
29.52500,46
29.53333,45
29.54167,45
29.55000,43
29.55833,42
29.56667,41
29.57500,41
29.58333,40
29.59167,39
29.60000,39
29.60833,38
29.61667,37
29.62500,36
29.63333,34
29.64167,33
29.65000,31
29.65833,30
29.66667,28
29.67500,27
29.68333,25
29.69167,24
29.70000,23
29.70833,21
29.71667,20
29.72500,18
29.73333,15
29.74167,13
29.75000,12
29.75833,10
29.76667,8
29.77500,6
29.78333,4
29.79167,2
29.80000,0
29.80833,-1
29.81667,-3
29.82500,-5
29.83333,-7
29.84167,-8
29.85000,-10
29.85833,-11
29.86667,-12
29.87500,-14
29.88333,-15
29.89167,-17
29.90000,-19
29.90833,-20
29.91667,-21
29.92500,-22
29.93333,-23
29.94167,-24
29.95000,-24
29.95833,-24
29.96667,-25
29.97500,-25
29.98333,-26
29.99167,-26
30.00000,-26
30.00833,-27
30.01667,-27
30.02500,-27
30.03333,-27
30.04167,-27
30.05000,-27
30.05833,-27
30.06667,-27
30.07500,-26
30.08333,-26
30.09167,-25
30.10000,-24
30.10833,-23
30.11667,-22
30.12500,-22
30.13333,-21
30.14167,-21
30.15000,-20
30.15833,-19
30.16667,-19
30.17500,-18
30.18333,-17
30.19167,-16
30.20000,-14
30.20833,-13
30.21667,-12
30.22500,-11
30.23333,-10
30.24167,-9
30.25000,-8
30.25833,-7
30.26667,-5
30.27500,-5
30.28333,-4
30.29167,-3
30.30000,-2
30.30833,-1
30.31667,0
30.32500,2
30.33333,3
30.34167,4
30.35000,5
30.35833,6
30.36667,7
30.37500,8
30.38333,9
30.39167,10
30.40000,10
30.40833,11
30.41667,13
30.42500,14
30.43333,15
30.44167,16
30.45000,17
30.45833,18
30.46667,19
30.47500,21
30.48333,22
30.49167,23
30.50000,24
30.50833,25
30.51667,26
30.52500,27
30.53333,28
30.54167,29
30.55000,30
30.55833,31
30.56667,32
30.57500,33
30.58333,34
30.59167,35
30.60000,35
30.60833,36
30.61667,37
30.62500,39
30.63333,40
30.64167,41
30.65000,41
30.65833,42
30.66667,42
30.67500,43
30.68333,43
30.69167,44
30.70000,45
30.70833,45
30.71667,46
30.72500,46
30.73333,47
30.74167,48
30.75000,48
30.75833,49
30.76667,50
30.77500,50
30.78333,51
30.79167,52
30.80000,52
30.80833,52
30.81667,53
30.82500,54
30.83333,55
30.84167,55
30.85000,55
30.85833,55
30.86667,55
30.87500,55
30.88333,55
30.89167,56
30.90000,56
30.90833,56
30.91667,56
30.92500,56
30.93333,56
30.94167,57
30.95000,57
30.95833,57
30.96667,58
30.97500,58
30.98333,58
30.99167,58
31.00000,58
31.00833,57
31.01667,57
31.02500,57
31.03333,57
31.04167,57
31.05000,57
31.05833,57
31.06667,56
31.07500,56
31.08333,56
31.09167,56
31.10000,55
31.10833,55
31.11667,55
31.12500,54
31.13333,54
31.14167,54
31.15000,54
31.15833,54
31.16667,53
31.17500,52
31.18333,52
31.19167,52
31.20000,51
31.20833,51
31.21667,51
31.22500,51
31.23333,50
31.24167,50
31.25000,49
31.25833,49
31.26667,48
31.27500,48
31.28333,48
31.29167,48
31.30000,48
31.30833,47
31.31667,47
31.32500,47
31.33333,46
31.34167,46
31.35000,46
31.35833,47
31.36667,46
31.37500,46
31.38333,47
31.39167,47
31.40000,47
31.40833,47
31.41667,48
31.42500,48
31.43333,48
31.44167,49
31.45000,49
31.45833,49
31.46667,50
31.47500,50
31.48333,50
31.49167,50
31.50000,51
31.50833,51
31.51667,51
31.52500,52
31.53333,53
31.54167,53
31.55000,53
31.55833,53
31.56667,53
31.57500,54
31.58333,54
31.59167,54
31.60000,54
31.60833,54
31.61667,55
31.62500,55
31.63333,56
31.64167,56
31.65000,56
31.65833,56
31.66667,57
31.67500,57
31.68333,57
31.69167,57
31.70000,57
31.70833,57
31.71667,58
31.72500,58
31.73333,58
31.74167,58
31.75000,58
31.75833,58
31.76667,58
31.77500,58
31.78333,58
31.79167,58
31.80000,58
31.80833,57
31.81667,57
31.82500,56
31.83333,56
31.84167,56
31.85000,55
31.85833,55
31.86667,55
31.87500,55
31.88333,55
31.89167,55
31.90000,55
31.90833,54
31.91667,54
31.92500,54
31.93333,54
31.94167,54
31.95000,54
31.95833,53
31.96667,53
31.97500,53
31.98333,53
31.99167,52
32.00000,52
32.00833,52
32.01667,51
32.02500,51
32.03333,51
32.04167,51
32.05000,51
32.05833,51
32.06667,51
32.07500,51
32.08333,51
32.09167,51
32.10000,52
32.10833,52
32.11667,52
32.12500,52
32.13333,52
32.14167,52
32.15000,52
32.15833,52
32.16667,52
32.17500,53
32.18333,53
32.19167,54
32.20000,54
32.20833,54
32.21667,55
32.22500,55
32.23333,56
32.24167,56
32.25000,57
32.25833,57
32.26667,57
32.27500,58
32.28333,59
32.29167,60
32.30000,61
32.30833,62
32.31667,63
32.32500,63
32.33333,64
32.34167,64
32.35000,64
32.35833,65
32.36667,65
32.37500,65
32.38333,66
32.39167,66
32.40000,67
32.40833,67
32.41667,67
32.42500,68
32.43333,68
32.44167,69
32.45000,69
32.45833,69
32.46667,69
32.47500,69
32.48333,69
32.49167,70
32.50000,70
32.50833,71
32.51667,71
32.52500,71
32.53333,71
32.54167,71
32.55000,71
32.55833,70
32.56667,70
32.57500,70
32.58333,70
32.59167,70
32.60000,70
32.60833,70
32.61667,69
32.62500,69
32.63333,68
32.64167,68
32.65000,67
32.65833,66
32.66667,66
32.67500,65
32.68333,65
32.69167,64
32.70000,64
32.70833,63
32.71667,62
32.72500,62
32.73333,61
32.74167,61
32.75000,61
32.75833,61
32.76667,60
32.77500,60
32.78333,59
32.79167,58
32.80000,58
32.80833,57
32.81667,57
32.82500,57
32.83333,56
32.84167,56
32.85000,55
32.85833,55
32.86667,54
32.87500,54
32.88333,54
32.89167,53
32.90000,53
32.90833,53
32.91667,53
32.92500,52
32.93333,52
32.94167,52
32.95000,52
32.95833,52
32.96667,52
32.97500,52
32.98333,52
32.99167,52
33.00000,52
33.00833,52
33.01667,52
33.02500,51
33.03333,51
33.04167,51
33.05000,51
33.05833,51
33.06667,52
33.07500,52
33.08333,52
33.09167,51
33.10000,51
33.10833,51
33.11667,51
33.12500,51
33.13333,51
33.14167,50
33.15000,50
33.15833,51
33.16667,51
33.17500,51
33.18333,51
33.19167,51
33.20000,51
33.20833,51
33.21667,51
33.22500,51
33.23333,51
33.24167,51
33.25000,51
33.25833,50
33.26667,50
33.27500,51
33.28333,51
33.29167,51
33.30000,51
33.30833,51
33.31667,51
33.32500,51
33.33333,51
33.34167,51
33.35000,51
33.35833,52
33.36667,52
33.37500,52
33.38333,53
33.39167,53
33.40000,53
33.40833,54
33.41667,54
33.42500,54
33.43333,55
33.44167,55
33.45000,55
33.45833,56
33.46667,56
33.47500,56
33.48333,57
33.49167,57
33.50000,58
33.50833,58
33.51667,59
33.52500,59
33.53333,60
33.54167,60
33.55000,61
33.55833,62
33.56667,62
33.57500,62
33.58333,63
33.59167,63
33.60000,63
33.60833,63
33.61667,64
33.62500,64
33.63333,64
33.64167,64
33.65000,65
33.65833,65
33.66667,66
33.67500,66
33.68333,66
33.69167,66
33.70000,66
33.70833,66
33.71667,65
33.72500,65
33.73333,65
33.74167,65
33.75000,65
33.75833,64
33.76667,63
33.77500,63
33.78333,63
33.79167,62
33.80000,62
33.80833,62
33.81667,61
33.82500,60
33.83333,60
33.84167,59
33.85000,58
33.85833,58
33.86667,57
33.87500,56
33.88333,56
33.89167,55
33.90000,54
33.90833,54
33.91667,53
33.92500,52
33.93333,52
33.94167,51
33.95000,51
33.95833,50
33.96667,49
33.97500,48
33.98333,48
33.99167,47
34.00000,46
34.00833,45
34.01667,45
34.02500,45
34.03333,45
34.04167,45
34.05000,45
34.05833,44
34.06667,44
34.07500,44
34.08333,44
34.09167,44
34.10000,44
34.10833,44
34.11667,44
34.12500,45
34.13333,45
34.14167,46
34.15000,46
34.15833,47
34.16667,48
34.17500,48
34.18333,49
34.19167,50
34.20000,50
34.20833,51
34.21667,52
34.22500,53
34.23333,54
34.24167,55
34.25000,56
34.25833,57
34.26667,58
34.27500,59
34.28333,60
34.29167,61
34.30000,62
34.30833,63
34.31667,65
34.32500,66
34.33333,67
34.34167,69
34.35000,70
34.35833,71
34.36667,72
34.37500,73
34.38333,74
34.39167,75
34.40000,75
34.40833,76
34.41667,77
34.42500,77
34.43333,78
34.44167,79
34.45000,79
34.45833,80
34.46667,80
34.47500,81
34.48333,82
34.49167,83
34.50000,83
34.50833,84
34.51667,84
34.52500,85
34.53333,85
34.54167,85
34.55000,85
34.55833,85
34.56667,85
34.57500,85
34.58333,85
34.59167,85
34.60000,84
34.60833,84
34.61667,84
34.62500,84
34.63333,84
34.64167,83
34.65000,83
34.65833,82
34.66667,81
34.67500,81
34.68333,80
34.69167,80
34.70000,79
34.70833,78
34.71667,77
34.72500,77
34.73333,76
34.74167,76
34.75000,75
34.75833,74
34.76667,74
34.77500,73
34.78333,72
34.79167,71
34.80000,71
34.80833,70
34.81667,69
34.82500,68
34.83333,68
34.84167,67
34.85000,66
34.85833,65
34.86667,65
34.87500,64
34.88333,63
34.89167,61
34.90000,60
34.90833,59
34.91667,58
34.92500,58
34.93333,57
34.94167,56
34.95000,55
34.95833,54
34.96667,53
34.97500,52
34.98333,51
34.99167,50
35.00000,48
35.00833,47
35.01667,46
35.02500,45
35.03333,45
35.04167,44
35.05000,43
35.05833,43
35.06667,42
35.07500,41
35.08333,41
35.09167,40
35.10000,40
35.10833,39
35.11667,38
35.12500,37
35.13333,36
35.14167,35
35.15000,35
35.15833,34
35.16667,33
35.17500,32
35.18333,32
35.19167,31
35.20000,30
35.20833,30
35.21667,29
35.22500,29
35.23333,28
35.24167,28
35.25000,28
35.25833,28
35.26667,27
35.27500,27
35.28333,26
35.29167,26
35.30000,25
35.30833,25
35.31667,24
35.32500,24
35.33333,24
35.34167,24
35.35000,24
35.35833,24
35.36667,24
35.37500,24
35.38333,25
35.39167,25
35.40000,25
35.40833,25
35.41667,25
35.42500,25
35.43333,25
35.44167,26
35.45000,26
35.45833,26
35.46667,27
35.47500,27
35.48333,28
35.49167,29
35.50000,30
35.50833,31
35.51667,31
35.52500,32
35.53333,33
35.54167,34
35.55000,35
35.55833,36
35.56667,37
35.57500,38
35.58333,39
35.59167,40
35.60000,41
35.60833,41
35.61667,43
35.62500,44
35.63333,44
35.64167,45
35.65000,46
35.65833,47
35.66667,48
35.67500,49
35.68333,49
35.69167,50
35.70000,51
35.70833,52
35.71667,53
35.72500,53
35.73333,54
35.74167,55
35.75000,55
35.75833,55
35.76667,56
35.77500,56
35.78333,57
35.79167,58
35.80000,58
35.80833,59
35.81667,59
35.82500,59
35.83333,60
35.84167,60
35.85000,61
35.85833,61
35.86667,62
35.87500,62
35.88333,62
35.89167,62
35.90000,63
35.90833,63
35.91667,63
35.92500,64
35.93333,64
35.94167,64
35.95000,64
35.95833,64
35.96667,65
35.97500,65
35.98333,65
35.99167,66
36.00000,66
36.00833,66
36.01667,67
36.02500,67
36.03333,68
36.04167,68
36.05000,68
36.05833,68
36.06667,69
36.07500,70
36.08333,70
36.09167,71
36.10000,72
36.10833,73
36.11667,73
36.12500,74
36.13333,75
36.14167,76
36.15000,77
36.15833,77
36.16667,78
36.17500,79
36.18333,80
36.19167,81
36.20000,81
36.20833,82
36.21667,82
36.22500,83
36.23333,83
36.24167,83
36.25000,84
36.25833,84
36.26667,85
36.27500,86
36.28333,86
36.29167,86
36.30000,86
36.30833,86
36.31667,86
36.32500,87
36.33333,87
36.34167,87
36.35000,87
36.35833,87
36.36667,87
36.37500,87
36.38333,87
36.39167,87
36.40000,87
36.40833,87
36.41667,87
36.42500,86
36.43333,86
36.44167,86
36.45000,85
36.45833,85
36.46667,85
36.47500,85
36.48333,84
36.49167,84
36.50000,84
36.50833,83
36.51667,83
36.52500,83
36.53333,83
36.54167,83
36.55000,82
36.55833,82
36.56667,82
36.57500,82
36.58333,82
36.59167,81
36.60000,81
36.60833,81
36.61667,80
36.62500,80
36.63333,80
36.64167,80
36.65000,80
36.65833,80
36.66667,80
36.67500,80
36.68333,80
36.69167,80
36.70000,79
36.70833,79
36.71667,80
36.72500,80
36.73333,80
36.74167,80
36.75000,80
36.75833,80
36.76667,79
36.77500,79
36.78333,79
36.79167,78
36.80000,78
36.80833,77
36.81667,77
36.82500,77
36.83333,77
36.84167,76
36.85000,76
36.85833,75
36.86667,75
36.87500,75
36.88333,74
36.89167,74
36.90000,73
36.90833,73
36.91667,72
36.92500,72
36.93333,72
36.94167,71
36.95000,71
36.95833,70
36.96667,69
36.97500,68
36.98333,68
36.99167,67
37.00000,67
37.00833,66
37.01667,66
37.02500,66
37.03333,66
37.04167,66
37.05000,65
37.05833,65
37.06667,65
37.07500,65
37.08333,65
37.09167,64
37.10000,64
37.10833,64
37.11667,63
37.12500,63
37.13333,63
37.14167,63
37.15000,63
37.15833,63
37.16667,64
37.17500,64
37.18333,63
37.19167,63
37.20000,63
37.20833,64
37.21667,64
37.22500,65
37.23333,65
37.24167,65
37.25000,65
37.25833,65
37.26667,65
37.27500,65
37.28333,65
37.29167,65
37.30000,65
37.30833,64
37.31667,64
37.32500,64
37.33333,64
37.34167,64
37.35000,63
37.35833,63
37.36667,63
37.37500,62
37.38333,62
37.39167,62
37.40000,62
37.40833,61
37.41667,61
37.42500,60
37.43333,60
37.44167,59
37.45000,59
37.45833,59
37.46667,59
37.47500,58
37.48333,58
37.49167,57
37.50000,57
37.50833,57
37.51667,57
37.52500,57
37.53333,56
37.54167,56
37.55000,56
37.55833,55
37.56667,55
37.57500,55
37.58333,54
37.59167,53
37.60000,53
37.60833,53
37.61667,53
37.62500,53
37.63333,53
37.64167,53
37.65000,54
37.65833,54
37.66667,54
37.67500,55
37.68333,56
37.69167,56
37.70000,56
37.70833,56
37.71667,56
37.72500,56
37.73333,57
37.74167,57
37.75000,58
37.75833,58
37.76667,59
37.77500,59
37.78333,60
37.79167,60
37.80000,60
37.80833,61
37.81667,61
37.82500,62
37.83333,62
37.84167,62
37.85000,63
37.85833,63
37.86667,63
37.87500,63
37.88333,63
37.89167,63
37.90000,63
37.90833,62
37.91667,62
37.92500,62
37.93333,61
37.94167,61
37.95000,61
37.95833,61
37.96667,60
37.97500,59
37.98333,59
37.99167,58
38.00000,57
38.00833,56
38.01667,56
38.02500,55
38.03333,54
38.04167,53
38.05000,52
38.05833,51
38.06667,50
38.07500,49
38.08333,48
38.09167,48
38.10000,47
38.10833,46
38.11667,45
38.12500,44
38.13333,44
38.14167,42
38.15000,41
38.15833,40
38.16667,39
38.17500,39
38.18333,38
38.19167,37
38.20000,37
38.20833,36
38.21667,36
38.22500,35
38.23333,35
38.24167,34
38.25000,34
38.25833,33
38.26667,33
38.27500,32
38.28333,32
38.29167,32
38.30000,32
38.30833,33
38.31667,33
38.32500,34
38.33333,34
38.34167,35
38.35000,35
38.35833,36
38.36667,37
38.37500,38
38.38333,39
38.39167,41
38.40000,42
38.40833,42
38.41667,43
38.42500,44
38.43333,45
38.44167,46
38.45000,46
38.45833,47
38.46667,48
38.47500,49
38.48333,50
38.49167,51
38.50000,52
38.50833,53
38.51667,54
38.52500,55
38.53333,56
38.54167,57
38.55000,58
38.55833,58
38.56667,59
38.57500,60
38.58333,61
38.59167,62
38.60000,62
38.60833,63
38.61667,63
38.62500,64
38.63333,64
38.64167,64
38.65000,65
38.65833,65
38.66667,65
38.67500,66
38.68333,66
38.69167,65
38.70000,65
38.70833,65
38.71667,65
38.72500,65
38.73333,65
38.74167,65
38.75000,65
38.75833,65
38.76667,65
38.77500,65
38.78333,65
38.79167,65
38.80000,65
38.80833,65
38.81667,65
38.82500,65
38.83333,65
38.84167,65
38.85000,65
38.85833,65
38.86667,65
38.87500,66
38.88333,66
38.89167,67
38.90000,67
38.90833,67
38.91667,68
38.92500,68
38.93333,69
38.94167,69
38.95000,69
38.95833,69
38.96667,69
38.97500,70
38.98333,70
38.99167,71
39.00000,72
39.00833,72
39.01667,72
39.02500,73
39.03333,73
39.04167,74
39.05000,74
39.05833,75
39.06667,75
39.07500,75
39.08333,75
39.09167,76
39.10000,76
39.10833,76
39.11667,76
39.12500,76
39.13333,76
39.14167,76
39.15000,75
39.15833,75
39.16667,75
39.17500,74
39.18333,74
39.19167,73
39.20000,73
39.20833,73
39.21667,72
39.22500,72
39.23333,71
39.24167,70
39.25000,69
39.25833,68
39.26667,67
39.27500,67
39.28333,66
39.29167,65
39.30000,64
39.30833,63
39.31667,62
39.32500,61
39.33333,59
39.34167,58
39.35000,57
39.35833,57
39.36667,56
39.37500,55
39.38333,54
39.39167,54
39.40000,53
39.40833,52
39.41667,51
39.42500,50
39.43333,50
39.44167,49
39.45000,49
39.45833,49
39.46667,48
39.47500,48
39.48333,48
39.49167,48
39.50000,47
39.50833,47
39.51667,47
39.52500,47
39.53333,47
39.54167,47
39.55000,47
39.55833,47
39.56667,47
39.57500,48
39.58333,48
39.59167,48
39.60000,48
39.60833,48
39.61667,48
39.62500,48
39.63333,49
39.64167,50
39.65000,50
39.65833,51
39.66667,52
39.67500,53
39.68333,54
39.69167,55
39.70000,55
39.70833,56
39.71667,56
39.72500,57
39.73333,58
39.74167,59
39.75000,59
39.75833,60
39.76667,60
39.77500,60
39.78333,61
39.79167,61
39.80000,62
39.80833,63
39.81667,63
39.82500,64
39.83333,65
39.84167,65
39.85000,66
39.85833,66
39.86667,66
39.87500,66
39.88333,66
39.89167,66
39.90000,66
39.90833,66
39.91667,66
39.92500,66
39.93333,67
39.94167,67
39.95000,67
39.95833,67
39.96667,67
39.97500,66
39.98333,66
39.99167,66
40.00000,66

