[Header]
Application Name,LabSolutions
Version,5.97 SP1
Data File Name,C:\Users\cremerlab\Desktop\griffin\2021-04-05_NC_DM_calibration\2021-04-05_NC_DM_2.5mM_calibration_452021_004_017.lcd
Output Date,4/6/2021
Output Time,5:11:20 AM

[File Information]
Type,Data File
Generated,4/6/2021 4:31:01 AM
Generated by,System Administrator
Modified,4/6/2021 5:11:20 AM
Modified by,System Administrator

[Sample Information]
Operator Name,System Administrator
Acquired,4/6/2021 4:31:19 AM
Sample Type,1:Standard
Level,4
Sample Name,2021-04-05_DM_glucose_glycerol_acetate_15mM
Sample ID,004
ISTD Amount1,1
ISTD Amount2,1
ISTD Amount3,1
ISTD Amount4,1
ISTD Amount5,1
ISTD Amount6,1
ISTD Amount7,1
ISTD Amount8,1
ISTD Amount9,1
ISTD Amount10,1
ISTD Amount11,1
ISTD Amount12,1
ISTD Amount13,1
ISTD Amount14,1
ISTD Amount15,1
ISTD Amount16,1
ISTD Amount17,1
ISTD Amount18,1
ISTD Amount19,1
ISTD Amount20,1
ISTD Amount21,1
ISTD Amount22,1
ISTD Amount23,1
ISTD Amount24,1
ISTD Amount25,1
ISTD Amount26,1
ISTD Amount27,1
ISTD Amount28,1
ISTD Amount29,1
ISTD Amount30,1
ISTD Amount31,1
ISTD Amount32,1
Sample Amount,1
Dilution Factor,1
Vial#,22
Injection Volume,20

[Original Files]
Data File,C:\Users\cremerlab\Desktop\griffin\2021-04-05_NC_DM_calibration\2021-04-05_NC_DM_2.5mM_calibration_452021_004_017.lcd
Method File,C:\Users\cremerlab\Desktop\griffin\2021-04-05_NC_DM_calibration\2021-04-05_2.5mM_mobile.lcm
Batch File,C:\Users\cremerlab\Desktop\griffin\2021-04-05_NC_DM_calibration\2021-04-05_NC_DM_2.5mM_calibration.lcb
Report Format File,c:\LabSolutions\System\DEFAULT.lsr

[File Description]


[Configuration]
Instrument Name,HPLC-PC-Instrument1
Instrument #,1
Line #,1
# of Detectors,2
Detector ID,Detector A,Detector B
Detector Name,Detector A,Detector B
# of Channels,1,1

[Peak Table(Detector A)]
# of Peaks,0

[Peak Table(Detector B)]
# of Peaks,7
Peak#,R.Time,I.Time,F.Time,Area,Height,A/H,Conc.,Mark,ID#,Name,k',Plate #,Plate Ht.,Tailing,Resolution,Sep.Factor,Area Ratio,Height Ratio,Conc. %,Norm Conc.
1,10.881,10.425,11.817,225436,13327,16.915,0.000,   ,,,0.000,9384,15.984,1.041,0.000,0.000,0,0,0.000,0.000
2,13.897,12.567,14.175,1573727,42746,36.816,0.000,   ,,,0.277,3221,46.576,0.000,4.221,0.000,0,0,0.000,0.000
3,14.320,14.175,15.025,154292,8164,18.899,0.000, V ,,,0.316,7416,20.228,0.000,0.514,1.140,0,0,0.000,0.000
4,15.671,15.025,17.817,1417980,57221,24.781,0.000, V ,,,0.440,9390,15.975,1.153,2.060,1.393,0,0,0.000,0.000
5,19.074,18.833,19.567,1017,47,21.512,0.000,   ,,,0.753,17336,8.652,1.380,5.549,1.710,0,0,0.000,0.000
6,22.061,21.342,23.275,419612,15161,27.677,0.000,   ,,,1.027,14658,10.234,1.097,4.566,1.365,0,0,0.000,0.000
7,25.031,24.342,26.233,179591,6003,29.919,0.000,   ,,,1.300,16089,9.323,1.081,3.912,1.266,0,0,0.000,0.000

[LC Chromatogram(Detector B-Ch1)]
Interval(msec),500
# of Points,4801
Start Time(min),0.000
End Time(min),40.000
Intensity Units,mV
Intensity Multiplier,0.001
R.Time (min),Intensity
0.00000,7
0.00833,7
0.01667,4
0.02500,0
0.03333,0
0.04167,0
0.05000,1
0.05833,2
0.06667,2
0.07500,3
0.08333,3
0.09167,4
0.10000,4
0.10833,4
0.11667,5
0.12500,5
0.13333,6
0.14167,6
0.15000,7
0.15833,7
0.16667,8
0.17500,8
0.18333,8
0.19167,8
0.20000,8
0.20833,8
0.21667,8
0.22500,8
0.23333,9
0.24167,9
0.25000,9
0.25833,9
0.26667,9
0.27500,9
0.28333,10
0.29167,10
0.30000,10
0.30833,10
0.31667,10
0.32500,9
0.33333,9
0.34167,9
0.35000,8
0.35833,8
0.36667,8
0.37500,8
0.38333,8
0.39167,7
0.40000,7
0.40833,6
0.41667,6
0.42500,6
0.43333,5
0.44167,5
0.45000,5
0.45833,5
0.46667,4
0.47500,4
0.48333,4
0.49167,3
0.50000,3
0.50833,3
0.51667,2
0.52500,1
0.53333,1
0.54167,1
0.55000,0
0.55833,-0
0.56667,-1
0.57500,-2
0.58333,-2
0.59167,-3
0.60000,-4
0.60833,-4
0.61667,-5
0.62500,-5
0.63333,-6
0.64167,-6
0.65000,-6
0.65833,-6
0.66667,-7
0.67500,-7
0.68333,-8
0.69167,-8
0.70000,-8
0.70833,-8
0.71667,-8
0.72500,-8
0.73333,-9
0.74167,-9
0.75000,-9
0.75833,-9
0.76667,-9
0.77500,-10
0.78333,-10
0.79167,-9
0.80000,-9
0.80833,-8
0.81667,-7
0.82500,-7
0.83333,-7
0.84167,-7
0.85000,-6
0.85833,-6
0.86667,-6
0.87500,-6
0.88333,-6
0.89167,-6
0.90000,-6
0.90833,-6
0.91667,-5
0.92500,-5
0.93333,-5
0.94167,-5
0.95000,-5
0.95833,-6
0.96667,-5
0.97500,-5
0.98333,-5
0.99167,-5
1.00000,-5
1.00833,-6
1.01667,-6
1.02500,-6
1.03333,-5
1.04167,-5
1.05000,-5
1.05833,-5
1.06667,-5
1.07500,-6
1.08333,-6
1.09167,-6
1.10000,-6
1.10833,-6
1.11667,-6
1.12500,-6
1.13333,-6
1.14167,-6
1.15000,-6
1.15833,-6
1.16667,-5
1.17500,-5
1.18333,-5
1.19167,-5
1.20000,-5
1.20833,-5
1.21667,-6
1.22500,-6
1.23333,-6
1.24167,-6
1.25000,-6
1.25833,-6
1.26667,-6
1.27500,-6
1.28333,-5
1.29167,-5
1.30000,-5
1.30833,-5
1.31667,-4
1.32500,-4
1.33333,-4
1.34167,-4
1.35000,-4
1.35833,-5
1.36667,-5
1.37500,-5
1.38333,-5
1.39167,-5
1.40000,-5
1.40833,-6
1.41667,-6
1.42500,-6
1.43333,-5
1.44167,-5
1.45000,-5
1.45833,-6
1.46667,-6
1.47500,-7
1.48333,-7
1.49167,-8
1.50000,-8
1.50833,-8
1.51667,-8
1.52500,-8
1.53333,-8
1.54167,-8
1.55000,-8
1.55833,-8
1.56667,-7
1.57500,-7
1.58333,-7
1.59167,-7
1.60000,-7
1.60833,-7
1.61667,-7
1.62500,-7
1.63333,-7
1.64167,-7
1.65000,-7
1.65833,-7
1.66667,-7
1.67500,-7
1.68333,-7
1.69167,-7
1.70000,-6
1.70833,-6
1.71667,-6
1.72500,-5
1.73333,-5
1.74167,-5
1.75000,-5
1.75833,-5
1.76667,-5
1.77500,-5
1.78333,-4
1.79167,-4
1.80000,-4
1.80833,-4
1.81667,-4
1.82500,-4
1.83333,-4
1.84167,-4
1.85000,-4
1.85833,-4
1.86667,-4
1.87500,-4
1.88333,-4
1.89167,-4
1.90000,-5
1.90833,-5
1.91667,-5
1.92500,-5
1.93333,-5
1.94167,-5
1.95000,-5
1.95833,-5
1.96667,-6
1.97500,-6
1.98333,-7
1.99167,-7
2.00000,-7
2.00833,-7
2.01667,-7
2.02500,-8
2.03333,-8
2.04167,-8
2.05000,-8
2.05833,-7
2.06667,-7
2.07500,-7
2.08333,-8
2.09167,-8
2.10000,-8
2.10833,-8
2.11667,-7
2.12500,-7
2.13333,-7
2.14167,-7
2.15000,-7
2.15833,-7
2.16667,-7
2.17500,-6
2.18333,-6
2.19167,-6
2.20000,-6
2.20833,-5
2.21667,-5
2.22500,-4
2.23333,-4
2.24167,-3
2.25000,-2
2.25833,-2
2.26667,-1
2.27500,-1
2.28333,-0
2.29167,-0
2.30000,0
2.30833,1
2.31667,1
2.32500,2
2.33333,2
2.34167,2
2.35000,2
2.35833,2
2.36667,2
2.37500,3
2.38333,3
2.39167,3
2.40000,3
2.40833,4
2.41667,4
2.42500,4
2.43333,4
2.44167,4
2.45000,4
2.45833,4
2.46667,4
2.47500,4
2.48333,3
2.49167,3
2.50000,3
2.50833,3
2.51667,3
2.52500,2
2.53333,2
2.54167,1
2.55000,1
2.55833,1
2.56667,1
2.57500,0
2.58333,0
2.59167,-0
2.60000,-0
2.60833,-1
2.61667,-1
2.62500,-1
2.63333,-2
2.64167,-2
2.65000,-2
2.65833,-2
2.66667,-1
2.67500,-1
2.68333,-2
2.69167,-2
2.70000,-2
2.70833,-3
2.71667,-3
2.72500,-3
2.73333,-3
2.74167,-3
2.75000,-3
2.75833,-2
2.76667,-2
2.77500,-2
2.78333,-2
2.79167,-2
2.80000,-1
2.80833,-1
2.81667,-0
2.82500,0
2.83333,1
2.84167,1
2.85000,2
2.85833,2
2.86667,3
2.87500,3
2.88333,3
2.89167,4
2.90000,4
2.90833,5
2.91667,5
2.92500,6
2.93333,6
2.94167,7
2.95000,7
2.95833,7
2.96667,7
2.97500,7
2.98333,7
2.99167,7
3.00000,7
3.00833,7
3.01667,7
3.02500,7
3.03333,8
3.04167,8
3.05000,7
3.05833,7
3.06667,7
3.07500,7
3.08333,6
3.09167,6
3.10000,5
3.10833,4
3.11667,4
3.12500,3
3.13333,2
3.14167,2
3.15000,1
3.15833,-0
3.16667,-1
3.17500,-1
3.18333,-1
3.19167,-2
3.20000,-3
3.20833,-3
3.21667,-4
3.22500,-5
3.23333,-6
3.24167,-7
3.25000,-7
3.25833,-8
3.26667,-9
3.27500,-9
3.28333,-10
3.29167,-11
3.30000,-12
3.30833,-12
3.31667,-13
3.32500,-13
3.33333,-14
3.34167,-15
3.35000,-16
3.35833,-16
3.36667,-16
3.37500,-16
3.38333,-16
3.39167,-17
3.40000,-17
3.40833,-18
3.41667,-18
3.42500,-18
3.43333,-19
3.44167,-19
3.45000,-20
3.45833,-20
3.46667,-20
3.47500,-20
3.48333,-20
3.49167,-19
3.50000,-19
3.50833,-19
3.51667,-19
3.52500,-19
3.53333,-19
3.54167,-19
3.55000,-20
3.55833,-20
3.56667,-20
3.57500,-20
3.58333,-19
3.59167,-19
3.60000,-19
3.60833,-19
3.61667,-18
3.62500,-18
3.63333,-17
3.64167,-17
3.65000,-17
3.65833,-17
3.66667,-16
3.67500,-15
3.68333,-15
3.69167,-15
3.70000,-14
3.70833,-14
3.71667,-14
3.72500,-13
3.73333,-13
3.74167,-13
3.75000,-12
3.75833,-12
3.76667,-11
3.77500,-11
3.78333,-10
3.79167,-10
3.80000,-9
3.80833,-9
3.81667,-8
3.82500,-8
3.83333,-9
3.84167,-9
3.85000,-9
3.85833,-9
3.86667,-9
3.87500,-9
3.88333,-9
3.89167,-9
3.90000,-8
3.90833,-8
3.91667,-9
3.92500,-9
3.93333,-9
3.94167,-9
3.95000,-9
3.95833,-9
3.96667,-10
3.97500,-10
3.98333,-11
3.99167,-12
4.00000,-12
4.00833,-12
4.01667,-13
4.02500,-13
4.03333,-13
4.04167,-13
4.05000,-14
4.05833,-14
4.06667,-15
4.07500,-15
4.08333,-16
4.09167,-16
4.10000,-16
4.10833,-16
4.11667,-17
4.12500,-17
4.13333,-17
4.14167,-18
4.15000,-18
4.15833,-18
4.16667,-18
4.17500,-18
4.18333,-18
4.19167,-18
4.20000,-18
4.20833,-18
4.21667,-18
4.22500,-18
4.23333,-18
4.24167,-18
4.25000,-17
4.25833,-17
4.26667,-16
4.27500,-16
4.28333,-15
4.29167,-14
4.30000,-14
4.30833,-13
4.31667,-12
4.32500,-12
4.33333,-11
4.34167,-10
4.35000,-9
4.35833,-9
4.36667,-8
4.37500,-8
4.38333,-7
4.39167,-6
4.40000,-6
4.40833,-5
4.41667,-5
4.42500,-4
4.43333,-3
4.44167,-3
4.45000,-2
4.45833,-2
4.46667,-1
4.47500,-1
4.48333,-0
4.49167,0
4.50000,1
4.50833,1
4.51667,1
4.52500,1
4.53333,1
4.54167,1
4.55000,1
4.55833,2
4.56667,2
4.57500,2
4.58333,1
4.59167,1
4.60000,1
4.60833,1
4.61667,0
4.62500,-0
4.63333,-0
4.64167,-0
4.65000,-1
4.65833,-1
4.66667,-2
4.67500,-2
4.68333,-2
4.69167,-3
4.70000,-3
4.70833,-3
4.71667,-4
4.72500,-4
4.73333,-4
4.74167,-5
4.75000,-5
4.75833,-5
4.76667,-6
4.77500,-6
4.78333,-7
4.79167,-7
4.80000,-8
4.80833,-7
4.81667,-8
4.82500,-8
4.83333,-8
4.84167,-8
4.85000,-8
4.85833,-8
4.86667,-8
4.87500,-7
4.88333,-7
4.89167,-7
4.90000,-6
4.90833,-6
4.91667,-6
4.92500,-6
4.93333,-6
4.94167,-5
4.95000,-5
4.95833,-5
4.96667,-5
4.97500,-5
4.98333,-5
4.99167,-5
5.00000,-5
5.00833,-5
5.01667,-4
5.02500,-4
5.03333,-4
5.04167,-4
5.05000,-3
5.05833,-3
5.06667,-2
5.07500,-2
5.08333,-3
5.09167,-3
5.10000,-3
5.10833,-3
5.11667,-3
5.12500,-3
5.13333,-3
5.14167,-3
5.15000,-3
5.15833,-4
5.16667,-4
5.17500,-4
5.18333,-4
5.19167,-4
5.20000,-5
5.20833,-5
5.21667,-6
5.22500,-6
5.23333,-6
5.24167,-7
5.25000,-7
5.25833,-8
5.26667,-8
5.27500,-9
5.28333,-9
5.29167,-9
5.30000,-9
5.30833,-9
5.31667,-9
5.32500,-9
5.33333,-10
5.34167,-10
5.35000,-10
5.35833,-10
5.36667,-10
5.37500,-10
5.38333,-11
5.39167,-11
5.40000,-10
5.40833,-10
5.41667,-10
5.42500,-11
5.43333,-11
5.44167,-11
5.45000,-11
5.45833,-11
5.46667,-11
5.47500,-10
5.48333,-10
5.49167,-10
5.50000,-10
5.50833,-9
5.51667,-9
5.52500,-8
5.53333,-8
5.54167,-7
5.55000,-6
5.55833,-5
5.56667,-5
5.57500,-5
5.58333,-5
5.59167,-5
5.60000,-5
5.60833,-5
5.61667,-5
5.62500,-4
5.63333,-4
5.64167,-3
5.65000,-2
5.65833,-2
5.66667,-1
5.67500,-1
5.68333,-0
5.69167,-0
5.70000,-0
5.70833,0
5.71667,0
5.72500,1
5.73333,1
5.74167,1
5.75000,1
5.75833,1
5.76667,2
5.77500,2
5.78333,3
5.79167,3
5.80000,3
5.80833,3
5.81667,4
5.82500,4
5.83333,4
5.84167,5
5.85000,5
5.85833,5
5.86667,6
5.87500,6
5.88333,6
5.89167,6
5.90000,6
5.90833,6
5.91667,6
5.92500,6
5.93333,6
5.94167,7
5.95000,7
5.95833,7
5.96667,7
5.97500,7
5.98333,8
5.99167,8
6.00000,8
6.00833,7
6.01667,7
6.02500,7
6.03333,6
6.04167,6
6.05000,6
6.05833,6
6.06667,6
6.07500,5
6.08333,5
6.09167,5
6.10000,5
6.10833,5
6.11667,5
6.12500,4
6.13333,4
6.14167,4
6.15000,4
6.15833,4
6.16667,4
6.17500,4
6.18333,4
6.19167,3
6.20000,3
6.20833,4
6.21667,4
6.22500,4
6.23333,4
6.24167,4
6.25000,4
6.25833,4
6.26667,4
6.27500,4
6.28333,4
6.29167,4
6.30000,4
6.30833,4
6.31667,4
6.32500,4
6.33333,4
6.34167,4
6.35000,5
6.35833,5
6.36667,5
6.37500,6
6.38333,6
6.39167,6
6.40000,6
6.40833,6
6.41667,6
6.42500,6
6.43333,6
6.44167,7
6.45000,7
6.45833,8
6.46667,8
6.47500,8
6.48333,9
6.49167,9
6.50000,9
6.50833,9
6.51667,9
6.52500,8
6.53333,8
6.54167,8
6.55000,8
6.55833,8
6.56667,8
6.57500,8
6.58333,7
6.59167,7
6.60000,7
6.60833,8
6.61667,7
6.62500,8
6.63333,8
6.64167,8
6.65000,8
6.65833,8
6.66667,8
6.67500,8
6.68333,7
6.69167,7
6.70000,7
6.70833,7
6.71667,7
6.72500,7
6.73333,7
6.74167,7
6.75000,6
6.75833,6
6.76667,6
6.77500,5
6.78333,5
6.79167,4
6.80000,4
6.80833,4
6.81667,4
6.82500,4
6.83333,4
6.84167,3
6.85000,4
6.85833,4
6.86667,4
6.87500,3
6.88333,3
6.89167,3
6.90000,3
6.90833,3
6.91667,3
6.92500,3
6.93333,3
6.94167,3
6.95000,3
6.95833,3
6.96667,3
6.97500,2
6.98333,2
6.99167,3
7.00000,3
7.00833,3
7.01667,3
7.02500,4
7.03333,4
7.04167,5
7.05000,5
7.05833,5
7.06667,5
7.07500,6
7.08333,6
7.09167,7
7.10000,8
7.10833,9
7.11667,10
7.12500,10
7.13333,11
7.14167,11
7.15000,12
7.15833,12
7.16667,13
7.17500,14
7.18333,14
7.19167,15
7.20000,16
7.20833,16
7.21667,17
7.22500,17
7.23333,18
7.24167,18
7.25000,18
7.25833,19
7.26667,19
7.27500,19
7.28333,19
7.29167,19
7.30000,19
7.30833,20
7.31667,21
7.32500,21
7.33333,21
7.34167,21
7.35000,21
7.35833,21
7.36667,21
7.37500,21
7.38333,21
7.39167,21
7.40000,21
7.40833,21
7.41667,21
7.42500,21
7.43333,21
7.44167,21
7.45000,21
7.45833,21
7.46667,20
7.47500,20
7.48333,20
7.49167,20
7.50000,20
7.50833,20
7.51667,19
7.52500,19
7.53333,18
7.54167,18
7.55000,17
7.55833,17
7.56667,17
7.57500,17
7.58333,17
7.59167,16
7.60000,16
7.60833,16
7.61667,15
7.62500,15
7.63333,14
7.64167,14
7.65000,14
7.65833,13
7.66667,13
7.67500,12
7.68333,11
7.69167,11
7.70000,9
7.70833,9
7.71667,9
7.72500,8
7.73333,8
7.74167,7
7.75000,6
7.75833,6
7.76667,5
7.77500,4
7.78333,3
7.79167,3
7.80000,2
7.80833,2
7.81667,2
7.82500,2
7.83333,1
7.84167,1
7.85000,0
7.85833,-0
7.86667,-1
7.87500,-1
7.88333,-2
7.89167,-2
7.90000,-3
7.90833,-4
7.91667,-4
7.92500,-4
7.93333,-5
7.94167,-5
7.95000,-6
7.95833,-6
7.96667,-6
7.97500,-7
7.98333,-7
7.99167,-7
8.00000,-7
8.00833,-7
8.01667,-7
8.02500,-7
8.03333,-7
8.04167,-7
8.05000,-7
8.05833,-7
8.06667,-6
8.07500,-6
8.08333,-7
8.09167,-7
8.10000,-7
8.10833,-7
8.11667,-7
8.12500,-7
8.13333,-7
8.14167,-7
8.15000,-6
8.15833,-6
8.16667,-6
8.17500,-6
8.18333,-6
8.19167,-5
8.20000,-5
8.20833,-4
8.21667,-4
8.22500,-4
8.23333,-3
8.24167,-3
8.25000,-2
8.25833,-2
8.26667,-2
8.27500,-1
8.28333,-1
8.29167,-0
8.30000,-0
8.30833,0
8.31667,0
8.32500,1
8.33333,1
8.34167,2
8.35000,2
8.35833,3
8.36667,4
8.37500,4
8.38333,5
8.39167,5
8.40000,5
8.40833,5
8.41667,6
8.42500,7
8.43333,7
8.44167,8
8.45000,8
8.45833,9
8.46667,10
8.47500,10
8.48333,11
8.49167,11
8.50000,11
8.50833,11
8.51667,11
8.52500,12
8.53333,12
8.54167,12
8.55000,13
8.55833,14
8.56667,14
8.57500,15
8.58333,15
8.59167,14
8.60000,15
8.60833,15
8.61667,16
8.62500,16
8.63333,16
8.64167,16
8.65000,16
8.65833,15
8.66667,15
8.67500,15
8.68333,15
8.69167,15
8.70000,15
8.70833,14
8.71667,14
8.72500,14
8.73333,14
8.74167,13
8.75000,13
8.75833,12
8.76667,12
8.77500,12
8.78333,12
8.79167,12
8.80000,11
8.80833,11
8.81667,11
8.82500,11
8.83333,11
8.84167,11
8.85000,11
8.85833,11
8.86667,11
8.87500,11
8.88333,11
8.89167,11
8.90000,11
8.90833,11
8.91667,11
8.92500,11
8.93333,11
8.94167,11
8.95000,12
8.95833,12
8.96667,12
8.97500,12
8.98333,12
8.99167,13
9.00000,13
9.00833,13
9.01667,14
9.02500,15
9.03333,15
9.04167,15
9.05000,15
9.05833,15
9.06667,16
9.07500,17
9.08333,17
9.09167,17
9.10000,18
9.10833,19
9.11667,19
9.12500,20
9.13333,20
9.14167,21
9.15000,21
9.15833,21
9.16667,21
9.17500,21
9.18333,22
9.19167,22
9.20000,23
9.20833,23
9.21667,23
9.22500,23
9.23333,23
9.24167,24
9.25000,24
9.25833,24
9.26667,25
9.27500,25
9.28333,25
9.29167,25
9.30000,25
9.30833,25
9.31667,24
9.32500,24
9.33333,24
9.34167,25
9.35000,25
9.35833,24
9.36667,24
9.37500,23
9.38333,23
9.39167,23
9.40000,23
9.40833,22
9.41667,22
9.42500,22
9.43333,21
9.44167,21
9.45000,20
9.45833,20
9.46667,20
9.47500,19
9.48333,18
9.49167,18
9.50000,17
9.50833,17
9.51667,16
9.52500,16
9.53333,15
9.54167,15
9.55000,14
9.55833,13
9.56667,13
9.57500,12
9.58333,11
9.59167,11
9.60000,10
9.60833,10
9.61667,9
9.62500,9
9.63333,8
9.64167,8
9.65000,7
9.65833,7
9.66667,6
9.67500,6
9.68333,6
9.69167,5
9.70000,5
9.70833,4
9.71667,4
9.72500,3
9.73333,3
9.74167,3
9.75000,2
9.75833,2
9.76667,2
9.77500,2
9.78333,2
9.79167,2
9.80000,2
9.80833,2
9.81667,2
9.82500,2
9.83333,2
9.84167,2
9.85000,2
9.85833,2
9.86667,2
9.87500,3
9.88333,3
9.89167,3
9.90000,3
9.90833,3
9.91667,4
9.92500,4
9.93333,4
9.94167,4
9.95000,5
9.95833,5
9.96667,6
9.97500,6
9.98333,6
9.99167,7
10.00000,7
10.00833,7
10.01667,8
10.02500,8
10.03333,8
10.04167,8
10.05000,8
10.05833,9
10.06667,9
10.07500,9
10.08333,9
10.09167,9
10.10000,9
10.10833,9
10.11667,9
10.12500,10
10.13333,10
10.14167,11
10.15000,11
10.15833,11
10.16667,12
10.17500,12
10.18333,12
10.19167,11
10.20000,12
10.20833,12
10.21667,12
10.22500,12
10.23333,12
10.24167,12
10.25000,13
10.25833,13
10.26667,14
10.27500,14
10.28333,14
10.29167,14
10.30000,14
10.30833,14
10.31667,14
10.32500,14
10.33333,14
10.34167,15
10.35000,15
10.35833,16
10.36667,16
10.37500,16
10.38333,16
10.39167,16
10.40000,16
10.40833,16
10.41667,15
10.42500,16
10.43333,16
10.44167,17
10.45000,18
10.45833,20
10.46667,22
10.47500,24
10.48333,28
10.49167,34
10.50000,40
10.50833,49
10.51667,60
10.52500,76
10.53333,95
10.54167,119
10.55000,150
10.55833,187
10.56667,233
10.57500,289
10.58333,357
10.59167,440
10.60000,537
10.60833,652
10.61667,787
10.62500,943
10.63333,1123
10.64167,1328
10.65000,1559
10.65833,1819
10.66667,2109
10.67500,2430
10.68333,2783
10.69167,3168
10.70000,3584
10.70833,4032
10.71667,4509
10.72500,5014
10.73333,5544
10.74167,6097
10.75000,6668
10.75833,7254
10.76667,7848
10.77500,8446
10.78333,9040
10.79167,9625
10.80000,10192
10.80833,10735
10.81667,11246
10.82500,11717
10.83333,12141
10.84167,12510
10.85000,12820
10.85833,13062
10.86667,13233
10.87500,13329
10.88333,13348
10.89167,13289
10.90000,13152
10.90833,12941
10.91667,12658
10.92500,12308
10.93333,11898
10.94167,11434
10.95000,10926
10.95833,10380
10.96667,9807
10.97500,9214
10.98333,8611
10.99167,8006
11.00000,7407
11.00833,6819
11.01667,6249
11.02500,5701
11.03333,5180
11.04167,4688
11.05000,4227
11.05833,3799
11.06667,3403
11.07500,3040
11.08333,2708
11.09167,2406
11.10000,2134
11.10833,1889
11.11667,1670
11.12500,1474
11.13333,1299
11.14167,1144
11.15000,1006
11.15833,885
11.16667,778
11.17500,684
11.18333,601
11.19167,529
11.20000,466
11.20833,411
11.21667,363
11.22500,322
11.23333,286
11.24167,255
11.25000,228
11.25833,205
11.26667,185
11.27500,167
11.28333,153
11.29167,140
11.30000,129
11.30833,120
11.31667,112
11.32500,106
11.33333,100
11.34167,95
11.35000,91
11.35833,87
11.36667,84
11.37500,81
11.38333,79
11.39167,77
11.40000,75
11.40833,73
11.41667,72
11.42500,70
11.43333,69
11.44167,68
11.45000,67
11.45833,66
11.46667,65
11.47500,64
11.48333,63
11.49167,62
11.50000,61
11.50833,60
11.51667,59
11.52500,58
11.53333,57
11.54167,56
11.55000,55
11.55833,53
11.56667,52
11.57500,51
11.58333,51
11.59167,50
11.60000,49
11.60833,48
11.61667,47
11.62500,46
11.63333,46
11.64167,45
11.65000,44
11.65833,43
11.66667,42
11.67500,41
11.68333,40
11.69167,39
11.70000,39
11.70833,38
11.71667,37
11.72500,37
11.73333,36
11.74167,35
11.75000,34
11.75833,34
11.76667,33
11.77500,32
11.78333,32
11.79167,31
11.80000,31
11.80833,30
11.81667,30
11.82500,30
11.83333,30
11.84167,29
11.85000,29
11.85833,29
11.86667,29
11.87500,29
11.88333,28
11.89167,28
11.90000,28
11.90833,28
11.91667,28
11.92500,29
11.93333,29
11.94167,29
11.95000,30
11.95833,30
11.96667,30
11.97500,30
11.98333,31
11.99167,31
12.00000,31
12.00833,32
12.01667,32
12.02500,33
12.03333,33
12.04167,34
12.05000,34
12.05833,34
12.06667,34
12.07500,34
12.08333,34
12.09167,34
12.10000,35
12.10833,35
12.11667,35
12.12500,35
12.13333,35
12.14167,35
12.15000,35
12.15833,35
12.16667,35
12.17500,35
12.18333,35
12.19167,34
12.20000,34
12.20833,34
12.21667,33
12.22500,33
12.23333,33
12.24167,33
12.25000,32
12.25833,32
12.26667,32
12.27500,32
12.28333,32
12.29167,31
12.30000,31
12.30833,30
12.31667,30
12.32500,30
12.33333,29
12.34167,29
12.35000,29
12.35833,29
12.36667,28
12.37500,28
12.38333,28
12.39167,28
12.40000,28
12.40833,28
12.41667,28
12.42500,28
12.43333,29
12.44167,29
12.45000,29
12.45833,29
12.46667,29
12.47500,29
12.48333,30
12.49167,30
12.50000,30
12.50833,30
12.51667,30
12.52500,30
12.53333,31
12.54167,31
12.55000,32
12.55833,32
12.56667,33
12.57500,34
12.58333,35
12.59167,36
12.60000,38
12.60833,40
12.61667,43
12.62500,47
12.63333,52
12.64167,58
12.65000,65
12.65833,74
12.66667,85
12.67500,97
12.68333,112
12.69167,131
12.70000,152
12.70833,177
12.71667,206
12.72500,239
12.73333,277
12.74167,319
12.75000,367
12.75833,420
12.76667,479
12.77500,544
12.78333,615
12.79167,693
12.80000,777
12.80833,868
12.81667,966
12.82500,1070
12.83333,1181
12.84167,1299
12.85000,1424
12.85833,1555
12.86667,1693
12.87500,1837
12.88333,1987
12.89167,2144
12.90000,2306
12.90833,2474
12.91667,2647
12.92500,2827
12.93333,3011
12.94167,3201
12.95000,3396
12.95833,3595
12.96667,3798
12.97500,4006
12.98333,4219
12.99167,4435
13.00000,4656
13.00833,4880
13.01667,5109
13.02500,5340
13.03333,5575
13.04167,5813
13.05000,6055
13.05833,6300
13.06667,6548
13.07500,6800
13.08333,7054
13.09167,7311
13.10000,7571
13.10833,7833
13.11667,8099
13.12500,8367
13.13333,8638
13.14167,8911
13.15000,9187
13.15833,9465
13.16667,9746
13.17500,10030
13.18333,10315
13.19167,10603
13.20000,10894
13.20833,11187
13.21667,11482
13.22500,11780
13.23333,12079
13.24167,12381
13.25000,12685
13.25833,12992
13.26667,13301
13.27500,13613
13.28333,13926
13.29167,14242
13.30000,14560
13.30833,14881
13.31667,15204
13.32500,15530
13.33333,15857
13.34167,16187
13.35000,16519
13.35833,16853
13.36667,17190
13.37500,17529
13.38333,17871
13.39167,18215
13.40000,18561
13.40833,18910
13.41667,19262
13.42500,19616
13.43333,19972
13.44167,20331
13.45000,20692
13.45833,21057
13.46667,21423
13.47500,21792
13.48333,22163
13.49167,22537
13.50000,22914
13.50833,23294
13.51667,23677
13.52500,24062
13.53333,24449
13.54167,24840
13.55000,25233
13.55833,25629
13.56667,26028
13.57500,26430
13.58333,26834
13.59167,27241
13.60000,27651
13.60833,28064
13.61667,28479
13.62500,28898
13.63333,29319
13.64167,29743
13.65000,30170
13.65833,30600
13.66667,31033
13.67500,31470
13.68333,31909
13.69167,32351
13.70000,32797
13.70833,33245
13.71667,33697
13.72500,34151
13.73333,34609
13.74167,35070
13.75000,35534
13.75833,36001
13.76667,36471
13.77500,36944
13.78333,37421
13.79167,37901
13.80000,38383
13.80833,38867
13.81667,39352
13.82500,39835
13.83333,40315
13.84167,40785
13.85000,41239
13.85833,41666
13.86667,42053
13.87500,42381
13.88333,42632
13.89167,42781
13.90000,42803
13.90833,42673
13.91667,42366
13.92500,41862
13.93333,41146
13.94167,40209
13.95000,39050
13.95833,37676
13.96667,36104
13.97500,34357
13.98333,32465
13.99167,30464
14.00000,28393
14.00833,26289
14.01667,24192
14.02500,22136
14.03333,20154
14.04167,18271
14.05000,16507
14.05833,14879
14.06667,13394
14.07500,12058
14.08333,10872
14.09167,9834
14.10000,8937
14.10833,8175
14.11667,7540
14.12500,7023
14.13333,6614
14.14167,6304
14.15000,6082
14.15833,5941
14.16667,5869
14.17500,5860
14.18333,5904
14.19167,5994
14.20000,6121
14.20833,6277
14.21667,6456
14.22500,6651
14.23333,6854
14.24167,7060
14.25000,7263
14.25833,7457
14.26667,7638
14.27500,7800
14.28333,7940
14.29167,8055
14.30000,8143
14.30833,8201
14.31667,8228
14.32500,8223
14.33333,8187
14.34167,8119
14.35000,8021
14.35833,7894
14.36667,7740
14.37500,7561
14.38333,7360
14.39167,7139
14.40000,6901
14.40833,6649
14.41667,6386
14.42500,6114
14.43333,5836
14.44167,5555
14.45000,5273
14.45833,4992
14.46667,4715
14.47500,4443
14.48333,4178
14.49167,3921
14.50000,3673
14.50833,3435
14.51667,3208
14.52500,2992
14.53333,2787
14.54167,2594
14.55000,2412
14.55833,2241
14.56667,2082
14.57500,1934
14.58333,1795
14.59167,1667
14.60000,1548
14.60833,1439
14.61667,1338
14.62500,1245
14.63333,1159
14.64167,1080
14.65000,1008
14.65833,942
14.66667,881
14.67500,826
14.68333,776
14.69167,730
14.70000,688
14.70833,649
14.71667,614
14.72500,582
14.73333,552
14.74167,526
14.75000,501
14.75833,479
14.76667,459
14.77500,440
14.78333,423
14.79167,407
14.80000,393
14.80833,380
14.81667,367
14.82500,356
14.83333,345
14.84167,336
14.85000,327
14.85833,319
14.86667,312
14.87500,305
14.88333,299
14.89167,293
14.90000,288
14.90833,283
14.91667,279
14.92500,275
14.93333,272
14.94167,269
14.95000,266
14.95833,264
14.96667,261
14.97500,260
14.98333,258
14.99167,257
15.00000,256
15.00833,256
15.01667,255
15.02500,255
15.03333,255
15.04167,256
15.05000,257
15.05833,259
15.06667,261
15.07500,263
15.08333,266
15.09167,270
15.10000,274
15.10833,279
15.11667,286
15.12500,294
15.13333,303
15.14167,315
15.15000,329
15.15833,346
15.16667,367
15.17500,392
15.18333,422
15.19167,458
15.20000,502
15.20833,554
15.21667,617
15.22500,691
15.23333,780
15.24167,885
15.25000,1008
15.25833,1153
15.26667,1324
15.27500,1522
15.28333,1753
15.29167,2019
15.30000,2325
15.30833,2675
15.31667,3074
15.32500,3525
15.33333,4033
15.34167,4604
15.35000,5242
15.35833,5951
15.36667,6735
15.37500,7598
15.38333,8543
15.39167,9572
15.40000,10687
15.40833,11890
15.41667,13180
15.42500,14558
15.43333,16021
15.44167,17568
15.45000,19193
15.45833,20892
15.46667,22658
15.47500,24485
15.48333,26364
15.49167,28285
15.50000,30238
15.50833,32212
15.51667,34194
15.52500,36173
15.53333,38134
15.54167,40065
15.55000,41952
15.55833,43781
15.56667,45540
15.57500,47215
15.58333,48794
15.59167,50265
15.60000,51619
15.60833,52845
15.61667,53935
15.62500,54881
15.63333,55678
15.64167,56321
15.65000,56806
15.65833,57133
15.66667,57301
15.67500,57309
15.68333,57162
15.69167,56863
15.70000,56417
15.70833,55829
15.71667,55106
15.72500,54256
15.73333,53287
15.74167,52209
15.75000,51031
15.75833,49762
15.76667,48414
15.77500,46995
15.78333,45517
15.79167,43990
15.80000,42423
15.80833,40827
15.81667,39210
15.82500,37583
15.83333,35952
15.84167,34325
15.85000,32711
15.85833,31116
15.86667,29545
15.87500,28006
15.88333,26502
15.89167,25038
15.90000,23617
15.90833,22242
15.91667,20915
15.92500,19640
15.93333,18416
15.94167,17246
15.95000,16130
15.95833,15067
15.96667,14059
15.97500,13103
15.98333,12200
15.99167,11348
16.00000,10546
16.00833,9792
16.01667,9086
16.02500,8425
16.03333,7807
16.04167,7231
16.05000,6694
16.05833,6195
16.06667,5732
16.07500,5303
16.08333,4905
16.09167,4537
16.10000,4197
16.10833,3884
16.11667,3595
16.12500,3329
16.13333,3085
16.14167,2860
16.15000,2653
16.15833,2463
16.16667,2289
16.17500,2130
16.18333,1984
16.19167,1850
16.20000,1727
16.20833,1614
16.21667,1511
16.22500,1417
16.23333,1331
16.24167,1252
16.25000,1179
16.25833,1113
16.26667,1052
16.27500,996
16.28333,945
16.29167,898
16.30000,854
16.30833,815
16.31667,778
16.32500,744
16.33333,713
16.34167,685
16.35000,658
16.35833,633
16.36667,611
16.37500,590
16.38333,570
16.39167,552
16.40000,535
16.40833,519
16.41667,505
16.42500,491
16.43333,479
16.44167,466
16.45000,455
16.45833,444
16.46667,434
16.47500,425
16.48333,416
16.49167,408
16.50000,400
16.50833,393
16.51667,386
16.52500,380
16.53333,374
16.54167,368
16.55000,363
16.55833,358
16.56667,353
16.57500,349
16.58333,345
16.59167,340
16.60000,336
16.60833,333
16.61667,329
16.62500,326
16.63333,323
16.64167,319
16.65000,316
16.65833,314
16.66667,311
16.67500,308
16.68333,305
16.69167,303
16.70000,301
16.70833,299
16.71667,296
16.72500,295
16.73333,292
16.74167,290
16.75000,288
16.75833,286
16.76667,284
16.77500,282
16.78333,281
16.79167,279
16.80000,277
16.80833,275
16.81667,274
16.82500,272
16.83333,271
16.84167,269
16.85000,267
16.85833,266
16.86667,264
16.87500,262
16.88333,261
16.89167,259
16.90000,258
16.90833,257
16.91667,256
16.92500,254
16.93333,253
16.94167,251
16.95000,250
16.95833,249
16.96667,248
16.97500,247
16.98333,245
16.99167,244
17.00000,242
17.00833,241
17.01667,240
17.02500,238
17.03333,236
17.04167,235
17.05000,234
17.05833,233
17.06667,231
17.07500,230
17.08333,228
17.09167,227
17.10000,225
17.10833,224
17.11667,222
17.12500,221
17.13333,219
17.14167,218
17.15000,217
17.15833,215
17.16667,213
17.17500,212
17.18333,211
17.19167,210
17.20000,208
17.20833,207
17.21667,205
17.22500,204
17.23333,202
17.24167,201
17.25000,200
17.25833,198
17.26667,197
17.27500,195
17.28333,194
17.29167,193
17.30000,192
17.30833,191
17.31667,190
17.32500,188
17.33333,187
17.34167,186
17.35000,185
17.35833,183
17.36667,182
17.37500,181
17.38333,180
17.39167,179
17.40000,177
17.40833,176
17.41667,175
17.42500,174
17.43333,173
17.44167,172
17.45000,171
17.45833,170
17.46667,169
17.47500,167
17.48333,166
17.49167,165
17.50000,164
17.50833,163
17.51667,162
17.52500,161
17.53333,159
17.54167,158
17.55000,157
17.55833,156
17.56667,155
17.57500,154
17.58333,152
17.59167,151
17.60000,150
17.60833,149
17.61667,147
17.62500,146
17.63333,145
17.64167,143
17.65000,142
17.65833,141
17.66667,140
17.67500,139
17.68333,138
17.69167,137
17.70000,136
17.70833,135
17.71667,134
17.72500,134
17.73333,133
17.74167,132
17.75000,131
17.75833,131
17.76667,130
17.77500,129
17.78333,128
17.79167,128
17.80000,127
17.80833,127
17.81667,127
17.82500,127
17.83333,127
17.84167,126
17.85000,126
17.85833,126
17.86667,126
17.87500,126
17.88333,126
17.89167,126
17.90000,126
17.90833,126
17.91667,125
17.92500,125
17.93333,125
17.94167,125
17.95000,125
17.95833,125
17.96667,124
17.97500,124
17.98333,124
17.99167,124
18.00000,124
18.00833,124
18.01667,123
18.02500,123
18.03333,122
18.04167,122
18.05000,122
18.05833,122
18.06667,122
18.07500,122
18.08333,121
18.09167,120
18.10000,120
18.10833,119
18.11667,119
18.12500,119
18.13333,119
18.14167,118
18.15000,118
18.15833,118
18.16667,117
18.17500,117
18.18333,116
18.19167,116
18.20000,115
18.20833,115
18.21667,115
18.22500,115
18.23333,114
18.24167,114
18.25000,113
18.25833,112
18.26667,111
18.27500,110
18.28333,110
18.29167,109
18.30000,109
18.30833,108
18.31667,107
18.32500,106
18.33333,106
18.34167,106
18.35000,106
18.35833,105
18.36667,105
18.37500,105
18.38333,104
18.39167,104
18.40000,104
18.40833,103
18.41667,103
18.42500,103
18.43333,102
18.44167,102
18.45000,102
18.45833,102
18.46667,102
18.47500,101
18.48333,101
18.49167,100
18.50000,100
18.50833,99
18.51667,99
18.52500,99
18.53333,98
18.54167,98
18.55000,98
18.55833,97
18.56667,97
18.57500,96
18.58333,96
18.59167,96
18.60000,95
18.60833,95
18.61667,95
18.62500,95
18.63333,95
18.64167,94
18.65000,94
18.65833,94
18.66667,93
18.67500,94
18.68333,94
18.69167,94
18.70000,94
18.70833,94
18.71667,95
18.72500,95
18.73333,95
18.74167,95
18.75000,95
18.75833,95
18.76667,96
18.77500,97
18.78333,98
18.79167,99
18.80000,99
18.80833,100
18.81667,101
18.82500,102
18.83333,103
18.84167,104
18.85000,105
18.85833,106
18.86667,108
18.87500,109
18.88333,111
18.89167,113
18.90000,114
18.90833,116
18.91667,118
18.92500,119
18.93333,121
18.94167,123
18.95000,124
18.95833,126
18.96667,127
18.97500,129
18.98333,130
18.99167,132
19.00000,132
19.00833,133
19.01667,134
19.02500,135
19.03333,136
19.04167,137
19.05000,137
19.05833,137
19.06667,137
19.07500,137
19.08333,137
19.09167,137
19.10000,137
19.10833,136
19.11667,135
19.12500,135
19.13333,134
19.14167,133
19.15000,133
19.15833,131
19.16667,130
19.17500,128
19.18333,126
19.19167,125
19.20000,123
19.20833,121
19.21667,119
19.22500,117
19.23333,115
19.24167,114
19.25000,112
19.25833,110
19.26667,108
19.27500,106
19.28333,104
19.29167,102
19.30000,100
19.30833,98
19.31667,96
19.32500,94
19.33333,92
19.34167,91
19.35000,89
19.35833,88
19.36667,86
19.37500,84
19.38333,83
19.39167,81
19.40000,80
19.40833,79
19.41667,77
19.42500,76
19.43333,75
19.44167,74
19.45000,73
19.45833,73
19.46667,72
19.47500,71
19.48333,70
19.49167,69
19.50000,68
19.50833,68
19.51667,67
19.52500,66
19.53333,66
19.54167,65
19.55000,64
19.55833,64
19.56667,64
19.57500,64
19.58333,63
19.59167,63
19.60000,63
19.60833,63
19.61667,63
19.62500,63
19.63333,63
19.64167,63
19.65000,63
19.65833,63
19.66667,63
19.67500,63
19.68333,64
19.69167,64
19.70000,64
19.70833,65
19.71667,65
19.72500,65
19.73333,65
19.74167,66
19.75000,66
19.75833,67
19.76667,67
19.77500,68
19.78333,68
19.79167,69
19.80000,70
19.80833,70
19.81667,70
19.82500,70
19.83333,71
19.84167,71
19.85000,72
19.85833,72
19.86667,72
19.87500,73
19.88333,74
19.89167,74
19.90000,74
19.90833,75
19.91667,75
19.92500,75
19.93333,76
19.94167,76
19.95000,76
19.95833,76
19.96667,76
19.97500,76
19.98333,77
19.99167,77
20.00000,77
20.00833,77
20.01667,77
20.02500,77
20.03333,78
20.04167,78
20.05000,79
20.05833,78
20.06667,78
20.07500,78
20.08333,78
20.09167,79
20.10000,78
20.10833,78
20.11667,78
20.12500,78
20.13333,78
20.14167,78
20.15000,78
20.15833,77
20.16667,76
20.17500,76
20.18333,75
20.19167,75
20.20000,75
20.20833,75
20.21667,75
20.22500,75
20.23333,75
20.24167,75
20.25000,75
20.25833,74
20.26667,74
20.27500,74
20.28333,73
20.29167,73
20.30000,73
20.30833,73
20.31667,73
20.32500,73
20.33333,73
20.34167,73
20.35000,72
20.35833,72
20.36667,71
20.37500,71
20.38333,72
20.39167,71
20.40000,71
20.40833,71
20.41667,71
20.42500,71
20.43333,70
20.44167,70
20.45000,70
20.45833,70
20.46667,69
20.47500,69
20.48333,69
20.49167,69
20.50000,70
20.50833,70
20.51667,70
20.52500,70
20.53333,70
20.54167,70
20.55000,70
20.55833,70
20.56667,69
20.57500,69
20.58333,69
20.59167,69
20.60000,69
20.60833,70
20.61667,70
20.62500,70
20.63333,70
20.64167,69
20.65000,69
20.65833,69
20.66667,68
20.67500,69
20.68333,69
20.69167,69
20.70000,69
20.70833,69
20.71667,68
20.72500,68
20.73333,68
20.74167,68
20.75000,67
20.75833,67
20.76667,67
20.77500,67
20.78333,67
20.79167,66
20.80000,66
20.80833,66
20.81667,65
20.82500,65
20.83333,64
20.84167,63
20.85000,63
20.85833,63
20.86667,62
20.87500,62
20.88333,62
20.89167,61
20.90000,60
20.90833,60
20.91667,60
20.92500,60
20.93333,59
20.94167,59
20.95000,58
20.95833,58
20.96667,57
20.97500,56
20.98333,55
20.99167,55
21.00000,54
21.00833,53
21.01667,53
21.02500,52
21.03333,51
21.04167,50
21.05000,50
21.05833,49
21.06667,48
21.07500,48
21.08333,47
21.09167,46
21.10000,45
21.10833,44
21.11667,44
21.12500,43
21.13333,42
21.14167,41
21.15000,41
21.15833,40
21.16667,39
21.17500,38
21.18333,37
21.19167,37
21.20000,36
21.20833,35
21.21667,35
21.22500,34
21.23333,34
21.24167,34
21.25000,34
21.25833,34
21.26667,34
21.27500,34
21.28333,34
21.29167,34
21.30000,33
21.30833,34
21.31667,34
21.32500,34
21.33333,34
21.34167,35
21.35000,36
21.35833,36
21.36667,37
21.37500,38
21.38333,40
21.39167,42
21.40000,44
21.40833,47
21.41667,50
21.42500,53
21.43333,56
21.44167,61
21.45000,66
21.45833,72
21.46667,78
21.47500,86
21.48333,95
21.49167,105
21.50000,116
21.50833,129
21.51667,144
21.52500,161
21.53333,180
21.54167,201
21.55000,226
21.55833,254
21.56667,286
21.57500,321
21.58333,361
21.59167,406
21.60000,456
21.60833,512
21.61667,575
21.62500,645
21.63333,723
21.64167,810
21.65000,905
21.65833,1010
21.66667,1127
21.67500,1254
21.68333,1393
21.69167,1546
21.70000,1711
21.70833,1891
21.71667,2086
21.72500,2295
21.73333,2521
21.74167,2762
21.75000,3019
21.75833,3293
21.76667,3583
21.77500,3889
21.78333,4212
21.79167,4551
21.80000,4906
21.80833,5275
21.81667,5659
21.82500,6055
21.83333,6464
21.84167,6883
21.85000,7311
21.85833,7747
21.86667,8190
21.87500,8636
21.88333,9084
21.89167,9533
21.90000,9980
21.90833,10423
21.91667,10858
21.92500,11285
21.93333,11700
21.94167,12101
21.95000,12487
21.95833,12854
21.96667,13201
21.97500,13526
21.98333,13827
21.99167,14102
22.00000,14349
22.00833,14568
22.01667,14756
22.02500,14914
22.03333,15040
22.04167,15133
22.05000,15194
22.05833,15222
22.06667,15217
22.07500,15180
22.08333,15112
22.09167,15012
22.10000,14883
22.10833,14724
22.11667,14537
22.12500,14323
22.13333,14085
22.14167,13824
22.15000,13540
22.15833,13238
22.16667,12917
22.17500,12580
22.18333,12230
22.19167,11867
22.20000,11494
22.20833,11113
22.21667,10726
22.22500,10335
22.23333,9941
22.24167,9546
22.25000,9151
22.25833,8759
22.26667,8370
22.27500,7985
22.28333,7607
22.29167,7235
22.30000,6871
22.30833,6517
22.31667,6172
22.32500,5838
22.33333,5514
22.34167,5201
22.35000,4900
22.35833,4611
22.36667,4334
22.37500,4069
22.38333,3816
22.39167,3575
22.40000,3346
22.40833,3129
22.41667,2924
22.42500,2730
22.43333,2547
22.44167,2375
22.45000,2213
22.45833,2061
22.46667,1919
22.47500,1786
22.48333,1662
22.49167,1546
22.50000,1438
22.50833,1338
22.51667,1245
22.52500,1159
22.53333,1079
22.54167,1005
22.55000,936
22.55833,873
22.56667,814
22.57500,760
22.58333,710
22.59167,664
22.60000,622
22.60833,583
22.61667,547
22.62500,514
22.63333,484
22.64167,457
22.65000,431
22.65833,408
22.66667,386
22.67500,366
22.68333,348
22.69167,331
22.70000,316
22.70833,301
22.71667,288
22.72500,277
22.73333,266
22.74167,255
22.75000,246
22.75833,237
22.76667,229
22.77500,222
22.78333,215
22.79167,209
22.80000,203
22.80833,197
22.81667,192
22.82500,187
22.83333,183
22.84167,178
22.85000,175
22.85833,171
22.86667,168
22.87500,165
22.88333,162
22.89167,159
22.90000,157
22.90833,154
22.91667,152
22.92500,149
22.93333,147
22.94167,145
22.95000,144
22.95833,142
22.96667,140
22.97500,138
22.98333,137
22.99167,135
23.00000,133
23.00833,132
23.01667,130
23.02500,128
23.03333,127
23.04167,126
23.05000,125
23.05833,124
23.06667,123
23.07500,122
23.08333,121
23.09167,120
23.10000,119
23.10833,118
23.11667,117
23.12500,116
23.13333,115
23.14167,115
23.15000,114
23.15833,113
23.16667,112
23.17500,112
23.18333,111
23.19167,110
23.20000,109
23.20833,109
23.21667,108
23.22500,108
23.23333,107
23.24167,107
23.25000,106
23.25833,106
23.26667,105
23.27500,105
23.28333,105
23.29167,105
23.30000,104
23.30833,104
23.31667,104
23.32500,103
23.33333,103
23.34167,102
23.35000,103
23.35833,103
23.36667,103
23.37500,103
23.38333,103
23.39167,102
23.40000,102
23.40833,102
23.41667,102
23.42500,102
23.43333,103
23.44167,103
23.45000,103
23.45833,104
23.46667,104
23.47500,104
23.48333,103
23.49167,103
23.50000,103
23.50833,103
23.51667,103
23.52500,103
23.53333,103
23.54167,103
23.55000,103
23.55833,103
23.56667,104
23.57500,104
23.58333,104
23.59167,104
23.60000,104
23.60833,104
23.61667,103
23.62500,103
23.63333,102
23.64167,102
23.65000,102
23.65833,102
23.66667,102
23.67500,102
23.68333,102
23.69167,102
23.70000,102
23.70833,102
23.71667,102
23.72500,102
23.73333,102
23.74167,101
23.75000,101
23.75833,101
23.76667,101
23.77500,101
23.78333,101
23.79167,100
23.80000,100
23.80833,100
23.81667,100
23.82500,100
23.83333,100
23.84167,100
23.85000,100
23.85833,100
23.86667,100
23.87500,100
23.88333,100
23.89167,100
23.90000,100
23.90833,100
23.91667,100
23.92500,100
23.93333,100
23.94167,100
23.95000,100
23.95833,100
23.96667,100
23.97500,100
23.98333,100
23.99167,100
24.00000,100
24.00833,99
24.01667,99
24.02500,98
24.03333,98
24.04167,97
24.05000,96
24.05833,96
24.06667,95
24.07500,95
24.08333,94
24.09167,93
24.10000,92
24.10833,92
24.11667,91
24.12500,91
24.13333,90
24.14167,89
24.15000,89
24.15833,88
24.16667,87
24.17500,86
24.18333,85
24.19167,84
24.20000,84
24.20833,83
24.21667,82
24.22500,81
24.23333,81
24.24167,80
24.25000,80
24.25833,80
24.26667,80
24.27500,79
24.28333,79
24.29167,79
24.30000,78
24.30833,78
24.31667,79
24.32500,79
24.33333,79
24.34167,80
24.35000,81
24.35833,83
24.36667,84
24.37500,85
24.38333,87
24.39167,89
24.40000,92
24.40833,96
24.41667,100
24.42500,104
24.43333,108
24.44167,114
24.45000,120
24.45833,128
24.46667,136
24.47500,146
24.48333,156
24.49167,169
24.50000,182
24.50833,197
24.51667,214
24.52500,233
24.53333,253
24.54167,275
24.55000,299
24.55833,326
24.56667,356
24.57500,388
24.58333,424
24.59167,463
24.60000,505
24.60833,551
24.61667,602
24.62500,656
24.63333,715
24.64167,779
24.65000,847
24.65833,920
24.66667,998
24.67500,1081
24.68333,1168
24.69167,1262
24.70000,1361
24.70833,1465
24.71667,1574
24.72500,1689
24.73333,1809
24.74167,1935
24.75000,2065
24.75833,2200
24.76667,2340
24.77500,2484
24.78333,2632
24.79167,2783
24.80000,2937
24.80833,3094
24.81667,3254
24.82500,3415
24.83333,3577
24.84167,3739
24.85000,3901
24.85833,4061
24.86667,4221
24.87500,4377
24.88333,4531
24.89167,4681
24.90000,4826
24.90833,4967
24.91667,5102
24.92500,5230
24.93333,5352
24.94167,5465
24.95000,5570
24.95833,5666
24.96667,5753
24.97500,5831
24.98333,5898
24.99167,5956
25.00000,6003
25.00833,6039
25.01667,6063
25.02500,6077
25.03333,6080
25.04167,6072
25.05000,6053
25.05833,6024
25.06667,5984
25.07500,5934
25.08333,5874
25.09167,5805
25.10000,5727
25.10833,5641
25.11667,5546
25.12500,5444
25.13333,5335
25.14167,5219
25.15000,5098
25.15833,4971
25.16667,4840
25.17500,4705
25.18333,4566
25.19167,4425
25.20000,4282
25.20833,4138
25.21667,3993
25.22500,3846
25.23333,3700
25.24167,3554
25.25000,3409
25.25833,3266
25.26667,3125
25.27500,2986
25.28333,2848
25.29167,2714
25.30000,2583
25.30833,2455
25.31667,2330
25.32500,2210
25.33333,2093
25.34167,1981
25.35000,1873
25.35833,1769
25.36667,1669
25.37500,1573
25.38333,1481
25.39167,1394
25.40000,1311
25.40833,1232
25.41667,1157
25.42500,1086
25.43333,1019
25.44167,956
25.45000,896
25.45833,840
25.46667,787
25.47500,738
25.48333,691
25.49167,648
25.50000,608
25.50833,570
25.51667,534
25.52500,501
25.53333,470
25.54167,442
25.55000,416
25.55833,392
25.56667,369
25.57500,349
25.58333,330
25.59167,312
25.60000,296
25.60833,281
25.61667,267
25.62500,254
25.63333,243
25.64167,232
25.65000,222
25.65833,213
25.66667,204
25.67500,197
25.68333,189
25.69167,182
25.70000,177
25.70833,171
25.71667,166
25.72500,161
25.73333,157
25.74167,153
25.75000,149
25.75833,145
25.76667,141
25.77500,138
25.78333,135
25.79167,133
25.80000,131
25.80833,129
25.81667,126
25.82500,125
25.83333,123
25.84167,121
25.85000,118
25.85833,116
25.86667,114
25.87500,113
25.88333,111
25.89167,110
25.90000,108
25.90833,107
25.91667,106
25.92500,105
25.93333,104
25.94167,102
25.95000,101
25.95833,100
25.96667,98
25.97500,97
25.98333,96
25.99167,94
26.00000,93
26.00833,92
26.01667,91
26.02500,90
26.03333,89
26.04167,87
26.05000,86
26.05833,85
26.06667,84
26.07500,83
26.08333,81
26.09167,81
26.10000,80
26.10833,80
26.11667,79
26.12500,78
26.13333,77
26.14167,77
26.15000,77
26.15833,76
26.16667,76
26.17500,75
26.18333,75
26.19167,74
26.20000,74
26.20833,73
26.21667,72
26.22500,72
26.23333,72
26.24167,72
26.25000,72
26.25833,72
26.26667,73
26.27500,73
26.28333,73
26.29167,74
26.30000,74
26.30833,74
26.31667,74
26.32500,75
26.33333,76
26.34167,77
26.35000,77
26.35833,78
26.36667,78
26.37500,79
26.38333,80
26.39167,80
26.40000,81
26.40833,82
26.41667,82
26.42500,83
26.43333,84
26.44167,85
26.45000,86
26.45833,86
26.46667,87
26.47500,88
26.48333,89
26.49167,89
26.50000,90
26.50833,91
26.51667,92
26.52500,92
26.53333,93
26.54167,93
26.55000,94
26.55833,94
26.56667,95
26.57500,95
26.58333,94
26.59167,95
26.60000,95
26.60833,95
26.61667,95
26.62500,95
26.63333,95
26.64167,95
26.65000,95
26.65833,95
26.66667,95
26.67500,95
26.68333,95
26.69167,95
26.70000,95
26.70833,95
26.71667,95
26.72500,95
26.73333,95
26.74167,95
26.75000,95
26.75833,95
26.76667,94
26.77500,94
26.78333,93
26.79167,93
26.80000,93
26.80833,92
26.81667,92
26.82500,91
26.83333,91
26.84167,90
26.85000,90
26.85833,90
26.86667,90
26.87500,89
26.88333,89
26.89167,89
26.90000,89
26.90833,88
26.91667,88
26.92500,88
26.93333,87
26.94167,87
26.95000,87
26.95833,86
26.96667,86
26.97500,85
26.98333,85
26.99167,85
27.00000,85
27.00833,85
27.01667,85
27.02500,85
27.03333,85
27.04167,85
27.05000,84
27.05833,84
27.06667,84
27.07500,84
27.08333,84
27.09167,84
27.10000,83
27.10833,83
27.11667,83
27.12500,82
27.13333,82
27.14167,82
27.15000,82
27.15833,82
27.16667,82
27.17500,82
27.18333,82
27.19167,82
27.20000,81
27.20833,81
27.21667,81
27.22500,80
27.23333,80
27.24167,79
27.25000,79
27.25833,80
27.26667,80
27.27500,80
27.28333,81
27.29167,81
27.30000,81
27.30833,81
27.31667,81
27.32500,81
27.33333,81
27.34167,81
27.35000,81
27.35833,81
27.36667,81
27.37500,81
27.38333,81
27.39167,81
27.40000,81
27.40833,82
27.41667,82
27.42500,82
27.43333,82
27.44167,82
27.45000,81
27.45833,81
27.46667,81
27.47500,80
27.48333,79
27.49167,79
27.50000,79
27.50833,78
27.51667,78
27.52500,78
27.53333,78
27.54167,78
27.55000,78
27.55833,78
27.56667,77
27.57500,76
27.58333,76
27.59167,75
27.60000,74
27.60833,74
27.61667,73
27.62500,73
27.63333,73
27.64167,73
27.65000,72
27.65833,72
27.66667,71
27.67500,70
27.68333,70
27.69167,69
27.70000,68
27.70833,67
27.71667,66
27.72500,65
27.73333,64
27.74167,63
27.75000,63
27.75833,62
27.76667,61
27.77500,59
27.78333,58
27.79167,57
27.80000,56
27.80833,55
27.81667,54
27.82500,53
27.83333,52
27.84167,50
27.85000,49
27.85833,48
27.86667,46
27.87500,45
27.88333,43
27.89167,41
27.90000,39
27.90833,37
27.91667,35
27.92500,32
27.93333,30
27.94167,28
27.95000,25
27.95833,23
27.96667,20
27.97500,17
27.98333,14
27.99167,11
28.00000,9
28.00833,6
28.01667,3
28.02500,-1
28.03333,-4
28.04167,-7
28.05000,-10
28.05833,-14
28.06667,-17
28.07500,-21
28.08333,-25
28.09167,-28
28.10000,-32
28.10833,-36
28.11667,-40
28.12500,-44
28.13333,-48
28.14167,-51
28.15000,-55
28.15833,-58
28.16667,-62
28.17500,-66
28.18333,-69
28.19167,-72
28.20000,-76
28.20833,-79
28.21667,-82
28.22500,-85
28.23333,-88
28.24167,-91
28.25000,-94
28.25833,-96
28.26667,-99
28.27500,-101
28.28333,-104
28.29167,-106
28.30000,-107
28.30833,-108
28.31667,-110
28.32500,-111
28.33333,-112
28.34167,-112
28.35000,-113
28.35833,-113
28.36667,-113
28.37500,-114
28.38333,-114
28.39167,-113
28.40000,-113
28.40833,-111
28.41667,-110
28.42500,-109
28.43333,-108
28.44167,-107
28.45000,-105
28.45833,-103
28.46667,-100
28.47500,-98
28.48333,-95
28.49167,-92
28.50000,-89
28.50833,-86
28.51667,-83
28.52500,-80
28.53333,-77
28.54167,-73
28.55000,-70
28.55833,-66
28.56667,-63
28.57500,-59
28.58333,-55
28.59167,-51
28.60000,-47
28.60833,-43
28.61667,-39
28.62500,-35
28.63333,-31
28.64167,-27
28.65000,-23
28.65833,-19
28.66667,-15
28.67500,-12
28.68333,-8
28.69167,-4
28.70000,-0
28.70833,3
28.71667,7
28.72500,10
28.73333,13
28.74167,16
28.75000,20
28.75833,23
28.76667,26
28.77500,29
28.78333,32
28.79167,35
28.80000,38
28.80833,40
28.81667,42
28.82500,44
28.83333,46
28.84167,48
28.85000,50
28.85833,52
28.86667,53
28.87500,55
28.88333,56
28.89167,58
28.90000,59
28.90833,60
28.91667,61
28.92500,62
28.93333,63
28.94167,63
28.95000,64
28.95833,64
28.96667,65
28.97500,65
28.98333,66
28.99167,66
29.00000,66
29.00833,66
29.01667,66
29.02500,65
29.03333,65
29.04167,65
29.05000,65
29.05833,64
29.06667,64
29.07500,64
29.08333,64
29.09167,63
29.10000,63
29.10833,63
29.11667,62
29.12500,62
29.13333,61
29.14167,61
29.15000,60
29.15833,60
29.16667,59
29.17500,59
29.18333,58
29.19167,57
29.20000,56
29.20833,56
29.21667,55
29.22500,55
29.23333,55
29.24167,55
29.25000,55
29.25833,55
29.26667,54
29.27500,54
29.28333,54
29.29167,54
29.30000,54
29.30833,54
29.31667,54
29.32500,54
29.33333,53
29.34167,53
29.35000,53
29.35833,52
29.36667,53
29.37500,53
29.38333,52
29.39167,52
29.40000,52
29.40833,51
29.41667,52
29.42500,52
29.43333,52
29.44167,52
29.45000,52
29.45833,52
29.46667,52
29.47500,51
29.48333,51
29.49167,51
29.50000,51
29.50833,51
29.51667,51
29.52500,51
29.53333,51
29.54167,51
29.55000,50
29.55833,50
29.56667,50
29.57500,49
29.58333,49
29.59167,49
29.60000,48
29.60833,48
29.61667,48
29.62500,48
29.63333,47
29.64167,47
29.65000,47
29.65833,47
29.66667,46
29.67500,46
29.68333,46
29.69167,46
29.70000,45
29.70833,45
29.71667,44
29.72500,44
29.73333,43
29.74167,42
29.75000,42
29.75833,41
29.76667,40
29.77500,39
29.78333,38
29.79167,37
29.80000,37
29.80833,36
29.81667,35
29.82500,34
29.83333,33
29.84167,32
29.85000,31
29.85833,30
29.86667,28
29.87500,27
29.88333,25
29.89167,24
29.90000,23
29.90833,21
29.91667,20
29.92500,19
29.93333,17
29.94167,16
29.95000,15
29.95833,14
29.96667,13
29.97500,12
29.98333,11
29.99167,9
30.00000,8
30.00833,7
30.01667,6
30.02500,5
30.03333,4
30.04167,3
30.05000,1
30.05833,0
30.06667,-1
30.07500,-2
30.08333,-3
30.09167,-3
30.10000,-4
30.10833,-5
30.11667,-6
30.12500,-7
30.13333,-8
30.14167,-9
30.15000,-9
30.15833,-10
30.16667,-10
30.17500,-11
30.18333,-11
30.19167,-11
30.20000,-11
30.20833,-11
30.21667,-11
30.22500,-11
30.23333,-11
30.24167,-10
30.25000,-10
30.25833,-9
30.26667,-9
30.27500,-8
30.28333,-8
30.29167,-7
30.30000,-6
30.30833,-5
30.31667,-4
30.32500,-3
30.33333,-2
30.34167,-1
30.35000,0
30.35833,1
30.36667,2
30.37500,4
30.38333,5
30.39167,6
30.40000,7
30.40833,8
30.41667,9
30.42500,10
30.43333,11
30.44167,12
30.45000,13
30.45833,14
30.46667,16
30.47500,17
30.48333,18
30.49167,19
30.50000,20
30.50833,21
30.51667,22
30.52500,23
30.53333,24
30.54167,24
30.55000,25
30.55833,25
30.56667,26
30.57500,27
30.58333,28
30.59167,28
30.60000,29
30.60833,30
30.61667,30
30.62500,30
30.63333,30
30.64167,31
30.65000,32
30.65833,32
30.66667,33
30.67500,33
30.68333,33
30.69167,34
30.70000,34
30.70833,34
30.71667,35
30.72500,35
30.73333,35
30.74167,36
30.75000,36
30.75833,36
30.76667,37
30.77500,37
30.78333,37
30.79167,37
30.80000,38
30.80833,38
30.81667,39
30.82500,39
30.83333,40
30.84167,40
30.85000,41
30.85833,42
30.86667,43
30.87500,44
30.88333,45
30.89167,46
30.90000,46
30.90833,47
30.91667,47
30.92500,48
30.93333,49
30.94167,50
30.95000,51
30.95833,52
30.96667,53
30.97500,54
30.98333,55
30.99167,56
31.00000,56
31.00833,57
31.01667,58
31.02500,59
31.03333,60
31.04167,61
31.05000,62
31.05833,63
31.06667,64
31.07500,65
31.08333,66
31.09167,67
31.10000,67
31.10833,68
31.11667,69
31.12500,70
31.13333,71
31.14167,71
31.15000,72
31.15833,73
31.16667,73
31.17500,74
31.18333,75
31.19167,75
31.20000,76
31.20833,76
31.21667,76
31.22500,77
31.23333,77
31.24167,78
31.25000,78
31.25833,79
31.26667,79
31.27500,78
31.28333,78
31.29167,79
31.30000,79
31.30833,79
31.31667,79
31.32500,79
31.33333,79
31.34167,79
31.35000,79
31.35833,79
31.36667,79
31.37500,79
31.38333,78
31.39167,78
31.40000,78
31.40833,78
31.41667,78
31.42500,78
31.43333,78
31.44167,78
31.45000,77
31.45833,77
31.46667,77
31.47500,77
31.48333,77
31.49167,77
31.50000,76
31.50833,76
31.51667,76
31.52500,76
31.53333,76
31.54167,76
31.55000,76
31.55833,76
31.56667,76
31.57500,76
31.58333,76
31.59167,76
31.60000,75
31.60833,75
31.61667,75
31.62500,75
31.63333,75
31.64167,75
31.65000,75
31.65833,76
31.66667,76
31.67500,76
31.68333,76
31.69167,76
31.70000,76
31.70833,76
31.71667,76
31.72500,76
31.73333,76
31.74167,75
31.75000,76
31.75833,76
31.76667,76
31.77500,76
31.78333,76
31.79167,77
31.80000,78
31.80833,78
31.81667,78
31.82500,79
31.83333,79
31.84167,79
31.85000,79
31.85833,79
31.86667,79
31.87500,79
31.88333,79
31.89167,79
31.90000,79
31.90833,79
31.91667,79
31.92500,79
31.93333,80
31.94167,80
31.95000,80
31.95833,80
31.96667,80
31.97500,80
31.98333,80
31.99167,80
32.00000,80
32.00833,80
32.01667,80
32.02500,80
32.03333,80
32.04167,80
32.05000,80
32.05833,80
32.06667,80
32.07500,80
32.08333,80
32.09167,80
32.10000,80
32.10833,80
32.11667,79
32.12500,79
32.13333,78
32.14167,78
32.15000,78
32.15833,77
32.16667,77
32.17500,77
32.18333,77
32.19167,76
32.20000,77
32.20833,77
32.21667,77
32.22500,77
32.23333,76
32.24167,76
32.25000,76
32.25833,76
32.26667,75
32.27500,75
32.28333,75
32.29167,75
32.30000,75
32.30833,75
32.31667,75
32.32500,75
32.33333,75
32.34167,75
32.35000,75
32.35833,75
32.36667,74
32.37500,74
32.38333,74
32.39167,74
32.40000,73
32.40833,73
32.41667,73
32.42500,72
32.43333,72
32.44167,72
32.45000,72
32.45833,73
32.46667,73
32.47500,73
32.48333,73
32.49167,73
32.50000,73
32.50833,72
32.51667,72
32.52500,72
32.53333,72
32.54167,72
32.55000,72
32.55833,72
32.56667,72
32.57500,72
32.58333,72
32.59167,72
32.60000,72
32.60833,72
32.61667,72
32.62500,72
32.63333,72
32.64167,72
32.65000,72
32.65833,72
32.66667,72
32.67500,73
32.68333,73
32.69167,74
32.70000,74
32.70833,74
32.71667,74
32.72500,75
32.73333,75
32.74167,75
32.75000,75
32.75833,75
32.76667,75
32.77500,75
32.78333,75
32.79167,76
32.80000,76
32.80833,76
32.81667,76
32.82500,76
32.83333,77
32.84167,77
32.85000,77
32.85833,77
32.86667,78
32.87500,78
32.88333,79
32.89167,79
32.90000,79
32.90833,80
32.91667,80
32.92500,80
32.93333,80
32.94167,80
32.95000,80
32.95833,80
32.96667,80
32.97500,81
32.98333,81
32.99167,82
33.00000,82
33.00833,82
33.01667,82
33.02500,82
33.03333,82
33.04167,82
33.05000,83
33.05833,83
33.06667,82
33.07500,82
33.08333,82
33.09167,82
33.10000,82
33.10833,82
33.11667,82
33.12500,82
33.13333,82
33.14167,82
33.15000,82
33.15833,81
33.16667,81
33.17500,81
33.18333,80
33.19167,80
33.20000,79
33.20833,79
33.21667,79
33.22500,78
33.23333,78
33.24167,77
33.25000,76
33.25833,76
33.26667,75
33.27500,74
33.28333,74
33.29167,73
33.30000,72
33.30833,71
33.31667,70
33.32500,70
33.33333,69
33.34167,68
33.35000,68
33.35833,67
33.36667,66
33.37500,65
33.38333,64
33.39167,63
33.40000,62
33.40833,62
33.41667,61
33.42500,59
33.43333,58
33.44167,57
33.45000,57
33.45833,56
33.46667,55
33.47500,55
33.48333,54
33.49167,53
33.50000,53
33.50833,52
33.51667,52
33.52500,52
33.53333,51
33.54167,51
33.55000,51
33.55833,50
33.56667,50
33.57500,50
33.58333,50
33.59167,50
33.60000,49
33.60833,49
33.61667,49
33.62500,49
33.63333,49
33.64167,50
33.65000,50
33.65833,50
33.66667,50
33.67500,50
33.68333,50
33.69167,51
33.70000,51
33.70833,52
33.71667,52
33.72500,53
33.73333,53
33.74167,54
33.75000,55
33.75833,56
33.76667,57
33.77500,57
33.78333,58
33.79167,58
33.80000,59
33.80833,59
33.81667,60
33.82500,61
33.83333,62
33.84167,63
33.85000,64
33.85833,65
33.86667,66
33.87500,66
33.88333,67
33.89167,68
33.90000,69
33.90833,70
33.91667,71
33.92500,72
33.93333,72
33.94167,73
33.95000,73
33.95833,74
33.96667,74
33.97500,75
33.98333,76
33.99167,77
34.00000,77
34.00833,78
34.01667,78
34.02500,79
34.03333,79
34.04167,79
34.05000,79
34.05833,80
34.06667,80
34.07500,81
34.08333,81
34.09167,81
34.10000,82
34.10833,82
34.11667,82
34.12500,83
34.13333,83
34.14167,83
34.15000,84
34.15833,84
34.16667,85
34.17500,85
34.18333,85
34.19167,85
34.20000,84
34.20833,84
34.21667,83
34.22500,83
34.23333,82
34.24167,82
34.25000,81
34.25833,81
34.26667,81
34.27500,81
34.28333,81
34.29167,81
34.30000,80
34.30833,80
34.31667,80
34.32500,79
34.33333,79
34.34167,79
34.35000,78
34.35833,78
34.36667,77
34.37500,77
34.38333,76
34.39167,76
34.40000,76
34.40833,75
34.41667,74
34.42500,74
34.43333,74
34.44167,73
34.45000,73
34.45833,72
34.46667,71
34.47500,70
34.48333,69
34.49167,68
34.50000,67
34.50833,67
34.51667,67
34.52500,66
34.53333,66
34.54167,65
34.55000,65
34.55833,64
34.56667,64
34.57500,64
34.58333,63
34.59167,63
34.60000,62
34.60833,62
34.61667,62
34.62500,61
34.63333,61
34.64167,61
34.65000,61
34.65833,61
34.66667,61
34.67500,61
34.68333,61
34.69167,61
34.70000,60
34.70833,61
34.71667,61
34.72500,61
34.73333,61
34.74167,61
34.75000,62
34.75833,62
34.76667,62
34.77500,63
34.78333,63
34.79167,64
34.80000,64
34.80833,65
34.81667,66
34.82500,66
34.83333,67
34.84167,68
34.85000,68
34.85833,69
34.86667,69
34.87500,70
34.88333,70
34.89167,71
34.90000,71
34.90833,72
34.91667,72
34.92500,73
34.93333,73
34.94167,74
34.95000,75
34.95833,76
34.96667,76
34.97500,76
34.98333,76
34.99167,77
35.00000,77
35.00833,77
35.01667,78
35.02500,78
35.03333,79
35.04167,79
35.05000,79
35.05833,79
35.06667,80
35.07500,80
35.08333,80
35.09167,80
35.10000,80
35.10833,81
35.11667,81
35.12500,81
35.13333,82
35.14167,82
35.15000,82
35.15833,82
35.16667,82
35.17500,83
35.18333,83
35.19167,83
35.20000,83
35.20833,83
35.21667,84
35.22500,84
35.23333,85
35.24167,85
35.25000,85
35.25833,85
35.26667,85
35.27500,85
35.28333,85
35.29167,85
35.30000,85
35.30833,85
35.31667,86
35.32500,86
35.33333,86
35.34167,86
35.35000,86
35.35833,87
35.36667,87
35.37500,87
35.38333,87
35.39167,88
35.40000,88
35.40833,88
35.41667,88
35.42500,88
35.43333,88
35.44167,88
35.45000,88
35.45833,89
35.46667,89
35.47500,90
35.48333,90
35.49167,90
35.50000,90
35.50833,90
35.51667,91
35.52500,91
35.53333,91
35.54167,91
35.55000,91
35.55833,91
35.56667,92
35.57500,93
35.58333,93
35.59167,94
35.60000,94
35.60833,95
35.61667,95
35.62500,95
35.63333,95
35.64167,95
35.65000,95
35.65833,95
35.66667,96
35.67500,96
35.68333,96
35.69167,96
35.70000,96
35.70833,96
35.71667,96
35.72500,96
35.73333,96
35.74167,96
35.75000,96
35.75833,96
35.76667,96
35.77500,96
35.78333,96
35.79167,96
35.80000,96
35.80833,96
35.81667,95
35.82500,95
35.83333,95
35.84167,94
35.85000,94
35.85833,93
35.86667,93
35.87500,93
35.88333,93
35.89167,93
35.90000,92
35.90833,92
35.91667,91
35.92500,91
35.93333,91
35.94167,90
35.95000,90
35.95833,89
35.96667,88
35.97500,88
35.98333,87
35.99167,87
36.00000,86
36.00833,86
36.01667,85
36.02500,84
36.03333,84
36.04167,83
36.05000,83
36.05833,82
36.06667,82
36.07500,82
36.08333,81
36.09167,81
36.10000,81
36.10833,80
36.11667,80
36.12500,80
36.13333,80
36.14167,80
36.15000,80
36.15833,80
36.16667,80
36.17500,80
36.18333,80
36.19167,79
36.20000,79
36.20833,80
36.21667,80
36.22500,80
36.23333,80
36.24167,80
36.25000,81
36.25833,81
36.26667,81
36.27500,81
36.28333,82
36.29167,82
36.30000,83
36.30833,83
36.31667,84
36.32500,84
36.33333,84
36.34167,85
36.35000,85
36.35833,86
36.36667,86
36.37500,87
36.38333,88
36.39167,88
36.40000,88
36.40833,89
36.41667,90
36.42500,90
36.43333,91
36.44167,92
36.45000,92
36.45833,92
36.46667,92
36.47500,92
36.48333,93
36.49167,93
36.50000,94
36.50833,94
36.51667,95
36.52500,95
36.53333,95
36.54167,95
36.55000,95
36.55833,96
36.56667,96
36.57500,96
36.58333,96
36.59167,96
36.60000,97
36.60833,97
36.61667,97
36.62500,97
36.63333,98
36.64167,98
36.65000,98
36.65833,97
36.66667,97
36.67500,97
36.68333,97
36.69167,97
36.70000,97
36.70833,97
36.71667,97
36.72500,97
36.73333,96
36.74167,96
36.75000,96
36.75833,96
36.76667,96
36.77500,96
36.78333,96
36.79167,95
36.80000,95
36.80833,94
36.81667,94
36.82500,93
36.83333,93
36.84167,92
36.85000,92
36.85833,91
36.86667,91
36.87500,90
36.88333,90
36.89167,89
36.90000,88
36.90833,88
36.91667,87
36.92500,87
36.93333,86
36.94167,86
36.95000,86
36.95833,85
36.96667,85
36.97500,85
36.98333,84
36.99167,84
37.00000,83
37.00833,83
37.01667,82
37.02500,82
37.03333,82
37.04167,81
37.05000,81
37.05833,81
37.06667,80
37.07500,80
37.08333,80
37.09167,80
37.10000,80
37.10833,80
37.11667,80
37.12500,80
37.13333,80
37.14167,81
37.15000,80
37.15833,80
37.16667,80
37.17500,81
37.18333,81
37.19167,81
37.20000,81
37.20833,81
37.21667,81
37.22500,81
37.23333,80
37.24167,81
37.25000,81
37.25833,81
37.26667,81
37.27500,81
37.28333,81
37.29167,81
37.30000,81
37.30833,81
37.31667,81
37.32500,81
37.33333,81
37.34167,81
37.35000,81
37.35833,81
37.36667,81
37.37500,82
37.38333,82
37.39167,82
37.40000,82
37.40833,82
37.41667,82
37.42500,82
37.43333,81
37.44167,81
37.45000,81
37.45833,81
37.46667,81
37.47500,81
37.48333,81
37.49167,80
37.50000,80
37.50833,80
37.51667,80
37.52500,80
37.53333,81
37.54167,81
37.55000,81
37.55833,81
37.56667,81
37.57500,81
37.58333,81
37.59167,81
37.60000,82
37.60833,82
37.61667,82
37.62500,82
37.63333,82
37.64167,83
37.65000,82
37.65833,83
37.66667,83
37.67500,83
37.68333,84
37.69167,84
37.70000,84
37.70833,85
37.71667,85
37.72500,86
37.73333,87
37.74167,87
37.75000,88
37.75833,88
37.76667,88
37.77500,88
37.78333,89
37.79167,89
37.80000,89
37.80833,90
37.81667,90
37.82500,91
37.83333,91
37.84167,91
37.85000,91
37.85833,92
37.86667,92
37.87500,92
37.88333,93
37.89167,93
37.90000,93
37.90833,93
37.91667,93
37.92500,93
37.93333,93
37.94167,93
37.95000,93
37.95833,93
37.96667,93
37.97500,93
37.98333,93
37.99167,93
38.00000,93
38.00833,93
38.01667,93
38.02500,94
38.03333,94
38.04167,94
38.05000,94
38.05833,94
38.06667,94
38.07500,93
38.08333,93
38.09167,92
38.10000,92
38.10833,92
38.11667,92
38.12500,92
38.13333,92
38.14167,92
38.15000,92
38.15833,92
38.16667,91
38.17500,91
38.18333,91
38.19167,91
38.20000,90
38.20833,90
38.21667,90
38.22500,90
38.23333,90
38.24167,89
38.25000,89
38.25833,89
38.26667,89
38.27500,89
38.28333,88
38.29167,88
38.30000,88
38.30833,88
38.31667,88
38.32500,88
38.33333,88
38.34167,88
38.35000,88
38.35833,88
38.36667,88
38.37500,88
38.38333,88
38.39167,88
38.40000,88
38.40833,88
38.41667,88
38.42500,88
38.43333,88
38.44167,88
38.45000,87
38.45833,87
38.46667,88
38.47500,88
38.48333,88
38.49167,88
38.50000,88
38.50833,88
38.51667,88
38.52500,88
38.53333,88
38.54167,88
38.55000,88
38.55833,88
38.56667,87
38.57500,88
38.58333,88
38.59167,88
38.60000,88
38.60833,88
38.61667,88
38.62500,88
38.63333,87
38.64167,87
38.65000,87
38.65833,86
38.66667,86
38.67500,85
38.68333,85
38.69167,85
38.70000,84
38.70833,84
38.71667,84
38.72500,84
38.73333,83
38.74167,83
38.75000,83
38.75833,83
38.76667,82
38.77500,82
38.78333,82
38.79167,82
38.80000,81
38.80833,80
38.81667,80
38.82500,79
38.83333,78
38.84167,78
38.85000,77
38.85833,77
38.86667,76
38.87500,76
38.88333,76
38.89167,76
38.90000,75
38.90833,75
38.91667,74
38.92500,74
38.93333,74
38.94167,73
38.95000,73
38.95833,72
38.96667,72
38.97500,72
38.98333,71
38.99167,71
39.00000,71
39.00833,70
39.01667,70
39.02500,70
39.03333,70
39.04167,70
39.05000,70
39.05833,70
39.06667,70
39.07500,70
39.08333,69
39.09167,69
39.10000,69
39.10833,69
39.11667,70
39.12500,70
39.13333,70
39.14167,70
39.15000,70
39.15833,70
39.16667,70
39.17500,70
39.18333,70
39.19167,70
39.20000,70
39.20833,70
39.21667,70
39.22500,70
39.23333,70
39.24167,71
39.25000,71
39.25833,70
39.26667,70
39.27500,69
39.28333,69
39.29167,69
39.30000,69
39.30833,69
39.31667,69
39.32500,69
39.33333,69
39.34167,68
39.35000,68
39.35833,68
39.36667,68
39.37500,67
39.38333,67
39.39167,67
39.40000,66
39.40833,65
39.41667,64
39.42500,64
39.43333,63
39.44167,62
39.45000,62
39.45833,62
39.46667,61
39.47500,61
39.48333,60
39.49167,60
39.50000,60
39.50833,59
39.51667,58
39.52500,58
39.53333,58
39.54167,57
39.55000,57
39.55833,57
39.56667,57
39.57500,57
39.58333,57
39.59167,57
39.60000,56
39.60833,56
39.61667,56
39.62500,57
39.63333,57
39.64167,58
39.65000,58
39.65833,58
39.66667,58
39.67500,59
39.68333,59
39.69167,60
39.70000,60
39.70833,60
39.71667,61
39.72500,61
39.73333,61
39.74167,62
39.75000,62
39.75833,64
39.76667,65
39.77500,66
39.78333,67
39.79167,68
39.80000,69
39.80833,69
39.81667,70
39.82500,71
39.83333,72
39.84167,73
39.85000,74
39.85833,75
39.86667,75
39.87500,76
39.88333,77
39.89167,78
39.90000,79
39.90833,79
39.91667,80
39.92500,81
39.93333,81
39.94167,82
39.95000,83
39.95833,83
39.96667,84
39.97500,85
39.98333,85
39.99167,86
40.00000,86

