[Header]
Application Name,LabSolutions
Version,5.97 SP1
Data File Name,C:\Users\cremerlab\Desktop\griffin\2021-04-03_buffer_calibration\2021-04-03_buffer_calibration_432021_006_019.lcd
Output Date,4/4/2021
Output Time,3:29:37 AM

[File Information]
Type,Data File
Generated,4/4/2021 2:49:17 AM
Generated by,System Administrator
Modified,4/4/2021 3:29:37 AM
Modified by,System Administrator

[Sample Information]
Operator Name,System Administrator
Acquired,4/4/2021 2:49:36 AM
Sample Type,1:Standard
Level,6
Sample Name,2021-04-02_DM_glucose_glycerol_acetate_calibration_05mM
Sample ID,006
ISTD Amount1,1
ISTD Amount2,1
ISTD Amount3,1
ISTD Amount4,1
ISTD Amount5,1
ISTD Amount6,1
ISTD Amount7,1
ISTD Amount8,1
ISTD Amount9,1
ISTD Amount10,1
ISTD Amount11,1
ISTD Amount12,1
ISTD Amount13,1
ISTD Amount14,1
ISTD Amount15,1
ISTD Amount16,1
ISTD Amount17,1
ISTD Amount18,1
ISTD Amount19,1
ISTD Amount20,1
ISTD Amount21,1
ISTD Amount22,1
ISTD Amount23,1
ISTD Amount24,1
ISTD Amount25,1
ISTD Amount26,1
ISTD Amount27,1
ISTD Amount28,1
ISTD Amount29,1
ISTD Amount30,1
ISTD Amount31,1
ISTD Amount32,1
Sample Amount,1
Dilution Factor,1
Vial#,24
Injection Volume,20

[Original Files]
Data File,C:\Users\cremerlab\Desktop\griffin\2021-04-03_buffer_calibration\2021-04-03_buffer_calibration_432021_006_019.lcd
Method File,C:\LabSolutions\Data\Project1\organicacidsetc2.lcm
Batch File,C:\Users\cremerlab\Desktop\griffin\2021-04-03_buffer_calibration\2021-04-03_buffer_calibration.lcb
Report Format File,c:\LabSolutions\System\DEFAULT.lsr

[File Description]


[Configuration]
Instrument Name,HPLC-PC-Instrument1
Instrument #,1
Line #,1
# of Detectors,2
Detector ID,Detector A,Detector B
Detector Name,Detector A,Detector B
# of Channels,1,1

[Peak Table(Detector A)]
# of Peaks,0

[Peak Table(Detector B)]
# of Peaks,5
Peak#,R.Time,I.Time,F.Time,Area,Height,A/H,Conc.,Mark,ID#,Name,k',Plate #,Plate Ht.,Tailing,Resolution,Sep.Factor,Area Ratio,Height Ratio,Conc. %,Norm Conc.
1,10.744,10.542,10.967,43579,2995,14.551,1.954,   ,,,0.000,12631,11.876,1.024,0.000,0.000,0,0,0.000,0.000
2,14.915,14.092,15.308,1503520,60708,24.766,67.427,   ,,,0.388,7515,19.961,0.839,7.792,0.000,0,0,0.000,0.000
3,15.661,15.308,17.508,486462,19663,24.740,21.816, V ,,,0.458,9507,15.777,0.000,1.122,1.179,0,0,0.000,0.000
4,22.076,21.417,23.017,138091,5130,26.921,6.193,   ,,,1.055,15436,9.718,1.089,9.481,2.304,0,0,0.000,0.000
5,25.082,24.442,25.933,58203,1996,29.155,2.610,   ,,,1.335,16804,8.927,1.062,4.049,1.265,0,0,0.000,0.000

[LC Chromatogram(Detector B-Ch1)]
Interval(msec),500
# of Points,4801
Start Time(min),0.000
End Time(min),40.000
Intensity Units,mV
Intensity Multiplier,0.001
R.Time (min),Intensity
0.00000,1
0.00833,1
0.01667,0
0.02500,-0
0.03333,-0
0.04167,0
0.05000,0
0.05833,0
0.06667,0
0.07500,0
0.08333,0
0.09167,0
0.10000,0
0.10833,0
0.11667,1
0.12500,0
0.13333,0
0.14167,0
0.15000,0
0.15833,0
0.16667,0
0.17500,0
0.18333,0
0.19167,0
0.20000,1
0.20833,1
0.21667,1
0.22500,1
0.23333,1
0.24167,1
0.25000,1
0.25833,1
0.26667,1
0.27500,1
0.28333,1
0.29167,1
0.30000,1
0.30833,1
0.31667,2
0.32500,2
0.33333,2
0.34167,2
0.35000,2
0.35833,1
0.36667,1
0.37500,1
0.38333,1
0.39167,1
0.40000,1
0.40833,1
0.41667,1
0.42500,1
0.43333,1
0.44167,1
0.45000,1
0.45833,1
0.46667,1
0.47500,1
0.48333,1
0.49167,1
0.50000,1
0.50833,1
0.51667,1
0.52500,1
0.53333,1
0.54167,2
0.55000,2
0.55833,2
0.56667,2
0.57500,2
0.58333,2
0.59167,3
0.60000,3
0.60833,3
0.61667,3
0.62500,2
0.63333,2
0.64167,2
0.65000,2
0.65833,2
0.66667,1
0.67500,1
0.68333,1
0.69167,0
0.70000,-0
0.70833,-0
0.71667,-1
0.72500,-1
0.73333,-1
0.74167,-0
0.75000,0
0.75833,0
0.76667,1
0.77500,1
0.78333,1
0.79167,1
0.80000,1
0.80833,1
0.81667,1
0.82500,2
0.83333,2
0.84167,2
0.85000,2
0.85833,2
0.86667,2
0.87500,2
0.88333,2
0.89167,2
0.90000,2
0.90833,2
0.91667,2
0.92500,2
0.93333,2
0.94167,2
0.95000,2
0.95833,2
0.96667,3
0.97500,3
0.98333,3
0.99167,2
1.00000,2
1.00833,2
1.01667,2
1.02500,2
1.03333,2
1.04167,2
1.05000,2
1.05833,2
1.06667,2
1.07500,3
1.08333,3
1.09167,3
1.10000,3
1.10833,3
1.11667,3
1.12500,3
1.13333,3
1.14167,3
1.15000,3
1.15833,3
1.16667,3
1.17500,3
1.18333,3
1.19167,3
1.20000,3
1.20833,3
1.21667,3
1.22500,3
1.23333,3
1.24167,3
1.25000,4
1.25833,4
1.26667,4
1.27500,4
1.28333,4
1.29167,4
1.30000,4
1.30833,4
1.31667,4
1.32500,4
1.33333,4
1.34167,4
1.35000,4
1.35833,4
1.36667,4
1.37500,4
1.38333,4
1.39167,4
1.40000,3
1.40833,3
1.41667,3
1.42500,4
1.43333,4
1.44167,5
1.45000,5
1.45833,5
1.46667,5
1.47500,6
1.48333,5
1.49167,5
1.50000,5
1.50833,4
1.51667,4
1.52500,4
1.53333,4
1.54167,4
1.55000,4
1.55833,4
1.56667,4
1.57500,4
1.58333,4
1.59167,4
1.60000,4
1.60833,5
1.61667,5
1.62500,5
1.63333,4
1.64167,4
1.65000,4
1.65833,5
1.66667,5
1.67500,5
1.68333,5
1.69167,5
1.70000,5
1.70833,5
1.71667,5
1.72500,6
1.73333,6
1.74167,6
1.75000,6
1.75833,7
1.76667,7
1.77500,7
1.78333,6
1.79167,6
1.80000,6
1.80833,5
1.81667,5
1.82500,5
1.83333,5
1.84167,6
1.85000,6
1.85833,6
1.86667,6
1.87500,6
1.88333,6
1.89167,6
1.90000,6
1.90833,6
1.91667,7
1.92500,7
1.93333,7
1.94167,7
1.95000,7
1.95833,7
1.96667,7
1.97500,6
1.98333,6
1.99167,7
2.00000,7
2.00833,7
2.01667,7
2.02500,7
2.03333,7
2.04167,7
2.05000,7
2.05833,7
2.06667,7
2.07500,7
2.08333,7
2.09167,7
2.10000,7
2.10833,7
2.11667,7
2.12500,8
2.13333,8
2.14167,8
2.15000,8
2.15833,8
2.16667,8
2.17500,8
2.18333,8
2.19167,7
2.20000,8
2.20833,8
2.21667,8
2.22500,8
2.23333,8
2.24167,8
2.25000,8
2.25833,8
2.26667,7
2.27500,7
2.28333,8
2.29167,8
2.30000,7
2.30833,7
2.31667,7
2.32500,7
2.33333,6
2.34167,6
2.35000,6
2.35833,6
2.36667,6
2.37500,6
2.38333,7
2.39167,7
2.40000,7
2.40833,7
2.41667,7
2.42500,7
2.43333,7
2.44167,7
2.45000,7
2.45833,7
2.46667,7
2.47500,8
2.48333,8
2.49167,7
2.50000,7
2.50833,7
2.51667,7
2.52500,7
2.53333,7
2.54167,7
2.55000,7
2.55833,7
2.56667,7
2.57500,7
2.58333,7
2.59167,7
2.60000,7
2.60833,6
2.61667,7
2.62500,7
2.63333,7
2.64167,7
2.65000,7
2.65833,7
2.66667,7
2.67500,8
2.68333,8
2.69167,8
2.70000,7
2.70833,7
2.71667,7
2.72500,7
2.73333,7
2.74167,7
2.75000,8
2.75833,8
2.76667,7
2.77500,8
2.78333,7
2.79167,7
2.80000,7
2.80833,7
2.81667,8
2.82500,8
2.83333,8
2.84167,9
2.85000,9
2.85833,9
2.86667,9
2.87500,9
2.88333,9
2.89167,9
2.90000,9
2.90833,9
2.91667,9
2.92500,9
2.93333,9
2.94167,9
2.95000,9
2.95833,9
2.96667,9
2.97500,10
2.98333,9
2.99167,9
3.00000,9
3.00833,9
3.01667,9
3.02500,9
3.03333,9
3.04167,9
3.05000,9
3.05833,9
3.06667,8
3.07500,8
3.08333,9
3.09167,9
3.10000,9
3.10833,9
3.11667,9
3.12500,10
3.13333,10
3.14167,9
3.15000,9
3.15833,9
3.16667,9
3.17500,9
3.18333,10
3.19167,10
3.20000,10
3.20833,10
3.21667,10
3.22500,9
3.23333,9
3.24167,9
3.25000,9
3.25833,9
3.26667,9
3.27500,9
3.28333,10
3.29167,10
3.30000,10
3.30833,10
3.31667,10
3.32500,10
3.33333,10
3.34167,10
3.35000,10
3.35833,9
3.36667,9
3.37500,9
3.38333,9
3.39167,9
3.40000,9
3.40833,9
3.41667,9
3.42500,9
3.43333,10
3.44167,10
3.45000,10
3.45833,10
3.46667,10
3.47500,10
3.48333,10
3.49167,10
3.50000,10
3.50833,9
3.51667,9
3.52500,10
3.53333,10
3.54167,10
3.55000,10
3.55833,10
3.56667,10
3.57500,9
3.58333,9
3.59167,9
3.60000,9
3.60833,9
3.61667,9
3.62500,9
3.63333,9
3.64167,9
3.65000,9
3.65833,10
3.66667,10
3.67500,10
3.68333,10
3.69167,10
3.70000,10
3.70833,10
3.71667,10
3.72500,10
3.73333,10
3.74167,11
3.75000,11
3.75833,11
3.76667,11
3.77500,11
3.78333,11
3.79167,11
3.80000,12
3.80833,12
3.81667,12
3.82500,12
3.83333,11
3.84167,11
3.85000,11
3.85833,11
3.86667,11
3.87500,11
3.88333,11
3.89167,10
3.90000,10
3.90833,11
3.91667,11
3.92500,11
3.93333,10
3.94167,10
3.95000,10
3.95833,10
3.96667,11
3.97500,11
3.98333,11
3.99167,11
4.00000,11
4.00833,11
4.01667,11
4.02500,11
4.03333,12
4.04167,12
4.05000,11
4.05833,12
4.06667,12
4.07500,12
4.08333,11
4.09167,11
4.10000,11
4.10833,11
4.11667,11
4.12500,12
4.13333,12
4.14167,12
4.15000,12
4.15833,12
4.16667,13
4.17500,13
4.18333,13
4.19167,13
4.20000,12
4.20833,12
4.21667,12
4.22500,11
4.23333,11
4.24167,11
4.25000,11
4.25833,12
4.26667,12
4.27500,13
4.28333,13
4.29167,13
4.30000,13
4.30833,13
4.31667,12
4.32500,12
4.33333,13
4.34167,13
4.35000,12
4.35833,12
4.36667,12
4.37500,12
4.38333,12
4.39167,12
4.40000,12
4.40833,12
4.41667,12
4.42500,12
4.43333,12
4.44167,13
4.45000,12
4.45833,12
4.46667,12
4.47500,13
4.48333,13
4.49167,12
4.50000,12
4.50833,13
4.51667,13
4.52500,13
4.53333,13
4.54167,13
4.55000,13
4.55833,13
4.56667,13
4.57500,13
4.58333,13
4.59167,13
4.60000,13
4.60833,13
4.61667,13
4.62500,13
4.63333,12
4.64167,12
4.65000,12
4.65833,12
4.66667,12
4.67500,13
4.68333,13
4.69167,13
4.70000,13
4.70833,13
4.71667,13
4.72500,13
4.73333,13
4.74167,13
4.75000,13
4.75833,13
4.76667,13
4.77500,13
4.78333,13
4.79167,13
4.80000,13
4.80833,13
4.81667,12
4.82500,12
4.83333,12
4.84167,12
4.85000,13
4.85833,13
4.86667,13
4.87500,13
4.88333,13
4.89167,13
4.90000,13
4.90833,13
4.91667,14
4.92500,14
4.93333,14
4.94167,14
4.95000,14
4.95833,14
4.96667,14
4.97500,14
4.98333,14
4.99167,14
5.00000,14
5.00833,13
5.01667,13
5.02500,13
5.03333,14
5.04167,14
5.05000,14
5.05833,14
5.06667,15
5.07500,14
5.08333,14
5.09167,14
5.10000,14
5.10833,14
5.11667,14
5.12500,14
5.13333,14
5.14167,14
5.15000,14
5.15833,14
5.16667,14
5.17500,14
5.18333,14
5.19167,14
5.20000,14
5.20833,14
5.21667,15
5.22500,15
5.23333,14
5.24167,14
5.25000,14
5.25833,14
5.26667,14
5.27500,14
5.28333,14
5.29167,14
5.30000,14
5.30833,15
5.31667,15
5.32500,15
5.33333,14
5.34167,14
5.35000,14
5.35833,14
5.36667,15
5.37500,15
5.38333,15
5.39167,15
5.40000,15
5.40833,15
5.41667,15
5.42500,15
5.43333,15
5.44167,15
5.45000,15
5.45833,15
5.46667,15
5.47500,14
5.48333,15
5.49167,15
5.50000,15
5.50833,15
5.51667,15
5.52500,15
5.53333,15
5.54167,15
5.55000,16
5.55833,16
5.56667,16
5.57500,16
5.58333,16
5.59167,16
5.60000,16
5.60833,16
5.61667,16
5.62500,16
5.63333,16
5.64167,16
5.65000,16
5.65833,16
5.66667,16
5.67500,16
5.68333,16
5.69167,16
5.70000,16
5.70833,16
5.71667,16
5.72500,16
5.73333,16
5.74167,16
5.75000,16
5.75833,16
5.76667,16
5.77500,16
5.78333,16
5.79167,16
5.80000,16
5.80833,16
5.81667,16
5.82500,16
5.83333,16
5.84167,16
5.85000,16
5.85833,17
5.86667,17
5.87500,17
5.88333,16
5.89167,16
5.90000,16
5.90833,16
5.91667,16
5.92500,15
5.93333,16
5.94167,16
5.95000,16
5.95833,16
5.96667,16
5.97500,16
5.98333,17
5.99167,17
6.00000,17
6.00833,16
6.01667,16
6.02500,16
6.03333,16
6.04167,16
6.05000,17
6.05833,16
6.06667,16
6.07500,16
6.08333,16
6.09167,16
6.10000,16
6.10833,17
6.11667,17
6.12500,17
6.13333,17
6.14167,17
6.15000,17
6.15833,17
6.16667,17
6.17500,18
6.18333,17
6.19167,17
6.20000,17
6.20833,17
6.21667,17
6.22500,17
6.23333,17
6.24167,17
6.25000,17
6.25833,17
6.26667,17
6.27500,17
6.28333,16
6.29167,16
6.30000,16
6.30833,16
6.31667,17
6.32500,17
6.33333,18
6.34167,18
6.35000,18
6.35833,18
6.36667,17
6.37500,17
6.38333,17
6.39167,17
6.40000,17
6.40833,17
6.41667,17
6.42500,17
6.43333,17
6.44167,17
6.45000,17
6.45833,17
6.46667,17
6.47500,17
6.48333,17
6.49167,17
6.50000,18
6.50833,18
6.51667,18
6.52500,19
6.53333,19
6.54167,19
6.55000,19
6.55833,20
6.56667,20
6.57500,20
6.58333,19
6.59167,19
6.60000,19
6.60833,19
6.61667,19
6.62500,19
6.63333,19
6.64167,19
6.65000,19
6.65833,19
6.66667,19
6.67500,19
6.68333,20
6.69167,20
6.70000,20
6.70833,19
6.71667,19
6.72500,19
6.73333,19
6.74167,19
6.75000,19
6.75833,19
6.76667,19
6.77500,19
6.78333,19
6.79167,19
6.80000,19
6.80833,19
6.81667,19
6.82500,19
6.83333,18
6.84167,18
6.85000,18
6.85833,18
6.86667,19
6.87500,19
6.88333,19
6.89167,19
6.90000,18
6.90833,18
6.91667,18
6.92500,18
6.93333,19
6.94167,19
6.95000,19
6.95833,19
6.96667,19
6.97500,19
6.98333,19
6.99167,19
7.00000,19
7.00833,19
7.01667,20
7.02500,20
7.03333,20
7.04167,20
7.05000,19
7.05833,19
7.06667,19
7.07500,19
7.08333,19
7.09167,19
7.10000,19
7.10833,19
7.11667,19
7.12500,19
7.13333,19
7.14167,19
7.15000,19
7.15833,19
7.16667,19
7.17500,19
7.18333,19
7.19167,19
7.20000,19
7.20833,19
7.21667,19
7.22500,19
7.23333,19
7.24167,19
7.25000,19
7.25833,19
7.26667,19
7.27500,19
7.28333,19
7.29167,20
7.30000,20
7.30833,20
7.31667,20
7.32500,20
7.33333,20
7.34167,20
7.35000,20
7.35833,20
7.36667,20
7.37500,19
7.38333,19
7.39167,19
7.40000,19
7.40833,19
7.41667,19
7.42500,20
7.43333,20
7.44167,20
7.45000,20
7.45833,20
7.46667,20
7.47500,20
7.48333,20
7.49167,20
7.50000,20
7.50833,20
7.51667,20
7.52500,20
7.53333,21
7.54167,21
7.55000,21
7.55833,21
7.56667,21
7.57500,21
7.58333,21
7.59167,21
7.60000,21
7.60833,21
7.61667,21
7.62500,21
7.63333,21
7.64167,21
7.65000,21
7.65833,21
7.66667,21
7.67500,21
7.68333,21
7.69167,21
7.70000,21
7.70833,21
7.71667,21
7.72500,21
7.73333,21
7.74167,21
7.75000,21
7.75833,21
7.76667,21
7.77500,22
7.78333,22
7.79167,22
7.80000,21
7.80833,21
7.81667,21
7.82500,21
7.83333,20
7.84167,20
7.85000,20
7.85833,20
7.86667,21
7.87500,21
7.88333,21
7.89167,21
7.90000,21
7.90833,21
7.91667,21
7.92500,21
7.93333,21
7.94167,21
7.95000,21
7.95833,21
7.96667,21
7.97500,21
7.98333,21
7.99167,21
8.00000,20
8.00833,20
8.01667,21
8.02500,21
8.03333,21
8.04167,21
8.05000,22
8.05833,22
8.06667,22
8.07500,22
8.08333,22
8.09167,22
8.10000,21
8.10833,21
8.11667,21
8.12500,21
8.13333,21
8.14167,21
8.15000,21
8.15833,21
8.16667,22
8.17500,22
8.18333,22
8.19167,22
8.20000,22
8.20833,22
8.21667,22
8.22500,22
8.23333,22
8.24167,22
8.25000,22
8.25833,22
8.26667,22
8.27500,22
8.28333,22
8.29167,22
8.30000,23
8.30833,23
8.31667,23
8.32500,23
8.33333,23
8.34167,23
8.35000,23
8.35833,23
8.36667,23
8.37500,23
8.38333,23
8.39167,23
8.40000,23
8.40833,23
8.41667,23
8.42500,23
8.43333,23
8.44167,23
8.45000,23
8.45833,23
8.46667,23
8.47500,23
8.48333,24
8.49167,24
8.50000,24
8.50833,24
8.51667,24
8.52500,24
8.53333,23
8.54167,23
8.55000,23
8.55833,24
8.56667,24
8.57500,24
8.58333,24
8.59167,24
8.60000,24
8.60833,25
8.61667,25
8.62500,25
8.63333,25
8.64167,25
8.65000,25
8.65833,25
8.66667,25
8.67500,24
8.68333,25
8.69167,25
8.70000,25
8.70833,25
8.71667,25
8.72500,25
8.73333,25
8.74167,25
8.75000,25
8.75833,25
8.76667,25
8.77500,25
8.78333,25
8.79167,25
8.80000,25
8.80833,25
8.81667,25
8.82500,25
8.83333,25
8.84167,24
8.85000,24
8.85833,24
8.86667,24
8.87500,24
8.88333,24
8.89167,24
8.90000,24
8.90833,24
8.91667,24
8.92500,24
8.93333,24
8.94167,24
8.95000,24
8.95833,24
8.96667,24
8.97500,24
8.98333,24
8.99167,24
9.00000,24
9.00833,25
9.01667,25
9.02500,25
9.03333,25
9.04167,24
9.05000,24
9.05833,24
9.06667,24
9.07500,24
9.08333,25
9.09167,25
9.10000,25
9.10833,25
9.11667,25
9.12500,24
9.13333,24
9.14167,24
9.15000,24
9.15833,24
9.16667,24
9.17500,24
9.18333,24
9.19167,24
9.20000,24
9.20833,24
9.21667,24
9.22500,24
9.23333,24
9.24167,24
9.25000,24
9.25833,24
9.26667,24
9.27500,24
9.28333,24
9.29167,24
9.30000,25
9.30833,25
9.31667,25
9.32500,25
9.33333,25
9.34167,25
9.35000,25
9.35833,25
9.36667,25
9.37500,25
9.38333,25
9.39167,24
9.40000,24
9.40833,24
9.41667,24
9.42500,24
9.43333,24
9.44167,24
9.45000,24
9.45833,24
9.46667,24
9.47500,23
9.48333,23
9.49167,23
9.50000,23
9.50833,23
9.51667,23
9.52500,23
9.53333,23
9.54167,23
9.55000,23
9.55833,23
9.56667,23
9.57500,23
9.58333,23
9.59167,24
9.60000,24
9.60833,24
9.61667,24
9.62500,24
9.63333,24
9.64167,24
9.65000,24
9.65833,24
9.66667,24
9.67500,24
9.68333,24
9.69167,24
9.70000,24
9.70833,24
9.71667,24
9.72500,24
9.73333,24
9.74167,24
9.75000,24
9.75833,24
9.76667,24
9.77500,23
9.78333,23
9.79167,24
9.80000,24
9.80833,24
9.81667,24
9.82500,24
9.83333,24
9.84167,24
9.85000,24
9.85833,24
9.86667,24
9.87500,24
9.88333,24
9.89167,24
9.90000,24
9.90833,24
9.91667,24
9.92500,23
9.93333,23
9.94167,23
9.95000,24
9.95833,24
9.96667,25
9.97500,25
9.98333,25
9.99167,25
10.00000,25
10.00833,24
10.01667,24
10.02500,24
10.03333,24
10.04167,24
10.05000,24
10.05833,24
10.06667,24
10.07500,24
10.08333,24
10.09167,24
10.10000,24
10.10833,24
10.11667,24
10.12500,24
10.13333,24
10.14167,24
10.15000,24
10.15833,24
10.16667,25
10.17500,25
10.18333,25
10.19167,25
10.20000,25
10.20833,25
10.21667,25
10.22500,24
10.23333,24
10.24167,24
10.25000,25
10.25833,25
10.26667,25
10.27500,26
10.28333,26
10.29167,26
10.30000,26
10.30833,26
10.31667,26
10.32500,26
10.33333,26
10.34167,26
10.35000,26
10.35833,26
10.36667,26
10.37500,26
10.38333,26
10.39167,26
10.40000,26
10.40833,26
10.41667,25
10.42500,26
10.43333,26
10.44167,26
10.45000,26
10.45833,26
10.46667,26
10.47500,26
10.48333,26
10.49167,26
10.50000,26
10.50833,26
10.51667,26
10.52500,27
10.53333,27
10.54167,27
10.55000,28
10.55833,30
10.56667,31
10.57500,32
10.58333,34
10.59167,36
10.60000,39
10.60833,43
10.61667,49
10.62500,57
10.63333,66
10.64167,77
10.65000,91
10.65833,107
10.66667,125
10.67500,146
10.68333,168
10.69167,193
10.70000,219
10.70833,244
10.71667,268
10.72500,289
10.73333,304
10.74167,312
10.75000,309
10.75833,293
10.76667,260
10.77500,207
10.78333,131
10.79167,30
10.80000,-100
10.80833,-259
10.81667,-449
10.82500,-669
10.83333,-919
10.84167,-1198
10.85000,-1502
10.85833,-1830
10.86667,-2175
10.87500,-2534
10.88333,-2900
10.89167,-3268
10.90000,-3631
10.90833,-3982
10.91667,-4317
10.92500,-4629
10.93333,-4912
10.94167,-5162
10.95000,-5374
10.95833,-5545
10.96667,-5673
10.97500,-5756
10.98333,-5794
10.99167,-5787
11.00000,-5736
11.00833,-5643
11.01667,-5510
11.02500,-5342
11.03333,-5142
11.04167,-4915
11.05000,-4663
11.05833,-4393
11.06667,-4110
11.07500,-3818
11.08333,-3521
11.09167,-3223
11.10000,-2930
11.10833,-2644
11.11667,-2368
11.12500,-2104
11.13333,-1856
11.14167,-1624
11.15000,-1409
11.15833,-1213
11.16667,-1035
11.17500,-876
11.18333,-734
11.19167,-609
11.20000,-501
11.20833,-408
11.21667,-329
11.22500,-263
11.23333,-208
11.24167,-163
11.25000,-127
11.25833,-99
11.26667,-77
11.27500,-60
11.28333,-47
11.29167,-39
11.30000,-33
11.30833,-30
11.31667,-29
11.32500,-28
11.33333,-29
11.34167,-30
11.35000,-31
11.35833,-32
11.36667,-34
11.37500,-35
11.38333,-37
11.39167,-38
11.40000,-38
11.40833,-38
11.41667,-38
11.42500,-38
11.43333,-38
11.44167,-37
11.45000,-36
11.45833,-35
11.46667,-34
11.47500,-32
11.48333,-31
11.49167,-29
11.50000,-28
11.50833,-26
11.51667,-25
11.52500,-24
11.53333,-23
11.54167,-21
11.55000,-19
11.55833,-18
11.56667,-17
11.57500,-16
11.58333,-15
11.59167,-13
11.60000,-12
11.60833,-11
11.61667,-10
11.62500,-9
11.63333,-8
11.64167,-7
11.65000,-5
11.65833,-4
11.66667,-3
11.67500,-3
11.68333,-2
11.69167,-1
11.70000,-1
11.70833,-1
11.71667,-0
11.72500,0
11.73333,0
11.74167,1
11.75000,2
11.75833,2
11.76667,3
11.77500,4
11.78333,4
11.79167,5
11.80000,5
11.80833,5
11.81667,6
11.82500,6
11.83333,7
11.84167,7
11.85000,8
11.85833,8
11.86667,9
11.87500,9
11.88333,9
11.89167,10
11.90000,10
11.90833,10
11.91667,11
11.92500,12
11.93333,12
11.94167,12
11.95000,12
11.95833,12
11.96667,12
11.97500,13
11.98333,13
11.99167,13
12.00000,14
12.00833,14
12.01667,14
12.02500,14
12.03333,15
12.04167,15
12.05000,16
12.05833,16
12.06667,15
12.07500,15
12.08333,15
12.09167,15
12.10000,15
12.10833,15
12.11667,15
12.12500,16
12.13333,16
12.14167,16
12.15000,16
12.15833,16
12.16667,16
12.17500,16
12.18333,16
12.19167,15
12.20000,15
12.20833,15
12.21667,16
12.22500,16
12.23333,16
12.24167,16
12.25000,16
12.25833,16
12.26667,17
12.27500,17
12.28333,17
12.29167,17
12.30000,17
12.30833,16
12.31667,17
12.32500,17
12.33333,17
12.34167,16
12.35000,16
12.35833,16
12.36667,17
12.37500,17
12.38333,18
12.39167,18
12.40000,18
12.40833,18
12.41667,18
12.42500,19
12.43333,19
12.44167,19
12.45000,20
12.45833,20
12.46667,21
12.47500,21
12.48333,21
12.49167,21
12.50000,21
12.50833,21
12.51667,21
12.52500,21
12.53333,21
12.54167,22
12.55000,22
12.55833,22
12.56667,22
12.57500,21
12.58333,21
12.59167,21
12.60000,21
12.60833,21
12.61667,21
12.62500,21
12.63333,21
12.64167,21
12.65000,21
12.65833,22
12.66667,22
12.67500,22
12.68333,22
12.69167,23
12.70000,23
12.70833,23
12.71667,23
12.72500,23
12.73333,23
12.74167,23
12.75000,23
12.75833,23
12.76667,23
12.77500,23
12.78333,23
12.79167,23
12.80000,24
12.80833,24
12.81667,23
12.82500,23
12.83333,24
12.84167,25
12.85000,25
12.85833,25
12.86667,25
12.87500,25
12.88333,25
12.89167,26
12.90000,27
12.90833,27
12.91667,27
12.92500,28
12.93333,28
12.94167,29
12.95000,30
12.95833,30
12.96667,30
12.97500,30
12.98333,31
12.99167,31
13.00000,31
13.00833,31
13.01667,31
13.02500,31
13.03333,32
13.04167,32
13.05000,33
13.05833,33
13.06667,34
13.07500,34
13.08333,34
13.09167,34
13.10000,35
13.10833,35
13.11667,35
13.12500,36
13.13333,36
13.14167,36
13.15000,36
13.15833,36
13.16667,37
13.17500,37
13.18333,37
13.19167,38
13.20000,38
13.20833,38
13.21667,38
13.22500,38
13.23333,38
13.24167,38
13.25000,38
13.25833,39
13.26667,39
13.27500,39
13.28333,40
13.29167,40
13.30000,40
13.30833,40
13.31667,40
13.32500,40
13.33333,39
13.34167,39
13.35000,39
13.35833,39
13.36667,38
13.37500,38
13.38333,37
13.39167,37
13.40000,37
13.40833,37
13.41667,37
13.42500,36
13.43333,36
13.44167,36
13.45000,36
13.45833,36
13.46667,36
13.47500,35
13.48333,35
13.49167,35
13.50000,35
13.50833,35
13.51667,35
13.52500,34
13.53333,34
13.54167,34
13.55000,33
13.55833,33
13.56667,33
13.57500,33
13.58333,32
13.59167,32
13.60000,32
13.60833,32
13.61667,32
13.62500,32
13.63333,33
13.64167,33
13.65000,33
13.65833,33
13.66667,33
13.67500,33
13.68333,33
13.69167,33
13.70000,32
13.70833,32
13.71667,32
13.72500,32
13.73333,32
13.74167,33
13.75000,33
13.75833,33
13.76667,33
13.77500,33
13.78333,33
13.79167,33
13.80000,33
13.80833,32
13.81667,32
13.82500,32
13.83333,32
13.84167,33
13.85000,33
13.85833,33
13.86667,33
13.87500,34
13.88333,34
13.89167,34
13.90000,35
13.90833,35
13.91667,35
13.92500,35
13.93333,35
13.94167,35
13.95000,35
13.95833,35
13.96667,35
13.97500,35
13.98333,35
13.99167,35
14.00000,36
14.00833,36
14.01667,37
14.02500,37
14.03333,38
14.04167,38
14.05000,38
14.05833,38
14.06667,38
14.07500,39
14.08333,40
14.09167,41
14.10000,42
14.10833,43
14.11667,44
14.12500,46
14.13333,48
14.14167,50
14.15000,52
14.15833,54
14.16667,57
14.17500,61
14.18333,66
14.19167,71
14.20000,78
14.20833,86
14.21667,96
14.22500,108
14.23333,122
14.24167,140
14.25000,162
14.25833,188
14.26667,219
14.27500,256
14.28333,301
14.29167,353
14.30000,415
14.30833,488
14.31667,574
14.32500,674
14.33333,789
14.34167,923
14.35000,1075
14.35833,1249
14.36667,1446
14.37500,1667
14.38333,1915
14.39167,2192
14.40000,2499
14.40833,2838
14.41667,3211
14.42500,3618
14.43333,4061
14.44167,4543
14.45000,5062
14.45833,5620
14.46667,6217
14.47500,6854
14.48333,7529
14.49167,8244
14.50000,8998
14.50833,9790
14.51667,10619
14.52500,11483
14.53333,12384
14.54167,13318
14.55000,14285
14.55833,15282
14.56667,16309
14.57500,17363
14.58333,18443
14.59167,19545
14.60000,20670
14.60833,21814
14.61667,22975
14.62500,24153
14.63333,25344
14.64167,26548
14.65000,27761
14.65833,28984
14.66667,30213
14.67500,31448
14.68333,32686
14.69167,33927
14.70000,35169
14.70833,36410
14.71667,37650
14.72500,38888
14.73333,40122
14.74167,41352
14.75000,42576
14.75833,43793
14.76667,45002
14.77500,46202
14.78333,47391
14.79167,48568
14.80000,49730
14.80833,50875
14.81667,52000
14.82500,53101
14.83333,54173
14.84167,55209
14.85000,56201
14.85833,57138
14.86667,58009
14.87500,58796
14.88333,59482
14.89167,60046
14.90000,60465
14.90833,60715
14.91667,60771
14.92500,60609
14.93333,60210
14.94167,59555
14.95000,58635
14.95833,57444
14.96667,55986
14.97500,54271
14.98333,52319
14.99167,50155
15.00000,47811
15.00833,45323
15.01667,42729
15.02500,40069
15.03333,37382
15.04167,34705
15.05000,32071
15.05833,29510
15.06667,27045
15.07500,24697
15.08333,22480
15.09167,20405
15.10000,18475
15.10833,16694
15.11667,15059
15.12500,13567
15.13333,12212
15.14167,10987
15.15000,9884
15.15833,8894
15.16667,8009
15.17500,7220
15.18333,6517
15.19167,5894
15.20000,5343
15.20833,4856
15.21667,4430
15.22500,4057
15.23333,3733
15.24167,3454
15.25000,3216
15.25833,3016
15.26667,2853
15.27500,2723
15.28333,2626
15.29167,2560
15.30000,2525
15.30833,2520
15.31667,2546
15.32500,2601
15.33333,2688
15.34167,2806
15.35000,2956
15.35833,3138
15.36667,3354
15.37500,3604
15.38333,3888
15.39167,4206
15.40000,4560
15.40833,4948
15.41667,5371
15.42500,5828
15.43333,6317
15.44167,6837
15.45000,7387
15.45833,7964
15.46667,8566
15.47500,9190
15.48333,9832
15.49167,10488
15.50000,11155
15.50833,11828
15.51667,12502
15.52500,13173
15.53333,13835
15.54167,14484
15.55000,15114
15.55833,15720
15.56667,16298
15.57500,16844
15.58333,17352
15.59167,17820
15.60000,18243
15.60833,18618
15.61667,18943
15.62500,19214
15.63333,19431
15.64167,19592
15.65000,19697
15.65833,19746
15.66667,19738
15.67500,19675
15.68333,19559
15.69167,19390
15.70000,19171
15.70833,18906
15.71667,18596
15.72500,18245
15.73333,17856
15.74167,17433
15.75000,16979
15.75833,16498
15.76667,15994
15.77500,15471
15.78333,14932
15.79167,14381
15.80000,13821
15.80833,13256
15.81667,12689
15.82500,12122
15.83333,11559
15.84167,11002
15.85000,10454
15.85833,9916
15.86667,9390
15.87500,8877
15.88333,8380
15.89167,7898
15.90000,7434
15.90833,6988
15.91667,6560
15.92500,6151
15.93333,5761
15.94167,5390
15.95000,5038
15.95833,4705
15.96667,4389
15.97500,4093
15.98333,3814
15.99167,3552
16.00000,3306
16.00833,3076
16.01667,2862
16.02500,2662
16.03333,2476
16.04167,2302
16.05000,2142
16.05833,1992
16.06667,1855
16.07500,1727
16.08333,1609
16.09167,1501
16.10000,1400
16.10833,1308
16.11667,1223
16.12500,1144
16.13333,1072
16.14167,1006
16.15000,945
16.15833,890
16.16667,838
16.17500,791
16.18333,747
16.19167,708
16.20000,671
16.20833,638
16.21667,607
16.22500,579
16.23333,553
16.24167,529
16.25000,508
16.25833,488
16.26667,469
16.27500,452
16.28333,436
16.29167,421
16.30000,408
16.30833,395
16.31667,384
16.32500,374
16.33333,364
16.34167,355
16.35000,346
16.35833,338
16.36667,330
16.37500,323
16.38333,316
16.39167,310
16.40000,304
16.40833,298
16.41667,293
16.42500,289
16.43333,284
16.44167,280
16.45000,276
16.45833,272
16.46667,268
16.47500,265
16.48333,261
16.49167,258
16.50000,255
16.50833,253
16.51667,250
16.52500,248
16.53333,245
16.54167,242
16.55000,239
16.55833,237
16.56667,235
16.57500,233
16.58333,231
16.59167,229
16.60000,227
16.60833,226
16.61667,224
16.62500,223
16.63333,221
16.64167,219
16.65000,218
16.65833,216
16.66667,215
16.67500,213
16.68333,212
16.69167,210
16.70000,209
16.70833,208
16.71667,206
16.72500,205
16.73333,204
16.74167,203
16.75000,202
16.75833,201
16.76667,200
16.77500,198
16.78333,197
16.79167,196
16.80000,195
16.80833,194
16.81667,193
16.82500,192
16.83333,191
16.84167,190
16.85000,188
16.85833,187
16.86667,186
16.87500,185
16.88333,185
16.89167,184
16.90000,183
16.90833,182
16.91667,181
16.92500,180
16.93333,179
16.94167,178
16.95000,177
16.95833,176
16.96667,175
16.97500,175
16.98333,174
16.99167,173
17.00000,172
17.00833,171
17.01667,170
17.02500,169
17.03333,169
17.04167,168
17.05000,167
17.05833,166
17.06667,166
17.07500,165
17.08333,164
17.09167,163
17.10000,162
17.10833,162
17.11667,161
17.12500,160
17.13333,160
17.14167,159
17.15000,158
17.15833,157
17.16667,157
17.17500,156
17.18333,155
17.19167,155
17.20000,154
17.20833,153
17.21667,152
17.22500,151
17.23333,150
17.24167,150
17.25000,149
17.25833,149
17.26667,148
17.27500,147
17.28333,147
17.29167,146
17.30000,145
17.30833,145
17.31667,144
17.32500,143
17.33333,143
17.34167,142
17.35000,142
17.35833,141
17.36667,141
17.37500,140
17.38333,139
17.39167,138
17.40000,138
17.40833,137
17.41667,137
17.42500,136
17.43333,136
17.44167,136
17.45000,135
17.45833,134
17.46667,134
17.47500,133
17.48333,133
17.49167,132
17.50000,132
17.50833,131
17.51667,131
17.52500,130
17.53333,130
17.54167,129
17.55000,129
17.55833,129
17.56667,128
17.57500,128
17.58333,127
17.59167,127
17.60000,126
17.60833,126
17.61667,125
17.62500,125
17.63333,124
17.64167,124
17.65000,123
17.65833,123
17.66667,123
17.67500,123
17.68333,122
17.69167,122
17.70000,122
17.70833,122
17.71667,121
17.72500,121
17.73333,120
17.74167,120
17.75000,119
17.75833,119
17.76667,118
17.77500,118
17.78333,118
17.79167,118
17.80000,117
17.80833,117
17.81667,116
17.82500,116
17.83333,116
17.84167,115
17.85000,115
17.85833,115
17.86667,115
17.87500,114
17.88333,114
17.89167,114
17.90000,113
17.90833,113
17.91667,112
17.92500,112
17.93333,111
17.94167,111
17.95000,111
17.95833,111
17.96667,110
17.97500,110
17.98333,109
17.99167,109
18.00000,109
18.00833,109
18.01667,108
18.02500,108
18.03333,108
18.04167,107
18.05000,107
18.05833,106
18.06667,106
18.07500,106
18.08333,105
18.09167,105
18.10000,105
18.10833,104
18.11667,104
18.12500,104
18.13333,104
18.14167,104
18.15000,103
18.15833,103
18.16667,102
18.17500,102
18.18333,102
18.19167,101
18.20000,101
18.20833,101
18.21667,101
18.22500,100
18.23333,100
18.24167,101
18.25000,100
18.25833,100
18.26667,100
18.27500,100
18.28333,99
18.29167,99
18.30000,98
18.30833,98
18.31667,97
18.32500,97
18.33333,97
18.34167,97
18.35000,96
18.35833,96
18.36667,96
18.37500,96
18.38333,96
18.39167,96
18.40000,95
18.40833,95
18.41667,95
18.42500,94
18.43333,94
18.44167,94
18.45000,94
18.45833,94
18.46667,94
18.47500,94
18.48333,93
18.49167,93
18.50000,93
18.50833,93
18.51667,93
18.52500,92
18.53333,92
18.54167,92
18.55000,93
18.55833,92
18.56667,92
18.57500,92
18.58333,92
18.59167,92
18.60000,91
18.60833,91
18.61667,91
18.62500,91
18.63333,91
18.64167,91
18.65000,90
18.65833,91
18.66667,91
18.67500,91
18.68333,91
18.69167,92
18.70000,92
18.70833,92
18.71667,92
18.72500,92
18.73333,93
18.74167,93
18.75000,93
18.75833,93
18.76667,94
18.77500,95
18.78333,95
18.79167,96
18.80000,97
18.80833,98
18.81667,99
18.82500,100
18.83333,101
18.84167,101
18.85000,102
18.85833,103
18.86667,104
18.87500,105
18.88333,106
18.89167,107
18.90000,108
18.90833,110
18.91667,111
18.92500,112
18.93333,112
18.94167,113
18.95000,114
18.95833,115
18.96667,116
18.97500,116
18.98333,117
18.99167,118
19.00000,118
19.00833,118
19.01667,118
19.02500,118
19.03333,118
19.04167,118
19.05000,118
19.05833,117
19.06667,117
19.07500,116
19.08333,116
19.09167,115
19.10000,114
19.10833,113
19.11667,112
19.12500,111
19.13333,110
19.14167,109
19.15000,108
19.15833,107
19.16667,106
19.17500,104
19.18333,103
19.19167,101
19.20000,100
19.20833,98
19.21667,97
19.22500,95
19.23333,94
19.24167,93
19.25000,92
19.25833,91
19.26667,90
19.27500,89
19.28333,88
19.29167,87
19.30000,86
19.30833,84
19.31667,83
19.32500,82
19.33333,81
19.34167,81
19.35000,80
19.35833,79
19.36667,78
19.37500,77
19.38333,76
19.39167,76
19.40000,75
19.40833,74
19.41667,74
19.42500,73
19.43333,73
19.44167,73
19.45000,72
19.45833,72
19.46667,72
19.47500,71
19.48333,71
19.49167,71
19.50000,71
19.50833,71
19.51667,71
19.52500,70
19.53333,70
19.54167,70
19.55000,70
19.55833,69
19.56667,69
19.57500,69
19.58333,69
19.59167,69
19.60000,69
19.60833,69
19.61667,69
19.62500,68
19.63333,68
19.64167,68
19.65000,68
19.65833,67
19.66667,67
19.67500,66
19.68333,66
19.69167,65
19.70000,65
19.70833,65
19.71667,66
19.72500,66
19.73333,66
19.74167,66
19.75000,66
19.75833,66
19.76667,65
19.77500,65
19.78333,65
19.79167,64
19.80000,64
19.80833,65
19.81667,65
19.82500,65
19.83333,65
19.84167,64
19.85000,64
19.85833,64
19.86667,64
19.87500,64
19.88333,64
19.89167,64
19.90000,64
19.90833,64
19.91667,64
19.92500,64
19.93333,64
19.94167,64
19.95000,64
19.95833,63
19.96667,63
19.97500,63
19.98333,63
19.99167,63
20.00000,63
20.00833,63
20.01667,63
20.02500,63
20.03333,63
20.04167,63
20.05000,63
20.05833,63
20.06667,63
20.07500,62
20.08333,62
20.09167,62
20.10000,62
20.10833,62
20.11667,62
20.12500,62
20.13333,62
20.14167,62
20.15000,62
20.15833,62
20.16667,61
20.17500,62
20.18333,62
20.19167,62
20.20000,62
20.20833,61
20.21667,61
20.22500,61
20.23333,60
20.24167,60
20.25000,60
20.25833,60
20.26667,59
20.27500,59
20.28333,59
20.29167,60
20.30000,60
20.30833,59
20.31667,59
20.32500,59
20.33333,59
20.34167,59
20.35000,58
20.35833,58
20.36667,58
20.37500,58
20.38333,58
20.39167,59
20.40000,59
20.40833,59
20.41667,59
20.42500,59
20.43333,58
20.44167,58
20.45000,58
20.45833,58
20.46667,58
20.47500,57
20.48333,57
20.49167,57
20.50000,58
20.50833,58
20.51667,58
20.52500,58
20.53333,58
20.54167,58
20.55000,58
20.55833,58
20.56667,58
20.57500,58
20.58333,58
20.59167,58
20.60000,58
20.60833,58
20.61667,57
20.62500,57
20.63333,57
20.64167,56
20.65000,56
20.65833,56
20.66667,56
20.67500,56
20.68333,56
20.69167,56
20.70000,56
20.70833,56
20.71667,56
20.72500,56
20.73333,56
20.74167,56
20.75000,55
20.75833,55
20.76667,55
20.77500,56
20.78333,56
20.79167,56
20.80000,56
20.80833,56
20.81667,56
20.82500,56
20.83333,56
20.84167,56
20.85000,56
20.85833,56
20.86667,56
20.87500,56
20.88333,55
20.89167,55
20.90000,55
20.90833,56
20.91667,56
20.92500,56
20.93333,56
20.94167,56
20.95000,56
20.95833,55
20.96667,55
20.97500,55
20.98333,55
20.99167,54
21.00000,54
21.00833,54
21.01667,54
21.02500,54
21.03333,54
21.04167,54
21.05000,54
21.05833,54
21.06667,54
21.07500,55
21.08333,55
21.09167,55
21.10000,55
21.10833,55
21.11667,55
21.12500,54
21.13333,54
21.14167,54
21.15000,54
21.15833,54
21.16667,54
21.17500,54
21.18333,54
21.19167,54
21.20000,55
21.20833,55
21.21667,55
21.22500,54
21.23333,54
21.24167,54
21.25000,54
21.25833,54
21.26667,54
21.27500,54
21.28333,54
21.29167,55
21.30000,55
21.30833,55
21.31667,55
21.32500,56
21.33333,56
21.34167,56
21.35000,56
21.35833,57
21.36667,57
21.37500,57
21.38333,58
21.39167,58
21.40000,59
21.40833,59
21.41667,60
21.42500,61
21.43333,62
21.44167,63
21.45000,65
21.45833,66
21.46667,68
21.47500,70
21.48333,72
21.49167,75
21.50000,78
21.50833,81
21.51667,84
21.52500,88
21.53333,93
21.54167,98
21.55000,104
21.55833,111
21.56667,119
21.57500,128
21.58333,138
21.59167,149
21.60000,162
21.60833,176
21.61667,192
21.62500,209
21.63333,229
21.64167,251
21.65000,276
21.65833,303
21.66667,333
21.67500,367
21.68333,404
21.69167,445
21.70000,489
21.70833,538
21.71667,592
21.72500,650
21.73333,713
21.74167,781
21.75000,855
21.75833,933
21.76667,1018
21.77500,1108
21.78333,1204
21.79167,1306
21.80000,1414
21.80833,1527
21.81667,1646
21.82500,1770
21.83333,1900
21.84167,2034
21.85000,2173
21.85833,2317
21.86667,2463
21.87500,2613
21.88333,2765
21.89167,2919
21.90000,3074
21.90833,3229
21.91667,3384
21.92500,3537
21.93333,3688
21.94167,3836
21.95000,3981
21.95833,4121
21.96667,4256
21.97500,4384
21.98333,4505
21.99167,4618
22.00000,4723
22.00833,4818
22.01667,4904
22.02500,4980
22.03333,5044
22.04167,5098
22.05000,5140
22.05833,5171
22.06667,5190
22.07500,5197
22.08333,5193
22.09167,5177
22.10000,5150
22.10833,5111
22.11667,5062
22.12500,5003
22.13333,4934
22.14167,4855
22.15000,4768
22.15833,4673
22.16667,4571
22.17500,4462
22.18333,4347
22.19167,4227
22.20000,4102
22.20833,3973
22.21667,3842
22.22500,3708
22.23333,3572
22.24167,3435
22.25000,3298
22.25833,3161
22.26667,3025
22.27500,2889
22.28333,2756
22.29167,2624
22.30000,2495
22.30833,2369
22.31667,2246
22.32500,2127
22.33333,2011
22.34167,1899
22.35000,1791
22.35833,1688
22.36667,1588
22.37500,1493
22.38333,1402
22.39167,1315
22.40000,1232
22.40833,1154
22.41667,1080
22.42500,1010
22.43333,944
22.44167,882
22.45000,824
22.45833,769
22.46667,718
22.47500,670
22.48333,626
22.49167,584
22.50000,545
22.50833,509
22.51667,476
22.52500,444
22.53333,416
22.54167,389
22.55000,364
22.55833,341
22.56667,320
22.57500,301
22.58333,283
22.59167,266
22.60000,251
22.60833,237
22.61667,224
22.62500,213
22.63333,203
22.64167,193
22.65000,184
22.65833,176
22.66667,168
22.67500,161
22.68333,154
22.69167,148
22.70000,143
22.70833,138
22.71667,134
22.72500,130
22.73333,126
22.74167,122
22.75000,118
22.75833,115
22.76667,113
22.77500,110
22.78333,107
22.79167,105
22.80000,103
22.80833,101
22.81667,100
22.82500,98
22.83333,97
22.84167,95
22.85000,93
22.85833,92
22.86667,91
22.87500,90
22.88333,89
22.89167,88
22.90000,87
22.90833,87
22.91667,86
22.92500,86
22.93333,85
22.94167,84
22.95000,83
22.95833,82
22.96667,82
22.97500,81
22.98333,80
22.99167,80
23.00000,79
23.00833,79
23.01667,79
23.02500,78
23.03333,78
23.04167,78
23.05000,78
23.05833,77
23.06667,76
23.07500,76
23.08333,75
23.09167,75
23.10000,74
23.10833,74
23.11667,74
23.12500,75
23.13333,75
23.14167,74
23.15000,74
23.15833,74
23.16667,74
23.17500,73
23.18333,73
23.19167,73
23.20000,73
23.20833,73
23.21667,72
23.22500,72
23.23333,72
23.24167,71
23.25000,71
23.25833,71
23.26667,71
23.27500,71
23.28333,70
23.29167,70
23.30000,70
23.30833,70
23.31667,70
23.32500,69
23.33333,69
23.34167,69
23.35000,68
23.35833,68
23.36667,68
23.37500,69
23.38333,69
23.39167,69
23.40000,69
23.40833,69
23.41667,68
23.42500,68
23.43333,68
23.44167,67
23.45000,67
23.45833,67
23.46667,67
23.47500,66
23.48333,66
23.49167,66
23.50000,66
23.50833,66
23.51667,66
23.52500,66
23.53333,66
23.54167,66
23.55000,66
23.55833,66
23.56667,66
23.57500,66
23.58333,66
23.59167,66
23.60000,66
23.60833,65
23.61667,65
23.62500,65
23.63333,64
23.64167,64
23.65000,64
23.65833,64
23.66667,64
23.67500,64
23.68333,63
23.69167,63
23.70000,63
23.70833,63
23.71667,63
23.72500,63
23.73333,63
23.74167,63
23.75000,63
23.75833,63
23.76667,63
23.77500,63
23.78333,63
23.79167,63
23.80000,63
23.80833,63
23.81667,63
23.82500,63
23.83333,63
23.84167,63
23.85000,63
23.85833,63
23.86667,63
23.87500,63
23.88333,63
23.89167,63
23.90000,63
23.90833,63
23.91667,63
23.92500,63
23.93333,63
23.94167,63
23.95000,63
23.95833,62
23.96667,62
23.97500,62
23.98333,62
23.99167,62
24.00000,62
24.00833,62
24.01667,62
24.02500,62
24.03333,62
24.04167,62
24.05000,62
24.05833,62
24.06667,62
24.07500,62
24.08333,61
24.09167,61
24.10000,61
24.10833,61
24.11667,62
24.12500,62
24.13333,62
24.14167,62
24.15000,62
24.15833,62
24.16667,62
24.17500,62
24.18333,62
24.19167,62
24.20000,62
24.20833,62
24.21667,62
24.22500,63
24.23333,63
24.24167,63
24.25000,62
24.25833,62
24.26667,62
24.27500,62
24.28333,63
24.29167,63
24.30000,63
24.30833,64
24.31667,64
24.32500,64
24.33333,65
24.34167,65
24.35000,65
24.35833,65
24.36667,66
24.37500,66
24.38333,67
24.39167,67
24.40000,68
24.40833,68
24.41667,69
24.42500,70
24.43333,71
24.44167,72
24.45000,74
24.45833,75
24.46667,76
24.47500,77
24.48333,79
24.49167,81
24.50000,84
24.50833,87
24.51667,89
24.52500,93
24.53333,96
24.54167,100
24.55000,104
24.55833,109
24.56667,114
24.57500,120
24.58333,126
24.59167,134
24.60000,142
24.60833,151
24.61667,160
24.62500,171
24.63333,182
24.64167,195
24.65000,208
24.65833,223
24.66667,239
24.67500,257
24.68333,276
24.69167,296
24.70000,317
24.70833,340
24.71667,365
24.72500,392
24.73333,420
24.74167,451
24.75000,483
24.75833,517
24.76667,553
24.77500,590
24.78333,630
24.79167,671
24.80000,713
24.80833,758
24.81667,804
24.82500,852
24.83333,901
24.84167,951
24.85000,1002
24.85833,1055
24.86667,1108
24.87500,1162
24.88333,1216
24.89167,1271
24.90000,1325
24.90833,1379
24.91667,1432
24.92500,1485
24.93333,1538
24.94167,1589
24.95000,1639
24.95833,1687
24.96667,1734
24.97500,1778
24.98333,1819
24.99167,1858
25.00000,1894
25.00833,1927
25.01667,1957
25.02500,1984
25.03333,2007
25.04167,2027
25.05000,2043
25.05833,2055
25.06667,2063
25.07500,2068
25.08333,2069
25.09167,2066
25.10000,2060
25.10833,2050
25.11667,2036
25.12500,2019
25.13333,1998
25.14167,1974
25.15000,1947
25.15833,1917
25.16667,1884
25.17500,1849
25.18333,1811
25.19167,1771
25.20000,1729
25.20833,1685
25.21667,1639
25.22500,1593
25.23333,1544
25.24167,1496
25.25000,1446
25.25833,1397
25.26667,1347
25.27500,1297
25.28333,1247
25.29167,1198
25.30000,1148
25.30833,1100
25.31667,1052
25.32500,1004
25.33333,958
25.34167,914
25.35000,870
25.35833,827
25.36667,786
25.37500,746
25.38333,707
25.39167,670
25.40000,634
25.40833,600
25.41667,567
25.42500,536
25.43333,506
25.44167,478
25.45000,451
25.45833,425
25.46667,401
25.47500,379
25.48333,357
25.49167,337
25.50000,318
25.50833,300
25.51667,283
25.52500,267
25.53333,252
25.54167,239
25.55000,226
25.55833,214
25.56667,203
25.57500,193
25.58333,183
25.59167,175
25.60000,166
25.60833,159
25.61667,151
25.62500,145
25.63333,139
25.64167,134
25.65000,129
25.65833,124
25.66667,120
25.67500,116
25.68333,112
25.69167,109
25.70000,106
25.70833,103
25.71667,100
25.72500,98
25.73333,96
25.74167,94
25.75000,92
25.75833,91
25.76667,89
25.77500,88
25.78333,87
25.79167,86
25.80000,84
25.80833,83
25.81667,82
25.82500,82
25.83333,81
25.84167,80
25.85000,79
25.85833,78
25.86667,78
25.87500,77
25.88333,77
25.89167,76
25.90000,76
25.90833,75
25.91667,75
25.92500,74
25.93333,74
25.94167,74
25.95000,74
25.95833,74
25.96667,74
25.97500,74
25.98333,73
25.99167,73
26.00000,72
26.00833,72
26.01667,72
26.02500,72
26.03333,72
26.04167,72
26.05000,72
26.05833,71
26.06667,71
26.07500,71
26.08333,70
26.09167,70
26.10000,70
26.10833,70
26.11667,70
26.12500,70
26.13333,70
26.14167,70
26.15000,70
26.15833,70
26.16667,70
26.17500,70
26.18333,69
26.19167,69
26.20000,69
26.20833,69
26.21667,68
26.22500,68
26.23333,68
26.24167,68
26.25000,68
26.25833,68
26.26667,68
26.27500,68
26.28333,68
26.29167,68
26.30000,68
26.30833,68
26.31667,68
26.32500,68
26.33333,68
26.34167,68
26.35000,68
26.35833,68
26.36667,68
26.37500,67
26.38333,67
26.39167,67
26.40000,67
26.40833,67
26.41667,67
26.42500,67
26.43333,67
26.44167,67
26.45000,68
26.45833,68
26.46667,68
26.47500,68
26.48333,67
26.49167,67
26.50000,67
26.50833,67
26.51667,67
26.52500,67
26.53333,67
26.54167,67
26.55000,67
26.55833,67
26.56667,67
26.57500,67
26.58333,67
26.59167,68
26.60000,68
26.60833,68
26.61667,68
26.62500,68
26.63333,68
26.64167,68
26.65000,68
26.65833,68
26.66667,68
26.67500,68
26.68333,68
26.69167,68
26.70000,69
26.70833,69
26.71667,68
26.72500,68
26.73333,68
26.74167,68
26.75000,68
26.75833,68
26.76667,68
26.77500,67
26.78333,67
26.79167,67
26.80000,67
26.80833,68
26.81667,68
26.82500,68
26.83333,68
26.84167,68
26.85000,68
26.85833,68
26.86667,68
26.87500,68
26.88333,68
26.89167,67
26.90000,67
26.90833,68
26.91667,68
26.92500,68
26.93333,68
26.94167,68
26.95000,68
26.95833,67
26.96667,67
26.97500,67
26.98333,67
26.99167,67
27.00000,67
27.00833,67
27.01667,67
27.02500,67
27.03333,67
27.04167,67
27.05000,66
27.05833,66
27.06667,66
27.07500,67
27.08333,67
27.09167,67
27.10000,66
27.10833,66
27.11667,66
27.12500,66
27.13333,67
27.14167,67
27.15000,67
27.15833,67
27.16667,67
27.17500,67
27.18333,67
27.19167,67
27.20000,67
27.20833,67
27.21667,67
27.22500,67
27.23333,67
27.24167,67
27.25000,66
27.25833,66
27.26667,66
27.27500,66
27.28333,67
27.29167,67
27.30000,66
27.30833,66
27.31667,66
27.32500,66
27.33333,66
27.34167,66
27.35000,66
27.35833,66
27.36667,66
27.37500,67
27.38333,67
27.39167,67
27.40000,67
27.40833,67
27.41667,67
27.42500,67
27.43333,67
27.44167,67
27.45000,67
27.45833,67
27.46667,67
27.47500,67
27.48333,67
27.49167,67
27.50000,67
27.50833,67
27.51667,67
27.52500,67
27.53333,67
27.54167,67
27.55000,67
27.55833,67
27.56667,67
27.57500,67
27.58333,66
27.59167,66
27.60000,66
27.60833,66
27.61667,66
27.62500,66
27.63333,66
27.64167,65
27.65000,65
27.65833,65
27.66667,66
27.67500,66
27.68333,65
27.69167,65
27.70000,65
27.70833,65
27.71667,65
27.72500,65
27.73333,65
27.74167,65
27.75000,64
27.75833,64
27.76667,64
27.77500,63
27.78333,63
27.79167,63
27.80000,63
27.80833,63
27.81667,62
27.82500,62
27.83333,62
27.84167,61
27.85000,60
27.85833,59
27.86667,59
27.87500,58
27.88333,58
27.89167,57
27.90000,56
27.90833,55
27.91667,54
27.92500,52
27.93333,51
27.94167,50
27.95000,48
27.95833,47
27.96667,45
27.97500,44
27.98333,43
27.99167,41
28.00000,40
28.00833,38
28.01667,35
28.02500,33
28.03333,31
28.04167,29
28.05000,26
28.05833,24
28.06667,21
28.07500,18
28.08333,16
28.09167,13
28.10000,10
28.10833,7
28.11667,5
28.12500,2
28.13333,-1
28.14167,-4
28.15000,-7
28.15833,-10
28.16667,-14
28.17500,-17
28.18333,-20
28.19167,-23
28.20000,-26
28.20833,-29
28.21667,-33
28.22500,-36
28.23333,-39
28.24167,-42
28.25000,-45
28.25833,-48
28.26667,-51
28.27500,-54
28.28333,-57
28.29167,-60
28.30000,-63
28.30833,-65
28.31667,-68
28.32500,-70
28.33333,-72
28.34167,-74
28.35000,-76
28.35833,-78
28.36667,-80
28.37500,-82
28.38333,-83
28.39167,-84
28.40000,-85
28.40833,-86
28.41667,-87
28.42500,-87
28.43333,-88
28.44167,-88
28.45000,-88
28.45833,-88
28.46667,-88
28.47500,-87
28.48333,-86
28.49167,-85
28.50000,-84
28.50833,-83
28.51667,-81
28.52500,-79
28.53333,-77
28.54167,-76
28.55000,-74
28.55833,-72
28.56667,-70
28.57500,-67
28.58333,-65
28.59167,-63
28.60000,-60
28.60833,-58
28.61667,-55
28.62500,-53
28.63333,-51
28.64167,-48
28.65000,-45
28.65833,-42
28.66667,-39
28.67500,-36
28.68333,-33
28.69167,-30
28.70000,-27
28.70833,-25
28.71667,-22
28.72500,-20
28.73333,-17
28.74167,-15
28.75000,-12
28.75833,-9
28.76667,-7
28.77500,-4
28.78333,-2
28.79167,0
28.80000,3
28.80833,6
28.81667,8
28.82500,10
28.83333,12
28.84167,14
28.85000,16
28.85833,18
28.86667,21
28.87500,23
28.88333,25
28.89167,27
28.90000,28
28.90833,29
28.91667,31
28.92500,32
28.93333,34
28.94167,35
28.95000,37
28.95833,38
28.96667,39
28.97500,40
28.98333,41
28.99167,42
29.00000,43
29.00833,44
29.01667,44
29.02500,45
29.03333,46
29.04167,46
29.05000,47
29.05833,48
29.06667,49
29.07500,50
29.08333,51
29.09167,51
29.10000,52
29.10833,53
29.11667,53
29.12500,53
29.13333,54
29.14167,54
29.15000,54
29.15833,55
29.16667,55
29.17500,55
29.18333,56
29.19167,56
29.20000,56
29.20833,56
29.21667,57
29.22500,57
29.23333,57
29.24167,57
29.25000,57
29.25833,57
29.26667,57
29.27500,58
29.28333,58
29.29167,58
29.30000,58
29.30833,59
29.31667,59
29.32500,59
29.33333,59
29.34167,59
29.35000,60
29.35833,60
29.36667,60
29.37500,60
29.38333,60
29.39167,60
29.40000,60
29.40833,60
29.41667,60
29.42500,60
29.43333,60
29.44167,60
29.45000,60
29.45833,60
29.46667,59
29.47500,59
29.48333,59
29.49167,59
29.50000,58
29.50833,59
29.51667,59
29.52500,59
29.53333,59
29.54167,59
29.55000,59
29.55833,59
29.56667,58
29.57500,57
29.58333,57
29.59167,57
29.60000,57
29.60833,57
29.61667,57
29.62500,57
29.63333,57
29.64167,57
29.65000,56
29.65833,55
29.66667,55
29.67500,54
29.68333,53
29.69167,53
29.70000,52
29.70833,51
29.71667,51
29.72500,50
29.73333,49
29.74167,49
29.75000,48
29.75833,48
29.76667,47
29.77500,46
29.78333,45
29.79167,44
29.80000,43
29.80833,42
29.81667,41
29.82500,40
29.83333,40
29.84167,39
29.85000,38
29.85833,37
29.86667,37
29.87500,36
29.88333,34
29.89167,33
29.90000,32
29.90833,31
29.91667,30
29.92500,29
29.93333,28
29.94167,27
29.95000,26
29.95833,25
29.96667,24
29.97500,23
29.98333,22
29.99167,21
30.00000,20
30.00833,19
30.01667,18
30.02500,17
30.03333,16
30.04167,15
30.05000,14
30.05833,14
30.06667,13
30.07500,12
30.08333,12
30.09167,11
30.10000,11
30.10833,10
30.11667,10
30.12500,9
30.13333,9
30.14167,8
30.15000,8
30.15833,8
30.16667,8
30.17500,8
30.18333,8
30.19167,8
30.20000,8
30.20833,8
30.21667,8
30.22500,8
30.23333,8
30.24167,8
30.25000,8
30.25833,8
30.26667,9
30.27500,10
30.28333,11
30.29167,12
30.30000,13
30.30833,13
30.31667,14
30.32500,14
30.33333,15
30.34167,16
30.35000,17
30.35833,18
30.36667,19
30.37500,20
30.38333,21
30.39167,22
30.40000,23
30.40833,24
30.41667,25
30.42500,26
30.43333,27
30.44167,28
30.45000,28
30.45833,29
30.46667,30
30.47500,31
30.48333,32
30.49167,33
30.50000,34
30.50833,35
30.51667,36
30.52500,37
30.53333,38
30.54167,39
30.55000,40
30.55833,40
30.56667,41
30.57500,42
30.58333,43
30.59167,44
30.60000,44
30.60833,45
30.61667,46
30.62500,47
30.63333,47
30.64167,48
30.65000,49
30.65833,49
30.66667,50
30.67500,50
30.68333,50
30.69167,51
30.70000,52
30.70833,53
30.71667,53
30.72500,53
30.73333,54
30.74167,54
30.75000,55
30.75833,55
30.76667,56
30.77500,56
30.78333,56
30.79167,56
30.80000,56
30.80833,56
30.81667,57
30.82500,57
30.83333,58
30.84167,58
30.85000,59
30.85833,59
30.86667,59
30.87500,59
30.88333,59
30.89167,59
30.90000,59
30.90833,59
30.91667,59
30.92500,60
30.93333,60
30.94167,60
30.95000,60
30.95833,60
30.96667,60
30.97500,60
30.98333,60
30.99167,60
31.00000,61
31.00833,61
31.01667,61
31.02500,61
31.03333,61
31.04167,61
31.05000,61
31.05833,62
31.06667,62
31.07500,62
31.08333,61
31.09167,61
31.10000,61
31.10833,61
31.11667,61
31.12500,61
31.13333,62
31.14167,62
31.15000,62
31.15833,62
31.16667,63
31.17500,63
31.18333,63
31.19167,63
31.20000,63
31.20833,63
31.21667,63
31.22500,63
31.23333,63
31.24167,63
31.25000,63
31.25833,63
31.26667,63
31.27500,64
31.28333,64
31.29167,64
31.30000,64
31.30833,64
31.31667,63
31.32500,63
31.33333,63
31.34167,64
31.35000,64
31.35833,64
31.36667,64
31.37500,64
31.38333,65
31.39167,65
31.40000,65
31.40833,65
31.41667,65
31.42500,65
31.43333,65
31.44167,65
31.45000,64
31.45833,65
31.46667,65
31.47500,65
31.48333,65
31.49167,66
31.50000,66
31.50833,66
31.51667,66
31.52500,67
31.53333,67
31.54167,67
31.55000,67
31.55833,67
31.56667,67
31.57500,67
31.58333,67
31.59167,67
31.60000,67
31.60833,68
31.61667,68
31.62500,68
31.63333,68
31.64167,68
31.65000,69
31.65833,69
31.66667,68
31.67500,68
31.68333,68
31.69167,68
31.70000,68
31.70833,68
31.71667,68
31.72500,68
31.73333,68
31.74167,68
31.75000,68
31.75833,68
31.76667,68
31.77500,68
31.78333,69
31.79167,68
31.80000,68
31.80833,68
31.81667,67
31.82500,67
31.83333,68
31.84167,68
31.85000,68
31.85833,68
31.86667,68
31.87500,68
31.88333,68
31.89167,68
31.90000,68
31.90833,68
31.91667,68
31.92500,68
31.93333,68
31.94167,68
31.95000,68
31.95833,68
31.96667,68
31.97500,68
31.98333,69
31.99167,69
32.00000,69
32.00833,69
32.01667,69
32.02500,69
32.03333,69
32.04167,69
32.05000,69
32.05833,69
32.06667,69
32.07500,69
32.08333,69
32.09167,69
32.10000,69
32.10833,70
32.11667,70
32.12500,70
32.13333,70
32.14167,70
32.15000,70
32.15833,69
32.16667,69
32.17500,69
32.18333,69
32.19167,68
32.20000,68
32.20833,68
32.21667,68
32.22500,68
32.23333,69
32.24167,69
32.25000,69
32.25833,69
32.26667,70
32.27500,70
32.28333,70
32.29167,70
32.30000,69
32.30833,69
32.31667,70
32.32500,70
32.33333,70
32.34167,70
32.35000,70
32.35833,70
32.36667,70
32.37500,70
32.38333,70
32.39167,70
32.40000,70
32.40833,70
32.41667,70
32.42500,71
32.43333,71
32.44167,71
32.45000,71
32.45833,71
32.46667,71
32.47500,71
32.48333,71
32.49167,71
32.50000,71
32.50833,70
32.51667,70
32.52500,70
32.53333,70
32.54167,70
32.55000,70
32.55833,70
32.56667,70
32.57500,70
32.58333,70
32.59167,70
32.60000,70
32.60833,70
32.61667,70
32.62500,70
32.63333,71
32.64167,71
32.65000,71
32.65833,71
32.66667,71
32.67500,71
32.68333,71
32.69167,71
32.70000,71
32.70833,71
32.71667,71
32.72500,71
32.73333,71
32.74167,71
32.75000,72
32.75833,72
32.76667,72
32.77500,71
32.78333,72
32.79167,72
32.80000,72
32.80833,72
32.81667,72
32.82500,72
32.83333,72
32.84167,72
32.85000,72
32.85833,72
32.86667,72
32.87500,72
32.88333,72
32.89167,72
32.90000,72
32.90833,72
32.91667,72
32.92500,72
32.93333,72
32.94167,71
32.95000,71
32.95833,71
32.96667,72
32.97500,72
32.98333,72
32.99167,72
33.00000,71
33.00833,71
33.01667,71
33.02500,71
33.03333,72
33.04167,72
33.05000,72
33.05833,72
33.06667,72
33.07500,72
33.08333,72
33.09167,72
33.10000,73
33.10833,73
33.11667,73
33.12500,73
33.13333,73
33.14167,73
33.15000,73
33.15833,72
33.16667,72
33.17500,72
33.18333,73
33.19167,73
33.20000,73
33.20833,73
33.21667,73
33.22500,73
33.23333,73
33.24167,73
33.25000,73
33.25833,73
33.26667,72
33.27500,72
33.28333,73
33.29167,73
33.30000,73
33.30833,72
33.31667,72
33.32500,72
33.33333,73
33.34167,73
33.35000,73
33.35833,72
33.36667,72
33.37500,72
33.38333,72
33.39167,73
33.40000,73
33.40833,73
33.41667,73
33.42500,73
33.43333,74
33.44167,74
33.45000,74
33.45833,74
33.46667,74
33.47500,74
33.48333,74
33.49167,73
33.50000,73
33.50833,73
33.51667,73
33.52500,73
33.53333,73
33.54167,73
33.55000,73
33.55833,73
33.56667,73
33.57500,73
33.58333,73
33.59167,74
33.60000,74
33.60833,74
33.61667,74
33.62500,74
33.63333,73
33.64167,73
33.65000,73
33.65833,73
33.66667,73
33.67500,73
33.68333,73
33.69167,73
33.70000,73
33.70833,73
33.71667,73
33.72500,73
33.73333,73
33.74167,73
33.75000,73
33.75833,73
33.76667,73
33.77500,73
33.78333,73
33.79167,73
33.80000,73
33.80833,74
33.81667,74
33.82500,74
33.83333,74
33.84167,74
33.85000,74
33.85833,74
33.86667,74
33.87500,73
33.88333,73
33.89167,73
33.90000,73
33.90833,74
33.91667,74
33.92500,74
33.93333,74
33.94167,74
33.95000,74
33.95833,74
33.96667,74
33.97500,74
33.98333,73
33.99167,73
34.00000,73
34.00833,73
34.01667,73
34.02500,74
34.03333,74
34.04167,74
34.05000,74
34.05833,74
34.06667,74
34.07500,73
34.08333,73
34.09167,74
34.10000,74
34.10833,74
34.11667,74
34.12500,74
34.13333,74
34.14167,74
34.15000,74
34.15833,74
34.16667,74
34.17500,74
34.18333,73
34.19167,73
34.20000,74
34.20833,74
34.21667,74
34.22500,74
34.23333,74
34.24167,74
34.25000,74
34.25833,74
34.26667,74
34.27500,74
34.28333,74
34.29167,74
34.30000,74
34.30833,74
34.31667,74
34.32500,74
34.33333,74
34.34167,74
34.35000,74
34.35833,74
34.36667,74
34.37500,74
34.38333,74
34.39167,73
34.40000,73
34.40833,73
34.41667,74
34.42500,73
34.43333,73
34.44167,73
34.45000,74
34.45833,74
34.46667,74
34.47500,74
34.48333,74
34.49167,74
34.50000,75
34.50833,75
34.51667,75
34.52500,75
34.53333,74
34.54167,75
34.55000,75
34.55833,75
34.56667,74
34.57500,74
34.58333,74
34.59167,75
34.60000,75
34.60833,75
34.61667,75
34.62500,75
34.63333,75
34.64167,75
34.65000,75
34.65833,75
34.66667,75
34.67500,75
34.68333,76
34.69167,76
34.70000,76
34.70833,76
34.71667,76
34.72500,76
34.73333,76
34.74167,76
34.75000,76
34.75833,76
34.76667,76
34.77500,75
34.78333,75
34.79167,75
34.80000,75
34.80833,75
34.81667,75
34.82500,75
34.83333,76
34.84167,76
34.85000,76
34.85833,75
34.86667,76
34.87500,76
34.88333,75
34.89167,75
34.90000,76
34.90833,76
34.91667,76
34.92500,75
34.93333,75
34.94167,75
34.95000,75
34.95833,75
34.96667,75
34.97500,75
34.98333,75
34.99167,75
35.00000,75
35.00833,75
35.01667,76
35.02500,76
35.03333,76
35.04167,76
35.05000,76
35.05833,76
35.06667,76
35.07500,76
35.08333,75
35.09167,75
35.10000,75
35.10833,75
35.11667,75
35.12500,76
35.13333,76
35.14167,76
35.15000,76
35.15833,76
35.16667,76
35.17500,76
35.18333,76
35.19167,76
35.20000,76
35.20833,76
35.21667,76
35.22500,76
35.23333,76
35.24167,76
35.25000,76
35.25833,76
35.26667,76
35.27500,76
35.28333,76
35.29167,76
35.30000,76
35.30833,76
35.31667,76
35.32500,76
35.33333,76
35.34167,76
35.35000,76
35.35833,76
35.36667,76
35.37500,76
35.38333,76
35.39167,76
35.40000,76
35.40833,77
35.41667,77
35.42500,77
35.43333,77
35.44167,77
35.45000,78
35.45833,78
35.46667,77
35.47500,77
35.48333,77
35.49167,76
35.50000,76
35.50833,76
35.51667,77
35.52500,77
35.53333,77
35.54167,77
35.55000,78
35.55833,78
35.56667,78
35.57500,78
35.58333,77
35.59167,77
35.60000,77
35.60833,77
35.61667,78
35.62500,78
35.63333,78
35.64167,78
35.65000,78
35.65833,78
35.66667,78
35.67500,78
35.68333,78
35.69167,77
35.70000,77
35.70833,77
35.71667,77
35.72500,77
35.73333,78
35.74167,78
35.75000,78
35.75833,77
35.76667,77
35.77500,77
35.78333,77
35.79167,77
35.80000,77
35.80833,77
35.81667,77
35.82500,77
35.83333,78
35.84167,78
35.85000,79
35.85833,79
35.86667,79
35.87500,79
35.88333,79
35.89167,78
35.90000,78
35.90833,78
35.91667,78
35.92500,78
35.93333,78
35.94167,78
35.95000,77
35.95833,78
35.96667,78
35.97500,78
35.98333,78
35.99167,78
36.00000,77
36.00833,77
36.01667,78
36.02500,78
36.03333,78
36.04167,78
36.05000,78
36.05833,78
36.06667,78
36.07500,78
36.08333,78
36.09167,78
36.10000,77
36.10833,77
36.11667,77
36.12500,78
36.13333,78
36.14167,78
36.15000,78
36.15833,77
36.16667,77
36.17500,77
36.18333,77
36.19167,77
36.20000,77
36.20833,78
36.21667,78
36.22500,78
36.23333,78
36.24167,78
36.25000,78
36.25833,78
36.26667,78
36.27500,78
36.28333,78
36.29167,78
36.30000,78
36.30833,78
36.31667,78
36.32500,77
36.33333,77
36.34167,77
36.35000,78
36.35833,78
36.36667,78
36.37500,78
36.38333,78
36.39167,78
36.40000,78
36.40833,78
36.41667,78
36.42500,78
36.43333,78
36.44167,78
36.45000,78
36.45833,79
36.46667,79
36.47500,79
36.48333,79
36.49167,79
36.50000,79
36.50833,79
36.51667,79
36.52500,79
36.53333,79
36.54167,79
36.55000,79
36.55833,80
36.56667,79
36.57500,79
36.58333,79
36.59167,79
36.60000,80
36.60833,80
36.61667,80
36.62500,80
36.63333,79
36.64167,79
36.65000,79
36.65833,79
36.66667,79
36.67500,79
36.68333,79
36.69167,80
36.70000,80
36.70833,80
36.71667,80
36.72500,80
36.73333,80
36.74167,80
36.75000,80
36.75833,80
36.76667,81
36.77500,81
36.78333,81
36.79167,81
36.80000,81
36.80833,80
36.81667,80
36.82500,80
36.83333,80
36.84167,80
36.85000,80
36.85833,80
36.86667,80
36.87500,80
36.88333,80
36.89167,80
36.90000,80
36.90833,80
36.91667,80
36.92500,80
36.93333,80
36.94167,80
36.95000,80
36.95833,80
36.96667,80
36.97500,80
36.98333,80
36.99167,80
37.00000,81
37.00833,80
37.01667,80
37.02500,80
37.03333,80
37.04167,80
37.05000,80
37.05833,81
37.06667,81
37.07500,81
37.08333,81
37.09167,80
37.10000,80
37.10833,80
37.11667,81
37.12500,81
37.13333,81
37.14167,81
37.15000,81
37.15833,81
37.16667,81
37.17500,81
37.18333,81
37.19167,81
37.20000,81
37.20833,81
37.21667,81
37.22500,81
37.23333,81
37.24167,80
37.25000,80
37.25833,80
37.26667,80
37.27500,80
37.28333,80
37.29167,80
37.30000,80
37.30833,80
37.31667,80
37.32500,79
37.33333,79
37.34167,79
37.35000,79
37.35833,80
37.36667,80
37.37500,80
37.38333,80
37.39167,80
37.40000,80
37.40833,80
37.41667,80
37.42500,80
37.43333,80
37.44167,80
37.45000,80
37.45833,80
37.46667,80
37.47500,80
37.48333,80
37.49167,80
37.50000,80
37.50833,80
37.51667,80
37.52500,80
37.53333,80
37.54167,80
37.55000,80
37.55833,80
37.56667,80
37.57500,80
37.58333,81
37.59167,81
37.60000,80
37.60833,80
37.61667,80
37.62500,80
37.63333,80
37.64167,80
37.65000,80
37.65833,80
37.66667,80
37.67500,80
37.68333,81
37.69167,81
37.70000,81
37.70833,81
37.71667,81
37.72500,81
37.73333,81
37.74167,81
37.75000,80
37.75833,80
37.76667,80
37.77500,81
37.78333,81
37.79167,81
37.80000,81
37.80833,80
37.81667,81
37.82500,81
37.83333,81
37.84167,81
37.85000,81
37.85833,81
37.86667,82
37.87500,82
37.88333,82
37.89167,82
37.90000,81
37.90833,81
37.91667,81
37.92500,81
37.93333,81
37.94167,81
37.95000,80
37.95833,80
37.96667,81
37.97500,81
37.98333,81
37.99167,81
38.00000,81
38.00833,82
38.01667,82
38.02500,82
38.03333,82
38.04167,82
38.05000,82
38.05833,83
38.06667,82
38.07500,82
38.08333,82
38.09167,82
38.10000,82
38.10833,82
38.11667,82
38.12500,82
38.13333,82
38.14167,82
38.15000,82
38.15833,82
38.16667,82
38.17500,82
38.18333,82
38.19167,82
38.20000,82
38.20833,82
38.21667,82
38.22500,82
38.23333,82
38.24167,82
38.25000,82
38.25833,82
38.26667,82
38.27500,82
38.28333,82
38.29167,82
38.30000,82
38.30833,83
38.31667,83
38.32500,83
38.33333,83
38.34167,83
38.35000,83
38.35833,83
38.36667,83
38.37500,83
38.38333,83
38.39167,83
38.40000,84
38.40833,84
38.41667,84
38.42500,84
38.43333,84
38.44167,84
38.45000,83
38.45833,83
38.46667,83
38.47500,83
38.48333,83
38.49167,83
38.50000,83
38.50833,83
38.51667,82
38.52500,83
38.53333,83
38.54167,83
38.55000,84
38.55833,84
38.56667,84
38.57500,84
38.58333,84
38.59167,84
38.60000,84
38.60833,84
38.61667,85
38.62500,85
38.63333,85
38.64167,85
38.65000,85
38.65833,85
38.66667,85
38.67500,85
38.68333,85
38.69167,85
38.70000,85
38.70833,84
38.71667,84
38.72500,84
38.73333,84
38.74167,84
38.75000,84
38.75833,85
38.76667,85
38.77500,85
38.78333,85
38.79167,85
38.80000,85
38.80833,85
38.81667,85
38.82500,85
38.83333,86
38.84167,86
38.85000,86
38.85833,86
38.86667,86
38.87500,86
38.88333,86
38.89167,86
38.90000,85
38.90833,85
38.91667,85
38.92500,85
38.93333,85
38.94167,86
38.95000,86
38.95833,86
38.96667,86
38.97500,86
38.98333,86
38.99167,86
39.00000,86
39.00833,86
39.01667,86
39.02500,86
39.03333,86
39.04167,86
39.05000,86
39.05833,85
39.06667,85
39.07500,85
39.08333,85
39.09167,85
39.10000,85
39.10833,85
39.11667,86
39.12500,86
39.13333,86
39.14167,86
39.15000,86
39.15833,86
39.16667,86
39.17500,86
39.18333,86
39.19167,86
39.20000,86
39.20833,86
39.21667,86
39.22500,86
39.23333,86
39.24167,86
39.25000,86
39.25833,86
39.26667,86
39.27500,86
39.28333,86
39.29167,86
39.30000,85
39.30833,85
39.31667,86
39.32500,86
39.33333,86
39.34167,86
39.35000,86
39.35833,86
39.36667,87
39.37500,87
39.38333,87
39.39167,87
39.40000,87
39.40833,87
39.41667,86
39.42500,86
39.43333,87
39.44167,87
39.45000,87
39.45833,87
39.46667,87
39.47500,86
39.48333,86
39.49167,86
39.50000,86
39.50833,86
39.51667,86
39.52500,86
39.53333,86
39.54167,87
39.55000,87
39.55833,87
39.56667,87
39.57500,87
39.58333,87
39.59167,87
39.60000,86
39.60833,86
39.61667,87
39.62500,87
39.63333,87
39.64167,88
39.65000,88
39.65833,88
39.66667,87
39.67500,87
39.68333,87
39.69167,87
39.70000,87
39.70833,87
39.71667,87
39.72500,87
39.73333,87
39.74167,87
39.75000,86
39.75833,86
39.76667,87
39.77500,87
39.78333,87
39.79167,87
39.80000,87
39.80833,87
39.81667,87
39.82500,87
39.83333,87
39.84167,87
39.85000,87
39.85833,87
39.86667,87
39.87500,87
39.88333,87
39.89167,87
39.90000,87
39.90833,87
39.91667,87
39.92500,88
39.93333,88
39.94167,87
39.95000,88
39.95833,88
39.96667,88
39.97500,88
39.98333,88
39.99167,88
40.00000,88

