[Header]
Application Name,LabSolutions
Version,5.97 SP1
Data File Name,C:\Users\cremerlab\Desktop\griffin\2021-04-03_buffer_calibration\2021-04-03_buffer_calibration_432021_001_014.lcd
Output Date,4/4/2021
Output Time,12:07:56 AM

[File Information]
Type,Data File
Generated,4/3/2021 11:27:37 PM
Generated by,System Administrator
Modified,4/4/2021 12:07:56 AM
Modified by,System Administrator

[Sample Information]
Operator Name,System Administrator
Acquired,4/3/2021 11:27:56 PM
Sample Type,1:Standard
Level,1
Sample Name,2021-04-02_DM_glucose_glycerol_acetate_calibration_30mM
Sample ID,001
ISTD Amount1,1
ISTD Amount2,1
ISTD Amount3,1
ISTD Amount4,1
ISTD Amount5,1
ISTD Amount6,1
ISTD Amount7,1
ISTD Amount8,1
ISTD Amount9,1
ISTD Amount10,1
ISTD Amount11,1
ISTD Amount12,1
ISTD Amount13,1
ISTD Amount14,1
ISTD Amount15,1
ISTD Amount16,1
ISTD Amount17,1
ISTD Amount18,1
ISTD Amount19,1
ISTD Amount20,1
ISTD Amount21,1
ISTD Amount22,1
ISTD Amount23,1
ISTD Amount24,1
ISTD Amount25,1
ISTD Amount26,1
ISTD Amount27,1
ISTD Amount28,1
ISTD Amount29,1
ISTD Amount30,1
ISTD Amount31,1
ISTD Amount32,1
Sample Amount,1
Dilution Factor,1
Vial#,19
Injection Volume,20

[Original Files]
Data File,C:\Users\cremerlab\Desktop\griffin\2021-04-03_buffer_calibration\2021-04-03_buffer_calibration_432021_001_014.lcd
Method File,C:\LabSolutions\Data\Project1\organicacidsetc2.lcm
Batch File,C:\Users\cremerlab\Desktop\griffin\2021-04-03_buffer_calibration\2021-04-03_buffer_calibration.lcb
Report Format File,c:\LabSolutions\System\DEFAULT.lsr

[File Description]


[Configuration]
Instrument Name,HPLC-PC-Instrument1
Instrument #,1
Line #,1
# of Detectors,2
Detector ID,Detector A,Detector B
Detector Name,Detector A,Detector B
# of Channels,1,1

[Peak Table(Detector A)]
# of Peaks,0

[Peak Table(Detector B)]
# of Peaks,7
Peak#,R.Time,I.Time,F.Time,Area,Height,A/H,Conc.,Mark,ID#,Name,k',Plate #,Plate Ht.,Tailing,Resolution,Sep.Factor,Area Ratio,Height Ratio,Conc. %,Norm Conc.
1,10.754,10.525,10.975,50890,3475,14.643,0.000,   ,,,0.000,11906,12.599,0.959,0.000,0.000,0,0,0.000,0.000
2,11.317,11.000,11.375,84596,5239,16.146,0.000,   ,,,0.052,597,251.227,0.000,0.501,0.000,0,0,0.000,0.000
3,11.841,11.375,12.808,236060,3917,60.273,0.000, V ,,,0.101,0,0.000,0.000,0.000,1.932,0,0,0.000,0.000
4,14.918,14.100,15.258,1500724,59949,25.033,0.000,   ,,,0.387,7359,20.384,0.000,0.000,3.833,0,0,0.000,0.000
5,15.668,15.258,18.383,2852897,117253,24.331,0.000, V ,,,0.457,9799,15.308,1.116,1.129,1.180,0,0,0.000,0.000
6,22.081,21.308,23.733,839770,30943,27.139,0.000,   ,,,1.053,15395,9.743,1.093,9.535,2.305,0,0,0.000,0.000
7,25.078,24.317,26.308,355230,12059,29.457,0.000,   ,,,1.332,16663,9.002,1.072,4.026,1.265,0,0,0.000,0.000

[LC Chromatogram(Detector B-Ch1)]
Interval(msec),500
# of Points,4801
Start Time(min),0.000
End Time(min),40.000
Intensity Units,mV
Intensity Multiplier,0.001
R.Time (min),Intensity
0.00000,142
0.00833,142
0.01667,23
0.02500,2
0.03333,3
0.04167,4
0.05000,6
0.05833,7
0.06667,8
0.07500,10
0.08333,11
0.09167,12
0.10000,13
0.10833,14
0.11667,15
0.12500,16
0.13333,17
0.14167,18
0.15000,19
0.15833,19
0.16667,20
0.17500,20
0.18333,21
0.19167,21
0.20000,22
0.20833,22
0.21667,23
0.22500,23
0.23333,24
0.24167,24
0.25000,24
0.25833,25
0.26667,25
0.27500,25
0.28333,25
0.29167,26
0.30000,26
0.30833,26
0.31667,26
0.32500,26
0.33333,26
0.34167,26
0.35000,26
0.35833,26
0.36667,27
0.37500,26
0.38333,26
0.39167,26
0.40000,26
0.40833,26
0.41667,27
0.42500,27
0.43333,27
0.44167,27
0.45000,26
0.45833,26
0.46667,26
0.47500,26
0.48333,26
0.49167,26
0.50000,26
0.50833,26
0.51667,25
0.52500,25
0.53333,25
0.54167,25
0.55000,26
0.55833,25
0.56667,25
0.57500,25
0.58333,25
0.59167,25
0.60000,25
0.60833,25
0.61667,24
0.62500,24
0.63333,23
0.64167,23
0.65000,22
0.65833,21
0.66667,21
0.67500,20
0.68333,20
0.69167,19
0.70000,19
0.70833,18
0.71667,18
0.72500,18
0.73333,17
0.74167,17
0.75000,17
0.75833,16
0.76667,16
0.77500,15
0.78333,15
0.79167,15
0.80000,15
0.80833,15
0.81667,15
0.82500,15
0.83333,15
0.84167,14
0.85000,14
0.85833,14
0.86667,14
0.87500,13
0.88333,13
0.89167,13
0.90000,12
0.90833,12
0.91667,11
0.92500,11
0.93333,11
0.94167,10
0.95000,10
0.95833,10
0.96667,10
0.97500,9
0.98333,9
0.99167,9
1.00000,9
1.00833,8
1.01667,8
1.02500,8
1.03333,8
1.04167,7
1.05000,7
1.05833,6
1.06667,6
1.07500,5
1.08333,5
1.09167,4
1.10000,4
1.10833,3
1.11667,3
1.12500,2
1.13333,2
1.14167,2
1.15000,2
1.15833,1
1.16667,1
1.17500,1
1.18333,0
1.19167,0
1.20000,-0
1.20833,-1
1.21667,-1
1.22500,-1
1.23333,-1
1.24167,-2
1.25000,-3
1.25833,-3
1.26667,-4
1.27500,-4
1.28333,-4
1.29167,-4
1.30000,-5
1.30833,-5
1.31667,-5
1.32500,-5
1.33333,-6
1.34167,-6
1.35000,-6
1.35833,-6
1.36667,-6
1.37500,-6
1.38333,-7
1.39167,-7
1.40000,-7
1.40833,-8
1.41667,-8
1.42500,-9
1.43333,-9
1.44167,-9
1.45000,-9
1.45833,-9
1.46667,-9
1.47500,-9
1.48333,-10
1.49167,-10
1.50000,-11
1.50833,-11
1.51667,-11
1.52500,-11
1.53333,-12
1.54167,-12
1.55000,-13
1.55833,-13
1.56667,-13
1.57500,-14
1.58333,-14
1.59167,-15
1.60000,-15
1.60833,-15
1.61667,-16
1.62500,-16
1.63333,-16
1.64167,-16
1.65000,-16
1.65833,-16
1.66667,-16
1.67500,-16
1.68333,-16
1.69167,-17
1.70000,-17
1.70833,-17
1.71667,-18
1.72500,-18
1.73333,-18
1.74167,-18
1.75000,-18
1.75833,-18
1.76667,-19
1.77500,-19
1.78333,-20
1.79167,-21
1.80000,-21
1.80833,-21
1.81667,-21
1.82500,-21
1.83333,-21
1.84167,-21
1.85000,-21
1.85833,-21
1.86667,-21
1.87500,-21
1.88333,-22
1.89167,-22
1.90000,-22
1.90833,-23
1.91667,-23
1.92500,-23
1.93333,-23
1.94167,-24
1.95000,-24
1.95833,-24
1.96667,-23
1.97500,-23
1.98333,-23
1.99167,-23
2.00000,-24
2.00833,-24
2.01667,-25
2.02500,-25
2.03333,-25
2.04167,-25
2.05000,-25
2.05833,-25
2.06667,-25
2.07500,-25
2.08333,-25
2.09167,-25
2.10000,-25
2.10833,-25
2.11667,-25
2.12500,-25
2.13333,-25
2.14167,-26
2.15000,-26
2.15833,-26
2.16667,-26
2.17500,-26
2.18333,-26
2.19167,-26
2.20000,-26
2.20833,-27
2.21667,-27
2.22500,-27
2.23333,-28
2.24167,-28
2.25000,-28
2.25833,-28
2.26667,-28
2.27500,-28
2.28333,-27
2.29167,-27
2.30000,-28
2.30833,-28
2.31667,-28
2.32500,-29
2.33333,-29
2.34167,-29
2.35000,-29
2.35833,-30
2.36667,-30
2.37500,-30
2.38333,-30
2.39167,-30
2.40000,-30
2.40833,-29
2.41667,-30
2.42500,-30
2.43333,-30
2.44167,-31
2.45000,-31
2.45833,-31
2.46667,-32
2.47500,-32
2.48333,-32
2.49167,-33
2.50000,-33
2.50833,-33
2.51667,-34
2.52500,-34
2.53333,-35
2.54167,-35
2.55000,-36
2.55833,-36
2.56667,-37
2.57500,-38
2.58333,-39
2.59167,-40
2.60000,-42
2.60833,-43
2.61667,-44
2.62500,-45
2.63333,-46
2.64167,-48
2.65000,-49
2.65833,-51
2.66667,-52
2.67500,-54
2.68333,-57
2.69167,-59
2.70000,-61
2.70833,-64
2.71667,-66
2.72500,-69
2.73333,-73
2.74167,-76
2.75000,-80
2.75833,-83
2.76667,-87
2.77500,-91
2.78333,-96
2.79167,-100
2.80000,-105
2.80833,-111
2.81667,-117
2.82500,-122
2.83333,-128
2.84167,-135
2.85000,-141
2.85833,-148
2.86667,-155
2.87500,-163
2.88333,-170
2.89167,-178
2.90000,-187
2.90833,-195
2.91667,-204
2.92500,-214
2.93333,-223
2.94167,-233
2.95000,-243
2.95833,-254
2.96667,-265
2.97500,-276
2.98333,-287
2.99167,-299
3.00000,-311
3.00833,-323
3.01667,-336
3.02500,-349
3.03333,-362
3.04167,-375
3.05000,-388
3.05833,-401
3.06667,-415
3.07500,-428
3.08333,-442
3.09167,-456
3.10000,-470
3.10833,-485
3.11667,-499
3.12500,-513
3.13333,-527
3.14167,-541
3.15000,-556
3.15833,-570
3.16667,-584
3.17500,-598
3.18333,-612
3.19167,-627
3.20000,-641
3.20833,-655
3.21667,-669
3.22500,-682
3.23333,-696
3.24167,-709
3.25000,-722
3.25833,-735
3.26667,-748
3.27500,-760
3.28333,-772
3.29167,-784
3.30000,-796
3.30833,-808
3.31667,-819
3.32500,-831
3.33333,-842
3.34167,-852
3.35000,-863
3.35833,-873
3.36667,-883
3.37500,-893
3.38333,-902
3.39167,-911
3.40000,-920
3.40833,-928
3.41667,-937
3.42500,-944
3.43333,-952
3.44167,-960
3.45000,-967
3.45833,-974
3.46667,-981
3.47500,-988
3.48333,-994
3.49167,-1001
3.50000,-1007
3.50833,-1013
3.51667,-1019
3.52500,-1024
3.53333,-1029
3.54167,-1035
3.55000,-1040
3.55833,-1045
3.56667,-1049
3.57500,-1054
3.58333,-1058
3.59167,-1063
3.60000,-1067
3.60833,-1071
3.61667,-1075
3.62500,-1079
3.63333,-1083
3.64167,-1086
3.65000,-1090
3.65833,-1093
3.66667,-1097
3.67500,-1100
3.68333,-1104
3.69167,-1107
3.70000,-1111
3.70833,-1114
3.71667,-1118
3.72500,-1121
3.73333,-1125
3.74167,-1128
3.75000,-1132
3.75833,-1135
3.76667,-1138
3.77500,-1141
3.78333,-1144
3.79167,-1147
3.80000,-1150
3.80833,-1153
3.81667,-1156
3.82500,-1159
3.83333,-1161
3.84167,-1165
3.85000,-1168
3.85833,-1171
3.86667,-1175
3.87500,-1177
3.88333,-1180
3.89167,-1183
3.90000,-1186
3.90833,-1189
3.91667,-1192
3.92500,-1194
3.93333,-1197
3.94167,-1200
3.95000,-1203
3.95833,-1205
3.96667,-1208
3.97500,-1211
3.98333,-1213
3.99167,-1215
4.00000,-1218
4.00833,-1220
4.01667,-1222
4.02500,-1224
4.03333,-1226
4.04167,-1228
4.05000,-1230
4.05833,-1231
4.06667,-1233
4.07500,-1234
4.08333,-1235
4.09167,-1236
4.10000,-1237
4.10833,-1238
4.11667,-1239
4.12500,-1240
4.13333,-1240
4.14167,-1241
4.15000,-1242
4.15833,-1241
4.16667,-1241
4.17500,-1241
4.18333,-1241
4.19167,-1241
4.20000,-1240
4.20833,-1239
4.21667,-1238
4.22500,-1237
4.23333,-1236
4.24167,-1234
4.25000,-1232
4.25833,-1231
4.26667,-1229
4.27500,-1227
4.28333,-1225
4.29167,-1223
4.30000,-1221
4.30833,-1219
4.31667,-1217
4.32500,-1215
4.33333,-1212
4.34167,-1209
4.35000,-1207
4.35833,-1204
4.36667,-1201
4.37500,-1198
4.38333,-1196
4.39167,-1193
4.40000,-1190
4.40833,-1187
4.41667,-1184
4.42500,-1181
4.43333,-1178
4.44167,-1175
4.45000,-1171
4.45833,-1168
4.46667,-1165
4.47500,-1162
4.48333,-1159
4.49167,-1157
4.50000,-1154
4.50833,-1151
4.51667,-1149
4.52500,-1146
4.53333,-1144
4.54167,-1142
4.55000,-1139
4.55833,-1137
4.56667,-1135
4.57500,-1132
4.58333,-1130
4.59167,-1128
4.60000,-1126
4.60833,-1124
4.61667,-1122
4.62500,-1120
4.63333,-1119
4.64167,-1117
4.65000,-1116
4.65833,-1114
4.66667,-1113
4.67500,-1112
4.68333,-1111
4.69167,-1110
4.70000,-1108
4.70833,-1108
4.71667,-1107
4.72500,-1106
4.73333,-1106
4.74167,-1106
4.75000,-1105
4.75833,-1105
4.76667,-1105
4.77500,-1105
4.78333,-1105
4.79167,-1105
4.80000,-1105
4.80833,-1105
4.81667,-1105
4.82500,-1105
4.83333,-1105
4.84167,-1105
4.85000,-1105
4.85833,-1106
4.86667,-1106
4.87500,-1106
4.88333,-1106
4.89167,-1106
4.90000,-1106
4.90833,-1106
4.91667,-1106
4.92500,-1106
4.93333,-1106
4.94167,-1106
4.95000,-1105
4.95833,-1105
4.96667,-1105
4.97500,-1105
4.98333,-1105
4.99167,-1104
5.00000,-1104
5.00833,-1103
5.01667,-1102
5.02500,-1101
5.03333,-1100
5.04167,-1099
5.05000,-1098
5.05833,-1097
5.06667,-1096
5.07500,-1095
5.08333,-1094
5.09167,-1092
5.10000,-1090
5.10833,-1089
5.11667,-1087
5.12500,-1085
5.13333,-1083
5.14167,-1080
5.15000,-1077
5.15833,-1075
5.16667,-1072
5.17500,-1070
5.18333,-1067
5.19167,-1065
5.20000,-1062
5.20833,-1059
5.21667,-1056
5.22500,-1054
5.23333,-1051
5.24167,-1048
5.25000,-1045
5.25833,-1042
5.26667,-1039
5.27500,-1035
5.28333,-1032
5.29167,-1028
5.30000,-1024
5.30833,-1020
5.31667,-1017
5.32500,-1013
5.33333,-1009
5.34167,-1006
5.35000,-1002
5.35833,-998
5.36667,-995
5.37500,-991
5.38333,-987
5.39167,-984
5.40000,-980
5.40833,-976
5.41667,-973
5.42500,-969
5.43333,-965
5.44167,-961
5.45000,-957
5.45833,-953
5.46667,-949
5.47500,-945
5.48333,-941
5.49167,-937
5.50000,-933
5.50833,-930
5.51667,-926
5.52500,-923
5.53333,-919
5.54167,-916
5.55000,-912
5.55833,-908
5.56667,-905
5.57500,-901
5.58333,-898
5.59167,-894
5.60000,-891
5.60833,-887
5.61667,-884
5.62500,-880
5.63333,-877
5.64167,-873
5.65000,-870
5.65833,-867
5.66667,-864
5.67500,-861
5.68333,-858
5.69167,-854
5.70000,-851
5.70833,-847
5.71667,-844
5.72500,-840
5.73333,-837
5.74167,-834
5.75000,-831
5.75833,-829
5.76667,-826
5.77500,-823
5.78333,-820
5.79167,-817
5.80000,-814
5.80833,-811
5.81667,-809
5.82500,-806
5.83333,-803
5.84167,-800
5.85000,-797
5.85833,-794
5.86667,-790
5.87500,-787
5.88333,-784
5.89167,-781
5.90000,-778
5.90833,-775
5.91667,-772
5.92500,-769
5.93333,-766
5.94167,-763
5.95000,-761
5.95833,-758
5.96667,-755
5.97500,-752
5.98333,-749
5.99167,-746
6.00000,-743
6.00833,-740
6.01667,-737
6.02500,-733
6.03333,-730
6.04167,-726
6.05000,-723
6.05833,-720
6.06667,-717
6.07500,-714
6.08333,-711
6.09167,-707
6.10000,-704
6.10833,-702
6.11667,-699
6.12500,-696
6.13333,-693
6.14167,-690
6.15000,-686
6.15833,-683
6.16667,-680
6.17500,-677
6.18333,-674
6.19167,-670
6.20000,-667
6.20833,-663
6.21667,-660
6.22500,-656
6.23333,-653
6.24167,-650
6.25000,-647
6.25833,-644
6.26667,-640
6.27500,-637
6.28333,-634
6.29167,-631
6.30000,-627
6.30833,-624
6.31667,-621
6.32500,-617
6.33333,-614
6.34167,-610
6.35000,-607
6.35833,-603
6.36667,-600
6.37500,-596
6.38333,-592
6.39167,-588
6.40000,-585
6.40833,-581
6.41667,-577
6.42500,-574
6.43333,-570
6.44167,-567
6.45000,-564
6.45833,-560
6.46667,-557
6.47500,-553
6.48333,-549
6.49167,-546
6.50000,-543
6.50833,-539
6.51667,-536
6.52500,-532
6.53333,-528
6.54167,-524
6.55000,-521
6.55833,-517
6.56667,-513
6.57500,-509
6.58333,-506
6.59167,-502
6.60000,-498
6.60833,-495
6.61667,-491
6.62500,-488
6.63333,-485
6.64167,-481
6.65000,-478
6.65833,-474
6.66667,-470
6.67500,-466
6.68333,-463
6.69167,-459
6.70000,-455
6.70833,-452
6.71667,-448
6.72500,-444
6.73333,-441
6.74167,-437
6.75000,-434
6.75833,-431
6.76667,-427
6.77500,-424
6.78333,-420
6.79167,-416
6.80000,-413
6.80833,-410
6.81667,-407
6.82500,-403
6.83333,-400
6.84167,-396
6.85000,-392
6.85833,-389
6.86667,-385
6.87500,-382
6.88333,-379
6.89167,-375
6.90000,-372
6.90833,-369
6.91667,-365
6.92500,-362
6.93333,-359
6.94167,-356
6.95000,-353
6.95833,-350
6.96667,-347
6.97500,-344
6.98333,-341
6.99167,-338
7.00000,-335
7.00833,-332
7.01667,-329
7.02500,-327
7.03333,-324
7.04167,-321
7.05000,-318
7.05833,-315
7.06667,-312
7.07500,-309
7.08333,-307
7.09167,-304
7.10000,-302
7.10833,-300
7.11667,-297
7.12500,-295
7.13333,-293
7.14167,-291
7.15000,-289
7.15833,-287
7.16667,-285
7.17500,-283
7.18333,-281
7.19167,-278
7.20000,-276
7.20833,-274
7.21667,-272
7.22500,-270
7.23333,-267
7.24167,-265
7.25000,-264
7.25833,-262
7.26667,-260
7.27500,-258
7.28333,-257
7.29167,-255
7.30000,-253
7.30833,-252
7.31667,-250
7.32500,-249
7.33333,-247
7.34167,-246
7.35000,-245
7.35833,-244
7.36667,-242
7.37500,-241
7.38333,-239
7.39167,-238
7.40000,-236
7.40833,-235
7.41667,-233
7.42500,-232
7.43333,-231
7.44167,-230
7.45000,-229
7.45833,-228
7.46667,-227
7.47500,-226
7.48333,-224
7.49167,-223
7.50000,-222
7.50833,-221
7.51667,-220
7.52500,-219
7.53333,-218
7.54167,-217
7.55000,-216
7.55833,-215
7.56667,-215
7.57500,-214
7.58333,-213
7.59167,-212
7.60000,-211
7.60833,-210
7.61667,-209
7.62500,-209
7.63333,-208
7.64167,-208
7.65000,-208
7.65833,-207
7.66667,-206
7.67500,-205
7.68333,-205
7.69167,-204
7.70000,-203
7.70833,-202
7.71667,-202
7.72500,-201
7.73333,-201
7.74167,-200
7.75000,-200
7.75833,-200
7.76667,-199
7.77500,-199
7.78333,-198
7.79167,-198
7.80000,-197
7.80833,-197
7.81667,-196
7.82500,-196
7.83333,-195
7.84167,-194
7.85000,-194
7.85833,-193
7.86667,-192
7.87500,-192
7.88333,-191
7.89167,-191
7.90000,-190
7.90833,-190
7.91667,-190
7.92500,-190
7.93333,-189
7.94167,-189
7.95000,-189
7.95833,-188
7.96667,-188
7.97500,-187
7.98333,-187
7.99167,-186
8.00000,-186
8.00833,-185
8.01667,-184
8.02500,-184
8.03333,-183
8.04167,-183
8.05000,-182
8.05833,-182
8.06667,-181
8.07500,-181
8.08333,-180
8.09167,-180
8.10000,-179
8.10833,-179
8.11667,-178
8.12500,-178
8.13333,-178
8.14167,-177
8.15000,-177
8.15833,-177
8.16667,-176
8.17500,-175
8.18333,-175
8.19167,-174
8.20000,-174
8.20833,-174
8.21667,-173
8.22500,-172
8.23333,-172
8.24167,-171
8.25000,-171
8.25833,-170
8.26667,-170
8.27500,-170
8.28333,-170
8.29167,-169
8.30000,-169
8.30833,-168
8.31667,-168
8.32500,-167
8.33333,-167
8.34167,-166
8.35000,-166
8.35833,-166
8.36667,-166
8.37500,-165
8.38333,-164
8.39167,-164
8.40000,-163
8.40833,-163
8.41667,-162
8.42500,-162
8.43333,-162
8.44167,-161
8.45000,-161
8.45833,-161
8.46667,-160
8.47500,-160
8.48333,-159
8.49167,-159
8.50000,-158
8.50833,-158
8.51667,-157
8.52500,-157
8.53333,-156
8.54167,-156
8.55000,-155
8.55833,-154
8.56667,-153
8.57500,-153
8.58333,-153
8.59167,-153
8.60000,-153
8.60833,-152
8.61667,-152
8.62500,-152
8.63333,-151
8.64167,-150
8.65000,-150
8.65833,-149
8.66667,-149
8.67500,-149
8.68333,-148
8.69167,-148
8.70000,-147
8.70833,-147
8.71667,-146
8.72500,-146
8.73333,-145
8.74167,-145
8.75000,-144
8.75833,-143
8.76667,-143
8.77500,-142
8.78333,-142
8.79167,-142
8.80000,-141
8.80833,-141
8.81667,-141
8.82500,-141
8.83333,-140
8.84167,-140
8.85000,-139
8.85833,-139
8.86667,-139
8.87500,-139
8.88333,-138
8.89167,-138
8.90000,-137
8.90833,-137
8.91667,-136
8.92500,-136
8.93333,-136
8.94167,-135
8.95000,-135
8.95833,-135
8.96667,-134
8.97500,-134
8.98333,-134
8.99167,-133
9.00000,-132
9.00833,-132
9.01667,-132
9.02500,-132
9.03333,-131
9.04167,-130
9.05000,-130
9.05833,-130
9.06667,-130
9.07500,-129
9.08333,-129
9.09167,-128
9.10000,-128
9.10833,-127
9.11667,-127
9.12500,-127
9.13333,-127
9.14167,-126
9.15000,-126
9.15833,-126
9.16667,-125
9.17500,-125
9.18333,-125
9.19167,-124
9.20000,-124
9.20833,-123
9.21667,-123
9.22500,-122
9.23333,-122
9.24167,-121
9.25000,-121
9.25833,-120
9.26667,-120
9.27500,-120
9.28333,-119
9.29167,-119
9.30000,-119
9.30833,-118
9.31667,-118
9.32500,-118
9.33333,-118
9.34167,-118
9.35000,-118
9.35833,-117
9.36667,-117
9.37500,-117
9.38333,-117
9.39167,-116
9.40000,-116
9.40833,-116
9.41667,-115
9.42500,-115
9.43333,-115
9.44167,-115
9.45000,-114
9.45833,-113
9.46667,-113
9.47500,-112
9.48333,-112
9.49167,-112
9.50000,-111
9.50833,-111
9.51667,-111
9.52500,-111
9.53333,-111
9.54167,-110
9.55000,-110
9.55833,-110
9.56667,-110
9.57500,-109
9.58333,-109
9.59167,-109
9.60000,-108
9.60833,-108
9.61667,-108
9.62500,-108
9.63333,-108
9.64167,-108
9.65000,-108
9.65833,-107
9.66667,-107
9.67500,-107
9.68333,-107
9.69167,-106
9.70000,-106
9.70833,-106
9.71667,-105
9.72500,-105
9.73333,-105
9.74167,-105
9.75000,-105
9.75833,-104
9.76667,-104
9.77500,-104
9.78333,-104
9.79167,-103
9.80000,-103
9.80833,-103
9.81667,-102
9.82500,-102
9.83333,-102
9.84167,-101
9.85000,-101
9.85833,-101
9.86667,-100
9.87500,-100
9.88333,-100
9.89167,-100
9.90000,-100
9.90833,-100
9.91667,-100
9.92500,-100
9.93333,-99
9.94167,-99
9.95000,-99
9.95833,-99
9.96667,-98
9.97500,-98
9.98333,-97
9.99167,-97
10.00000,-96
10.00833,-96
10.01667,-96
10.02500,-96
10.03333,-95
10.04167,-95
10.05000,-95
10.05833,-95
10.06667,-95
10.07500,-94
10.08333,-94
10.09167,-94
10.10000,-94
10.10833,-94
10.11667,-94
10.12500,-93
10.13333,-93
10.14167,-93
10.15000,-93
10.15833,-93
10.16667,-93
10.17500,-93
10.18333,-93
10.19167,-93
10.20000,-92
10.20833,-91
10.21667,-91
10.22500,-90
10.23333,-90
10.24167,-90
10.25000,-90
10.25833,-90
10.26667,-90
10.27500,-90
10.28333,-90
10.29167,-89
10.30000,-89
10.30833,-89
10.31667,-89
10.32500,-88
10.33333,-88
10.34167,-88
10.35000,-87
10.35833,-87
10.36667,-87
10.37500,-87
10.38333,-86
10.39167,-86
10.40000,-85
10.40833,-85
10.41667,-85
10.42500,-84
10.43333,-84
10.44167,-83
10.45000,-83
10.45833,-83
10.46667,-83
10.47500,-82
10.48333,-82
10.49167,-82
10.50000,-82
10.50833,-81
10.51667,-81
10.52500,-80
10.53333,-80
10.54167,-79
10.55000,-79
10.55833,-78
10.56667,-76
10.57500,-73
10.58333,-70
10.59167,-66
10.60000,-62
10.60833,-56
10.61667,-47
10.62500,-37
10.63333,-24
10.64167,-7
10.65000,13
10.65833,36
10.66667,63
10.67500,93
10.68333,127
10.69167,165
10.70000,204
10.70833,244
10.71667,284
10.72500,322
10.73333,354
10.74167,379
10.75000,393
10.75833,394
10.76667,376
10.77500,337
10.78333,273
10.79167,181
10.80000,60
10.80833,-93
10.81667,-278
10.82500,-496
10.83333,-745
10.84167,-1025
10.85000,-1332
10.85833,-1663
10.86667,-2014
10.87500,-2380
10.88333,-2756
10.89167,-3135
10.90000,-3514
10.90833,-3884
10.91667,-4241
10.92500,-4580
10.93333,-4896
10.94167,-5183
10.95000,-5438
10.95833,-5656
10.96667,-5835
10.97500,-5973
10.98333,-6066
10.99167,-6114
11.00000,-6117
11.00833,-6076
11.01667,-5991
11.02500,-5865
11.03333,-5699
11.04167,-5498
11.05000,-5265
11.05833,-5005
11.06667,-4722
11.07500,-4420
11.08333,-4105
11.09167,-3782
11.10000,-3456
11.10833,-3130
11.11667,-2809
11.12500,-2497
11.13333,-2198
11.14167,-1914
11.15000,-1647
11.15833,-1400
11.16667,-1172
11.17500,-965
11.18333,-779
11.19167,-614
11.20000,-469
11.20833,-343
11.21667,-234
11.22500,-143
11.23333,-66
11.24167,-4
11.25000,47
11.25833,88
11.26667,119
11.27500,143
11.28333,161
11.29167,173
11.30000,182
11.30833,187
11.31667,190
11.32500,191
11.33333,192
11.34167,191
11.35000,191
11.35833,191
11.36667,192
11.37500,193
11.38333,196
11.39167,199
11.40000,202
11.40833,207
11.41667,213
11.42500,220
11.43333,227
11.44167,235
11.45000,244
11.45833,253
11.46667,263
11.47500,273
11.48333,284
11.49167,296
11.50000,307
11.50833,319
11.51667,331
11.52500,344
11.53333,356
11.54167,368
11.55000,380
11.55833,393
11.56667,405
11.57500,417
11.58333,428
11.59167,440
11.60000,452
11.60833,463
11.61667,474
11.62500,485
11.63333,496
11.64167,507
11.65000,517
11.65833,526
11.66667,536
11.67500,545
11.68333,553
11.69167,561
11.70000,569
11.70833,576
11.71667,583
11.72500,589
11.73333,595
11.74167,601
11.75000,606
11.75833,611
11.76667,615
11.77500,619
11.78333,622
11.79167,625
11.80000,627
11.80833,629
11.81667,630
11.82500,632
11.83333,633
11.84167,633
11.85000,632
11.85833,631
11.86667,630
11.87500,629
11.88333,627
11.89167,624
11.90000,621
11.90833,617
11.91667,613
11.92500,608
11.93333,604
11.94167,599
11.95000,593
11.95833,587
11.96667,581
11.97500,574
11.98333,567
11.99167,560
12.00000,552
12.00833,544
12.01667,536
12.02500,528
12.03333,519
12.04167,510
12.05000,501
12.05833,492
12.06667,482
12.07500,472
12.08333,463
12.09167,452
12.10000,442
12.10833,432
12.11667,422
12.12500,411
12.13333,401
12.14167,390
12.15000,380
12.15833,369
12.16667,360
12.17500,349
12.18333,339
12.19167,329
12.20000,319
12.20833,308
12.21667,298
12.22500,288
12.23333,278
12.24167,268
12.25000,259
12.25833,249
12.26667,240
12.27500,232
12.28333,223
12.29167,214
12.30000,206
12.30833,198
12.31667,189
12.32500,181
12.33333,174
12.34167,166
12.35000,159
12.35833,152
12.36667,144
12.37500,137
12.38333,131
12.39167,124
12.40000,118
12.40833,113
12.41667,107
12.42500,101
12.43333,95
12.44167,89
12.45000,84
12.45833,78
12.46667,73
12.47500,68
12.48333,64
12.49167,60
12.50000,55
12.50833,51
12.51667,47
12.52500,43
12.53333,40
12.54167,36
12.55000,32
12.55833,29
12.56667,26
12.57500,23
12.58333,20
12.59167,18
12.60000,15
12.60833,12
12.61667,10
12.62500,8
12.63333,6
12.64167,3
12.65000,1
12.65833,-1
12.66667,-3
12.67500,-5
12.68333,-7
12.69167,-8
12.70000,-10
12.70833,-12
12.71667,-13
12.72500,-14
12.73333,-16
12.74167,-17
12.75000,-17
12.75833,-18
12.76667,-19
12.77500,-20
12.78333,-21
12.79167,-21
12.80000,-22
12.80833,-22
12.81667,-22
12.82500,-21
12.83333,-21
12.84167,-21
12.85000,-21
12.85833,-20
12.86667,-20
12.87500,-20
12.88333,-20
12.89167,-19
12.90000,-18
12.90833,-17
12.91667,-16
12.92500,-14
12.93333,-13
12.94167,-12
12.95000,-11
12.95833,-9
12.96667,-8
12.97500,-7
12.98333,-5
12.99167,-4
13.00000,-2
13.00833,-1
13.01667,1
13.02500,2
13.03333,3
13.04167,5
13.05000,6
13.05833,7
13.06667,8
13.07500,9
13.08333,10
13.09167,11
13.10000,12
13.10833,13
13.11667,14
13.12500,15
13.13333,16
13.14167,17
13.15000,18
13.15833,18
13.16667,19
13.17500,20
13.18333,21
13.19167,22
13.20000,22
13.20833,23
13.21667,24
13.22500,25
13.23333,25
13.24167,26
13.25000,26
13.25833,26
13.26667,26
13.27500,26
13.28333,26
13.29167,25
13.30000,24
13.30833,23
13.31667,23
13.32500,22
13.33333,21
13.34167,19
13.35000,18
13.35833,17
13.36667,16
13.37500,15
13.38333,13
13.39167,12
13.40000,10
13.40833,9
13.41667,7
13.42500,6
13.43333,4
13.44167,2
13.45000,1
13.45833,-1
13.46667,-3
13.47500,-4
13.48333,-6
13.49167,-7
13.50000,-9
13.50833,-11
13.51667,-13
13.52500,-14
13.53333,-16
13.54167,-17
13.55000,-19
13.55833,-20
13.56667,-22
13.57500,-23
13.58333,-24
13.59167,-26
13.60000,-27
13.60833,-28
13.61667,-29
13.62500,-30
13.63333,-30
13.64167,-31
13.65000,-31
13.65833,-32
13.66667,-33
13.67500,-34
13.68333,-34
13.69167,-35
13.70000,-35
13.70833,-35
13.71667,-36
13.72500,-36
13.73333,-37
13.74167,-37
13.75000,-37
13.75833,-37
13.76667,-37
13.77500,-37
13.78333,-37
13.79167,-38
13.80000,-38
13.80833,-38
13.81667,-38
13.82500,-38
13.83333,-38
13.84167,-38
13.85000,-38
13.85833,-38
13.86667,-38
13.87500,-39
13.88333,-39
13.89167,-39
13.90000,-39
13.90833,-39
13.91667,-39
13.92500,-39
13.93333,-38
13.94167,-38
13.95000,-38
13.95833,-37
13.96667,-37
13.97500,-36
13.98333,-36
13.99167,-36
14.00000,-36
14.00833,-36
14.01667,-35
14.02500,-35
14.03333,-35
14.04167,-35
14.05000,-35
14.05833,-34
14.06667,-34
14.07500,-34
14.08333,-33
14.09167,-32
14.10000,-32
14.10833,-31
14.11667,-30
14.12500,-29
14.13333,-28
14.14167,-26
14.15000,-24
14.15833,-21
14.16667,-18
14.17500,-14
14.18333,-9
14.19167,-4
14.20000,3
14.20833,11
14.21667,21
14.22500,32
14.23333,46
14.24167,63
14.25000,83
14.25833,107
14.26667,137
14.27500,172
14.28333,215
14.29167,265
14.30000,325
14.30833,395
14.31667,477
14.32500,572
14.33333,682
14.34167,809
14.35000,955
14.35833,1122
14.36667,1311
14.37500,1524
14.38333,1764
14.39167,2031
14.40000,2327
14.40833,2656
14.41667,3017
14.42500,3413
14.43333,3845
14.44167,4313
14.45000,4819
14.45833,5362
14.46667,5945
14.47500,6566
14.48333,7227
14.49167,7926
14.50000,8664
14.50833,9440
14.51667,10253
14.52500,11102
14.53333,11986
14.54167,12904
14.55000,13855
14.55833,14836
14.56667,15847
14.57500,16885
14.58333,17949
14.59167,19037
14.60000,20147
14.60833,21276
14.61667,22424
14.62500,23588
14.63333,24766
14.64167,25956
14.65000,27157
14.65833,28367
14.66667,29584
14.67500,30806
14.68333,32033
14.69167,33261
14.70000,34491
14.70833,35721
14.71667,36949
14.72500,38174
14.73333,39394
14.74167,40610
14.75000,41819
14.75833,43020
14.76667,44212
14.77500,45395
14.78333,46565
14.79167,47723
14.80000,48865
14.80833,49990
14.81667,51093
14.82500,52173
14.83333,53223
14.84167,54238
14.85000,55212
14.85833,56135
14.86667,56996
14.87500,57782
14.88333,58477
14.89167,59062
14.90000,59517
14.90833,59821
14.91667,59950
14.92500,59883
14.93333,59600
14.94167,59084
14.95000,58320
14.95833,57303
14.96667,56030
14.97500,54510
14.98333,52754
14.99167,50784
15.00000,48625
15.00833,46309
15.01667,43870
15.02500,41346
15.03333,38772
15.04167,36185
15.05000,33618
15.05833,31100
15.06667,28659
15.07500,26315
15.08333,24085
15.09167,21983
15.10000,20015
15.10833,18189
15.11667,16503
15.12500,14957
15.13333,13548
15.14167,12270
15.15000,11118
15.15833,10084
15.16667,9162
15.17500,8346
15.18333,7628
15.19167,7003
15.20000,6465
15.20833,6009
15.21667,5632
15.22500,5332
15.23333,5107
15.24167,4956
15.25000,4879
15.25833,4878
15.26667,4956
15.27500,5115
15.28333,5360
15.29167,5696
15.30000,6129
15.30833,6666
15.31667,7313
15.32500,8080
15.33333,8974
15.34167,10004
15.35000,11178
15.35833,12504
15.36667,13991
15.37500,15646
15.38333,17476
15.39167,19486
15.40000,21682
15.40833,24065
15.41667,26637
15.42500,29398
15.43333,32344
15.44167,35471
15.45000,38770
15.45833,42233
15.46667,45846
15.47500,49594
15.48333,53461
15.49167,57426
15.50000,61467
15.50833,65560
15.51667,69679
15.52500,73797
15.53333,77885
15.54167,81914
15.55000,85853
15.55833,89673
15.56667,93344
15.57500,96838
15.58333,100128
15.59167,103188
15.60000,105993
15.60833,108522
15.61667,110756
15.62500,112679
15.63333,114278
15.64167,115543
15.65000,116467
15.65833,117048
15.66667,117284
15.67500,117178
15.68333,116738
15.69167,115972
15.70000,114891
15.70833,113510
15.71667,111846
15.72500,109916
15.73333,107740
15.74167,105340
15.75000,102737
15.75833,99954
15.76667,97014
15.77500,93939
15.78333,90754
15.79167,87479
15.80000,84138
15.80833,80750
15.81667,77337
15.82500,73916
15.83333,70506
15.84167,67124
15.85000,63782
15.85833,60496
15.86667,57276
15.87500,54134
15.88333,51078
15.89167,48115
15.90000,45254
15.90833,42497
15.91667,39851
15.92500,37317
15.93333,34898
15.94167,32594
15.95000,30405
15.95833,28330
15.96667,26369
15.97500,24518
15.98333,22775
15.99167,21138
16.00000,19603
16.00833,18165
16.01667,16822
16.02500,15570
16.03333,14403
16.04167,13318
16.05000,12311
16.05833,11378
16.06667,10513
16.07500,9715
16.08333,8977
16.09167,8296
16.10000,7668
16.10833,7090
16.11667,6558
16.12500,6069
16.13333,5620
16.14167,5208
16.15000,4830
16.15833,4484
16.16667,4167
16.17500,3876
16.18333,3609
16.19167,3365
16.20000,3141
16.20833,2937
16.21667,2749
16.22500,2577
16.23333,2420
16.24167,2276
16.25000,2144
16.25833,2023
16.26667,1912
16.27500,1810
16.28333,1717
16.29167,1631
16.30000,1552
16.30833,1479
16.31667,1412
16.32500,1350
16.33333,1293
16.34167,1240
16.35000,1191
16.35833,1146
16.36667,1104
16.37500,1065
16.38333,1029
16.39167,996
16.40000,965
16.40833,936
16.41667,909
16.42500,883
16.43333,859
16.44167,837
16.45000,816
16.45833,797
16.46667,778
16.47500,761
16.48333,745
16.49167,730
16.50000,715
16.50833,701
16.51667,688
16.52500,676
16.53333,664
16.54167,653
16.55000,643
16.55833,633
16.56667,624
16.57500,615
16.58333,606
16.59167,598
16.60000,590
16.60833,582
16.61667,574
16.62500,567
16.63333,560
16.64167,554
16.65000,548
16.65833,542
16.66667,536
16.67500,530
16.68333,525
16.69167,519
16.70000,513
16.70833,508
16.71667,503
16.72500,498
16.73333,494
16.74167,489
16.75000,485
16.75833,480
16.76667,476
16.77500,472
16.78333,467
16.79167,463
16.80000,459
16.80833,455
16.81667,451
16.82500,447
16.83333,443
16.84167,439
16.85000,436
16.85833,432
16.86667,428
16.87500,425
16.88333,421
16.89167,418
16.90000,414
16.90833,410
16.91667,406
16.92500,403
16.93333,399
16.94167,395
16.95000,392
16.95833,389
16.96667,385
16.97500,382
16.98333,379
16.99167,375
17.00000,372
17.00833,369
17.01667,366
17.02500,363
17.03333,360
17.04167,356
17.05000,353
17.05833,350
17.06667,347
17.07500,344
17.08333,341
17.09167,338
17.10000,335
17.10833,332
17.11667,330
17.12500,328
17.13333,325
17.14167,323
17.15000,320
17.15833,317
17.16667,314
17.17500,311
17.18333,309
17.19167,307
17.20000,304
17.20833,302
17.21667,300
17.22500,297
17.23333,295
17.24167,292
17.25000,290
17.25833,288
17.26667,286
17.27500,284
17.28333,282
17.29167,280
17.30000,278
17.30833,276
17.31667,274
17.32500,272
17.33333,269
17.34167,268
17.35000,266
17.35833,264
17.36667,262
17.37500,261
17.38333,259
17.39167,257
17.40000,255
17.40833,253
17.41667,251
17.42500,249
17.43333,248
17.44167,246
17.45000,245
17.45833,243
17.46667,242
17.47500,241
17.48333,240
17.49167,238
17.50000,237
17.50833,236
17.51667,234
17.52500,233
17.53333,232
17.54167,231
17.55000,230
17.55833,229
17.56667,227
17.57500,226
17.58333,225
17.59167,224
17.60000,223
17.60833,222
17.61667,221
17.62500,220
17.63333,219
17.64167,218
17.65000,216
17.65833,215
17.66667,214
17.67500,214
17.68333,213
17.69167,212
17.70000,210
17.70833,209
17.71667,208
17.72500,207
17.73333,206
17.74167,205
17.75000,204
17.75833,203
17.76667,202
17.77500,201
17.78333,200
17.79167,199
17.80000,197
17.80833,197
17.81667,196
17.82500,195
17.83333,194
17.84167,193
17.85000,192
17.85833,191
17.86667,191
17.87500,190
17.88333,189
17.89167,188
17.90000,187
17.90833,186
17.91667,185
17.92500,184
17.93333,183
17.94167,182
17.95000,181
17.95833,180
17.96667,179
17.97500,178
17.98333,177
17.99167,176
18.00000,176
18.00833,175
18.01667,174
18.02500,174
18.03333,173
18.04167,172
18.05000,171
18.05833,170
18.06667,169
18.07500,168
18.08333,167
18.09167,166
18.10000,166
18.10833,165
18.11667,164
18.12500,163
18.13333,162
18.14167,161
18.15000,160
18.15833,159
18.16667,158
18.17500,158
18.18333,157
18.19167,157
18.20000,156
18.20833,156
18.21667,155
18.22500,154
18.23333,153
18.24167,151
18.25000,151
18.25833,150
18.26667,149
18.27500,148
18.28333,147
18.29167,147
18.30000,146
18.30833,145
18.31667,144
18.32500,143
18.33333,142
18.34167,141
18.35000,141
18.35833,140
18.36667,139
18.37500,139
18.38333,139
18.39167,139
18.40000,138
18.40833,138
18.41667,137
18.42500,136
18.43333,135
18.44167,134
18.45000,134
18.45833,133
18.46667,133
18.47500,132
18.48333,132
18.49167,132
18.50000,131
18.50833,131
18.51667,130
18.52500,129
18.53333,128
18.54167,127
18.55000,126
18.55833,126
18.56667,125
18.57500,125
18.58333,124
18.59167,123
18.60000,123
18.60833,123
18.61667,122
18.62500,122
18.63333,121
18.64167,121
18.65000,120
18.65833,120
18.66667,119
18.67500,119
18.68333,118
18.69167,118
18.70000,117
18.70833,117
18.71667,117
18.72500,118
18.73333,118
18.74167,118
18.75000,117
18.75833,117
18.76667,117
18.77500,117
18.78333,117
18.79167,118
18.80000,117
18.80833,117
18.81667,117
18.82500,117
18.83333,118
18.84167,118
18.85000,119
18.85833,119
18.86667,120
18.87500,120
18.88333,121
18.89167,121
18.90000,122
18.90833,122
18.91667,122
18.92500,122
18.93333,123
18.94167,123
18.95000,124
18.95833,124
18.96667,124
18.97500,124
18.98333,124
18.99167,124
19.00000,124
19.00833,124
19.01667,124
19.02500,124
19.03333,124
19.04167,124
19.05000,123
19.05833,123
19.06667,122
19.07500,121
19.08333,121
19.09167,120
19.10000,119
19.10833,118
19.11667,117
19.12500,116
19.13333,115
19.14167,113
19.15000,112
19.15833,111
19.16667,109
19.17500,108
19.18333,107
19.19167,106
19.20000,105
19.20833,104
19.21667,103
19.22500,101
19.23333,100
19.24167,99
19.25000,97
19.25833,96
19.26667,95
19.27500,93
19.28333,92
19.29167,90
19.30000,89
19.30833,88
19.31667,87
19.32500,86
19.33333,85
19.34167,85
19.35000,84
19.35833,83
19.36667,82
19.37500,82
19.38333,81
19.39167,80
19.40000,79
19.40833,79
19.41667,78
19.42500,77
19.43333,76
19.44167,76
19.45000,75
19.45833,75
19.46667,74
19.47500,74
19.48333,73
19.49167,73
19.50000,72
19.50833,72
19.51667,71
19.52500,71
19.53333,70
19.54167,70
19.55000,69
19.55833,69
19.56667,69
19.57500,68
19.58333,68
19.59167,68
19.60000,67
19.60833,67
19.61667,66
19.62500,66
19.63333,66
19.64167,66
19.65000,66
19.65833,65
19.66667,65
19.67500,65
19.68333,64
19.69167,64
19.70000,63
19.70833,63
19.71667,63
19.72500,63
19.73333,62
19.74167,62
19.75000,61
19.75833,61
19.76667,61
19.77500,61
19.78333,61
19.79167,61
19.80000,60
19.80833,60
19.81667,59
19.82500,59
19.83333,59
19.84167,59
19.85000,58
19.85833,58
19.86667,58
19.87500,58
19.88333,57
19.89167,57
19.90000,57
19.90833,57
19.91667,57
19.92500,57
19.93333,56
19.94167,56
19.95000,56
19.95833,56
19.96667,56
19.97500,55
19.98333,55
19.99167,55
20.00000,54
20.00833,54
20.01667,54
20.02500,54
20.03333,54
20.04167,54
20.05000,54
20.05833,54
20.06667,54
20.07500,54
20.08333,54
20.09167,53
20.10000,53
20.10833,52
20.11667,52
20.12500,52
20.13333,51
20.14167,51
20.15000,51
20.15833,51
20.16667,51
20.17500,51
20.18333,50
20.19167,50
20.20000,50
20.20833,50
20.21667,50
20.22500,50
20.23333,50
20.24167,50
20.25000,50
20.25833,49
20.26667,49
20.27500,48
20.28333,48
20.29167,48
20.30000,48
20.30833,47
20.31667,47
20.32500,47
20.33333,47
20.34167,47
20.35000,46
20.35833,46
20.36667,46
20.37500,46
20.38333,46
20.39167,46
20.40000,45
20.40833,45
20.41667,45
20.42500,45
20.43333,45
20.44167,45
20.45000,44
20.45833,44
20.46667,44
20.47500,44
20.48333,44
20.49167,44
20.50000,43
20.50833,43
20.51667,43
20.52500,43
20.53333,43
20.54167,42
20.55000,42
20.55833,42
20.56667,42
20.57500,42
20.58333,42
20.59167,42
20.60000,42
20.60833,42
20.61667,42
20.62500,42
20.63333,42
20.64167,42
20.65000,41
20.65833,41
20.66667,41
20.67500,41
20.68333,41
20.69167,41
20.70000,41
20.70833,41
20.71667,40
20.72500,40
20.73333,40
20.74167,40
20.75000,40
20.75833,39
20.76667,39
20.77500,39
20.78333,39
20.79167,39
20.80000,39
20.80833,39
20.81667,39
20.82500,39
20.83333,39
20.84167,39
20.85000,39
20.85833,39
20.86667,39
20.87500,39
20.88333,39
20.89167,39
20.90000,39
20.90833,38
20.91667,38
20.92500,38
20.93333,37
20.94167,37
20.95000,37
20.95833,37
20.96667,37
20.97500,37
20.98333,36
20.99167,36
21.00000,36
21.00833,36
21.01667,36
21.02500,36
21.03333,36
21.04167,36
21.05000,36
21.05833,36
21.06667,35
21.07500,35
21.08333,35
21.09167,35
21.10000,35
21.10833,35
21.11667,35
21.12500,35
21.13333,35
21.14167,35
21.15000,35
21.15833,35
21.16667,36
21.17500,36
21.18333,36
21.19167,36
21.20000,36
21.20833,36
21.21667,36
21.22500,37
21.23333,37
21.24167,37
21.25000,37
21.25833,37
21.26667,38
21.27500,38
21.28333,38
21.29167,39
21.30000,40
21.30833,41
21.31667,42
21.32500,44
21.33333,45
21.34167,47
21.35000,48
21.35833,50
21.36667,53
21.37500,55
21.38333,58
21.39167,62
21.40000,65
21.40833,69
21.41667,73
21.42500,79
21.43333,84
21.44167,91
21.45000,99
21.45833,107
21.46667,117
21.47500,128
21.48333,141
21.49167,156
21.50000,173
21.50833,191
21.51667,212
21.52500,235
21.53333,262
21.54167,292
21.55000,327
21.55833,366
21.56667,410
21.57500,460
21.58333,517
21.59167,581
21.60000,652
21.60833,732
21.61667,822
21.62500,922
21.63333,1035
21.64167,1161
21.65000,1301
21.65833,1457
21.66667,1630
21.67500,1821
21.68333,2032
21.69167,2265
21.70000,2521
21.70833,2800
21.71667,3106
21.72500,3439
21.73333,3801
21.74167,4193
21.75000,4617
21.75833,5073
21.76667,5563
21.77500,6087
21.78333,6646
21.79167,7239
21.80000,7867
21.80833,8530
21.81667,9227
21.82500,9957
21.83333,10719
21.84167,11511
21.85000,12332
21.85833,13179
21.86667,14049
21.87500,14939
21.88333,15847
21.89167,16767
21.90000,17696
21.90833,18629
21.91667,19563
21.92500,20492
21.93333,21411
21.94167,22315
21.95000,23199
21.95833,24058
21.96667,24887
21.97500,25680
21.98333,26435
21.99167,27144
22.00000,27804
22.00833,28411
22.01667,28961
22.02500,29451
22.03333,29878
22.04167,30238
22.05000,30531
22.05833,30755
22.06667,30909
22.07500,30991
22.08333,31004
22.09167,30945
22.10000,30818
22.10833,30623
22.11667,30362
22.12500,30038
22.13333,29653
22.14167,29211
22.15000,28715
22.15833,28168
22.16667,27574
22.17500,26938
22.18333,26264
22.19167,25556
22.20000,24819
22.20833,24056
22.21667,23272
22.22500,22472
22.23333,21659
22.24167,20838
22.25000,20011
22.25833,19184
22.26667,18359
22.27500,17540
22.28333,16730
22.29167,15931
22.30000,15146
22.30833,14377
22.31667,13626
22.32500,12896
22.33333,12187
22.34167,11501
22.35000,10839
22.35833,10201
22.36667,9589
22.37500,9002
22.38333,8441
22.39167,7906
22.40000,7398
22.40833,6914
22.41667,6456
22.42500,6023
22.43333,5613
22.44167,5228
22.45000,4866
22.45833,4525
22.46667,4207
22.47500,3908
22.48333,3629
22.49167,3368
22.50000,3125
22.50833,2898
22.51667,2688
22.52500,2493
22.53333,2313
22.54167,2146
22.55000,1992
22.55833,1849
22.56667,1716
22.57500,1595
22.58333,1482
22.59167,1379
22.60000,1284
22.60833,1196
22.61667,1115
22.62500,1041
22.63333,974
22.64167,911
22.65000,853
22.65833,801
22.66667,752
22.67500,708
22.68333,668
22.69167,630
22.70000,596
22.70833,564
22.71667,535
22.72500,509
22.73333,485
22.74167,463
22.75000,442
22.75833,424
22.76667,406
22.77500,389
22.78333,374
22.79167,360
22.80000,348
22.80833,336
22.81667,325
22.82500,314
22.83333,305
22.84167,296
22.85000,288
22.85833,280
22.86667,273
22.87500,267
22.88333,260
22.89167,254
22.90000,249
22.90833,244
22.91667,240
22.92500,235
22.93333,231
22.94167,227
22.95000,223
22.95833,219
22.96667,216
22.97500,212
22.98333,209
22.99167,206
23.00000,203
23.00833,201
23.01667,198
23.02500,195
23.03333,193
23.04167,190
23.05000,188
23.05833,186
23.06667,184
23.07500,182
23.08333,180
23.09167,178
23.10000,176
23.10833,175
23.11667,173
23.12500,171
23.13333,170
23.14167,168
23.15000,167
23.15833,165
23.16667,163
23.17500,161
23.18333,160
23.19167,159
23.20000,157
23.20833,156
23.21667,155
23.22500,154
23.23333,153
23.24167,152
23.25000,151
23.25833,149
23.26667,149
23.27500,148
23.28333,147
23.29167,146
23.30000,145
23.30833,143
23.31667,142
23.32500,141
23.33333,139
23.34167,138
23.35000,137
23.35833,136
23.36667,135
23.37500,134
23.38333,133
23.39167,132
23.40000,131
23.40833,130
23.41667,129
23.42500,128
23.43333,128
23.44167,127
23.45000,126
23.45833,125
23.46667,124
23.47500,123
23.48333,123
23.49167,122
23.50000,121
23.50833,120
23.51667,120
23.52500,119
23.53333,118
23.54167,117
23.55000,117
23.55833,116
23.56667,115
23.57500,114
23.58333,114
23.59167,113
23.60000,112
23.60833,112
23.61667,111
23.62500,110
23.63333,110
23.64167,109
23.65000,109
23.65833,109
23.66667,108
23.67500,107
23.68333,106
23.69167,105
23.70000,105
23.70833,104
23.71667,104
23.72500,104
23.73333,103
23.74167,103
23.75000,102
23.75833,102
23.76667,101
23.77500,101
23.78333,101
23.79167,100
23.80000,100
23.80833,100
23.81667,99
23.82500,99
23.83333,98
23.84167,98
23.85000,98
23.85833,97
23.86667,97
23.87500,97
23.88333,97
23.89167,97
23.90000,97
23.90833,97
23.91667,97
23.92500,97
23.93333,97
23.94167,96
23.95000,96
23.95833,95
23.96667,94
23.97500,94
23.98333,94
23.99167,94
24.00000,93
24.00833,93
24.01667,93
24.02500,93
24.03333,93
24.04167,93
24.05000,93
24.05833,92
24.06667,92
24.07500,91
24.08333,91
24.09167,91
24.10000,91
24.10833,91
24.11667,90
24.12500,90
24.13333,90
24.14167,90
24.15000,89
24.15833,89
24.16667,89
24.17500,89
24.18333,89
24.19167,89
24.20000,89
24.20833,89
24.21667,88
24.22500,88
24.23333,88
24.24167,89
24.25000,89
24.25833,89
24.26667,89
24.27500,90
24.28333,90
24.29167,91
24.30000,91
24.30833,92
24.31667,93
24.32500,94
24.33333,95
24.34167,97
24.35000,99
24.35833,100
24.36667,102
24.37500,105
24.38333,108
24.39167,111
24.40000,114
24.40833,118
24.41667,122
24.42500,128
24.43333,133
24.44167,139
24.45000,146
24.45833,154
24.46667,163
24.47500,172
24.48333,183
24.49167,195
24.50000,209
24.50833,225
24.51667,242
24.52500,261
24.53333,283
24.54167,306
24.55000,332
24.55833,361
24.56667,393
24.57500,429
24.58333,468
24.59167,512
24.60000,559
24.60833,612
24.61667,670
24.62500,733
24.63333,803
24.64167,879
24.65000,961
24.65833,1051
24.66667,1149
24.67500,1254
24.68333,1368
24.69167,1492
24.70000,1625
24.70833,1767
24.71667,1920
24.72500,2083
24.73333,2257
24.74167,2442
24.75000,2638
24.75833,2846
24.76667,3064
24.77500,3294
24.78333,3535
24.79167,3787
24.80000,4050
24.80833,4322
24.81667,4605
24.82500,4896
24.83333,5195
24.84167,5502
24.85000,5816
24.85833,6136
24.86667,6461
24.87500,6789
24.88333,7119
24.89167,7450
24.90000,7781
24.90833,8110
24.91667,8436
24.92500,8757
24.93333,9072
24.94167,9379
24.95000,9676
24.95833,9963
24.96667,10238
24.97500,10498
24.98333,10743
24.99167,10972
25.00000,11183
25.00833,11376
25.01667,11549
25.02500,11702
25.03333,11833
25.04167,11942
25.05000,12030
25.05833,12094
25.06667,12136
25.07500,12154
25.08333,12150
25.09167,12124
25.10000,12075
25.10833,12005
25.11667,11913
25.12500,11800
25.13333,11667
25.14167,11515
25.15000,11346
25.15833,11159
25.16667,10957
25.17500,10739
25.18333,10508
25.19167,10264
25.20000,10010
25.20833,9746
25.21667,9473
25.22500,9194
25.23333,8908
25.24167,8618
25.25000,8325
25.25833,8029
25.26667,7732
25.27500,7434
25.28333,7138
25.29167,6843
25.30000,6551
25.30833,6262
25.31667,5978
25.32500,5700
25.33333,5426
25.34167,5160
25.35000,4899
25.35833,4647
25.36667,4402
25.37500,4165
25.38333,3936
25.39167,3716
25.40000,3504
25.40833,3300
25.41667,3106
25.42500,2919
25.43333,2742
25.44167,2573
25.45000,2412
25.45833,2260
25.46667,2116
25.47500,1980
25.48333,1851
25.49167,1730
25.50000,1616
25.50833,1508
25.51667,1407
25.52500,1313
25.53333,1224
25.54167,1142
25.55000,1065
25.55833,994
25.56667,927
25.57500,865
25.58333,808
25.59167,755
25.60000,705
25.60833,659
25.61667,617
25.62500,578
25.63333,542
25.64167,509
25.65000,478
25.65833,449
25.66667,423
25.67500,399
25.68333,377
25.69167,356
25.70000,337
25.70833,320
25.71667,305
25.72500,290
25.73333,277
25.74167,264
25.75000,253
25.75833,243
25.76667,233
25.77500,225
25.78333,216
25.79167,209
25.80000,202
25.80833,196
25.81667,191
25.82500,185
25.83333,180
25.84167,176
25.85000,171
25.85833,167
25.86667,163
25.87500,160
25.88333,156
25.89167,153
25.90000,150
25.90833,148
25.91667,145
25.92500,143
25.93333,141
25.94167,139
25.95000,137
25.95833,135
25.96667,133
25.97500,131
25.98333,130
25.99167,129
26.00000,127
26.00833,126
26.01667,125
26.02500,124
26.03333,122
26.04167,121
26.05000,120
26.05833,118
26.06667,117
26.07500,117
26.08333,116
26.09167,116
26.10000,115
26.10833,113
26.11667,112
26.12500,111
26.13333,110
26.14167,110
26.15000,109
26.15833,108
26.16667,107
26.17500,107
26.18333,106
26.19167,105
26.20000,105
26.20833,104
26.21667,104
26.22500,103
26.23333,102
26.24167,102
26.25000,102
26.25833,101
26.26667,100
26.27500,100
26.28333,99
26.29167,98
26.30000,98
26.30833,98
26.31667,98
26.32500,98
26.33333,97
26.34167,97
26.35000,96
26.35833,96
26.36667,96
26.37500,96
26.38333,95
26.39167,94
26.40000,94
26.40833,93
26.41667,93
26.42500,92
26.43333,92
26.44167,92
26.45000,92
26.45833,93
26.46667,93
26.47500,92
26.48333,92
26.49167,92
26.50000,92
26.50833,92
26.51667,92
26.52500,91
26.53333,91
26.54167,91
26.55000,91
26.55833,91
26.56667,91
26.57500,91
26.58333,90
26.59167,90
26.60000,90
26.60833,90
26.61667,90
26.62500,90
26.63333,90
26.64167,90
26.65000,91
26.65833,91
26.66667,91
26.67500,90
26.68333,90
26.69167,90
26.70000,90
26.70833,90
26.71667,90
26.72500,90
26.73333,90
26.74167,90
26.75000,90
26.75833,90
26.76667,89
26.77500,89
26.78333,89
26.79167,88
26.80000,88
26.80833,88
26.81667,88
26.82500,87
26.83333,87
26.84167,87
26.85000,87
26.85833,87
26.86667,87
26.87500,86
26.88333,86
26.89167,86
26.90000,85
26.90833,85
26.91667,84
26.92500,84
26.93333,84
26.94167,84
26.95000,83
26.95833,83
26.96667,83
26.97500,83
26.98333,83
26.99167,82
27.00000,82
27.00833,82
27.01667,81
27.02500,81
27.03333,81
27.04167,80
27.05000,79
27.05833,79
27.06667,79
27.07500,79
27.08333,79
27.09167,79
27.10000,79
27.10833,79
27.11667,79
27.12500,79
27.13333,78
27.14167,78
27.15000,77
27.15833,77
27.16667,77
27.17500,76
27.18333,76
27.19167,76
27.20000,76
27.20833,76
27.21667,76
27.22500,76
27.23333,76
27.24167,76
27.25000,75
27.25833,75
27.26667,75
27.27500,75
27.28333,75
27.29167,75
27.30000,75
27.30833,75
27.31667,75
27.32500,75
27.33333,75
27.34167,75
27.35000,74
27.35833,74
27.36667,74
27.37500,74
27.38333,74
27.39167,74
27.40000,74
27.40833,74
27.41667,73
27.42500,73
27.43333,74
27.44167,74
27.45000,73
27.45833,73
27.46667,73
27.47500,73
27.48333,73
27.49167,73
27.50000,73
27.50833,73
27.51667,72
27.52500,72
27.53333,72
27.54167,72
27.55000,72
27.55833,72
27.56667,72
27.57500,72
27.58333,72
27.59167,73
27.60000,73
27.60833,73
27.61667,72
27.62500,72
27.63333,72
27.64167,72
27.65000,72
27.65833,72
27.66667,71
27.67500,71
27.68333,70
27.69167,70
27.70000,70
27.70833,70
27.71667,70
27.72500,70
27.73333,70
27.74167,69
27.75000,69
27.75833,69
27.76667,68
27.77500,68
27.78333,68
27.79167,68
27.80000,67
27.80833,67
27.81667,66
27.82500,66
27.83333,65
27.84167,65
27.85000,65
27.85833,64
27.86667,63
27.87500,63
27.88333,62
27.89167,61
27.90000,60
27.90833,59
27.91667,58
27.92500,57
27.93333,56
27.94167,55
27.95000,53
27.95833,52
27.96667,50
27.97500,49
27.98333,47
27.99167,45
28.00000,44
28.00833,42
28.01667,41
28.02500,39
28.03333,37
28.04167,35
28.05000,32
28.05833,30
28.06667,28
28.07500,25
28.08333,23
28.09167,20
28.10000,18
28.10833,15
28.11667,12
28.12500,9
28.13333,6
28.14167,3
28.15000,-0
28.15833,-3
28.16667,-7
28.17500,-10
28.18333,-13
28.19167,-17
28.20000,-20
28.20833,-24
28.21667,-27
28.22500,-30
28.23333,-34
28.24167,-37
28.25000,-40
28.25833,-43
28.26667,-46
28.27500,-48
28.28333,-51
28.29167,-54
28.30000,-57
28.30833,-59
28.31667,-62
28.32500,-64
28.33333,-66
28.34167,-69
28.35000,-71
28.35833,-72
28.36667,-74
28.37500,-76
28.38333,-78
28.39167,-79
28.40000,-80
28.40833,-81
28.41667,-82
28.42500,-83
28.43333,-83
28.44167,-83
28.45000,-83
28.45833,-83
28.46667,-83
28.47500,-82
28.48333,-82
28.49167,-81
28.50000,-80
28.50833,-79
28.51667,-78
28.52500,-76
28.53333,-75
28.54167,-74
28.55000,-72
28.55833,-70
28.56667,-68
28.57500,-66
28.58333,-64
28.59167,-62
28.60000,-60
28.60833,-57
28.61667,-55
28.62500,-53
28.63333,-50
28.64167,-48
28.65000,-45
28.65833,-42
28.66667,-39
28.67500,-36
28.68333,-34
28.69167,-31
28.70000,-27
28.70833,-25
28.71667,-22
28.72500,-19
28.73333,-16
28.74167,-13
28.75000,-11
28.75833,-8
28.76667,-5
28.77500,-3
28.78333,-0
28.79167,2
28.80000,4
28.80833,6
28.81667,8
28.82500,10
28.83333,12
28.84167,14
28.85000,16
28.85833,18
28.86667,20
28.87500,21
28.88333,23
28.89167,25
28.90000,27
28.90833,28
28.91667,30
28.92500,31
28.93333,32
28.94167,33
28.95000,35
28.95833,36
28.96667,36
28.97500,37
28.98333,38
28.99167,39
29.00000,41
29.00833,42
29.01667,42
29.02500,44
29.03333,44
29.04167,45
29.05000,46
29.05833,47
29.06667,48
29.07500,48
29.08333,49
29.09167,50
29.10000,50
29.10833,50
29.11667,50
29.12500,50
29.13333,51
29.14167,52
29.15000,53
29.15833,53
29.16667,54
29.17500,54
29.18333,54
29.19167,54
29.20000,54
29.20833,54
29.21667,54
29.22500,55
29.23333,55
29.24167,55
29.25000,56
29.25833,56
29.26667,56
29.27500,56
29.28333,56
29.29167,56
29.30000,57
29.30833,57
29.31667,57
29.32500,57
29.33333,57
29.34167,57
29.35000,58
29.35833,58
29.36667,58
29.37500,58
29.38333,57
29.39167,57
29.40000,57
29.40833,57
29.41667,57
29.42500,57
29.43333,57
29.44167,57
29.45000,57
29.45833,57
29.46667,58
29.47500,58
29.48333,58
29.49167,58
29.50000,57
29.50833,57
29.51667,57
29.52500,57
29.53333,57
29.54167,57
29.55000,56
29.55833,56
29.56667,56
29.57500,56
29.58333,56
29.59167,56
29.60000,56
29.60833,55
29.61667,55
29.62500,54
29.63333,54
29.64167,53
29.65000,53
29.65833,52
29.66667,52
29.67500,51
29.68333,51
29.69167,50
29.70000,50
29.70833,50
29.71667,49
29.72500,48
29.73333,47
29.74167,46
29.75000,45
29.75833,44
29.76667,43
29.77500,43
29.78333,42
29.79167,41
29.80000,41
29.80833,40
29.81667,39
29.82500,38
29.83333,37
29.84167,36
29.85000,35
29.85833,34
29.86667,34
29.87500,33
29.88333,31
29.89167,30
29.90000,29
29.90833,28
29.91667,27
29.92500,26
29.93333,25
29.94167,24
29.95000,23
29.95833,22
29.96667,21
29.97500,21
29.98333,20
29.99167,18
30.00000,17
30.00833,16
30.01667,16
30.02500,15
30.03333,14
30.04167,12
30.05000,11
30.05833,10
30.06667,10
30.07500,9
30.08333,8
30.09167,8
30.10000,7
30.10833,6
30.11667,6
30.12500,5
30.13333,5
30.14167,4
30.15000,4
30.15833,3
30.16667,2
30.17500,2
30.18333,2
30.19167,2
30.20000,2
30.20833,2
30.21667,3
30.22500,3
30.23333,4
30.24167,4
30.25000,4
30.25833,5
30.26667,6
30.27500,6
30.28333,6
30.29167,7
30.30000,7
30.30833,8
30.31667,8
30.32500,8
30.33333,9
30.34167,10
30.35000,10
30.35833,11
30.36667,12
30.37500,13
30.38333,14
30.39167,15
30.40000,16
30.40833,17
30.41667,18
30.42500,19
30.43333,20
30.44167,21
30.45000,22
30.45833,24
30.46667,25
30.47500,25
30.48333,26
30.49167,27
30.50000,27
30.50833,28
30.51667,30
30.52500,31
30.53333,32
30.54167,32
30.55000,33
30.55833,34
30.56667,35
30.57500,36
30.58333,37
30.59167,38
30.60000,39
30.60833,39
30.61667,41
30.62500,41
30.63333,42
30.64167,42
30.65000,43
30.65833,43
30.66667,43
30.67500,43
30.68333,44
30.69167,45
30.70000,46
30.70833,46
30.71667,47
30.72500,48
30.73333,48
30.74167,49
30.75000,49
30.75833,49
30.76667,49
30.77500,49
30.78333,50
30.79167,50
30.80000,50
30.80833,50
30.81667,50
30.82500,50
30.83333,50
30.84167,50
30.85000,51
30.85833,51
30.86667,51
30.87500,51
30.88333,52
30.89167,52
30.90000,52
30.90833,53
30.91667,53
30.92500,53
30.93333,54
30.94167,54
30.95000,54
30.95833,54
30.96667,54
30.97500,53
30.98333,53
30.99167,54
31.00000,54
31.00833,54
31.01667,54
31.02500,54
31.03333,54
31.04167,54
31.05000,55
31.05833,55
31.06667,54
31.07500,54
31.08333,55
31.09167,55
31.10000,55
31.10833,55
31.11667,55
31.12500,55
31.13333,55
31.14167,55
31.15000,55
31.15833,55
31.16667,55
31.17500,55
31.18333,55
31.19167,55
31.20000,55
31.20833,55
31.21667,55
31.22500,56
31.23333,56
31.24167,55
31.25000,55
31.25833,55
31.26667,56
31.27500,56
31.28333,56
31.29167,56
31.30000,56
31.30833,56
31.31667,56
31.32500,56
31.33333,56
31.34167,57
31.35000,57
31.35833,57
31.36667,57
31.37500,57
31.38333,57
31.39167,57
31.40000,57
31.40833,57
31.41667,57
31.42500,57
31.43333,57
31.44167,57
31.45000,57
31.45833,57
31.46667,57
31.47500,58
31.48333,58
31.49167,58
31.50000,58
31.50833,59
31.51667,59
31.52500,59
31.53333,59
31.54167,59
31.55000,58
31.55833,58
31.56667,58
31.57500,58
31.58333,58
31.59167,59
31.60000,59
31.60833,59
31.61667,59
31.62500,59
31.63333,60
31.64167,60
31.65000,60
31.65833,59
31.66667,59
31.67500,59
31.68333,59
31.69167,59
31.70000,59
31.70833,60
31.71667,60
31.72500,60
31.73333,60
31.74167,60
31.75000,60
31.75833,60
31.76667,60
31.77500,60
31.78333,60
31.79167,60
31.80000,60
31.80833,60
31.81667,60
31.82500,59
31.83333,59
31.84167,59
31.85000,59
31.85833,59
31.86667,60
31.87500,60
31.88333,60
31.89167,59
31.90000,59
31.90833,59
31.91667,60
31.92500,60
31.93333,60
31.94167,60
31.95000,61
31.95833,61
31.96667,61
31.97500,61
31.98333,61
31.99167,61
32.00000,60
32.00833,60
32.01667,61
32.02500,61
32.03333,61
32.04167,61
32.05000,61
32.05833,62
32.06667,62
32.07500,61
32.08333,61
32.09167,60
32.10000,60
32.10833,61
32.11667,60
32.12500,60
32.13333,60
32.14167,60
32.15000,60
32.15833,60
32.16667,60
32.17500,61
32.18333,61
32.19167,61
32.20000,61
32.20833,61
32.21667,61
32.22500,61
32.23333,61
32.24167,61
32.25000,61
32.25833,61
32.26667,62
32.27500,62
32.28333,62
32.29167,62
32.30000,61
32.30833,62
32.31667,62
32.32500,62
32.33333,62
32.34167,62
32.35000,62
32.35833,62
32.36667,62
32.37500,62
32.38333,62
32.39167,62
32.40000,62
32.40833,62
32.41667,62
32.42500,62
32.43333,62
32.44167,62
32.45000,62
32.45833,62
32.46667,62
32.47500,62
32.48333,61
32.49167,62
32.50000,62
32.50833,62
32.51667,61
32.52500,61
32.53333,61
32.54167,62
32.55000,62
32.55833,62
32.56667,62
32.57500,62
32.58333,62
32.59167,62
32.60000,62
32.60833,62
32.61667,62
32.62500,62
32.63333,62
32.64167,62
32.65000,63
32.65833,63
32.66667,63
32.67500,63
32.68333,63
32.69167,63
32.70000,63
32.70833,63
32.71667,63
32.72500,63
32.73333,63
32.74167,63
32.75000,63
32.75833,63
32.76667,63
32.77500,63
32.78333,63
32.79167,63
32.80000,63
32.80833,63
32.81667,63
32.82500,63
32.83333,63
32.84167,63
32.85000,62
32.85833,62
32.86667,62
32.87500,63
32.88333,63
32.89167,63
32.90000,63
32.90833,63
32.91667,62
32.92500,62
32.93333,63
32.94167,63
32.95000,63
32.95833,63
32.96667,63
32.97500,63
32.98333,63
32.99167,63
33.00000,63
33.00833,63
33.01667,63
33.02500,64
33.03333,64
33.04167,64
33.05000,64
33.05833,64
33.06667,64
33.07500,64
33.08333,64
33.09167,64
33.10000,64
33.10833,64
33.11667,64
33.12500,64
33.13333,64
33.14167,64
33.15000,64
33.15833,64
33.16667,64
33.17500,65
33.18333,65
33.19167,65
33.20000,65
33.20833,66
33.21667,66
33.22500,65
33.23333,65
33.24167,65
33.25000,65
33.25833,64
33.26667,64
33.27500,64
33.28333,64
33.29167,64
33.30000,64
33.30833,64
33.31667,64
33.32500,64
33.33333,64
33.34167,64
33.35000,65
33.35833,65
33.36667,65
33.37500,65
33.38333,65
33.39167,65
33.40000,65
33.40833,65
33.41667,65
33.42500,65
33.43333,65
33.44167,65
33.45000,65
33.45833,65
33.46667,65
33.47500,65
33.48333,65
33.49167,65
33.50000,65
33.50833,65
33.51667,65
33.52500,65
33.53333,65
33.54167,65
33.55000,65
33.55833,65
33.56667,65
33.57500,65
33.58333,65
33.59167,64
33.60000,64
33.60833,64
33.61667,64
33.62500,65
33.63333,65
33.64167,65
33.65000,65
33.65833,66
33.66667,66
33.67500,66
33.68333,66
33.69167,66
33.70000,66
33.70833,67
33.71667,67
33.72500,67
33.73333,66
33.74167,66
33.75000,66
33.75833,66
33.76667,66
33.77500,66
33.78333,66
33.79167,66
33.80000,66
33.80833,66
33.81667,66
33.82500,66
33.83333,65
33.84167,66
33.85000,65
33.85833,65
33.86667,66
33.87500,66
33.88333,66
33.89167,66
33.90000,66
33.90833,67
33.91667,67
33.92500,66
33.93333,66
33.94167,66
33.95000,66
33.95833,66
33.96667,66
33.97500,67
33.98333,67
33.99167,67
34.00000,67
34.00833,67
34.01667,67
34.02500,66
34.03333,66
34.04167,67
34.05000,67
34.05833,67
34.06667,67
34.07500,67
34.08333,67
34.09167,67
34.10000,67
34.10833,67
34.11667,67
34.12500,67
34.13333,67
34.14167,67
34.15000,67
34.15833,67
34.16667,67
34.17500,67
34.18333,67
34.19167,67
34.20000,67
34.20833,67
34.21667,68
34.22500,68
34.23333,68
34.24167,68
34.25000,68
34.25833,68
34.26667,67
34.27500,67
34.28333,67
34.29167,67
34.30000,67
34.30833,67
34.31667,67
34.32500,67
34.33333,68
34.34167,68
34.35000,68
34.35833,67
34.36667,67
34.37500,67
34.38333,67
34.39167,67
34.40000,67
34.40833,67
34.41667,67
34.42500,67
34.43333,68
34.44167,68
34.45000,68
34.45833,68
34.46667,68
34.47500,68
34.48333,68
34.49167,68
34.50000,68
34.50833,68
34.51667,68
34.52500,68
34.53333,68
34.54167,68
34.55000,68
34.55833,68
34.56667,69
34.57500,69
34.58333,69
34.59167,69
34.60000,69
34.60833,69
34.61667,69
34.62500,69
34.63333,69
34.64167,69
34.65000,69
34.65833,69
34.66667,69
34.67500,69
34.68333,69
34.69167,69
34.70000,69
34.70833,69
34.71667,69
34.72500,69
34.73333,69
34.74167,70
34.75000,70
34.75833,70
34.76667,70
34.77500,70
34.78333,70
34.79167,69
34.80000,69
34.80833,69
34.81667,69
34.82500,69
34.83333,69
34.84167,69
34.85000,69
34.85833,70
34.86667,70
34.87500,70
34.88333,70
34.89167,70
34.90000,70
34.90833,71
34.91667,71
34.92500,71
34.93333,71
34.94167,70
34.95000,70
34.95833,70
34.96667,70
34.97500,70
34.98333,70
34.99167,70
35.00000,70
35.00833,70
35.01667,70
35.02500,70
35.03333,70
35.04167,70
35.05000,70
35.05833,70
35.06667,70
35.07500,71
35.08333,71
35.09167,71
35.10000,71
35.10833,71
35.11667,71
35.12500,71
35.13333,71
35.14167,71
35.15000,71
35.15833,70
35.16667,70
35.17500,70
35.18333,70
35.19167,70
35.20000,70
35.20833,70
35.21667,70
35.22500,70
35.23333,70
35.24167,70
35.25000,70
35.25833,70
35.26667,70
35.27500,70
35.28333,70
35.29167,70
35.30000,71
35.30833,70
35.31667,70
35.32500,70
35.33333,70
35.34167,70
35.35000,70
35.35833,70
35.36667,70
35.37500,71
35.38333,71
35.39167,71
35.40000,71
35.40833,71
35.41667,71
35.42500,71
35.43333,71
35.44167,71
35.45000,71
35.45833,70
35.46667,70
35.47500,70
35.48333,71
35.49167,71
35.50000,71
35.50833,72
35.51667,72
35.52500,72
35.53333,72
35.54167,72
35.55000,72
35.55833,72
35.56667,72
35.57500,72
35.58333,72
35.59167,72
35.60000,72
35.60833,72
35.61667,72
35.62500,72
35.63333,72
35.64167,72
35.65000,72
35.65833,72
35.66667,72
35.67500,72
35.68333,72
35.69167,72
35.70000,72
35.70833,72
35.71667,72
35.72500,73
35.73333,73
35.74167,73
35.75000,73
35.75833,73
35.76667,73
35.77500,73
35.78333,73
35.79167,73
35.80000,73
35.80833,73
35.81667,73
35.82500,73
35.83333,73
35.84167,73
35.85000,73
35.85833,73
35.86667,73
35.87500,73
35.88333,73
35.89167,73
35.90000,73
35.90833,74
35.91667,74
35.92500,74
35.93333,74
35.94167,74
35.95000,74
35.95833,74
35.96667,74
35.97500,74
35.98333,74
35.99167,73
36.00000,73
36.00833,73
36.01667,72
36.02500,72
36.03333,72
36.04167,73
36.05000,73
36.05833,73
36.06667,73
36.07500,73
36.08333,73
36.09167,73
36.10000,73
36.10833,73
36.11667,73
36.12500,74
36.13333,74
36.14167,74
36.15000,73
36.15833,73
36.16667,73
36.17500,73
36.18333,73
36.19167,73
36.20000,73
36.20833,73
36.21667,74
36.22500,74
36.23333,74
36.24167,74
36.25000,74
36.25833,74
36.26667,73
36.27500,73
36.28333,74
36.29167,74
36.30000,74
36.30833,73
36.31667,73
36.32500,73
36.33333,73
36.34167,73
36.35000,74
36.35833,74
36.36667,74
36.37500,74
36.38333,75
36.39167,75
36.40000,75
36.40833,74
36.41667,74
36.42500,74
36.43333,74
36.44167,74
36.45000,75
36.45833,75
36.46667,74
36.47500,74
36.48333,74
36.49167,75
36.50000,75
36.50833,76
36.51667,76
36.52500,76
36.53333,75
36.54167,75
36.55000,75
36.55833,75
36.56667,75
36.57500,75
36.58333,75
36.59167,75
36.60000,75
36.60833,76
36.61667,76
36.62500,76
36.63333,76
36.64167,76
36.65000,76
36.65833,76
36.66667,76
36.67500,76
36.68333,76
36.69167,76
36.70000,76
36.70833,76
36.71667,76
36.72500,76
36.73333,76
36.74167,76
36.75000,76
36.75833,76
36.76667,75
36.77500,75
36.78333,75
36.79167,75
36.80000,75
36.80833,76
36.81667,76
36.82500,76
36.83333,76
36.84167,76
36.85000,76
36.85833,76
36.86667,75
36.87500,75
36.88333,75
36.89167,75
36.90000,76
36.90833,76
36.91667,76
36.92500,76
36.93333,76
36.94167,76
36.95000,76
36.95833,76
36.96667,76
36.97500,76
36.98333,77
36.99167,76
37.00000,76
37.00833,76
37.01667,76
37.02500,76
37.03333,76
37.04167,76
37.05000,77
37.05833,77
37.06667,77
37.07500,77
37.08333,77
37.09167,78
37.10000,78
37.10833,78
37.11667,78
37.12500,78
37.13333,78
37.14167,78
37.15000,77
37.15833,77
37.16667,77
37.17500,77
37.18333,77
37.19167,77
37.20000,77
37.20833,77
37.21667,77
37.22500,76
37.23333,77
37.24167,77
37.25000,77
37.25833,77
37.26667,77
37.27500,76
37.28333,76
37.29167,76
37.30000,77
37.30833,77
37.31667,77
37.32500,77
37.33333,77
37.34167,77
37.35000,77
37.35833,77
37.36667,77
37.37500,77
37.38333,77
37.39167,77
37.40000,76
37.40833,76
37.41667,76
37.42500,76
37.43333,76
37.44167,77
37.45000,77
37.45833,77
37.46667,76
37.47500,76
37.48333,77
37.49167,77
37.50000,76
37.50833,76
37.51667,76
37.52500,76
37.53333,76
37.54167,76
37.55000,77
37.55833,76
37.56667,76
37.57500,76
37.58333,76
37.59167,76
37.60000,76
37.60833,76
37.61667,76
37.62500,77
37.63333,77
37.64167,77
37.65000,78
37.65833,78
37.66667,78
37.67500,78
37.68333,78
37.69167,78
37.70000,78
37.70833,78
37.71667,78
37.72500,78
37.73333,78
37.74167,78
37.75000,77
37.75833,78
37.76667,77
37.77500,77
37.78333,77
37.79167,77
37.80000,78
37.80833,78
37.81667,78
37.82500,78
37.83333,78
37.84167,79
37.85000,79
37.85833,79
37.86667,79
37.87500,78
37.88333,78
37.89167,78
37.90000,78
37.90833,77
37.91667,78
37.92500,78
37.93333,79
37.94167,79
37.95000,79
37.95833,79
37.96667,79
37.97500,79
37.98333,79
37.99167,79
38.00000,79
38.00833,79
38.01667,79
38.02500,79
38.03333,79
38.04167,79
38.05000,80
38.05833,80
38.06667,80
38.07500,79
38.08333,79
38.09167,79
38.10000,79
38.10833,79
38.11667,79
38.12500,79
38.13333,79
38.14167,80
38.15000,80
38.15833,80
38.16667,80
38.17500,80
38.18333,80
38.19167,80
38.20000,80
38.20833,80
38.21667,80
38.22500,80
38.23333,81
38.24167,81
38.25000,81
38.25833,81
38.26667,81
38.27500,81
38.28333,81
38.29167,81
38.30000,80
38.30833,80
38.31667,80
38.32500,80
38.33333,80
38.34167,80
38.35000,81
38.35833,81
38.36667,81
38.37500,81
38.38333,81
38.39167,81
38.40000,81
38.40833,81
38.41667,81
38.42500,81
38.43333,81
38.44167,81
38.45000,81
38.45833,81
38.46667,81
38.47500,81
38.48333,81
38.49167,81
38.50000,81
38.50833,81
38.51667,81
38.52500,81
38.53333,81
38.54167,81
38.55000,81
38.55833,81
38.56667,81
38.57500,81
38.58333,81
38.59167,81
38.60000,81
38.60833,81
38.61667,82
38.62500,81
38.63333,81
38.64167,81
38.65000,81
38.65833,81
38.66667,81
38.67500,81
38.68333,81
38.69167,81
38.70000,81
38.70833,81
38.71667,81
38.72500,81
38.73333,81
38.74167,81
38.75000,81
38.75833,81
38.76667,81
38.77500,81
38.78333,82
38.79167,81
38.80000,81
38.80833,82
38.81667,81
38.82500,81
38.83333,81
38.84167,81
38.85000,82
38.85833,82
38.86667,82
38.87500,82
38.88333,82
38.89167,82
38.90000,82
38.90833,82
38.91667,82
38.92500,82
38.93333,82
38.94167,82
38.95000,82
38.95833,82
38.96667,82
38.97500,82
38.98333,82
38.99167,82
39.00000,82
39.00833,82
39.01667,82
39.02500,83
39.03333,83
39.04167,83
39.05000,83
39.05833,83
39.06667,83
39.07500,83
39.08333,82
39.09167,82
39.10000,82
39.10833,82
39.11667,82
39.12500,82
39.13333,82
39.14167,82
39.15000,83
39.15833,82
39.16667,82
39.17500,82
39.18333,82
39.19167,82
39.20000,82
39.20833,82
39.21667,82
39.22500,82
39.23333,82
39.24167,82
39.25000,83
39.25833,83
39.26667,83
39.27500,83
39.28333,83
39.29167,84
39.30000,84
39.30833,84
39.31667,84
39.32500,84
39.33333,84
39.34167,84
39.35000,84
39.35833,83
39.36667,83
39.37500,83
39.38333,83
39.39167,83
39.40000,83
39.40833,84
39.41667,83
39.42500,83
39.43333,83
39.44167,84
39.45000,84
39.45833,84
39.46667,84
39.47500,84
39.48333,84
39.49167,84
39.50000,83
39.50833,83
39.51667,83
39.52500,83
39.53333,83
39.54167,83
39.55000,83
39.55833,83
39.56667,83
39.57500,83
39.58333,84
39.59167,84
39.60000,84
39.60833,84
39.61667,84
39.62500,84
39.63333,84
39.64167,83
39.65000,83
39.65833,83
39.66667,83
39.67500,83
39.68333,84
39.69167,84
39.70000,84
39.70833,84
39.71667,84
39.72500,85
39.73333,85
39.74167,85
39.75000,84
39.75833,84
39.76667,84
39.77500,84
39.78333,84
39.79167,84
39.80000,84
39.80833,85
39.81667,85
39.82500,85
39.83333,85
39.84167,84
39.85000,84
39.85833,84
39.86667,85
39.87500,85
39.88333,85
39.89167,86
39.90000,86
39.90833,86
39.91667,86
39.92500,85
39.93333,85
39.94167,85
39.95000,85
39.95833,85
39.96667,85
39.97500,85
39.98333,85
39.99167,86
40.00000,85

