[Header]
Application Name,LabSolutions
Version,5.97 SP1
Data File Name,C:\Users\cremerlab\Desktop\griffin\2021-04-03_buffer_calibration\2021-04-03_buffer_calibration_432021_008_008.lcd
Output Date,4/3/2021
Output Time,7:25:17 PM

[File Information]
Type,Data File
Generated,4/3/2021 6:44:56 PM
Generated by,System Administrator
Modified,4/3/2021 7:25:17 PM
Modified by,System Administrator

[Sample Information]
Operator Name,System Administrator
Acquired,4/3/2021 6:45:16 PM
Sample Type,1:Standard
Level,8
Sample Name,2021-04-02_NC_glucose_glycerol_acetate_calibration_02mM
Sample ID,008
ISTD Amount1,1
ISTD Amount2,1
ISTD Amount3,1
ISTD Amount4,1
ISTD Amount5,1
ISTD Amount6,1
ISTD Amount7,1
ISTD Amount8,1
ISTD Amount9,1
ISTD Amount10,1
ISTD Amount11,1
ISTD Amount12,1
ISTD Amount13,1
ISTD Amount14,1
ISTD Amount15,1
ISTD Amount16,1
ISTD Amount17,1
ISTD Amount18,1
ISTD Amount19,1
ISTD Amount20,1
ISTD Amount21,1
ISTD Amount22,1
ISTD Amount23,1
ISTD Amount24,1
ISTD Amount25,1
ISTD Amount26,1
ISTD Amount27,1
ISTD Amount28,1
ISTD Amount29,1
ISTD Amount30,1
ISTD Amount31,1
ISTD Amount32,1
Sample Amount,1
Dilution Factor,1
Vial#,8
Injection Volume,20

[Original Files]
Data File,C:\Users\cremerlab\Desktop\griffin\2021-04-03_buffer_calibration\2021-04-03_buffer_calibration_432021_008_008.lcd
Method File,C:\LabSolutions\Data\Project1\organicacidsetc2.lcm
Batch File,C:\Users\cremerlab\Desktop\griffin\2021-04-03_buffer_calibration\2021-04-03_buffer_calibration.lcb
Report Format File,c:\LabSolutions\System\DEFAULT.lsr

[File Description]


[Configuration]
Instrument Name,HPLC-PC-Instrument1
Instrument #,1
Line #,1
# of Detectors,2
Detector ID,Detector A,Detector B
Detector Name,Detector A,Detector B
# of Channels,1,1

[Peak Table(Detector A)]
# of Peaks,0

[Peak Table(Detector B)]
# of Peaks,5
Peak#,R.Time,I.Time,F.Time,Area,Height,A/H,Conc.,Mark,ID#,Name,k',Plate #,Plate Ht.,Tailing,Resolution,Sep.Factor,Area Ratio,Height Ratio,Conc. %,Norm Conc.
1,11.066,10.758,12.925,1249677,69047,18.099,26.745,   ,,,0.000,10681,14.044,1.332,0.000,0.000,0,0,0.000,0.000
2,15.111,14.117,15.483,3119352,117131,26.631,66.760,   ,,,0.366,7100,21.128,0.000,7.062,0.000,0,0,0.000,0.000
3,15.640,15.483,18.200,224712,9141,24.582,4.809, V ,,,0.413,3325,45.112,0.000,0.587,1.131,0,0,0.000,0.000
4,22.077,21.492,22.867,55337,2070,26.739,1.184,   ,,,0.995,15477,9.692,1.089,7.173,2.407,0,0,0.000,0.000
5,25.078,24.508,25.808,23428,813,28.818,0.501,   ,,,1.266,16973,8.837,1.061,4.056,1.273,0,0,0.000,0.000

[LC Chromatogram(Detector B-Ch1)]
Interval(msec),500
# of Points,4801
Start Time(min),0.000
End Time(min),40.000
Intensity Units,mV
Intensity Multiplier,0.001
R.Time (min),Intensity
0.00000,1
0.00833,1
0.01667,-0
0.02500,-0
0.03333,-1
0.04167,-1
0.05000,-2
0.05833,-2
0.06667,-1
0.07500,-1
0.08333,-1
0.09167,-1
0.10000,-2
0.10833,-2
0.11667,-2
0.12500,-2
0.13333,-2
0.14167,-1
0.15000,-1
0.15833,-1
0.16667,-1
0.17500,-1
0.18333,-1
0.19167,-1
0.20000,-2
0.20833,-2
0.21667,-2
0.22500,-1
0.23333,-1
0.24167,-1
0.25000,-1
0.25833,-1
0.26667,-2
0.27500,-2
0.28333,-2
0.29167,-2
0.30000,-1
0.30833,-1
0.31667,-1
0.32500,-1
0.33333,-1
0.34167,-1
0.35000,-1
0.35833,-1
0.36667,-1
0.37500,-1
0.38333,-1
0.39167,-1
0.40000,-1
0.40833,-1
0.41667,-1
0.42500,-1
0.43333,-1
0.44167,-1
0.45000,-1
0.45833,-1
0.46667,-1
0.47500,-1
0.48333,-1
0.49167,-1
0.50000,-1
0.50833,-0
0.51667,-0
0.52500,-0
0.53333,-1
0.54167,-0
0.55000,-0
0.55833,0
0.56667,0
0.57500,0
0.58333,0
0.59167,0
0.60000,-0
0.60833,-1
0.61667,-1
0.62500,-1
0.63333,-1
0.64167,-2
0.65000,-2
0.65833,-1
0.66667,-1
0.67500,-1
0.68333,-1
0.69167,-1
0.70000,-1
0.70833,-1
0.71667,-2
0.72500,-2
0.73333,-2
0.74167,-2
0.75000,-1
0.75833,-1
0.76667,-2
0.77500,-2
0.78333,-2
0.79167,-2
0.80000,-2
0.80833,-2
0.81667,-2
0.82500,-2
0.83333,-2
0.84167,-2
0.85000,-2
0.85833,-1
0.86667,-1
0.87500,-1
0.88333,-1
0.89167,-1
0.90000,-1
0.90833,-2
0.91667,-2
0.92500,-1
0.93333,-1
0.94167,-0
0.95000,-0
0.95833,-0
0.96667,-0
0.97500,-0
0.98333,-1
0.99167,-1
1.00000,-1
1.00833,-1
1.01667,-0
1.02500,-1
1.03333,-1
1.04167,-1
1.05000,-1
1.05833,-1
1.06667,-1
1.07500,-1
1.08333,-1
1.09167,-1
1.10000,-0
1.10833,-0
1.11667,-0
1.12500,-0
1.13333,-1
1.14167,-1
1.15000,-1
1.15833,-1
1.16667,-1
1.17500,-1
1.18333,-1
1.19167,-1
1.20000,-1
1.20833,-0
1.21667,-0
1.22500,-1
1.23333,-1
1.24167,-1
1.25000,-1
1.25833,-1
1.26667,-1
1.27500,-1
1.28333,-1
1.29167,-0
1.30000,-1
1.30833,-1
1.31667,-1
1.32500,-2
1.33333,-2
1.34167,-2
1.35000,-1
1.35833,-1
1.36667,-1
1.37500,-1
1.38333,-1
1.39167,-1
1.40000,-1
1.40833,-1
1.41667,-1
1.42500,-1
1.43333,-1
1.44167,-0
1.45000,-0
1.45833,-1
1.46667,-1
1.47500,-1
1.48333,-1
1.49167,-1
1.50000,-1
1.50833,-1
1.51667,-1
1.52500,-1
1.53333,-1
1.54167,-1
1.55000,-1
1.55833,-1
1.56667,-1
1.57500,-1
1.58333,-1
1.59167,-2
1.60000,-2
1.60833,-2
1.61667,-2
1.62500,-2
1.63333,-2
1.64167,-2
1.65000,-2
1.65833,-2
1.66667,-2
1.67500,-2
1.68333,-1
1.69167,-1
1.70000,-1
1.70833,-1
1.71667,-1
1.72500,-2
1.73333,-2
1.74167,-2
1.75000,-2
1.75833,-2
1.76667,-2
1.77500,-2
1.78333,-2
1.79167,-2
1.80000,-2
1.80833,-2
1.81667,-1
1.82500,-1
1.83333,-1
1.84167,-1
1.85000,-1
1.85833,-1
1.86667,-1
1.87500,-1
1.88333,-1
1.89167,-2
1.90000,-2
1.90833,-1
1.91667,-1
1.92500,-1
1.93333,-1
1.94167,-1
1.95000,-1
1.95833,-1
1.96667,-1
1.97500,-2
1.98333,-2
1.99167,-1
2.00000,-2
2.00833,-2
2.01667,-1
2.02500,-1
2.03333,-1
2.04167,-1
2.05000,-1
2.05833,-1
2.06667,-1
2.07500,-2
2.08333,-1
2.09167,-1
2.10000,-1
2.10833,-2
2.11667,-2
2.12500,-2
2.13333,-2
2.14167,-2
2.15000,-2
2.15833,-2
2.16667,-2
2.17500,-2
2.18333,-2
2.19167,-2
2.20000,-2
2.20833,-1
2.21667,-1
2.22500,-1
2.23333,-1
2.24167,-0
2.25000,-0
2.25833,-0
2.26667,-1
2.27500,-1
2.28333,-1
2.29167,-1
2.30000,-1
2.30833,-1
2.31667,-1
2.32500,-1
2.33333,-1
2.34167,-2
2.35000,-2
2.35833,-2
2.36667,-2
2.37500,-2
2.38333,-2
2.39167,-2
2.40000,-2
2.40833,-2
2.41667,-2
2.42500,-2
2.43333,-2
2.44167,-2
2.45000,-2
2.45833,-3
2.46667,-3
2.47500,-3
2.48333,-3
2.49167,-3
2.50000,-3
2.50833,-3
2.51667,-3
2.52500,-3
2.53333,-3
2.54167,-2
2.55000,-2
2.55833,-2
2.56667,-2
2.57500,-2
2.58333,-2
2.59167,-2
2.60000,-2
2.60833,-2
2.61667,-2
2.62500,-3
2.63333,-3
2.64167,-2
2.65000,-2
2.65833,-2
2.66667,-3
2.67500,-3
2.68333,-3
2.69167,-3
2.70000,-3
2.70833,-3
2.71667,-3
2.72500,-3
2.73333,-3
2.74167,-2
2.75000,-2
2.75833,-2
2.76667,-2
2.77500,-2
2.78333,-2
2.79167,-2
2.80000,-3
2.80833,-3
2.81667,-3
2.82500,-3
2.83333,-3
2.84167,-3
2.85000,-3
2.85833,-3
2.86667,-3
2.87500,-3
2.88333,-3
2.89167,-3
2.90000,-3
2.90833,-3
2.91667,-3
2.92500,-3
2.93333,-3
2.94167,-3
2.95000,-3
2.95833,-3
2.96667,-3
2.97500,-3
2.98333,-3
2.99167,-3
3.00000,-3
3.00833,-3
3.01667,-3
3.02500,-3
3.03333,-3
3.04167,-3
3.05000,-3
3.05833,-3
3.06667,-3
3.07500,-3
3.08333,-3
3.09167,-3
3.10000,-3
3.10833,-3
3.11667,-3
3.12500,-3
3.13333,-3
3.14167,-3
3.15000,-3
3.15833,-3
3.16667,-3
3.17500,-4
3.18333,-4
3.19167,-4
3.20000,-4
3.20833,-3
3.21667,-4
3.22500,-4
3.23333,-4
3.24167,-3
3.25000,-3
3.25833,-3
3.26667,-2
3.27500,-2
3.28333,-2
3.29167,-2
3.30000,-2
3.30833,-2
3.31667,-2
3.32500,-1
3.33333,-1
3.34167,-1
3.35000,-2
3.35833,-2
3.36667,-2
3.37500,-2
3.38333,-2
3.39167,-2
3.40000,-2
3.40833,-3
3.41667,-3
3.42500,-3
3.43333,-3
3.44167,-3
3.45000,-3
3.45833,-3
3.46667,-3
3.47500,-3
3.48333,-3
3.49167,-3
3.50000,-3
3.50833,-3
3.51667,-3
3.52500,-3
3.53333,-3
3.54167,-2
3.55000,-2
3.55833,-2
3.56667,-2
3.57500,-2
3.58333,-3
3.59167,-3
3.60000,-4
3.60833,-4
3.61667,-4
3.62500,-4
3.63333,-3
3.64167,-3
3.65000,-3
3.65833,-3
3.66667,-3
3.67500,-3
3.68333,-3
3.69167,-3
3.70000,-3
3.70833,-3
3.71667,-3
3.72500,-3
3.73333,-3
3.74167,-3
3.75000,-4
3.75833,-4
3.76667,-4
3.77500,-4
3.78333,-3
3.79167,-3
3.80000,-4
3.80833,-4
3.81667,-4
3.82500,-5
3.83333,-5
3.84167,-5
3.85000,-4
3.85833,-4
3.86667,-4
3.87500,-4
3.88333,-4
3.89167,-4
3.90000,-4
3.90833,-4
3.91667,-4
3.92500,-4
3.93333,-4
3.94167,-4
3.95000,-4
3.95833,-4
3.96667,-4
3.97500,-4
3.98333,-5
3.99167,-5
4.00000,-4
4.00833,-4
4.01667,-4
4.02500,-5
4.03333,-5
4.04167,-5
4.05000,-4
4.05833,-4
4.06667,-4
4.07500,-3
4.08333,-3
4.09167,-3
4.10000,-3
4.10833,-3
4.11667,-3
4.12500,-4
4.13333,-4
4.14167,-4
4.15000,-4
4.15833,-4
4.16667,-3
4.17500,-3
4.18333,-2
4.19167,-3
4.20000,-3
4.20833,-3
4.21667,-3
4.22500,-3
4.23333,-4
4.24167,-4
4.25000,-4
4.25833,-4
4.26667,-4
4.27500,-4
4.28333,-4
4.29167,-4
4.30000,-4
4.30833,-3
4.31667,-4
4.32500,-4
4.33333,-4
4.34167,-4
4.35000,-4
4.35833,-4
4.36667,-4
4.37500,-3
4.38333,-3
4.39167,-3
4.40000,-4
4.40833,-4
4.41667,-4
4.42500,-3
4.43333,-3
4.44167,-3
4.45000,-4
4.45833,-4
4.46667,-4
4.47500,-4
4.48333,-5
4.49167,-5
4.50000,-5
4.50833,-5
4.51667,-4
4.52500,-4
4.53333,-4
4.54167,-4
4.55000,-4
4.55833,-4
4.56667,-4
4.57500,-4
4.58333,-4
4.59167,-3
4.60000,-3
4.60833,-3
4.61667,-4
4.62500,-4
4.63333,-4
4.64167,-4
4.65000,-4
4.65833,-4
4.66667,-4
4.67500,-4
4.68333,-4
4.69167,-3
4.70000,-3
4.70833,-4
4.71667,-4
4.72500,-4
4.73333,-4
4.74167,-5
4.75000,-5
4.75833,-5
4.76667,-5
4.77500,-5
4.78333,-5
4.79167,-4
4.80000,-4
4.80833,-4
4.81667,-4
4.82500,-4
4.83333,-4
4.84167,-4
4.85000,-4
4.85833,-4
4.86667,-4
4.87500,-4
4.88333,-4
4.89167,-4
4.90000,-4
4.90833,-4
4.91667,-4
4.92500,-4
4.93333,-4
4.94167,-4
4.95000,-4
4.95833,-4
4.96667,-4
4.97500,-4
4.98333,-4
4.99167,-4
5.00000,-4
5.00833,-3
5.01667,-3
5.02500,-3
5.03333,-4
5.04167,-4
5.05000,-4
5.05833,-4
5.06667,-4
5.07500,-4
5.08333,-4
5.09167,-4
5.10000,-4
5.10833,-4
5.11667,-4
5.12500,-4
5.13333,-4
5.14167,-4
5.15000,-4
5.15833,-4
5.16667,-4
5.17500,-4
5.18333,-5
5.19167,-5
5.20000,-5
5.20833,-5
5.21667,-5
5.22500,-4
5.23333,-4
5.24167,-4
5.25000,-4
5.25833,-4
5.26667,-4
5.27500,-4
5.28333,-4
5.29167,-4
5.30000,-4
5.30833,-4
5.31667,-5
5.32500,-5
5.33333,-5
5.34167,-5
5.35000,-6
5.35833,-6
5.36667,-6
5.37500,-6
5.38333,-5
5.39167,-5
5.40000,-5
5.40833,-5
5.41667,-5
5.42500,-5
5.43333,-6
5.44167,-6
5.45000,-5
5.45833,-5
5.46667,-5
5.47500,-5
5.48333,-5
5.49167,-4
5.50000,-4
5.50833,-4
5.51667,-4
5.52500,-4
5.53333,-4
5.54167,-5
5.55000,-5
5.55833,-5
5.56667,-5
5.57500,-5
5.58333,-5
5.59167,-5
5.60000,-5
5.60833,-5
5.61667,-6
5.62500,-6
5.63333,-6
5.64167,-6
5.65000,-6
5.65833,-5
5.66667,-5
5.67500,-5
5.68333,-5
5.69167,-6
5.70000,-6
5.70833,-5
5.71667,-5
5.72500,-5
5.73333,-6
5.74167,-6
5.75000,-6
5.75833,-6
5.76667,-6
5.77500,-6
5.78333,-6
5.79167,-7
5.80000,-7
5.80833,-7
5.81667,-7
5.82500,-7
5.83333,-6
5.84167,-6
5.85000,-6
5.85833,-6
5.86667,-6
5.87500,-6
5.88333,-6
5.89167,-5
5.90000,-6
5.90833,-6
5.91667,-6
5.92500,-7
5.93333,-7
5.94167,-7
5.95000,-7
5.95833,-7
5.96667,-6
5.97500,-6
5.98333,-7
5.99167,-7
6.00000,-7
6.00833,-7
6.01667,-7
6.02500,-7
6.03333,-6
6.04167,-6
6.05000,-5
6.05833,-5
6.06667,-5
6.07500,-5
6.08333,-5
6.09167,-5
6.10000,-6
6.10833,-6
6.11667,-6
6.12500,-6
6.13333,-6
6.14167,-5
6.15000,-5
6.15833,-5
6.16667,-5
6.17500,-5
6.18333,-6
6.19167,-6
6.20000,-5
6.20833,-5
6.21667,-5
6.22500,-5
6.23333,-5
6.24167,-5
6.25000,-5
6.25833,-5
6.26667,-5
6.27500,-6
6.28333,-6
6.29167,-6
6.30000,-6
6.30833,-5
6.31667,-5
6.32500,-5
6.33333,-5
6.34167,-5
6.35000,-6
6.35833,-6
6.36667,-6
6.37500,-6
6.38333,-6
6.39167,-6
6.40000,-6
6.40833,-6
6.41667,-6
6.42500,-6
6.43333,-6
6.44167,-6
6.45000,-6
6.45833,-6
6.46667,-6
6.47500,-6
6.48333,-6
6.49167,-6
6.50000,-6
6.50833,-6
6.51667,-6
6.52500,-6
6.53333,-5
6.54167,-5
6.55000,-5
6.55833,-5
6.56667,-5
6.57500,-5
6.58333,-5
6.59167,-5
6.60000,-5
6.60833,-5
6.61667,-6
6.62500,-6
6.63333,-6
6.64167,-6
6.65000,-5
6.65833,-5
6.66667,-5
6.67500,-5
6.68333,-5
6.69167,-5
6.70000,-5
6.70833,-5
6.71667,-5
6.72500,-5
6.73333,-6
6.74167,-6
6.75000,-6
6.75833,-6
6.76667,-6
6.77500,-5
6.78333,-5
6.79167,-5
6.80000,-5
6.80833,-5
6.81667,-5
6.82500,-5
6.83333,-6
6.84167,-6
6.85000,-6
6.85833,-6
6.86667,-6
6.87500,-6
6.88333,-6
6.89167,-6
6.90000,-6
6.90833,-6
6.91667,-6
6.92500,-6
6.93333,-6
6.94167,-6
6.95000,-6
6.95833,-6
6.96667,-6
6.97500,-6
6.98333,-6
6.99167,-6
7.00000,-6
7.00833,-6
7.01667,-6
7.02500,-6
7.03333,-6
7.04167,-6
7.05000,-6
7.05833,-6
7.06667,-6
7.07500,-6
7.08333,-7
7.09167,-7
7.10000,-7
7.10833,-7
7.11667,-6
7.12500,-6
7.13333,-6
7.14167,-6
7.15000,-6
7.15833,-6
7.16667,-6
7.17500,-6
7.18333,-6
7.19167,-6
7.20000,-6
7.20833,-6
7.21667,-6
7.22500,-6
7.23333,-6
7.24167,-6
7.25000,-6
7.25833,-6
7.26667,-6
7.27500,-6
7.28333,-6
7.29167,-6
7.30000,-6
7.30833,-6
7.31667,-6
7.32500,-6
7.33333,-6
7.34167,-5
7.35000,-5
7.35833,-5
7.36667,-5
7.37500,-5
7.38333,-5
7.39167,-5
7.40000,-6
7.40833,-6
7.41667,-6
7.42500,-6
7.43333,-6
7.44167,-6
7.45000,-6
7.45833,-6
7.46667,-6
7.47500,-5
7.48333,-5
7.49167,-5
7.50000,-5
7.50833,-5
7.51667,-5
7.52500,-5
7.53333,-5
7.54167,-5
7.55000,-5
7.55833,-6
7.56667,-6
7.57500,-6
7.58333,-6
7.59167,-6
7.60000,-6
7.60833,-6
7.61667,-5
7.62500,-5
7.63333,-6
7.64167,-6
7.65000,-6
7.65833,-6
7.66667,-6
7.67500,-6
7.68333,-6
7.69167,-6
7.70000,-6
7.70833,-6
7.71667,-6
7.72500,-6
7.73333,-6
7.74167,-5
7.75000,-6
7.75833,-6
7.76667,-6
7.77500,-6
7.78333,-6
7.79167,-6
7.80000,-6
7.80833,-6
7.81667,-6
7.82500,-5
7.83333,-6
7.84167,-6
7.85000,-6
7.85833,-6
7.86667,-5
7.87500,-6
7.88333,-6
7.89167,-6
7.90000,-6
7.90833,-5
7.91667,-5
7.92500,-5
7.93333,-6
7.94167,-6
7.95000,-6
7.95833,-7
7.96667,-7
7.97500,-7
7.98333,-7
7.99167,-7
8.00000,-7
8.00833,-7
8.01667,-7
8.02500,-7
8.03333,-7
8.04167,-7
8.05000,-7
8.05833,-7
8.06667,-7
8.07500,-6
8.08333,-6
8.09167,-5
8.10000,-5
8.10833,-5
8.11667,-5
8.12500,-6
8.13333,-6
8.14167,-6
8.15000,-6
8.15833,-6
8.16667,-6
8.17500,-6
8.18333,-6
8.19167,-6
8.20000,-6
8.20833,-6
8.21667,-6
8.22500,-6
8.23333,-6
8.24167,-6
8.25000,-6
8.25833,-6
8.26667,-6
8.27500,-6
8.28333,-6
8.29167,-6
8.30000,-5
8.30833,-5
8.31667,-5
8.32500,-6
8.33333,-6
8.34167,-6
8.35000,-6
8.35833,-6
8.36667,-6
8.37500,-6
8.38333,-6
8.39167,-5
8.40000,-5
8.40833,-5
8.41667,-5
8.42500,-5
8.43333,-6
8.44167,-6
8.45000,-6
8.45833,-6
8.46667,-6
8.47500,-6
8.48333,-6
8.49167,-7
8.50000,-6
8.50833,-6
8.51667,-6
8.52500,-6
8.53333,-6
8.54167,-6
8.55000,-6
8.55833,-6
8.56667,-6
8.57500,-6
8.58333,-7
8.59167,-6
8.60000,-6
8.60833,-6
8.61667,-6
8.62500,-6
8.63333,-6
8.64167,-6
8.65000,-6
8.65833,-7
8.66667,-7
8.67500,-7
8.68333,-7
8.69167,-7
8.70000,-7
8.70833,-7
8.71667,-7
8.72500,-7
8.73333,-7
8.74167,-7
8.75000,-7
8.75833,-7
8.76667,-7
8.77500,-7
8.78333,-7
8.79167,-7
8.80000,-6
8.80833,-6
8.81667,-6
8.82500,-6
8.83333,-6
8.84167,-6
8.85000,-6
8.85833,-6
8.86667,-6
8.87500,-6
8.88333,-6
8.89167,-7
8.90000,-7
8.90833,-7
8.91667,-7
8.92500,-7
8.93333,-8
8.94167,-8
8.95000,-7
8.95833,-7
8.96667,-7
8.97500,-7
8.98333,-7
8.99167,-7
9.00000,-7
9.00833,-7
9.01667,-7
9.02500,-7
9.03333,-7
9.04167,-7
9.05000,-8
9.05833,-7
9.06667,-7
9.07500,-6
9.08333,-6
9.09167,-6
9.10000,-6
9.10833,-6
9.11667,-6
9.12500,-6
9.13333,-7
9.14167,-7
9.15000,-8
9.15833,-8
9.16667,-8
9.17500,-8
9.18333,-8
9.19167,-7
9.20000,-7
9.20833,-7
9.21667,-7
9.22500,-7
9.23333,-7
9.24167,-7
9.25000,-7
9.25833,-6
9.26667,-6
9.27500,-6
9.28333,-7
9.29167,-7
9.30000,-7
9.30833,-7
9.31667,-7
9.32500,-7
9.33333,-7
9.34167,-7
9.35000,-7
9.35833,-6
9.36667,-6
9.37500,-6
9.38333,-6
9.39167,-6
9.40000,-6
9.40833,-6
9.41667,-7
9.42500,-7
9.43333,-7
9.44167,-7
9.45000,-7
9.45833,-7
9.46667,-7
9.47500,-7
9.48333,-7
9.49167,-7
9.50000,-7
9.50833,-7
9.51667,-7
9.52500,-7
9.53333,-7
9.54167,-7
9.55000,-7
9.55833,-7
9.56667,-7
9.57500,-7
9.58333,-7
9.59167,-7
9.60000,-7
9.60833,-7
9.61667,-7
9.62500,-7
9.63333,-8
9.64167,-8
9.65000,-8
9.65833,-8
9.66667,-8
9.67500,-8
9.68333,-8
9.69167,-8
9.70000,-8
9.70833,-8
9.71667,-8
9.72500,-8
9.73333,-8
9.74167,-8
9.75000,-8
9.75833,-8
9.76667,-8
9.77500,-8
9.78333,-8
9.79167,-8
9.80000,-8
9.80833,-8
9.81667,-9
9.82500,-9
9.83333,-9
9.84167,-9
9.85000,-8
9.85833,-8
9.86667,-8
9.87500,-8
9.88333,-8
9.89167,-8
9.90000,-9
9.90833,-8
9.91667,-8
9.92500,-9
9.93333,-9
9.94167,-9
9.95000,-8
9.95833,-8
9.96667,-8
9.97500,-8
9.98333,-8
9.99167,-8
10.00000,-8
10.00833,-8
10.01667,-8
10.02500,-8
10.03333,-8
10.04167,-8
10.05000,-8
10.05833,-8
10.06667,-8
10.07500,-8
10.08333,-7
10.09167,-7
10.10000,-7
10.10833,-7
10.11667,-7
10.12500,-7
10.13333,-7
10.14167,-7
10.15000,-8
10.15833,-8
10.16667,-8
10.17500,-8
10.18333,-7
10.19167,-7
10.20000,-7
10.20833,-6
10.21667,-6
10.22500,-7
10.23333,-7
10.24167,-6
10.25000,-6
10.25833,-7
10.26667,-7
10.27500,-7
10.28333,-7
10.29167,-7
10.30000,-7
10.30833,-7
10.31667,-6
10.32500,-6
10.33333,-6
10.34167,-5
10.35000,-5
10.35833,-5
10.36667,-5
10.37500,-6
10.38333,-6
10.39167,-5
10.40000,-5
10.40833,-4
10.41667,-4
10.42500,-3
10.43333,-3
10.44167,-2
10.45000,-2
10.45833,-2
10.46667,-2
10.47500,-2
10.48333,-2
10.49167,-3
10.50000,-4
10.50833,-5
10.51667,-8
10.52500,-12
10.53333,-17
10.54167,-25
10.55000,-36
10.55833,-52
10.56667,-73
10.57500,-101
10.58333,-136
10.59167,-182
10.60000,-240
10.60833,-313
10.61667,-403
10.62500,-511
10.63333,-639
10.64167,-790
10.65000,-963
10.65833,-1159
10.66667,-1377
10.67500,-1615
10.68333,-1871
10.69167,-2138
10.70000,-2413
10.70833,-2686
10.71667,-2950
10.72500,-3193
10.73333,-3405
10.74167,-3573
10.75000,-3684
10.75833,-3726
10.76667,-3685
10.77500,-3548
10.78333,-3302
10.79167,-2936
10.80000,-2437
10.80833,-1796
10.81667,-1003
10.82500,-52
10.83333,1064
10.84167,2350
10.85000,3809
10.85833,5442
10.86667,7250
10.87500,9231
10.88333,11382
10.89167,13699
10.90000,16175
10.90833,18803
10.91667,21572
10.92500,24470
10.93333,27482
10.94167,30590
10.95000,33774
10.95833,37009
10.96667,40267
10.97500,43516
10.98333,46718
10.99167,49831
11.00000,52809
11.00833,55603
11.01667,58161
11.02500,60430
11.03333,62361
11.04167,63904
11.05000,65021
11.05833,65679
11.06667,65858
11.07500,65551
11.08333,64763
11.09167,63514
11.10000,61836
11.10833,59772
11.11667,57374
11.12500,54699
11.13333,51810
11.14167,48766
11.15000,45630
11.15833,42456
11.16667,39295
11.17500,36192
11.18333,33182
11.19167,30294
11.20000,27552
11.20833,24971
11.21667,22561
11.22500,20325
11.23333,18266
11.24167,16379
11.25000,14660
11.25833,13101
11.26667,11693
11.27500,10424
11.28333,9287
11.29167,8270
11.30000,7362
11.30833,6555
11.31667,5837
11.32500,5201
11.33333,4637
11.34167,4139
11.35000,3699
11.35833,3310
11.36667,2967
11.37500,2665
11.38333,2399
11.39167,2164
11.40000,1958
11.40833,1775
11.41667,1615
11.42500,1473
11.43333,1347
11.44167,1236
11.45000,1137
11.45833,1050
11.46667,973
11.47500,904
11.48333,842
11.49167,787
11.50000,737
11.50833,693
11.51667,653
11.52500,616
11.53333,583
11.54167,553
11.55000,526
11.55833,501
11.56667,478
11.57500,457
11.58333,437
11.59167,419
11.60000,402
11.60833,387
11.61667,372
11.62500,359
11.63333,346
11.64167,334
11.65000,323
11.65833,313
11.66667,303
11.67500,294
11.68333,286
11.69167,278
11.70000,270
11.70833,263
11.71667,256
11.72500,249
11.73333,243
11.74167,238
11.75000,232
11.75833,227
11.76667,222
11.77500,217
11.78333,213
11.79167,209
11.80000,205
11.80833,201
11.81667,197
11.82500,193
11.83333,190
11.84167,187
11.85000,184
11.85833,181
11.86667,178
11.87500,176
11.88333,174
11.89167,172
11.90000,169
11.90833,167
11.91667,165
11.92500,163
11.93333,161
11.94167,159
11.95000,158
11.95833,156
11.96667,155
11.97500,153
11.98333,152
11.99167,150
12.00000,149
12.00833,148
12.01667,147
12.02500,146
12.03333,145
12.04167,144
12.05000,143
12.05833,142
12.06667,141
12.07500,140
12.08333,139
12.09167,138
12.10000,137
12.10833,136
12.11667,135
12.12500,134
12.13333,133
12.14167,132
12.15000,131
12.15833,130
12.16667,130
12.17500,129
12.18333,128
12.19167,127
12.20000,126
12.20833,125
12.21667,124
12.22500,123
12.23333,122
12.24167,122
12.25000,121
12.25833,120
12.26667,119
12.27500,118
12.28333,118
12.29167,117
12.30000,116
12.30833,115
12.31667,114
12.32500,114
12.33333,113
12.34167,112
12.35000,111
12.35833,110
12.36667,109
12.37500,109
12.38333,108
12.39167,107
12.40000,106
12.40833,106
12.41667,106
12.42500,105
12.43333,105
12.44167,104
12.45000,104
12.45833,103
12.46667,102
12.47500,101
12.48333,101
12.49167,100
12.50000,100
12.50833,99
12.51667,99
12.52500,98
12.53333,97
12.54167,97
12.55000,96
12.55833,96
12.56667,95
12.57500,94
12.58333,94
12.59167,93
12.60000,91
12.60833,90
12.61667,89
12.62500,88
12.63333,88
12.64167,87
12.65000,86
12.65833,85
12.66667,85
12.67500,84
12.68333,83
12.69167,83
12.70000,82
12.70833,81
12.71667,80
12.72500,79
12.73333,78
12.74167,77
12.75000,76
12.75833,75
12.76667,75
12.77500,75
12.78333,74
12.79167,74
12.80000,73
12.80833,72
12.81667,71
12.82500,71
12.83333,70
12.84167,70
12.85000,69
12.85833,68
12.86667,68
12.87500,67
12.88333,67
12.89167,66
12.90000,66
12.90833,65
12.91667,65
12.92500,65
12.93333,64
12.94167,64
12.95000,64
12.95833,63
12.96667,63
12.97500,62
12.98333,62
12.99167,62
13.00000,62
13.00833,61
13.01667,61
13.02500,61
13.03333,61
13.04167,61
13.05000,61
13.05833,60
13.06667,60
13.07500,60
13.08333,60
13.09167,60
13.10000,60
13.10833,60
13.11667,59
13.12500,59
13.13333,58
13.14167,58
13.15000,58
13.15833,58
13.16667,58
13.17500,57
13.18333,57
13.19167,57
13.20000,57
13.20833,56
13.21667,56
13.22500,56
13.23333,55
13.24167,55
13.25000,55
13.25833,54
13.26667,54
13.27500,53
13.28333,53
13.29167,52
13.30000,52
13.30833,51
13.31667,51
13.32500,51
13.33333,50
13.34167,50
13.35000,50
13.35833,49
13.36667,49
13.37500,49
13.38333,48
13.39167,48
13.40000,47
13.40833,47
13.41667,47
13.42500,46
13.43333,46
13.44167,46
13.45000,45
13.45833,45
13.46667,45
13.47500,44
13.48333,44
13.49167,43
13.50000,43
13.50833,42
13.51667,42
13.52500,41
13.53333,41
13.54167,41
13.55000,40
13.55833,40
13.56667,40
13.57500,40
13.58333,39
13.59167,38
13.60000,38
13.60833,37
13.61667,37
13.62500,37
13.63333,37
13.64167,37
13.65000,37
13.65833,36
13.66667,36
13.67500,36
13.68333,35
13.69167,35
13.70000,34
13.70833,34
13.71667,34
13.72500,34
13.73333,34
13.74167,34
13.75000,34
13.75833,34
13.76667,34
13.77500,34
13.78333,33
13.79167,33
13.80000,33
13.80833,32
13.81667,32
13.82500,32
13.83333,32
13.84167,31
13.85000,31
13.85833,31
13.86667,31
13.87500,31
13.88333,30
13.89167,30
13.90000,30
13.90833,30
13.91667,31
13.92500,31
13.93333,31
13.94167,31
13.95000,32
13.95833,32
13.96667,32
13.97500,32
13.98333,32
13.99167,32
14.00000,32
14.00833,32
14.01667,33
14.02500,33
14.03333,34
14.04167,34
14.05000,34
14.05833,35
14.06667,35
14.07500,35
14.08333,35
14.09167,36
14.10000,37
14.10833,38
14.11667,39
14.12500,40
14.13333,41
14.14167,43
14.15000,44
14.15833,46
14.16667,48
14.17500,51
14.18333,54
14.19167,57
14.20000,61
14.20833,66
14.21667,72
14.22500,79
14.23333,87
14.24167,97
14.25000,110
14.25833,125
14.26667,143
14.27500,164
14.28333,191
14.29167,222
14.30000,260
14.30833,304
14.31667,357
14.32500,419
14.33333,491
14.34167,576
14.35000,675
14.35833,789
14.36667,920
14.37500,1070
14.38333,1239
14.39167,1431
14.40000,1646
14.40833,1886
14.41667,2153
14.42500,2448
14.43333,2774
14.44167,3131
14.45000,3520
14.45833,3943
14.46667,4400
14.47500,4892
14.48333,5419
14.49167,5983
14.50000,6583
14.50833,7219
14.51667,7893
14.52500,8603
14.53333,9351
14.54167,10134
14.55000,10954
14.55833,11810
14.56667,12701
14.57500,13627
14.58333,14587
14.59167,15582
14.60000,16609
14.60833,17669
14.61667,18761
14.62500,19884
14.63333,21038
14.64167,22223
14.65000,23437
14.65833,24680
14.66667,25952
14.67500,27251
14.68333,28577
14.69167,29930
14.70000,31310
14.70833,32715
14.71667,34147
14.72500,35603
14.73333,37085
14.74167,38591
14.75000,40121
14.75833,41676
14.76667,43254
14.77500,44855
14.78333,46480
14.79167,48128
14.80000,49799
14.80833,51491
14.81667,53206
14.82500,54943
14.83333,56703
14.84167,58484
14.85000,60286
14.85833,62110
14.86667,63955
14.87500,65821
14.88333,67708
14.89167,69615
14.90000,71541
14.90833,73488
14.91667,75453
14.92500,77436
14.93333,79438
14.94167,81456
14.95000,83491
14.95833,85542
14.96667,87607
14.97500,89684
14.98333,91773
14.99167,93871
15.00000,95974
15.00833,98079
15.01667,100180
15.02500,102268
15.03333,104333
15.04167,106359
15.05000,108326
15.05833,110206
15.06667,111965
15.07500,113559
15.08333,114938
15.09167,116043
15.10000,116813
15.10833,117182
15.11667,117091
15.12500,116483
15.13333,115314
15.14167,113556
15.15000,111195
15.15833,108241
15.16667,104722
15.17500,100687
15.18333,96200
15.19167,91341
15.20000,86197
15.20833,80862
15.21667,75428
15.22500,69984
15.23333,64612
15.24167,59383
15.25000,54357
15.25833,49582
15.26667,45090
15.27500,40907
15.28333,37043
15.29167,33502
15.30000,30279
15.30833,27365
15.31667,24744
15.32500,22399
15.33333,20311
15.34167,18460
15.35000,16825
15.35833,15387
15.36667,14127
15.37500,13029
15.38333,12076
15.39167,11253
15.40000,10547
15.40833,9946
15.41667,9440
15.42500,9019
15.43333,8674
15.44167,8396
15.45000,8180
15.45833,8017
15.46667,7904
15.47500,7833
15.48333,7801
15.49167,7801
15.50000,7830
15.50833,7883
15.51667,7955
15.52500,8044
15.53333,8146
15.54167,8256
15.55000,8371
15.55833,8488
15.56667,8604
15.57500,8716
15.58333,8822
15.59167,8918
15.60000,9003
15.60833,9074
15.61667,9131
15.62500,9172
15.63333,9195
15.64167,9200
15.65000,9186
15.65833,9152
15.66667,9099
15.67500,9027
15.68333,8935
15.69167,8824
15.70000,8696
15.70833,8551
15.71667,8390
15.72500,8214
15.73333,8024
15.74167,7822
15.75000,7609
15.75833,7387
15.76667,7157
15.77500,6920
15.78333,6679
15.79167,6434
15.80000,6186
15.80833,5938
15.81667,5690
15.82500,5443
15.83333,5198
15.84167,4957
15.85000,4721
15.85833,4490
15.86667,4264
15.87500,4045
15.88333,3833
15.89167,3628
15.90000,3431
15.90833,3241
15.91667,3060
15.92500,2887
15.93333,2723
15.94167,2566
15.95000,2417
15.95833,2277
15.96667,2145
15.97500,2019
15.98333,1902
15.99167,1792
16.00000,1688
16.00833,1591
16.01667,1501
16.02500,1417
16.03333,1338
16.04167,1265
16.05000,1197
16.05833,1134
16.06667,1076
16.07500,1022
16.08333,971
16.09167,925
16.10000,883
16.10833,844
16.11667,807
16.12500,774
16.13333,742
16.14167,714
16.15000,687
16.15833,662
16.16667,640
16.17500,619
16.18333,600
16.19167,582
16.20000,565
16.20833,550
16.21667,536
16.22500,522
16.23333,510
16.24167,498
16.25000,487
16.25833,477
16.26667,468
16.27500,459
16.28333,450
16.29167,443
16.30000,435
16.30833,429
16.31667,422
16.32500,416
16.33333,410
16.34167,404
16.35000,398
16.35833,393
16.36667,388
16.37500,383
16.38333,378
16.39167,374
16.40000,370
16.40833,366
16.41667,363
16.42500,359
16.43333,355
16.44167,352
16.45000,348
16.45833,344
16.46667,341
16.47500,337
16.48333,334
16.49167,331
16.50000,328
16.50833,325
16.51667,322
16.52500,319
16.53333,316
16.54167,314
16.55000,312
16.55833,309
16.56667,307
16.57500,305
16.58333,303
16.59167,300
16.60000,298
16.60833,296
16.61667,293
16.62500,291
16.63333,289
16.64167,287
16.65000,285
16.65833,283
16.66667,281
16.67500,279
16.68333,277
16.69167,275
16.70000,273
16.70833,271
16.71667,269
16.72500,267
16.73333,265
16.74167,263
16.75000,262
16.75833,260
16.76667,258
16.77500,257
16.78333,255
16.79167,254
16.80000,252
16.80833,251
16.81667,249
16.82500,248
16.83333,246
16.84167,244
16.85000,243
16.85833,241
16.86667,240
16.87500,239
16.88333,237
16.89167,236
16.90000,234
16.90833,233
16.91667,231
16.92500,230
16.93333,229
16.94167,228
16.95000,227
16.95833,226
16.96667,225
16.97500,223
16.98333,222
16.99167,221
17.00000,219
17.00833,218
17.01667,217
17.02500,216
17.03333,214
17.04167,212
17.05000,211
17.05833,210
17.06667,209
17.07500,208
17.08333,206
17.09167,205
17.10000,204
17.10833,203
17.11667,202
17.12500,201
17.13333,200
17.14167,199
17.15000,198
17.15833,197
17.16667,196
17.17500,194
17.18333,193
17.19167,191
17.20000,190
17.20833,189
17.21667,188
17.22500,187
17.23333,187
17.24167,186
17.25000,185
17.25833,184
17.26667,183
17.27500,181
17.28333,180
17.29167,179
17.30000,178
17.30833,177
17.31667,176
17.32500,176
17.33333,175
17.34167,174
17.35000,172
17.35833,171
17.36667,170
17.37500,169
17.38333,168
17.39167,167
17.40000,166
17.40833,165
17.41667,164
17.42500,163
17.43333,162
17.44167,161
17.45000,160
17.45833,159
17.46667,159
17.47500,158
17.48333,157
17.49167,156
17.50000,155
17.50833,154
17.51667,153
17.52500,152
17.53333,151
17.54167,150
17.55000,149
17.55833,148
17.56667,147
17.57500,146
17.58333,145
17.59167,144
17.60000,144
17.60833,143
17.61667,142
17.62500,142
17.63333,140
17.64167,139
17.65000,138
17.65833,137
17.66667,136
17.67500,135
17.68333,134
17.69167,133
17.70000,132
17.70833,131
17.71667,130
17.72500,130
17.73333,129
17.74167,129
17.75000,128
17.75833,127
17.76667,126
17.77500,126
17.78333,125
17.79167,124
17.80000,123
17.80833,122
17.81667,121
17.82500,120
17.83333,120
17.84167,119
17.85000,119
17.85833,118
17.86667,117
17.87500,116
17.88333,116
17.89167,115
17.90000,114
17.90833,113
17.91667,112
17.92500,112
17.93333,111
17.94167,111
17.95000,110
17.95833,110
17.96667,109
17.97500,108
17.98333,108
17.99167,107
18.00000,106
18.00833,105
18.01667,104
18.02500,103
18.03333,103
18.04167,103
18.05000,102
18.05833,101
18.06667,101
18.07500,100
18.08333,100
18.09167,99
18.10000,99
18.10833,98
18.11667,97
18.12500,97
18.13333,96
18.14167,95
18.15000,95
18.15833,94
18.16667,94
18.17500,93
18.18333,93
18.19167,92
18.20000,92
18.20833,92
18.21667,91
18.22500,90
18.23333,89
18.24167,89
18.25000,88
18.25833,87
18.26667,87
18.27500,87
18.28333,86
18.29167,85
18.30000,85
18.30833,84
18.31667,84
18.32500,84
18.33333,84
18.34167,83
18.35000,82
18.35833,81
18.36667,80
18.37500,80
18.38333,80
18.39167,79
18.40000,79
18.40833,78
18.41667,77
18.42500,77
18.43333,76
18.44167,76
18.45000,75
18.45833,75
18.46667,74
18.47500,74
18.48333,73
18.49167,72
18.50000,72
18.50833,71
18.51667,71
18.52500,71
18.53333,71
18.54167,71
18.55000,71
18.55833,70
18.56667,70
18.57500,70
18.58333,69
18.59167,69
18.60000,69
18.60833,68
18.61667,67
18.62500,67
18.63333,66
18.64167,66
18.65000,66
18.65833,66
18.66667,66
18.67500,65
18.68333,65
18.69167,65
18.70000,65
18.70833,66
18.71667,66
18.72500,66
18.73333,67
18.74167,66
18.75000,66
18.75833,66
18.76667,66
18.77500,66
18.78333,67
18.79167,67
18.80000,68
18.80833,68
18.81667,69
18.82500,70
18.83333,71
18.84167,71
18.85000,72
18.85833,72
18.86667,73
18.87500,74
18.88333,74
18.89167,75
18.90000,76
18.90833,76
18.91667,77
18.92500,78
18.93333,79
18.94167,80
18.95000,81
18.95833,82
18.96667,82
18.97500,82
18.98333,82
18.99167,83
19.00000,83
19.00833,83
19.01667,83
19.02500,82
19.03333,82
19.04167,82
19.05000,82
19.05833,81
19.06667,80
19.07500,80
19.08333,79
19.09167,78
19.10000,77
19.10833,76
19.11667,75
19.12500,74
19.13333,73
19.14167,72
19.15000,71
19.15833,69
19.16667,68
19.17500,67
19.18333,65
19.19167,64
19.20000,63
19.20833,62
19.21667,61
19.22500,59
19.23333,58
19.24167,57
19.25000,56
19.25833,55
19.26667,54
19.27500,53
19.28333,52
19.29167,52
19.30000,51
19.30833,50
19.31667,49
19.32500,48
19.33333,47
19.34167,46
19.35000,45
19.35833,45
19.36667,45
19.37500,44
19.38333,43
19.39167,42
19.40000,42
19.40833,41
19.41667,40
19.42500,39
19.43333,39
19.44167,38
19.45000,38
19.45833,37
19.46667,37
19.47500,36
19.48333,36
19.49167,36
19.50000,35
19.50833,35
19.51667,35
19.52500,34
19.53333,34
19.54167,34
19.55000,33
19.55833,33
19.56667,33
19.57500,33
19.58333,33
19.59167,33
19.60000,32
19.60833,32
19.61667,31
19.62500,31
19.63333,31
19.64167,31
19.65000,30
19.65833,30
19.66667,30
19.67500,30
19.68333,30
19.69167,30
19.70000,30
19.70833,29
19.71667,29
19.72500,30
19.73333,29
19.74167,29
19.75000,28
19.75833,28
19.76667,28
19.77500,27
19.78333,27
19.79167,27
19.80000,27
19.80833,27
19.81667,27
19.82500,27
19.83333,27
19.84167,27
19.85000,27
19.85833,26
19.86667,26
19.87500,26
19.88333,26
19.89167,26
19.90000,26
19.90833,26
19.91667,26
19.92500,25
19.93333,25
19.94167,25
19.95000,25
19.95833,24
19.96667,24
19.97500,24
19.98333,23
19.99167,23
20.00000,23
20.00833,23
20.01667,23
20.02500,23
20.03333,23
20.04167,23
20.05000,23
20.05833,22
20.06667,22
20.07500,22
20.08333,21
20.09167,22
20.10000,21
20.10833,21
20.11667,21
20.12500,21
20.13333,21
20.14167,21
20.15000,22
20.15833,22
20.16667,22
20.17500,22
20.18333,21
20.19167,21
20.20000,21
20.20833,20
20.21667,20
20.22500,20
20.23333,20
20.24167,20
20.25000,20
20.25833,20
20.26667,19
20.27500,19
20.28333,19
20.29167,19
20.30000,19
20.30833,19
20.31667,19
20.32500,19
20.33333,18
20.34167,18
20.35000,18
20.35833,18
20.36667,18
20.37500,18
20.38333,18
20.39167,18
20.40000,17
20.40833,17
20.41667,17
20.42500,17
20.43333,17
20.44167,17
20.45000,16
20.45833,16
20.46667,16
20.47500,16
20.48333,16
20.49167,16
20.50000,16
20.50833,16
20.51667,16
20.52500,16
20.53333,16
20.54167,16
20.55000,16
20.55833,16
20.56667,16
20.57500,16
20.58333,16
20.59167,16
20.60000,16
20.60833,16
20.61667,16
20.62500,16
20.63333,16
20.64167,16
20.65000,15
20.65833,15
20.66667,15
20.67500,15
20.68333,15
20.69167,14
20.70000,14
20.70833,14
20.71667,14
20.72500,14
20.73333,14
20.74167,14
20.75000,14
20.75833,13
20.76667,13
20.77500,13
20.78333,13
20.79167,13
20.80000,13
20.80833,13
20.81667,12
20.82500,13
20.83333,13
20.84167,13
20.85000,12
20.85833,12
20.86667,12
20.87500,12
20.88333,12
20.89167,12
20.90000,12
20.90833,12
20.91667,11
20.92500,12
20.93333,12
20.94167,12
20.95000,12
20.95833,12
20.96667,12
20.97500,11
20.98333,11
20.99167,11
21.00000,11
21.00833,11
21.01667,11
21.02500,10
21.03333,10
21.04167,10
21.05000,11
21.05833,11
21.06667,10
21.07500,10
21.08333,10
21.09167,10
21.10000,10
21.10833,10
21.11667,9
21.12500,10
21.13333,10
21.14167,10
21.15000,10
21.15833,10
21.16667,10
21.17500,10
21.18333,9
21.19167,9
21.20000,10
21.20833,10
21.21667,10
21.22500,9
21.23333,9
21.24167,10
21.25000,10
21.25833,9
21.26667,9
21.27500,9
21.28333,9
21.29167,9
21.30000,9
21.30833,9
21.31667,9
21.32500,9
21.33333,9
21.34167,8
21.35000,8
21.35833,8
21.36667,8
21.37500,8
21.38333,8
21.39167,9
21.40000,9
21.40833,9
21.41667,10
21.42500,10
21.43333,11
21.44167,11
21.45000,12
21.45833,13
21.46667,14
21.47500,15
21.48333,16
21.49167,17
21.50000,18
21.50833,19
21.51667,20
21.52500,21
21.53333,23
21.54167,25
21.55000,28
21.55833,31
21.56667,34
21.57500,37
21.58333,41
21.59167,46
21.60000,51
21.60833,56
21.61667,62
21.62500,69
21.63333,77
21.64167,86
21.65000,95
21.65833,106
21.66667,118
21.67500,131
21.68333,146
21.69167,162
21.70000,180
21.70833,200
21.71667,222
21.72500,246
21.73333,271
21.74167,298
21.75000,328
21.75833,359
21.76667,393
21.77500,430
21.78333,468
21.79167,509
21.80000,553
21.80833,599
21.81667,647
21.82500,697
21.83333,749
21.84167,803
21.85000,859
21.85833,917
21.86667,977
21.87500,1037
21.88333,1099
21.89167,1161
21.90000,1223
21.90833,1286
21.91667,1348
21.92500,1410
21.93333,1471
21.94167,1532
21.95000,1590
21.95833,1647
21.96667,1702
21.97500,1754
21.98333,1803
21.99167,1849
22.00000,1891
22.00833,1930
22.01667,1965
22.02500,1995
22.03333,2022
22.04167,2044
22.05000,2061
22.05833,2074
22.06667,2082
22.07500,2086
22.08333,2084
22.09167,2078
22.10000,2067
22.10833,2052
22.11667,2032
22.12500,2008
22.13333,1981
22.14167,1949
22.15000,1914
22.15833,1876
22.16667,1835
22.17500,1791
22.18333,1745
22.19167,1696
22.20000,1646
22.20833,1594
22.21667,1541
22.22500,1487
22.23333,1432
22.24167,1377
22.25000,1321
22.25833,1266
22.26667,1211
22.27500,1156
22.28333,1101
22.29167,1048
22.30000,996
22.30833,944
22.31667,895
22.32500,846
22.33333,800
22.34167,754
22.35000,711
22.35833,669
22.36667,628
22.37500,589
22.38333,552
22.39167,517
22.40000,483
22.40833,452
22.41667,422
22.42500,393
22.43333,366
22.44167,340
22.45000,316
22.45833,293
22.46667,273
22.47500,253
22.48333,235
22.49167,218
22.50000,202
22.50833,188
22.51667,174
22.52500,162
22.53333,150
22.54167,139
22.55000,129
22.55833,119
22.56667,110
22.57500,102
22.58333,95
22.59167,88
22.60000,82
22.60833,77
22.61667,71
22.62500,66
22.63333,62
22.64167,58
22.65000,54
22.65833,51
22.66667,48
22.67500,45
22.68333,42
22.69167,40
22.70000,37
22.70833,35
22.71667,34
22.72500,32
22.73333,30
22.74167,28
22.75000,27
22.75833,26
22.76667,25
22.77500,24
22.78333,23
22.79167,21
22.80000,20
22.80833,19
22.81667,18
22.82500,18
22.83333,17
22.84167,17
22.85000,16
22.85833,16
22.86667,16
22.87500,15
22.88333,15
22.89167,14
22.90000,13
22.90833,13
22.91667,13
22.92500,12
22.93333,12
22.94167,12
22.95000,12
22.95833,12
22.96667,12
22.97500,11
22.98333,11
22.99167,11
23.00000,10
23.00833,11
23.01667,11
23.02500,11
23.03333,11
23.04167,11
23.05000,11
23.05833,10
23.06667,10
23.07500,9
23.08333,9
23.09167,9
23.10000,9
23.10833,9
23.11667,8
23.12500,8
23.13333,8
23.14167,8
23.15000,8
23.15833,8
23.16667,8
23.17500,8
23.18333,8
23.19167,8
23.20000,7
23.20833,7
23.21667,7
23.22500,7
23.23333,7
23.24167,7
23.25000,7
23.25833,7
23.26667,7
23.27500,7
23.28333,7
23.29167,7
23.30000,7
23.30833,7
23.31667,7
23.32500,7
23.33333,7
23.34167,7
23.35000,7
23.35833,6
23.36667,6
23.37500,6
23.38333,5
23.39167,5
23.40000,5
23.40833,5
23.41667,5
23.42500,6
23.43333,6
23.44167,6
23.45000,5
23.45833,5
23.46667,5
23.47500,4
23.48333,4
23.49167,4
23.50000,4
23.50833,4
23.51667,4
23.52500,3
23.53333,3
23.54167,3
23.55000,4
23.55833,4
23.56667,4
23.57500,4
23.58333,4
23.59167,4
23.60000,4
23.60833,4
23.61667,4
23.62500,4
23.63333,4
23.64167,4
23.65000,4
23.65833,4
23.66667,4
23.67500,3
23.68333,3
23.69167,3
23.70000,3
23.70833,3
23.71667,3
23.72500,3
23.73333,3
23.74167,2
23.75000,2
23.75833,2
23.76667,2
23.77500,2
23.78333,2
23.79167,2
23.80000,2
23.80833,2
23.81667,2
23.82500,2
23.83333,2
23.84167,2
23.85000,2
23.85833,2
23.86667,2
23.87500,1
23.88333,2
23.89167,1
23.90000,1
23.90833,2
23.91667,1
23.92500,1
23.93333,1
23.94167,1
23.95000,1
23.95833,1
23.96667,1
23.97500,0
23.98333,0
23.99167,0
24.00000,1
24.00833,1
24.01667,1
24.02500,1
24.03333,1
24.04167,1
24.05000,0
24.05833,0
24.06667,0
24.07500,1
24.08333,0
24.09167,0
24.10000,0
24.10833,0
24.11667,0
24.12500,1
24.13333,1
24.14167,1
24.15000,1
24.15833,1
24.16667,0
24.17500,-0
24.18333,-0
24.19167,-0
24.20000,-0
24.20833,-1
24.21667,-1
24.22500,-1
24.23333,-1
24.24167,-1
24.25000,-0
24.25833,-0
24.26667,0
24.27500,0
24.28333,0
24.29167,0
24.30000,0
24.30833,0
24.31667,0
24.32500,1
24.33333,1
24.34167,1
24.35000,1
24.35833,1
24.36667,1
24.37500,1
24.38333,1
24.39167,2
24.40000,2
24.40833,2
24.41667,2
24.42500,2
24.43333,2
24.44167,3
24.45000,4
24.45833,5
24.46667,6
24.47500,6
24.48333,7
24.49167,8
24.50000,9
24.50833,10
24.51667,11
24.52500,12
24.53333,14
24.54167,16
24.55000,17
24.55833,19
24.56667,22
24.57500,24
24.58333,27
24.59167,30
24.60000,34
24.60833,37
24.61667,42
24.62500,46
24.63333,51
24.64167,57
24.65000,63
24.65833,69
24.66667,76
24.67500,83
24.68333,91
24.69167,99
24.70000,108
24.70833,118
24.71667,129
24.72500,140
24.73333,152
24.74167,165
24.75000,179
24.75833,193
24.76667,208
24.77500,224
24.78333,240
24.79167,257
24.80000,275
24.80833,294
24.81667,313
24.82500,332
24.83333,353
24.84167,373
24.85000,395
24.85833,416
24.86667,438
24.87500,460
24.88333,482
24.89167,505
24.90000,527
24.90833,549
24.91667,571
24.92500,593
24.93333,614
24.94167,635
24.95000,655
24.95833,674
24.96667,692
24.97500,710
24.98333,726
24.99167,742
25.00000,756
25.00833,770
25.01667,781
25.02500,792
25.03333,801
25.04167,808
25.05000,814
25.05833,818
25.06667,821
25.07500,822
25.08333,822
25.09167,820
25.10000,817
25.10833,812
25.11667,805
25.12500,797
25.13333,787
25.14167,777
25.15000,765
25.15833,752
25.16667,738
25.17500,723
25.18333,707
25.19167,690
25.20000,673
25.20833,654
25.21667,636
25.22500,617
25.23333,597
25.24167,577
25.25000,557
25.25833,537
25.26667,516
25.27500,496
25.28333,475
25.29167,455
25.30000,435
25.30833,416
25.31667,396
25.32500,377
25.33333,358
25.34167,340
25.35000,322
25.35833,305
25.36667,288
25.37500,272
25.38333,257
25.39167,241
25.40000,227
25.40833,213
25.41667,200
25.42500,188
25.43333,176
25.44167,165
25.45000,154
25.45833,144
25.46667,134
25.47500,125
25.48333,116
25.49167,108
25.50000,101
25.50833,94
25.51667,87
25.52500,81
25.53333,75
25.54167,70
25.55000,64
25.55833,60
25.56667,55
25.57500,51
25.58333,47
25.59167,43
25.60000,40
25.60833,37
25.61667,34
25.62500,32
25.63333,30
25.64167,28
25.65000,26
25.65833,24
25.66667,23
25.67500,21
25.68333,19
25.69167,18
25.70000,17
25.70833,16
25.71667,15
25.72500,14
25.73333,13
25.74167,13
25.75000,12
25.75833,11
25.76667,10
25.77500,10
25.78333,9
25.79167,9
25.80000,8
25.80833,8
25.81667,8
25.82500,7
25.83333,7
25.84167,7
25.85000,7
25.85833,7
25.86667,7
25.87500,7
25.88333,6
25.89167,5
25.90000,5
25.90833,5
25.91667,5
25.92500,4
25.93333,4
25.94167,5
25.95000,5
25.95833,5
25.96667,4
25.97500,4
25.98333,4
25.99167,4
26.00000,3
26.00833,3
26.01667,3
26.02500,3
26.03333,3
26.04167,3
26.05000,3
26.05833,3
26.06667,3
26.07500,3
26.08333,4
26.09167,4
26.10000,4
26.10833,4
26.11667,3
26.12500,3
26.13333,3
26.14167,3
26.15000,3
26.15833,3
26.16667,3
26.17500,3
26.18333,3
26.19167,3
26.20000,3
26.20833,3
26.21667,3
26.22500,3
26.23333,3
26.24167,3
26.25000,3
26.25833,2
26.26667,2
26.27500,2
26.28333,2
26.29167,2
26.30000,2
26.30833,2
26.31667,2
26.32500,2
26.33333,2
26.34167,2
26.35000,2
26.35833,2
26.36667,2
26.37500,2
26.38333,2
26.39167,2
26.40000,2
26.40833,2
26.41667,2
26.42500,2
26.43333,2
26.44167,2
26.45000,2
26.45833,2
26.46667,3
26.47500,3
26.48333,3
26.49167,3
26.50000,3
26.50833,3
26.51667,3
26.52500,3
26.53333,3
26.54167,3
26.55000,2
26.55833,2
26.56667,2
26.57500,2
26.58333,2
26.59167,2
26.60000,2
26.60833,2
26.61667,2
26.62500,2
26.63333,2
26.64167,3
26.65000,2
26.65833,2
26.66667,2
26.67500,3
26.68333,3
26.69167,3
26.70000,3
26.70833,4
26.71667,4
26.72500,4
26.73333,4
26.74167,3
26.75000,3
26.75833,3
26.76667,3
26.77500,3
26.78333,3
26.79167,3
26.80000,3
26.80833,3
26.81667,3
26.82500,3
26.83333,3
26.84167,4
26.85000,3
26.85833,3
26.86667,3
26.87500,3
26.88333,3
26.89167,3
26.90000,3
26.90833,3
26.91667,3
26.92500,3
26.93333,3
26.94167,4
26.95000,4
26.95833,4
26.96667,3
26.97500,3
26.98333,3
26.99167,3
27.00000,3
27.00833,3
27.01667,3
27.02500,3
27.03333,3
27.04167,4
27.05000,4
27.05833,4
27.06667,4
27.07500,3
27.08333,3
27.09167,3
27.10000,3
27.10833,3
27.11667,4
27.12500,4
27.13333,4
27.14167,3
27.15000,3
27.15833,3
27.16667,3
27.17500,3
27.18333,3
27.19167,3
27.20000,3
27.20833,3
27.21667,3
27.22500,3
27.23333,3
27.24167,4
27.25000,4
27.25833,4
27.26667,4
27.27500,4
27.28333,4
27.29167,4
27.30000,4
27.30833,4
27.31667,4
27.32500,4
27.33333,4
27.34167,4
27.35000,4
27.35833,3
27.36667,3
27.37500,3
27.38333,3
27.39167,3
27.40000,3
27.40833,3
27.41667,3
27.42500,3
27.43333,3
27.44167,3
27.45000,3
27.45833,4
27.46667,4
27.47500,4
27.48333,4
27.49167,4
27.50000,4
27.50833,4
27.51667,4
27.52500,4
27.53333,4
27.54167,4
27.55000,3
27.55833,3
27.56667,3
27.57500,2
27.58333,3
27.59167,3
27.60000,3
27.60833,3
27.61667,3
27.62500,3
27.63333,3
27.64167,3
27.65000,3
27.65833,3
27.66667,3
27.67500,3
27.68333,2
27.69167,2
27.70000,2
27.70833,1
27.71667,1
27.72500,1
27.73333,1
27.74167,0
27.75000,0
27.75833,0
27.76667,0
27.77500,0
27.78333,0
27.79167,-0
27.80000,-0
27.80833,-0
27.81667,-1
27.82500,-1
27.83333,-1
27.84167,-2
27.85000,-2
27.85833,-3
27.86667,-3
27.87500,-4
27.88333,-4
27.89167,-5
27.90000,-5
27.90833,-6
27.91667,-7
27.92500,-8
27.93333,-9
27.94167,-10
27.95000,-12
27.95833,-12
27.96667,-14
27.97500,-15
27.98333,-16
27.99167,-18
28.00000,-19
28.00833,-20
28.01667,-22
28.02500,-24
28.03333,-26
28.04167,-28
28.05000,-30
28.05833,-32
28.06667,-35
28.07500,-37
28.08333,-40
28.09167,-42
28.10000,-45
28.10833,-48
28.11667,-50
28.12500,-52
28.13333,-55
28.14167,-57
28.15000,-60
28.15833,-63
28.16667,-66
28.17500,-69
28.18333,-72
28.19167,-75
28.20000,-78
28.20833,-81
28.21667,-84
28.22500,-86
28.23333,-90
28.24167,-93
28.25000,-96
28.25833,-99
28.26667,-101
28.27500,-104
28.28333,-107
28.29167,-109
28.30000,-112
28.30833,-114
28.31667,-116
28.32500,-118
28.33333,-120
28.34167,-122
28.35000,-124
28.35833,-126
28.36667,-128
28.37500,-129
28.38333,-131
28.39167,-132
28.40000,-133
28.40833,-134
28.41667,-134
28.42500,-135
28.43333,-136
28.44167,-136
28.45000,-136
28.45833,-136
28.46667,-136
28.47500,-135
28.48333,-135
28.49167,-135
28.50000,-134
28.50833,-132
28.51667,-131
28.52500,-130
28.53333,-129
28.54167,-128
28.55000,-126
28.55833,-125
28.56667,-123
28.57500,-121
28.58333,-119
28.59167,-117
28.60000,-115
28.60833,-112
28.61667,-110
28.62500,-108
28.63333,-106
28.64167,-103
28.65000,-101
28.65833,-99
28.66667,-96
28.67500,-93
28.68333,-91
28.69167,-88
28.70000,-85
28.70833,-83
28.71667,-80
28.72500,-78
28.73333,-75
28.74167,-73
28.75000,-71
28.75833,-68
28.76667,-66
28.77500,-63
28.78333,-61
28.79167,-59
28.80000,-56
28.80833,-55
28.81667,-53
28.82500,-51
28.83333,-50
28.84167,-48
28.85000,-46
28.85833,-44
28.86667,-42
28.87500,-40
28.88333,-39
28.89167,-37
28.90000,-35
28.90833,-33
28.91667,-32
28.92500,-30
28.93333,-29
28.94167,-28
28.95000,-26
28.95833,-25
28.96667,-24
28.97500,-23
28.98333,-22
28.99167,-21
29.00000,-21
29.00833,-20
29.01667,-19
29.02500,-18
29.03333,-18
29.04167,-16
29.05000,-16
29.05833,-15
29.06667,-14
29.07500,-14
29.08333,-13
29.09167,-12
29.10000,-12
29.10833,-11
29.11667,-11
29.12500,-11
29.13333,-11
29.14167,-10
29.15000,-10
29.15833,-9
29.16667,-8
29.17500,-8
29.18333,-8
29.19167,-8
29.20000,-8
29.20833,-8
29.21667,-8
29.22500,-7
29.23333,-7
29.24167,-7
29.25000,-7
29.25833,-7
29.26667,-7
29.27500,-6
29.28333,-6
29.29167,-6
29.30000,-5
29.30833,-5
29.31667,-6
29.32500,-6
29.33333,-6
29.34167,-6
29.35000,-6
29.35833,-6
29.36667,-6
29.37500,-6
29.38333,-6
29.39167,-6
29.40000,-6
29.40833,-5
29.41667,-5
29.42500,-5
29.43333,-5
29.44167,-5
29.45000,-5
29.45833,-5
29.46667,-5
29.47500,-5
29.48333,-5
29.49167,-5
29.50000,-5
29.50833,-5
29.51667,-5
29.52500,-6
29.53333,-6
29.54167,-6
29.55000,-6
29.55833,-7
29.56667,-7
29.57500,-7
29.58333,-8
29.59167,-8
29.60000,-8
29.60833,-9
29.61667,-9
29.62500,-9
29.63333,-10
29.64167,-10
29.65000,-11
29.65833,-11
29.66667,-12
29.67500,-12
29.68333,-12
29.69167,-12
29.70000,-13
29.70833,-13
29.71667,-14
29.72500,-14
29.73333,-15
29.74167,-16
29.75000,-16
29.75833,-16
29.76667,-16
29.77500,-17
29.78333,-18
29.79167,-19
29.80000,-20
29.80833,-20
29.81667,-21
29.82500,-22
29.83333,-23
29.84167,-24
29.85000,-25
29.85833,-26
29.86667,-27
29.87500,-28
29.88333,-29
29.89167,-30
29.90000,-31
29.90833,-32
29.91667,-33
29.92500,-33
29.93333,-34
29.94167,-35
29.95000,-37
29.95833,-38
29.96667,-39
29.97500,-40
29.98333,-41
29.99167,-41
30.00000,-42
30.00833,-43
30.01667,-44
30.02500,-45
30.03333,-45
30.04167,-46
30.05000,-47
30.05833,-47
30.06667,-48
30.07500,-48
30.08333,-49
30.09167,-50
30.10000,-50
30.10833,-51
30.11667,-51
30.12500,-52
30.13333,-52
30.14167,-53
30.15000,-53
30.15833,-54
30.16667,-54
30.17500,-54
30.18333,-54
30.19167,-54
30.20000,-54
30.20833,-54
30.21667,-54
30.22500,-54
30.23333,-53
30.24167,-53
30.25000,-53
30.25833,-53
30.26667,-52
30.27500,-52
30.28333,-51
30.29167,-51
30.30000,-51
30.30833,-50
30.31667,-50
30.32500,-49
30.33333,-49
30.34167,-49
30.35000,-48
30.35833,-47
30.36667,-47
30.37500,-46
30.38333,-45
30.39167,-44
30.40000,-43
30.40833,-42
30.41667,-41
30.42500,-41
30.43333,-40
30.44167,-39
30.45000,-38
30.45833,-37
30.46667,-36
30.47500,-35
30.48333,-34
30.49167,-33
30.50000,-32
30.50833,-32
30.51667,-31
30.52500,-30
30.53333,-28
30.54167,-28
30.55000,-27
30.55833,-26
30.56667,-26
30.57500,-25
30.58333,-24
30.59167,-24
30.60000,-23
30.60833,-23
30.61667,-22
30.62500,-21
30.63333,-21
30.64167,-20
30.65000,-19
30.65833,-19
30.66667,-18
30.67500,-17
30.68333,-16
30.69167,-16
30.70000,-16
30.70833,-15
30.71667,-15
30.72500,-14
30.73333,-14
30.74167,-14
30.75000,-14
30.75833,-13
30.76667,-12
30.77500,-12
30.78333,-12
30.79167,-11
30.80000,-11
30.80833,-11
30.81667,-10
30.82500,-10
30.83333,-10
30.84167,-9
30.85000,-9
30.85833,-9
30.86667,-9
30.87500,-9
30.88333,-9
30.89167,-9
30.90000,-9
30.90833,-9
30.91667,-9
30.92500,-8
30.93333,-8
30.94167,-8
30.95000,-8
30.95833,-8
30.96667,-8
30.97500,-8
30.98333,-8
30.99167,-8
31.00000,-7
31.00833,-7
31.01667,-8
31.02500,-8
31.03333,-8
31.04167,-7
31.05000,-7
31.05833,-7
31.06667,-7
31.07500,-7
31.08333,-7
31.09167,-7
31.10000,-6
31.10833,-6
31.11667,-6
31.12500,-6
31.13333,-6
31.14167,-6
31.15000,-6
31.15833,-6
31.16667,-6
31.17500,-6
31.18333,-6
31.19167,-6
31.20000,-6
31.20833,-6
31.21667,-6
31.22500,-5
31.23333,-5
31.24167,-5
31.25000,-5
31.25833,-4
31.26667,-4
31.27500,-4
31.28333,-5
31.29167,-5
31.30000,-5
31.30833,-4
31.31667,-4
31.32500,-4
31.33333,-4
31.34167,-4
31.35000,-4
31.35833,-4
31.36667,-4
31.37500,-4
31.38333,-3
31.39167,-3
31.40000,-3
31.40833,-3
31.41667,-3
31.42500,-3
31.43333,-3
31.44167,-3
31.45000,-3
31.45833,-3
31.46667,-3
31.47500,-3
31.48333,-3
31.49167,-3
31.50000,-3
31.50833,-2
31.51667,-3
31.52500,-3
31.53333,-3
31.54167,-3
31.55000,-3
31.55833,-3
31.56667,-3
31.57500,-3
31.58333,-3
31.59167,-3
31.60000,-3
31.60833,-3
31.61667,-3
31.62500,-3
31.63333,-3
31.64167,-2
31.65000,-2
31.65833,-2
31.66667,-2
31.67500,-2
31.68333,-2
31.69167,-3
31.70000,-3
31.70833,-3
31.71667,-3
31.72500,-3
31.73333,-3
31.74167,-3
31.75000,-3
31.75833,-2
31.76667,-2
31.77500,-2
31.78333,-2
31.79167,-2
31.80000,-2
31.80833,-2
31.81667,-2
31.82500,-2
31.83333,-2
31.84167,-2
31.85000,-2
31.85833,-2
31.86667,-2
31.87500,-1
31.88333,-1
31.89167,-1
31.90000,-1
31.90833,-1
31.91667,-1
31.92500,-2
31.93333,-2
31.94167,-2
31.95000,-2
31.95833,-2
31.96667,-2
31.97500,-2
31.98333,-2
31.99167,-3
32.00000,-3
32.00833,-3
32.01667,-3
32.02500,-3
32.03333,-3
32.04167,-4
32.05000,-3
32.05833,-3
32.06667,-3
32.07500,-3
32.08333,-3
32.09167,-3
32.10000,-3
32.10833,-3
32.11667,-3
32.12500,-2
32.13333,-2
32.14167,-2
32.15000,-2
32.15833,-2
32.16667,-2
32.17500,-2
32.18333,-3
32.19167,-2
32.20000,-2
32.20833,-2
32.21667,-2
32.22500,-2
32.23333,-2
32.24167,-2
32.25000,-3
32.25833,-3
32.26667,-3
32.27500,-3
32.28333,-3
32.29167,-3
32.30000,-3
32.30833,-3
32.31667,-3
32.32500,-2
32.33333,-2
32.34167,-2
32.35000,-2
32.35833,-2
32.36667,-2
32.37500,-2
32.38333,-2
32.39167,-2
32.40000,-2
32.40833,-2
32.41667,-3
32.42500,-3
32.43333,-3
32.44167,-2
32.45000,-2
32.45833,-2
32.46667,-2
32.47500,-2
32.48333,-2
32.49167,-2
32.50000,-2
32.50833,-3
32.51667,-3
32.52500,-3
32.53333,-3
32.54167,-3
32.55000,-2
32.55833,-2
32.56667,-2
32.57500,-2
32.58333,-2
32.59167,-2
32.60000,-2
32.60833,-2
32.61667,-2
32.62500,-2
32.63333,-2
32.64167,-2
32.65000,-2
32.65833,-2
32.66667,-2
32.67500,-3
32.68333,-3
32.69167,-3
32.70000,-2
32.70833,-2
32.71667,-2
32.72500,-2
32.73333,-2
32.74167,-2
32.75000,-2
32.75833,-2
32.76667,-2
32.77500,-2
32.78333,-2
32.79167,-2
32.80000,-2
32.80833,-2
32.81667,-2
32.82500,-2
32.83333,-2
32.84167,-2
32.85000,-2
32.85833,-3
32.86667,-3
32.87500,-3
32.88333,-3
32.89167,-2
32.90000,-2
32.90833,-2
32.91667,-2
32.92500,-2
32.93333,-2
32.94167,-3
32.95000,-3
32.95833,-3
32.96667,-3
32.97500,-3
32.98333,-3
32.99167,-3
33.00000,-3
33.00833,-3
33.01667,-3
33.02500,-3
33.03333,-3
33.04167,-3
33.05000,-3
33.05833,-3
33.06667,-3
33.07500,-3
33.08333,-3
33.09167,-3
33.10000,-3
33.10833,-3
33.11667,-3
33.12500,-4
33.13333,-4
33.14167,-4
33.15000,-3
33.15833,-3
33.16667,-3
33.17500,-4
33.18333,-3
33.19167,-3
33.20000,-3
33.20833,-3
33.21667,-3
33.22500,-4
33.23333,-3
33.24167,-3
33.25000,-3
33.25833,-3
33.26667,-3
33.27500,-3
33.28333,-4
33.29167,-4
33.30000,-5
33.30833,-5
33.31667,-5
33.32500,-5
33.33333,-5
33.34167,-4
33.35000,-4
33.35833,-4
33.36667,-4
33.37500,-4
33.38333,-4
33.39167,-4
33.40000,-4
33.40833,-4
33.41667,-5
33.42500,-4
33.43333,-4
33.44167,-5
33.45000,-5
33.45833,-4
33.46667,-4
33.47500,-4
33.48333,-4
33.49167,-4
33.50000,-4
33.50833,-4
33.51667,-4
33.52500,-4
33.53333,-4
33.54167,-4
33.55000,-4
33.55833,-4
33.56667,-4
33.57500,-4
33.58333,-4
33.59167,-4
33.60000,-4
33.60833,-4
33.61667,-4
33.62500,-4
33.63333,-4
33.64167,-4
33.65000,-4
33.65833,-4
33.66667,-4
33.67500,-4
33.68333,-3
33.69167,-3
33.70000,-3
33.70833,-3
33.71667,-3
33.72500,-3
33.73333,-3
33.74167,-3
33.75000,-3
33.75833,-3
33.76667,-3
33.77500,-4
33.78333,-4
33.79167,-4
33.80000,-4
33.80833,-3
33.81667,-3
33.82500,-3
33.83333,-3
33.84167,-3
33.85000,-3
33.85833,-3
33.86667,-3
33.87500,-4
33.88333,-4
33.89167,-4
33.90000,-4
33.90833,-4
33.91667,-4
33.92500,-4
33.93333,-4
33.94167,-4
33.95000,-4
33.95833,-4
33.96667,-4
33.97500,-4
33.98333,-4
33.99167,-4
34.00000,-4
34.00833,-4
34.01667,-3
34.02500,-3
34.03333,-3
34.04167,-3
34.05000,-3
34.05833,-3
34.06667,-3
34.07500,-3
34.08333,-4
34.09167,-4
34.10000,-4
34.10833,-3
34.11667,-3
34.12500,-4
34.13333,-4
34.14167,-4
34.15000,-3
34.15833,-3
34.16667,-3
34.17500,-3
34.18333,-3
34.19167,-3
34.20000,-3
34.20833,-3
34.21667,-3
34.22500,-3
34.23333,-4
34.24167,-4
34.25000,-4
34.25833,-4
34.26667,-4
34.27500,-4
34.28333,-5
34.29167,-5
34.30000,-5
34.30833,-5
34.31667,-5
34.32500,-5
34.33333,-4
34.34167,-4
34.35000,-5
34.35833,-5
34.36667,-4
34.37500,-4
34.38333,-4
34.39167,-3
34.40000,-3
34.40833,-3
34.41667,-4
34.42500,-4
34.43333,-4
34.44167,-4
34.45000,-4
34.45833,-4
34.46667,-4
34.47500,-4
34.48333,-3
34.49167,-3
34.50000,-3
34.50833,-3
34.51667,-3
34.52500,-3
34.53333,-4
34.54167,-4
34.55000,-4
34.55833,-4
34.56667,-4
34.57500,-5
34.58333,-4
34.59167,-4
34.60000,-4
34.60833,-5
34.61667,-5
34.62500,-4
34.63333,-4
34.64167,-4
34.65000,-3
34.65833,-3
34.66667,-3
34.67500,-3
34.68333,-3
34.69167,-3
34.70000,-4
34.70833,-4
34.71667,-4
34.72500,-4
34.73333,-4
34.74167,-4
34.75000,-4
34.75833,-4
34.76667,-4
34.77500,-4
34.78333,-4
34.79167,-4
34.80000,-4
34.80833,-4
34.81667,-4
34.82500,-4
34.83333,-4
34.84167,-4
34.85000,-4
34.85833,-4
34.86667,-3
34.87500,-3
34.88333,-3
34.89167,-3
34.90000,-3
34.90833,-3
34.91667,-3
34.92500,-3
34.93333,-3
34.94167,-3
34.95000,-3
34.95833,-3
34.96667,-2
34.97500,-2
34.98333,-2
34.99167,-2
35.00000,-2
35.00833,-2
35.01667,-3
35.02500,-2
35.03333,-3
35.04167,-3
35.05000,-3
35.05833,-3
35.06667,-3
35.07500,-3
35.08333,-2
35.09167,-2
35.10000,-2
35.10833,-2
35.11667,-3
35.12500,-3
35.13333,-3
35.14167,-3
35.15000,-3
35.15833,-3
35.16667,-3
35.17500,-3
35.18333,-4
35.19167,-4
35.20000,-4
35.20833,-4
35.21667,-4
35.22500,-4
35.23333,-4
35.24167,-4
35.25000,-4
35.25833,-3
35.26667,-3
35.27500,-3
35.28333,-3
35.29167,-3
35.30000,-3
35.30833,-3
35.31667,-3
35.32500,-3
35.33333,-3
35.34167,-3
35.35000,-4
35.35833,-3
35.36667,-3
35.37500,-3
35.38333,-3
35.39167,-3
35.40000,-3
35.40833,-3
35.41667,-3
35.42500,-3
35.43333,-3
35.44167,-3
35.45000,-4
35.45833,-4
35.46667,-4
35.47500,-4
35.48333,-4
35.49167,-4
35.50000,-4
35.50833,-4
35.51667,-4
35.52500,-5
35.53333,-5
35.54167,-5
35.55000,-4
35.55833,-5
35.56667,-5
35.57500,-5
35.58333,-5
35.59167,-5
35.60000,-5
35.60833,-5
35.61667,-5
35.62500,-5
35.63333,-5
35.64167,-5
35.65000,-5
35.65833,-5
35.66667,-5
35.67500,-5
35.68333,-5
35.69167,-5
35.70000,-5
35.70833,-5
35.71667,-5
35.72500,-5
35.73333,-5
35.74167,-5
35.75000,-5
35.75833,-4
35.76667,-4
35.77500,-5
35.78333,-5
35.79167,-5
35.80000,-5
35.80833,-5
35.81667,-5
35.82500,-5
35.83333,-5
35.84167,-5
35.85000,-5
35.85833,-5
35.86667,-5
35.87500,-5
35.88333,-5
35.89167,-5
35.90000,-5
35.90833,-5
35.91667,-5
35.92500,-5
35.93333,-5
35.94167,-5
35.95000,-5
35.95833,-5
35.96667,-5
35.97500,-6
35.98333,-6
35.99167,-5
36.00000,-5
36.00833,-5
36.01667,-6
36.02500,-6
36.03333,-6
36.04167,-6
36.05000,-6
36.05833,-6
36.06667,-6
36.07500,-6
36.08333,-6
36.09167,-6
36.10000,-6
36.10833,-6
36.11667,-6
36.12500,-6
36.13333,-6
36.14167,-6
36.15000,-6
36.15833,-6
36.16667,-6
36.17500,-6
36.18333,-6
36.19167,-6
36.20000,-6
36.20833,-6
36.21667,-6
36.22500,-6
36.23333,-6
36.24167,-7
36.25000,-7
36.25833,-7
36.26667,-7
36.27500,-7
36.28333,-7
36.29167,-7
36.30000,-7
36.30833,-7
36.31667,-7
36.32500,-7
36.33333,-7
36.34167,-8
36.35000,-8
36.35833,-8
36.36667,-7
36.37500,-7
36.38333,-7
36.39167,-7
36.40000,-7
36.40833,-7
36.41667,-7
36.42500,-7
36.43333,-7
36.44167,-7
36.45000,-7
36.45833,-7
36.46667,-7
36.47500,-7
36.48333,-7
36.49167,-6
36.50000,-6
36.50833,-6
36.51667,-6
36.52500,-6
36.53333,-7
36.54167,-7
36.55000,-7
36.55833,-7
36.56667,-7
36.57500,-6
36.58333,-6
36.59167,-6
36.60000,-6
36.60833,-6
36.61667,-6
36.62500,-6
36.63333,-6
36.64167,-6
36.65000,-6
36.65833,-6
36.66667,-6
36.67500,-6
36.68333,-6
36.69167,-6
36.70000,-6
36.70833,-6
36.71667,-6
36.72500,-6
36.73333,-6
36.74167,-6
36.75000,-6
36.75833,-6
36.76667,-6
36.77500,-6
36.78333,-6
36.79167,-6
36.80000,-6
36.80833,-6
36.81667,-6
36.82500,-6
36.83333,-5
36.84167,-5
36.85000,-5
36.85833,-6
36.86667,-5
36.87500,-5
36.88333,-5
36.89167,-5
36.90000,-5
36.90833,-5
36.91667,-5
36.92500,-5
36.93333,-5
36.94167,-5
36.95000,-5
36.95833,-5
36.96667,-5
36.97500,-5
36.98333,-5
36.99167,-5
37.00000,-5
37.00833,-5
37.01667,-5
37.02500,-5
37.03333,-5
37.04167,-5
37.05000,-5
37.05833,-5
37.06667,-5
37.07500,-4
37.08333,-4
37.09167,-4
37.10000,-4
37.10833,-4
37.11667,-4
37.12500,-5
37.13333,-5
37.14167,-5
37.15000,-5
37.15833,-5
37.16667,-5
37.17500,-5
37.18333,-5
37.19167,-5
37.20000,-5
37.20833,-5
37.21667,-5
37.22500,-5
37.23333,-5
37.24167,-5
37.25000,-5
37.25833,-5
37.26667,-5
37.27500,-5
37.28333,-6
37.29167,-6
37.30000,-6
37.30833,-6
37.31667,-6
37.32500,-6
37.33333,-6
37.34167,-6
37.35000,-5
37.35833,-5
37.36667,-5
37.37500,-5
37.38333,-5
37.39167,-5
37.40000,-5
37.40833,-5
37.41667,-5
37.42500,-5
37.43333,-5
37.44167,-5
37.45000,-5
37.45833,-5
37.46667,-5
37.47500,-5
37.48333,-5
37.49167,-5
37.50000,-5
37.50833,-5
37.51667,-5
37.52500,-5
37.53333,-5
37.54167,-5
37.55000,-5
37.55833,-5
37.56667,-6
37.57500,-6
37.58333,-6
37.59167,-6
37.60000,-5
37.60833,-5
37.61667,-5
37.62500,-5
37.63333,-5
37.64167,-5
37.65000,-5
37.65833,-5
37.66667,-5
37.67500,-5
37.68333,-6
37.69167,-6
37.70000,-6
37.70833,-5
37.71667,-5
37.72500,-5
37.73333,-5
37.74167,-5
37.75000,-5
37.75833,-5
37.76667,-5
37.77500,-6
37.78333,-6
37.79167,-6
37.80000,-6
37.80833,-7
37.81667,-7
37.82500,-7
37.83333,-7
37.84167,-7
37.85000,-6
37.85833,-6
37.86667,-6
37.87500,-6
37.88333,-6
37.89167,-5
37.90000,-6
37.90833,-5
37.91667,-5
37.92500,-5
37.93333,-5
37.94167,-5
37.95000,-5
37.95833,-5
37.96667,-5
37.97500,-5
37.98333,-6
37.99167,-6
38.00000,-6
38.00833,-6
38.01667,-6
38.02500,-5
38.03333,-6
38.04167,-6
38.05000,-6
38.05833,-6
38.06667,-7
38.07500,-7
38.08333,-7
38.09167,-7
38.10000,-7
38.10833,-7
38.11667,-6
38.12500,-6
38.13333,-6
38.14167,-6
38.15000,-6
38.15833,-6
38.16667,-5
38.17500,-5
38.18333,-5
38.19167,-5
38.20000,-5
38.20833,-5
38.21667,-5
38.22500,-5
38.23333,-5
38.24167,-5
38.25000,-5
38.25833,-5
38.26667,-5
38.27500,-5
38.28333,-5
38.29167,-5
38.30000,-5
38.30833,-5
38.31667,-5
38.32500,-5
38.33333,-5
38.34167,-6
38.35000,-6
38.35833,-6
38.36667,-6
38.37500,-6
38.38333,-6
38.39167,-5
38.40000,-5
38.40833,-5
38.41667,-5
38.42500,-5
38.43333,-6
38.44167,-6
38.45000,-6
38.45833,-6
38.46667,-6
38.47500,-6
38.48333,-6
38.49167,-6
38.50000,-6
38.50833,-6
38.51667,-6
38.52500,-6
38.53333,-6
38.54167,-7
38.55000,-7
38.55833,-7
38.56667,-7
38.57500,-7
38.58333,-6
38.59167,-6
38.60000,-6
38.60833,-6
38.61667,-6
38.62500,-6
38.63333,-6
38.64167,-6
38.65000,-6
38.65833,-6
38.66667,-7
38.67500,-7
38.68333,-6
38.69167,-7
38.70000,-7
38.70833,-7
38.71667,-7
38.72500,-7
38.73333,-6
38.74167,-6
38.75000,-6
38.75833,-6
38.76667,-7
38.77500,-7
38.78333,-7
38.79167,-7
38.80000,-7
38.80833,-7
38.81667,-7
38.82500,-7
38.83333,-6
38.84167,-7
38.85000,-7
38.85833,-7
38.86667,-7
38.87500,-6
38.88333,-6
38.89167,-6
38.90000,-6
38.90833,-6
38.91667,-6
38.92500,-6
38.93333,-6
38.94167,-6
38.95000,-6
38.95833,-6
38.96667,-6
38.97500,-6
38.98333,-6
38.99167,-6
39.00000,-6
39.00833,-6
39.01667,-6
39.02500,-6
39.03333,-6
39.04167,-6
39.05000,-6
39.05833,-6
39.06667,-6
39.07500,-6
39.08333,-6
39.09167,-6
39.10000,-6
39.10833,-7
39.11667,-7
39.12500,-7
39.13333,-7
39.14167,-7
39.15000,-6
39.15833,-6
39.16667,-7
39.17500,-7
39.18333,-7
39.19167,-7
39.20000,-7
39.20833,-7
39.21667,-7
39.22500,-7
39.23333,-7
39.24167,-7
39.25000,-7
39.25833,-7
39.26667,-7
39.27500,-6
39.28333,-6
39.29167,-6
39.30000,-7
39.30833,-7
39.31667,-7
39.32500,-7
39.33333,-8
39.34167,-8
39.35000,-8
39.35833,-7
39.36667,-7
39.37500,-7
39.38333,-7
39.39167,-8
39.40000,-8
39.40833,-8
39.41667,-8
39.42500,-8
39.43333,-7
39.44167,-7
39.45000,-7
39.45833,-7
39.46667,-7
39.47500,-7
39.48333,-7
39.49167,-7
39.50000,-7
39.50833,-7
39.51667,-7
39.52500,-8
39.53333,-8
39.54167,-8
39.55000,-8
39.55833,-8
39.56667,-8
39.57500,-7
39.58333,-7
39.59167,-7
39.60000,-7
39.60833,-7
39.61667,-7
39.62500,-8
39.63333,-8
39.64167,-8
39.65000,-8
39.65833,-8
39.66667,-8
39.67500,-8
39.68333,-8
39.69167,-8
39.70000,-9
39.70833,-8
39.71667,-8
39.72500,-8
39.73333,-8
39.74167,-8
39.75000,-8
39.75833,-8
39.76667,-8
39.77500,-8
39.78333,-7
39.79167,-7
39.80000,-7
39.80833,-8
39.81667,-8
39.82500,-8
39.83333,-8
39.84167,-8
39.85000,-8
39.85833,-8
39.86667,-8
39.87500,-8
39.88333,-8
39.89167,-7
39.90000,-7
39.90833,-7
39.91667,-7
39.92500,-7
39.93333,-7
39.94167,-7
39.95000,-7
39.95833,-7
39.96667,-7
39.97500,-7
39.98333,-7
39.99167,-7
40.00000,-7

