[Header]
Application Name,LabSolutions
Version,5.97 SP1
Data File Name,C:\Users\cremerlab\Desktop\griffin\2021-04-03_buffer_calibration\2021-04-03_buffer_calibration_432021_001_001.lcd
Output Date,4/3/2021
Output Time,2:42:54 PM

[File Information]
Type,Data File
Generated,4/3/2021 2:02:33 PM
Generated by,System Administrator
Modified,4/3/2021 2:42:54 PM
Modified by,System Administrator

[Sample Information]
Operator Name,System Administrator
Acquired,4/3/2021 2:02:53 PM
Sample Type,1:Standard
Level,1
Sample Name,2021-04-02_NC_glucose_glycerol_acetate_calibration_30mM
Sample ID,001
ISTD Amount1,1
ISTD Amount2,1
ISTD Amount3,1
ISTD Amount4,1
ISTD Amount5,1
ISTD Amount6,1
ISTD Amount7,1
ISTD Amount8,1
ISTD Amount9,1
ISTD Amount10,1
ISTD Amount11,1
ISTD Amount12,1
ISTD Amount13,1
ISTD Amount14,1
ISTD Amount15,1
ISTD Amount16,1
ISTD Amount17,1
ISTD Amount18,1
ISTD Amount19,1
ISTD Amount20,1
ISTD Amount21,1
ISTD Amount22,1
ISTD Amount23,1
ISTD Amount24,1
ISTD Amount25,1
ISTD Amount26,1
ISTD Amount27,1
ISTD Amount28,1
ISTD Amount29,1
ISTD Amount30,1
ISTD Amount31,1
ISTD Amount32,1
Sample Amount,1
Dilution Factor,1
Vial#,1
Injection Volume,20

[Original Files]
Data File,C:\Users\cremerlab\Desktop\griffin\2021-04-03_buffer_calibration\2021-04-03_buffer_calibration_432021_001_001.lcd
Method File,C:\LabSolutions\Data\Project1\organicacidsetc2.lcm
Batch File,C:\Users\cremerlab\Desktop\griffin\2021-04-03_buffer_calibration\2021-04-03_buffer_calibration.lcb
Report Format File,c:\LabSolutions\System\DEFAULT.lsr

[File Description]


[Configuration]
Instrument Name,HPLC-PC-Instrument1
Instrument #,1
Line #,1
# of Detectors,2
Detector ID,Detector A,Detector B
Detector Name,Detector A,Detector B
# of Channels,1,1

[Peak Table(Detector A)]
# of Peaks,0

[Peak Table(Detector B)]
# of Peaks,7
Peak#,R.Time,I.Time,F.Time,Area,Height,A/H,Conc.,Mark,ID#,Name,k',Plate #,Plate Ht.,Tailing,Resolution,Sep.Factor,Area Ratio,Height Ratio,Conc. %,Norm Conc.
1,3.792,2.833,4.383,17389,300,57.937,0.000,   ,,,0.000,122,1228.632,0.825,0.000,0.000,0,0,0.000,0.000
2,11.064,10.758,11.650,1157921,68788,16.833,0.000,   ,,,1.917,10729,13.981,1.378,8.079,0.000,0,0,0.000,0.000
3,11.830,11.650,12.850,105038,2577,40.765,0.000, V ,,,2.120,0,0.000,0.000,0.000,1.105,0,0,0.000,0.000
4,15.105,14.108,15.350,3040868,114886,26.469,0.000,   ,,,2.983,6866,21.846,0.000,0.000,1.407,0,0,0.000,0.000
5,15.659,15.350,18.767,2910028,118697,24.517,0.000, V ,,,3.129,9460,15.856,0.000,0.808,1.049,0,0,0.000,0.000
6,22.077,21.300,23.667,829532,30596,27.112,0.000,   ,,,4.821,15421,9.727,1.092,9.472,1.541,0,0,0.000,0.000
7,25.064,24.292,26.283,355184,12071,29.426,0.000,   ,,,5.609,16693,8.986,1.072,4.018,1.163,0,0,0.000,0.000

[LC Chromatogram(Detector B-Ch1)]
Interval(msec),500
# of Points,4801
Start Time(min),0.000
End Time(min),40.000
Intensity Units,mV
Intensity Multiplier,0.001
R.Time (min),Intensity
0.00000,83
0.00833,83
0.01667,2
0.02500,4
0.03333,5
0.04167,7
0.05000,9
0.05833,10
0.06667,12
0.07500,13
0.08333,14
0.09167,16
0.10000,16
0.10833,17
0.11667,18
0.12500,19
0.13333,20
0.14167,21
0.15000,22
0.15833,23
0.16667,24
0.17500,24
0.18333,25
0.19167,26
0.20000,26
0.20833,27
0.21667,28
0.22500,29
0.23333,29
0.24167,30
0.25000,30
0.25833,30
0.26667,31
0.27500,31
0.28333,32
0.29167,32
0.30000,32
0.30833,33
0.31667,33
0.32500,34
0.33333,34
0.34167,34
0.35000,34
0.35833,34
0.36667,34
0.37500,34
0.38333,34
0.39167,34
0.40000,34
0.40833,34
0.41667,34
0.42500,34
0.43333,35
0.44167,35
0.45000,35
0.45833,35
0.46667,36
0.47500,36
0.48333,36
0.49167,36
0.50000,36
0.50833,35
0.51667,35
0.52500,35
0.53333,35
0.54167,35
0.55000,35
0.55833,35
0.56667,34
0.57500,34
0.58333,34
0.59167,34
0.60000,34
0.60833,34
0.61667,33
0.62500,33
0.63333,33
0.64167,32
0.65000,32
0.65833,32
0.66667,32
0.67500,31
0.68333,31
0.69167,31
0.70000,30
0.70833,30
0.71667,30
0.72500,29
0.73333,29
0.74167,30
0.75000,30
0.75833,29
0.76667,29
0.77500,28
0.78333,28
0.79167,28
0.80000,27
0.80833,27
0.81667,27
0.82500,26
0.83333,25
0.84167,25
0.85000,25
0.85833,25
0.86667,24
0.87500,24
0.88333,24
0.89167,24
0.90000,24
0.90833,24
0.91667,24
0.92500,24
0.93333,23
0.94167,23
0.95000,22
0.95833,22
0.96667,22
0.97500,21
0.98333,21
0.99167,21
1.00000,21
1.00833,20
1.01667,20
1.02500,19
1.03333,19
1.04167,19
1.05000,18
1.05833,18
1.06667,18
1.07500,17
1.08333,17
1.09167,17
1.10000,16
1.10833,16
1.11667,16
1.12500,16
1.13333,15
1.14167,15
1.15000,15
1.15833,14
1.16667,14
1.17500,14
1.18333,14
1.19167,13
1.20000,13
1.20833,12
1.21667,12
1.22500,12
1.23333,12
1.24167,11
1.25000,11
1.25833,11
1.26667,11
1.27500,11
1.28333,11
1.29167,11
1.30000,11
1.30833,10
1.31667,10
1.32500,9
1.33333,9
1.34167,8
1.35000,8
1.35833,8
1.36667,7
1.37500,7
1.38333,6
1.39167,6
1.40000,6
1.40833,6
1.41667,5
1.42500,5
1.43333,5
1.44167,4
1.45000,4
1.45833,3
1.46667,3
1.47500,3
1.48333,3
1.49167,3
1.50000,3
1.50833,2
1.51667,1
1.52500,1
1.53333,1
1.54167,1
1.55000,1
1.55833,0
1.56667,0
1.57500,0
1.58333,-0
1.59167,-0
1.60000,-0
1.60833,-0
1.61667,-0
1.62500,0
1.63333,-0
1.64167,-0
1.65000,-0
1.65833,-1
1.66667,-1
1.67500,-1
1.68333,-2
1.69167,-2
1.70000,-3
1.70833,-3
1.71667,-3
1.72500,-3
1.73333,-3
1.74167,-3
1.75000,-3
1.75833,-3
1.76667,-3
1.77500,-3
1.78333,-3
1.79167,-3
1.80000,-3
1.80833,-4
1.81667,-4
1.82500,-4
1.83333,-4
1.84167,-4
1.85000,-4
1.85833,-4
1.86667,-4
1.87500,-4
1.88333,-4
1.89167,-4
1.90000,-5
1.90833,-5
1.91667,-5
1.92500,-6
1.93333,-6
1.94167,-6
1.95000,-6
1.95833,-6
1.96667,-6
1.97500,-6
1.98333,-6
1.99167,-6
2.00000,-6
2.00833,-6
2.01667,-6
2.02500,-6
2.03333,-6
2.04167,-6
2.05000,-7
2.05833,-7
2.06667,-7
2.07500,-7
2.08333,-8
2.09167,-8
2.10000,-7
2.10833,-7
2.11667,-7
2.12500,-7
2.13333,-8
2.14167,-8
2.15000,-8
2.15833,-8
2.16667,-8
2.17500,-8
2.18333,-8
2.19167,-7
2.20000,-7
2.20833,-7
2.21667,-7
2.22500,-7
2.23333,-7
2.24167,-7
2.25000,-6
2.25833,-6
2.26667,-6
2.27500,-6
2.28333,-6
2.29167,-6
2.30000,-6
2.30833,-6
2.31667,-6
2.32500,-5
2.33333,-5
2.34167,-5
2.35000,-5
2.35833,-5
2.36667,-4
2.37500,-4
2.38333,-4
2.39167,-4
2.40000,-3
2.40833,-3
2.41667,-3
2.42500,-3
2.43333,-3
2.44167,-3
2.45000,-3
2.45833,-2
2.46667,-2
2.47500,-2
2.48333,-2
2.49167,-1
2.50000,-1
2.50833,-1
2.51667,-1
2.52500,-1
2.53333,-1
2.54167,0
2.55000,1
2.55833,1
2.56667,2
2.57500,2
2.58333,3
2.59167,3
2.60000,4
2.60833,4
2.61667,4
2.62500,5
2.63333,5
2.64167,6
2.65000,7
2.65833,8
2.66667,9
2.67500,10
2.68333,11
2.69167,13
2.70000,14
2.70833,15
2.71667,17
2.72500,18
2.73333,19
2.74167,21
2.75000,22
2.75833,24
2.76667,26
2.77500,28
2.78333,31
2.79167,33
2.80000,35
2.80833,38
2.81667,41
2.82500,43
2.83333,46
2.84167,50
2.85000,53
2.85833,57
2.86667,60
2.87500,63
2.88333,67
2.89167,71
2.90000,75
2.90833,80
2.91667,85
2.92500,90
2.93333,95
2.94167,100
2.95000,106
2.95833,112
2.96667,117
2.97500,124
2.98333,130
2.99167,137
3.00000,143
3.00833,150
3.01667,158
3.02500,165
3.03333,172
3.04167,180
3.05000,188
3.05833,196
3.06667,204
3.07500,212
3.08333,221
3.09167,229
3.10000,238
3.10833,246
3.11667,255
3.12500,264
3.13333,273
3.14167,281
3.15000,290
3.15833,300
3.16667,309
3.17500,319
3.18333,329
3.19167,339
3.20000,348
3.20833,357
3.21667,367
3.22500,376
3.23333,385
3.24167,394
3.25000,404
3.25833,413
3.26667,422
3.27500,431
3.28333,440
3.29167,449
3.30000,457
3.30833,466
3.31667,474
3.32500,482
3.33333,490
3.34167,498
3.35000,506
3.35833,513
3.36667,521
3.37500,528
3.38333,536
3.39167,542
3.40000,549
3.40833,556
3.41667,563
3.42500,569
3.43333,575
3.44167,581
3.45000,587
3.45833,593
3.46667,599
3.47500,604
3.48333,609
3.49167,614
3.50000,618
3.50833,623
3.51667,627
3.52500,631
3.53333,635
3.54167,639
3.55000,642
3.55833,646
3.56667,649
3.57500,652
3.58333,655
3.59167,658
3.60000,661
3.60833,664
3.61667,666
3.62500,669
3.63333,671
3.64167,673
3.65000,675
3.65833,677
3.66667,678
3.67500,679
3.68333,681
3.69167,682
3.70000,683
3.70833,684
3.71667,684
3.72500,685
3.73333,686
3.74167,686
3.75000,686
3.75833,686
3.76667,686
3.77500,687
3.78333,687
3.79167,687
3.80000,687
3.80833,687
3.81667,687
3.82500,686
3.83333,685
3.84167,684
3.85000,683
3.85833,683
3.86667,682
3.87500,681
3.88333,680
3.89167,679
3.90000,678
3.90833,676
3.91667,675
3.92500,674
3.93333,673
3.94167,672
3.95000,670
3.95833,668
3.96667,667
3.97500,665
3.98333,663
3.99167,662
4.00000,660
4.00833,658
4.01667,657
4.02500,655
4.03333,653
4.04167,652
4.05000,650
4.05833,648
4.06667,646
4.07500,644
4.08333,642
4.09167,640
4.10000,638
4.10833,636
4.11667,634
4.12500,632
4.13333,630
4.14167,628
4.15000,627
4.15833,626
4.16667,624
4.17500,623
4.18333,621
4.19167,619
4.20000,618
4.20833,616
4.21667,615
4.22500,614
4.23333,612
4.24167,611
4.25000,609
4.25833,608
4.26667,607
4.27500,606
4.28333,605
4.29167,604
4.30000,603
4.30833,603
4.31667,602
4.32500,601
4.33333,600
4.34167,600
4.35000,599
4.35833,598
4.36667,598
4.37500,597
4.38333,597
4.39167,597
4.40000,597
4.40833,597
4.41667,596
4.42500,596
4.43333,597
4.44167,597
4.45000,598
4.45833,599
4.46667,599
4.47500,600
4.48333,601
4.49167,602
4.50000,603
4.50833,604
4.51667,605
4.52500,607
4.53333,608
4.54167,609
4.55000,611
4.55833,613
4.56667,615
4.57500,617
4.58333,620
4.59167,622
4.60000,625
4.60833,628
4.61667,631
4.62500,634
4.63333,638
4.64167,641
4.65000,645
4.65833,649
4.66667,653
4.67500,658
4.68333,662
4.69167,667
4.70000,672
4.70833,676
4.71667,682
4.72500,687
4.73333,693
4.74167,698
4.75000,705
4.75833,711
4.76667,717
4.77500,723
4.78333,730
4.79167,736
4.80000,743
4.80833,750
4.81667,757
4.82500,765
4.83333,772
4.84167,781
4.85000,789
4.85833,797
4.86667,805
4.87500,814
4.88333,822
4.89167,830
4.90000,839
4.90833,848
4.91667,858
4.92500,868
4.93333,877
4.94167,887
4.95000,896
4.95833,905
4.96667,915
4.97500,925
4.98333,935
4.99167,945
5.00000,955
5.00833,966
5.01667,976
5.02500,986
5.03333,997
5.04167,1008
5.05000,1019
5.05833,1029
5.06667,1040
5.07500,1050
5.08333,1061
5.09167,1071
5.10000,1082
5.10833,1092
5.11667,1103
5.12500,1114
5.13333,1125
5.14167,1136
5.15000,1147
5.15833,1158
5.16667,1168
5.17500,1179
5.18333,1189
5.19167,1199
5.20000,1210
5.20833,1220
5.21667,1230
5.22500,1241
5.23333,1251
5.24167,1261
5.25000,1271
5.25833,1281
5.26667,1290
5.27500,1300
5.28333,1309
5.29167,1319
5.30000,1329
5.30833,1339
5.31667,1349
5.32500,1358
5.33333,1368
5.34167,1377
5.35000,1387
5.35833,1395
5.36667,1404
5.37500,1413
5.38333,1421
5.39167,1430
5.40000,1438
5.40833,1446
5.41667,1455
5.42500,1463
5.43333,1472
5.44167,1480
5.45000,1488
5.45833,1495
5.46667,1503
5.47500,1511
5.48333,1518
5.49167,1526
5.50000,1533
5.50833,1541
5.51667,1548
5.52500,1555
5.53333,1562
5.54167,1568
5.55000,1574
5.55833,1581
5.56667,1587
5.57500,1594
5.58333,1600
5.59167,1606
5.60000,1612
5.60833,1618
5.61667,1624
5.62500,1630
5.63333,1636
5.64167,1642
5.65000,1647
5.65833,1653
5.66667,1658
5.67500,1663
5.68333,1668
5.69167,1674
5.70000,1679
5.70833,1684
5.71667,1688
5.72500,1693
5.73333,1697
5.74167,1701
5.75000,1706
5.75833,1710
5.76667,1714
5.77500,1719
5.78333,1723
5.79167,1727
5.80000,1731
5.80833,1735
5.81667,1739
5.82500,1742
5.83333,1746
5.84167,1750
5.85000,1753
5.85833,1757
5.86667,1760
5.87500,1764
5.88333,1767
5.89167,1771
5.90000,1774
5.90833,1777
5.91667,1780
5.92500,1783
5.93333,1786
5.94167,1789
5.95000,1791
5.95833,1794
5.96667,1797
5.97500,1800
5.98333,1803
5.99167,1805
6.00000,1808
6.00833,1810
6.01667,1813
6.02500,1816
6.03333,1819
6.04167,1821
6.05000,1823
6.05833,1826
6.06667,1828
6.07500,1830
6.08333,1833
6.09167,1836
6.10000,1839
6.10833,1841
6.11667,1844
6.12500,1846
6.13333,1849
6.14167,1851
6.15000,1853
6.15833,1855
6.16667,1857
6.17500,1860
6.18333,1862
6.19167,1864
6.20000,1866
6.20833,1868
6.21667,1870
6.22500,1873
6.23333,1875
6.24167,1877
6.25000,1879
6.25833,1881
6.26667,1884
6.27500,1886
6.28333,1888
6.29167,1891
6.30000,1893
6.30833,1895
6.31667,1898
6.32500,1900
6.33333,1903
6.34167,1905
6.35000,1908
6.35833,1910
6.36667,1913
6.37500,1916
6.38333,1918
6.39167,1921
6.40000,1923
6.40833,1926
6.41667,1928
6.42500,1931
6.43333,1934
6.44167,1938
6.45000,1940
6.45833,1943
6.46667,1946
6.47500,1949
6.48333,1952
6.49167,1955
6.50000,1958
6.50833,1961
6.51667,1964
6.52500,1968
6.53333,1971
6.54167,1974
6.55000,1977
6.55833,1980
6.56667,1983
6.57500,1987
6.58333,1991
6.59167,1994
6.60000,1997
6.60833,2001
6.61667,2004
6.62500,2007
6.63333,2011
6.64167,2014
6.65000,2018
6.65833,2021
6.66667,2025
6.67500,2029
6.68333,2033
6.69167,2037
6.70000,2040
6.70833,2044
6.71667,2048
6.72500,2052
6.73333,2056
6.74167,2059
6.75000,2063
6.75833,2068
6.76667,2072
6.77500,2076
6.78333,2080
6.79167,2084
6.80000,2088
6.80833,2092
6.81667,2096
6.82500,2100
6.83333,2104
6.84167,2108
6.85000,2112
6.85833,2116
6.86667,2121
6.87500,2125
6.88333,2129
6.89167,2134
6.90000,2138
6.90833,2142
6.91667,2146
6.92500,2150
6.93333,2154
6.94167,2158
6.95000,2163
6.95833,2167
6.96667,2171
6.97500,2175
6.98333,2179
6.99167,2183
7.00000,2188
7.00833,2192
7.01667,2196
7.02500,2200
7.03333,2204
7.04167,2209
7.05000,2213
7.05833,2217
7.06667,2221
7.07500,2225
7.08333,2229
7.09167,2233
7.10000,2237
7.10833,2240
7.11667,2244
7.12500,2248
7.13333,2252
7.14167,2256
7.15000,2260
7.15833,2264
7.16667,2268
7.17500,2272
7.18333,2275
7.19167,2279
7.20000,2283
7.20833,2287
7.21667,2290
7.22500,2294
7.23333,2297
7.24167,2301
7.25000,2305
7.25833,2308
7.26667,2312
7.27500,2315
7.28333,2318
7.29167,2321
7.30000,2324
7.30833,2327
7.31667,2331
7.32500,2334
7.33333,2337
7.34167,2340
7.35000,2343
7.35833,2346
7.36667,2349
7.37500,2352
7.38333,2355
7.39167,2359
7.40000,2361
7.40833,2364
7.41667,2367
7.42500,2370
7.43333,2373
7.44167,2376
7.45000,2378
7.45833,2380
7.46667,2383
7.47500,2385
7.48333,2388
7.49167,2390
7.50000,2393
7.50833,2395
7.51667,2397
7.52500,2400
7.53333,2403
7.54167,2405
7.55000,2407
7.55833,2410
7.56667,2412
7.57500,2414
7.58333,2416
7.59167,2418
7.60000,2420
7.60833,2423
7.61667,2425
7.62500,2427
7.63333,2429
7.64167,2431
7.65000,2433
7.65833,2435
7.66667,2437
7.67500,2439
7.68333,2441
7.69167,2443
7.70000,2445
7.70833,2447
7.71667,2448
7.72500,2450
7.73333,2452
7.74167,2454
7.75000,2456
7.75833,2457
7.76667,2459
7.77500,2461
7.78333,2463
7.79167,2464
7.80000,2466
7.80833,2468
7.81667,2470
7.82500,2471
7.83333,2473
7.84167,2474
7.85000,2476
7.85833,2477
7.86667,2479
7.87500,2481
7.88333,2482
7.89167,2484
7.90000,2486
7.90833,2487
7.91667,2489
7.92500,2490
7.93333,2492
7.94167,2493
7.95000,2494
7.95833,2496
7.96667,2497
7.97500,2499
7.98333,2500
7.99167,2501
8.00000,2503
8.00833,2504
8.01667,2505
8.02500,2506
8.03333,2507
8.04167,2509
8.05000,2510
8.05833,2511
8.06667,2513
8.07500,2514
8.08333,2516
8.09167,2517
8.10000,2518
8.10833,2520
8.11667,2521
8.12500,2522
8.13333,2523
8.14167,2524
8.15000,2526
8.15833,2527
8.16667,2528
8.17500,2529
8.18333,2531
8.19167,2532
8.20000,2533
8.20833,2535
8.21667,2536
8.22500,2537
8.23333,2538
8.24167,2539
8.25000,2540
8.25833,2541
8.26667,2542
8.27500,2543
8.28333,2544
8.29167,2546
8.30000,2547
8.30833,2548
8.31667,2549
8.32500,2551
8.33333,2552
8.34167,2553
8.35000,2554
8.35833,2555
8.36667,2556
8.37500,2557
8.38333,2558
8.39167,2559
8.40000,2560
8.40833,2561
8.41667,2562
8.42500,2563
8.43333,2564
8.44167,2566
8.45000,2567
8.45833,2567
8.46667,2568
8.47500,2569
8.48333,2570
8.49167,2571
8.50000,2572
8.50833,2573
8.51667,2574
8.52500,2575
8.53333,2576
8.54167,2577
8.55000,2578
8.55833,2578
8.56667,2579
8.57500,2580
8.58333,2581
8.59167,2582
8.60000,2583
8.60833,2584
8.61667,2585
8.62500,2585
8.63333,2586
8.64167,2587
8.65000,2588
8.65833,2589
8.66667,2590
8.67500,2591
8.68333,2592
8.69167,2593
8.70000,2594
8.70833,2595
8.71667,2596
8.72500,2596
8.73333,2597
8.74167,2598
8.75000,2598
8.75833,2599
8.76667,2600
8.77500,2601
8.78333,2602
8.79167,2603
8.80000,2604
8.80833,2604
8.81667,2605
8.82500,2606
8.83333,2607
8.84167,2608
8.85000,2609
8.85833,2610
8.86667,2610
8.87500,2611
8.88333,2611
8.89167,2612
8.90000,2613
8.90833,2613
8.91667,2614
8.92500,2615
8.93333,2616
8.94167,2617
8.95000,2618
8.95833,2618
8.96667,2619
8.97500,2620
8.98333,2620
8.99167,2621
9.00000,2621
9.00833,2622
9.01667,2623
9.02500,2624
9.03333,2624
9.04167,2625
9.05000,2626
9.05833,2627
9.06667,2628
9.07500,2628
9.08333,2629
9.09167,2630
9.10000,2630
9.10833,2631
9.11667,2632
9.12500,2632
9.13333,2633
9.14167,2633
9.15000,2634
9.15833,2634
9.16667,2635
9.17500,2636
9.18333,2637
9.19167,2638
9.20000,2638
9.20833,2639
9.21667,2639
9.22500,2640
9.23333,2640
9.24167,2641
9.25000,2641
9.25833,2642
9.26667,2643
9.27500,2644
9.28333,2645
9.29167,2645
9.30000,2646
9.30833,2646
9.31667,2647
9.32500,2647
9.33333,2648
9.34167,2649
9.35000,2649
9.35833,2650
9.36667,2651
9.37500,2652
9.38333,2652
9.39167,2653
9.40000,2653
9.40833,2654
9.41667,2654
9.42500,2655
9.43333,2656
9.44167,2657
9.45000,2657
9.45833,2658
9.46667,2658
9.47500,2658
9.48333,2659
9.49167,2659
9.50000,2659
9.50833,2660
9.51667,2661
9.52500,2661
9.53333,2662
9.54167,2662
9.55000,2663
9.55833,2663
9.56667,2663
9.57500,2664
9.58333,2664
9.59167,2665
9.60000,2666
9.60833,2666
9.61667,2667
9.62500,2667
9.63333,2668
9.64167,2668
9.65000,2669
9.65833,2669
9.66667,2670
9.67500,2671
9.68333,2671
9.69167,2672
9.70000,2673
9.70833,2674
9.71667,2675
9.72500,2675
9.73333,2676
9.74167,2676
9.75000,2676
9.75833,2677
9.76667,2677
9.77500,2677
9.78333,2678
9.79167,2678
9.80000,2679
9.80833,2680
9.81667,2680
9.82500,2681
9.83333,2681
9.84167,2682
9.85000,2682
9.85833,2683
9.86667,2683
9.87500,2683
9.88333,2683
9.89167,2684
9.90000,2684
9.90833,2684
9.91667,2685
9.92500,2686
9.93333,2686
9.94167,2687
9.95000,2687
9.95833,2688
9.96667,2688
9.97500,2689
9.98333,2689
9.99167,2690
10.00000,2690
10.00833,2691
10.01667,2691
10.02500,2692
10.03333,2692
10.04167,2693
10.05000,2693
10.05833,2694
10.06667,2694
10.07500,2694
10.08333,2695
10.09167,2695
10.10000,2695
10.10833,2695
10.11667,2696
10.12500,2696
10.13333,2697
10.14167,2697
10.15000,2698
10.15833,2698
10.16667,2699
10.17500,2700
10.18333,2700
10.19167,2701
10.20000,2701
10.20833,2702
10.21667,2702
10.22500,2702
10.23333,2702
10.24167,2703
10.25000,2703
10.25833,2704
10.26667,2704
10.27500,2704
10.28333,2705
10.29167,2705
10.30000,2706
10.30833,2707
10.31667,2707
10.32500,2708
10.33333,2709
10.34167,2710
10.35000,2710
10.35833,2711
10.36667,2711
10.37500,2711
10.38333,2712
10.39167,2712
10.40000,2713
10.40833,2714
10.41667,2715
10.42500,2716
10.43333,2716
10.44167,2717
10.45000,2717
10.45833,2718
10.46667,2719
10.47500,2719
10.48333,2720
10.49167,2720
10.50000,2719
10.50833,2719
10.51667,2717
10.52500,2713
10.53333,2708
10.54167,2701
10.55000,2691
10.55833,2676
10.56667,2656
10.57500,2630
10.58333,2595
10.59167,2551
10.60000,2494
10.60833,2422
10.61667,2334
10.62500,2228
10.63333,2102
10.64167,1953
10.65000,1783
10.65833,1591
10.66667,1377
10.67500,1144
10.68333,894
10.69167,633
10.70000,366
10.70833,102
10.71667,-152
10.72500,-384
10.73333,-584
10.74167,-740
10.75000,-838
10.75833,-866
10.76667,-810
10.77500,-658
10.78333,-397
10.79167,-14
10.80000,502
10.80833,1160
10.81667,1970
10.82500,2938
10.83333,4072
10.84167,5375
10.85000,6851
10.85833,8501
10.86667,10325
10.87500,12322
10.88333,14489
10.89167,16821
10.90000,19312
10.90833,21954
10.91667,24735
10.92500,27645
10.93333,30667
10.94167,33784
10.95000,36974
10.95833,40213
10.96667,43472
10.97500,46716
10.98333,49908
10.99167,53004
11.00000,55957
11.00833,58717
11.01667,61232
11.02500,63448
11.03333,65314
11.04167,66785
11.05000,67819
11.05833,68388
11.06667,68474
11.07500,68070
11.08333,67187
11.09167,65847
11.10000,64084
11.10833,61946
11.11667,59485
11.12500,56761
11.13333,53837
11.14167,50775
11.15000,47634
11.15833,44469
11.16667,41329
11.17500,38256
11.18333,35286
11.19167,32445
11.20000,29754
11.20833,27228
11.21667,24873
11.22500,22694
11.23333,20690
11.24167,18856
11.25000,17187
11.25833,15675
11.26667,14310
11.27500,13082
11.28333,11981
11.29167,10997
11.30000,10119
11.30833,9338
11.31667,8645
11.32500,8031
11.33333,7487
11.34167,7007
11.35000,6583
11.35833,6210
11.36667,5882
11.37500,5593
11.38333,5339
11.39167,5116
11.40000,4921
11.40833,4750
11.41667,4600
11.42500,4469
11.43333,4354
11.44167,4254
11.45000,4166
11.45833,4089
11.46667,4022
11.47500,3963
11.48333,3911
11.49167,3867
11.50000,3829
11.50833,3795
11.51667,3766
11.52500,3740
11.53333,3719
11.54167,3700
11.55000,3684
11.55833,3671
11.56667,3659
11.57500,3650
11.58333,3642
11.59167,3635
11.60000,3630
11.60833,3626
11.61667,3622
11.62500,3620
11.63333,3619
11.64167,3618
11.65000,3617
11.65833,3617
11.66667,3618
11.67500,3619
11.68333,3620
11.69167,3621
11.70000,3622
11.70833,3624
11.71667,3626
11.72500,3628
11.73333,3629
11.74167,3631
11.75000,3633
11.75833,3635
11.76667,3637
11.77500,3639
11.78333,3641
11.79167,3642
11.80000,3643
11.80833,3644
11.81667,3645
11.82500,3645
11.83333,3645
11.84167,3645
11.85000,3644
11.85833,3643
11.86667,3642
11.87500,3640
11.88333,3639
11.89167,3637
11.90000,3634
11.90833,3631
11.91667,3628
11.92500,3624
11.93333,3620
11.94167,3615
11.95000,3611
11.95833,3606
11.96667,3601
11.97500,3595
11.98333,3588
11.99167,3581
12.00000,3574
12.00833,3567
12.01667,3559
12.02500,3551
12.03333,3542
12.04167,3533
12.05000,3525
12.05833,3516
12.06667,3507
12.07500,3497
12.08333,3487
12.09167,3478
12.10000,3467
12.10833,3457
12.11667,3446
12.12500,3436
12.13333,3426
12.14167,3415
12.15000,3404
12.15833,3393
12.16667,3382
12.17500,3371
12.18333,3360
12.19167,3349
12.20000,3337
12.20833,3326
12.21667,3316
12.22500,3305
12.23333,3295
12.24167,3284
12.25000,3273
12.25833,3263
12.26667,3252
12.27500,3242
12.28333,3231
12.29167,3221
12.30000,3211
12.30833,3202
12.31667,3192
12.32500,3183
12.33333,3174
12.34167,3165
12.35000,3157
12.35833,3148
12.36667,3140
12.37500,3131
12.38333,3123
12.39167,3116
12.40000,3108
12.40833,3100
12.41667,3093
12.42500,3086
12.43333,3079
12.44167,3072
12.45000,3065
12.45833,3058
12.46667,3052
12.47500,3046
12.48333,3040
12.49167,3034
12.50000,3029
12.50833,3023
12.51667,3018
12.52500,3013
12.53333,3008
12.54167,3003
12.55000,2998
12.55833,2994
12.56667,2990
12.57500,2986
12.58333,2982
12.59167,2977
12.60000,2973
12.60833,2969
12.61667,2965
12.62500,2962
12.63333,2958
12.64167,2955
12.65000,2952
12.65833,2949
12.66667,2946
12.67500,2943
12.68333,2940
12.69167,2937
12.70000,2934
12.70833,2932
12.71667,2929
12.72500,2927
12.73333,2925
12.74167,2923
12.75000,2921
12.75833,2920
12.76667,2918
12.77500,2917
12.78333,2916
12.79167,2914
12.80000,2912
12.80833,2911
12.81667,2911
12.82500,2910
12.83333,2909
12.84167,2909
12.85000,2909
12.85833,2908
12.86667,2908
12.87500,2908
12.88333,2908
12.89167,2908
12.90000,2909
12.90833,2909
12.91667,2910
12.92500,2910
12.93333,2911
12.94167,2911
12.95000,2912
12.95833,2912
12.96667,2912
12.97500,2913
12.98333,2913
12.99167,2913
13.00000,2914
13.00833,2915
13.01667,2915
13.02500,2916
13.03333,2917
13.04167,2917
13.05000,2918
13.05833,2918
13.06667,2919
13.07500,2920
13.08333,2920
13.09167,2921
13.10000,2921
13.10833,2921
13.11667,2921
13.12500,2922
13.13333,2923
13.14167,2923
13.15000,2923
13.15833,2923
13.16667,2923
13.17500,2923
13.18333,2924
13.19167,2924
13.20000,2924
13.20833,2924
13.21667,2924
13.22500,2923
13.23333,2922
13.24167,2922
13.25000,2921
13.25833,2921
13.26667,2920
13.27500,2920
13.28333,2919
13.29167,2918
13.30000,2917
13.30833,2916
13.31667,2915
13.32500,2913
13.33333,2912
13.34167,2911
13.35000,2909
13.35833,2908
13.36667,2906
13.37500,2904
13.38333,2901
13.39167,2899
13.40000,2897
13.40833,2895
13.41667,2893
13.42500,2891
13.43333,2890
13.44167,2888
13.45000,2886
13.45833,2884
13.46667,2882
13.47500,2880
13.48333,2878
13.49167,2876
13.50000,2874
13.50833,2872
13.51667,2870
13.52500,2868
13.53333,2866
13.54167,2864
13.55000,2863
13.55833,2861
13.56667,2860
13.57500,2859
13.58333,2857
13.59167,2856
13.60000,2855
13.60833,2853
13.61667,2852
13.62500,2851
13.63333,2850
13.64167,2849
13.65000,2848
13.65833,2847
13.66667,2846
13.67500,2845
13.68333,2844
13.69167,2843
13.70000,2843
13.70833,2842
13.71667,2841
13.72500,2841
13.73333,2841
13.74167,2841
13.75000,2841
13.75833,2840
13.76667,2840
13.77500,2839
13.78333,2839
13.79167,2839
13.80000,2839
13.80833,2839
13.81667,2838
13.82500,2838
13.83333,2838
13.84167,2838
13.85000,2838
13.85833,2838
13.86667,2838
13.87500,2838
13.88333,2838
13.89167,2838
13.90000,2839
13.90833,2839
13.91667,2839
13.92500,2838
13.93333,2838
13.94167,2839
13.95000,2839
13.95833,2839
13.96667,2839
13.97500,2839
13.98333,2840
13.99167,2840
14.00000,2840
14.00833,2841
14.01667,2841
14.02500,2842
14.03333,2842
14.04167,2842
14.05000,2843
14.05833,2843
14.06667,2844
14.07500,2845
14.08333,2846
14.09167,2847
14.10000,2848
14.10833,2849
14.11667,2851
14.12500,2852
14.13333,2853
14.14167,2855
14.15000,2857
14.15833,2859
14.16667,2862
14.17500,2865
14.18333,2869
14.19167,2873
14.20000,2879
14.20833,2885
14.21667,2892
14.22500,2900
14.23333,2910
14.24167,2922
14.25000,2936
14.25833,2953
14.26667,2973
14.27500,2996
14.28333,3025
14.29167,3060
14.30000,3100
14.30833,3148
14.31667,3205
14.32500,3272
14.33333,3350
14.34167,3441
14.35000,3546
14.35833,3667
14.36667,3806
14.37500,3963
14.38333,4142
14.39167,4343
14.40000,4569
14.40833,4820
14.41667,5099
14.42500,5407
14.43333,5746
14.44167,6115
14.45000,6517
14.45833,6954
14.46667,7425
14.47500,7930
14.48333,8472
14.49167,9050
14.50000,9664
14.50833,10315
14.51667,11003
14.52500,11728
14.53333,12489
14.54167,13286
14.55000,14119
14.55833,14988
14.56667,15891
14.57500,16829
14.58333,17801
14.59167,18806
14.60000,19843
14.60833,20913
14.61667,22015
14.62500,23147
14.63333,24309
14.64167,25501
14.65000,26722
14.65833,27971
14.66667,29248
14.67500,30552
14.68333,31883
14.69167,33241
14.70000,34624
14.70833,36033
14.71667,37467
14.72500,38926
14.73333,40409
14.74167,41916
14.75000,43446
14.75833,45000
14.76667,46577
14.77500,48176
14.78333,49798
14.79167,51443
14.80000,53109
14.80833,54796
14.81667,56505
14.82500,58235
14.83333,59986
14.84167,61758
14.85000,63550
14.85833,65364
14.86667,67196
14.87500,69048
14.88333,70920
14.89167,72810
14.90000,74719
14.90833,76646
14.91667,78590
14.92500,80551
14.93333,82527
14.94167,84519
14.95000,86525
14.95833,88544
14.96667,90574
14.97500,92614
14.98333,94661
14.99167,96712
15.00000,98764
15.00833,100812
15.01667,102847
15.02500,104861
15.03333,106838
15.04167,108761
15.05000,110605
15.05833,112338
15.06667,113921
15.07500,115308
15.08333,116445
15.09167,117275
15.10000,117737
15.10833,117772
15.11667,117328
15.12500,116358
15.13333,114833
15.14167,112737
15.15000,110074
15.15833,106868
15.16667,103163
15.17500,99017
15.18333,94504
15.19167,89710
15.20000,84724
15.20833,79638
15.21667,74542
15.22500,69519
15.23333,64645
15.24167,59984
15.25000,55588
15.25833,51499
15.26667,47747
15.27500,44353
15.28333,41328
15.29167,38677
15.30000,36400
15.30833,34491
15.31667,32944
15.32500,31750
15.33333,30898
15.34167,30378
15.35000,30181
15.35833,30298
15.36667,30720
15.37500,31438
15.38333,32446
15.39167,33735
15.40000,35299
15.40833,37129
15.41667,39216
15.42500,41552
15.43333,44124
15.44167,46921
15.45000,49928
15.45833,53128
15.46667,56504
15.47500,60035
15.48333,63698
15.49167,67469
15.50000,71323
15.50833,75230
15.51667,79162
15.52500,83088
15.53333,86976
15.54167,90795
15.55000,94512
15.55833,98097
15.56667,101519
15.57500,104749
15.58333,107759
15.59167,110524
15.60000,113019
15.60833,115225
15.61667,117123
15.62500,118698
15.63333,119940
15.64167,120841
15.65000,121396
15.65833,121604
15.66667,121467
15.67500,120992
15.68333,120187
15.69167,119063
15.70000,117635
15.70833,115919
15.71667,113933
15.72500,111698
15.73333,109236
15.74167,106568
15.75000,103718
15.75833,100711
15.76667,97568
15.77500,94313
15.78333,90971
15.79167,87563
15.80000,84111
15.80833,80636
15.81667,77155
15.82500,73689
15.83333,70252
15.84167,66861
15.85000,63529
15.85833,60267
15.86667,57087
15.87500,53997
15.88333,51005
15.89167,48119
15.90000,45342
15.90833,42679
15.91667,40131
15.92500,37701
15.93333,35390
15.94167,33196
15.95000,31120
15.95833,29159
15.96667,27310
15.97500,25571
15.98333,23939
15.99167,22410
16.00000,20980
16.00833,19646
16.01667,18403
16.02500,17247
16.03333,16173
16.04167,15176
16.05000,14253
16.05833,13399
16.06667,12610
16.07500,11883
16.08333,11212
16.09167,10594
16.10000,10025
16.10833,9502
16.11667,9022
16.12500,8581
16.13333,8177
16.14167,7806
16.15000,7466
16.15833,7155
16.16667,6870
16.17500,6609
16.18333,6370
16.19167,6151
16.20000,5951
16.20833,5767
16.21667,5599
16.22500,5445
16.23333,5303
16.24167,5174
16.25000,5055
16.25833,4947
16.26667,4847
16.27500,4755
16.28333,4670
16.29167,4592
16.30000,4520
16.30833,4454
16.31667,4392
16.32500,4336
16.33333,4283
16.34167,4235
16.35000,4190
16.35833,4149
16.36667,4110
16.37500,4073
16.38333,4039
16.39167,4008
16.40000,3978
16.40833,3951
16.41667,3925
16.42500,3901
16.43333,3878
16.44167,3856
16.45000,3836
16.45833,3817
16.46667,3799
16.47500,3782
16.48333,3767
16.49167,3751
16.50000,3737
16.50833,3723
16.51667,3710
16.52500,3698
16.53333,3686
16.54167,3674
16.55000,3664
16.55833,3654
16.56667,3644
16.57500,3634
16.58333,3625
16.59167,3616
16.60000,3608
16.60833,3600
16.61667,3592
16.62500,3585
16.63333,3577
16.64167,3571
16.65000,3564
16.65833,3558
16.66667,3551
16.67500,3545
16.68333,3539
16.69167,3533
16.70000,3528
16.70833,3522
16.71667,3516
16.72500,3511
16.73333,3506
16.74167,3500
16.75000,3496
16.75833,3491
16.76667,3486
16.77500,3481
16.78333,3476
16.79167,3471
16.80000,3466
16.80833,3461
16.81667,3457
16.82500,3452
16.83333,3448
16.84167,3444
16.85000,3439
16.85833,3435
16.86667,3430
16.87500,3426
16.88333,3421
16.89167,3417
16.90000,3413
16.90833,3409
16.91667,3405
16.92500,3401
16.93333,3397
16.94167,3394
16.95000,3390
16.95833,3386
16.96667,3382
16.97500,3378
16.98333,3374
16.99167,3370
17.00000,3366
17.00833,3362
17.01667,3358
17.02500,3355
17.03333,3351
17.04167,3347
17.05000,3344
17.05833,3340
17.06667,3337
17.07500,3333
17.08333,3329
17.09167,3326
17.10000,3323
17.10833,3320
17.11667,3317
17.12500,3314
17.13333,3310
17.14167,3307
17.15000,3304
17.15833,3301
17.16667,3299
17.17500,3296
17.18333,3292
17.19167,3289
17.20000,3286
17.20833,3283
17.21667,3280
17.22500,3277
17.23333,3274
17.24167,3272
17.25000,3269
17.25833,3266
17.26667,3263
17.27500,3260
17.28333,3258
17.29167,3255
17.30000,3252
17.30833,3250
17.31667,3247
17.32500,3245
17.33333,3242
17.34167,3240
17.35000,3238
17.35833,3236
17.36667,3234
17.37500,3232
17.38333,3229
17.39167,3227
17.40000,3224
17.40833,3222
17.41667,3220
17.42500,3218
17.43333,3216
17.44167,3214
17.45000,3213
17.45833,3211
17.46667,3209
17.47500,3207
17.48333,3205
17.49167,3203
17.50000,3201
17.50833,3199
17.51667,3198
17.52500,3196
17.53333,3194
17.54167,3192
17.55000,3191
17.55833,3189
17.56667,3187
17.57500,3186
17.58333,3184
17.59167,3182
17.60000,3181
17.60833,3179
17.61667,3177
17.62500,3176
17.63333,3174
17.64167,3173
17.65000,3171
17.65833,3170
17.66667,3168
17.67500,3166
17.68333,3164
17.69167,3163
17.70000,3161
17.70833,3160
17.71667,3158
17.72500,3157
17.73333,3155
17.74167,3154
17.75000,3152
17.75833,3152
17.76667,3150
17.77500,3149
17.78333,3147
17.79167,3146
17.80000,3145
17.80833,3143
17.81667,3141
17.82500,3140
17.83333,3139
17.84167,3137
17.85000,3136
17.85833,3135
17.86667,3134
17.87500,3133
17.88333,3132
17.89167,3131
17.90000,3129
17.90833,3128
17.91667,3126
17.92500,3125
17.93333,3123
17.94167,3122
17.95000,3121
17.95833,3119
17.96667,3118
17.97500,3116
17.98333,3115
17.99167,3114
18.00000,3112
18.00833,3111
18.01667,3109
18.02500,3108
18.03333,3107
18.04167,3106
18.05000,3105
18.05833,3104
18.06667,3103
18.07500,3102
18.08333,3101
18.09167,3100
18.10000,3099
18.10833,3097
18.11667,3096
18.12500,3095
18.13333,3094
18.14167,3093
18.15000,3092
18.15833,3091
18.16667,3090
18.17500,3088
18.18333,3087
18.19167,3085
18.20000,3084
18.20833,3083
18.21667,3081
18.22500,3080
18.23333,3079
18.24167,3078
18.25000,3077
18.25833,3076
18.26667,3076
18.27500,3075
18.28333,3074
18.29167,3072
18.30000,3071
18.30833,3070
18.31667,3069
18.32500,3068
18.33333,3066
18.34167,3065
18.35000,3064
18.35833,3063
18.36667,3062
18.37500,3061
18.38333,3060
18.39167,3059
18.40000,3058
18.40833,3057
18.41667,3056
18.42500,3055
18.43333,3054
18.44167,3053
18.45000,3052
18.45833,3051
18.46667,3050
18.47500,3049
18.48333,3049
18.49167,3048
18.50000,3047
18.50833,3046
18.51667,3045
18.52500,3044
18.53333,3043
18.54167,3042
18.55000,3041
18.55833,3040
18.56667,3039
18.57500,3038
18.58333,3038
18.59167,3037
18.60000,3036
18.60833,3035
18.61667,3034
18.62500,3033
18.63333,3032
18.64167,3032
18.65000,3031
18.65833,3031
18.66667,3030
18.67500,3029
18.68333,3028
18.69167,3028
18.70000,3027
18.70833,3026
18.71667,3026
18.72500,3025
18.73333,3025
18.74167,3024
18.75000,3023
18.75833,3023
18.76667,3023
18.77500,3023
18.78333,3023
18.79167,3022
18.80000,3022
18.80833,3022
18.81667,3022
18.82500,3021
18.83333,3021
18.84167,3021
18.85000,3021
18.85833,3021
18.86667,3021
18.87500,3021
18.88333,3021
18.89167,3021
18.90000,3021
18.90833,3021
18.91667,3021
18.92500,3020
18.93333,3020
18.94167,3020
18.95000,3020
18.95833,3020
18.96667,3020
18.97500,3020
18.98333,3019
18.99167,3019
19.00000,3018
19.00833,3017
19.01667,3017
19.02500,3017
19.03333,3016
19.04167,3015
19.05000,3014
19.05833,3014
19.06667,3013
19.07500,3012
19.08333,3011
19.09167,3010
19.10000,3009
19.10833,3008
19.11667,3007
19.12500,3006
19.13333,3005
19.14167,3004
19.15000,3003
19.15833,3002
19.16667,3001
19.17500,3000
19.18333,2998
19.19167,2997
19.20000,2996
19.20833,2996
19.21667,2995
19.22500,2994
19.23333,2994
19.24167,2993
19.25000,2992
19.25833,2991
19.26667,2990
19.27500,2989
19.28333,2988
19.29167,2987
19.30000,2986
19.30833,2985
19.31667,2984
19.32500,2984
19.33333,2983
19.34167,2982
19.35000,2982
19.35833,2981
19.36667,2980
19.37500,2980
19.38333,2979
19.39167,2979
19.40000,2978
19.40833,2978
19.41667,2977
19.42500,2977
19.43333,2976
19.44167,2976
19.45000,2975
19.45833,2974
19.46667,2974
19.47500,2974
19.48333,2973
19.49167,2973
19.50000,2972
19.50833,2971
19.51667,2971
19.52500,2970
19.53333,2969
19.54167,2969
19.55000,2969
19.55833,2969
19.56667,2968
19.57500,2968
19.58333,2968
19.59167,2967
19.60000,2967
19.60833,2966
19.61667,2966
19.62500,2965
19.63333,2965
19.64167,2965
19.65000,2965
19.65833,2965
19.66667,2964
19.67500,2964
19.68333,2963
19.69167,2963
19.70000,2962
19.70833,2962
19.71667,2961
19.72500,2961
19.73333,2960
19.74167,2960
19.75000,2960
19.75833,2960
19.76667,2959
19.77500,2959
19.78333,2959
19.79167,2959
19.80000,2959
19.80833,2959
19.81667,2958
19.82500,2957
19.83333,2957
19.84167,2957
19.85000,2957
19.85833,2956
19.86667,2956
19.87500,2956
19.88333,2956
19.89167,2955
19.90000,2955
19.90833,2954
19.91667,2954
19.92500,2953
19.93333,2953
19.94167,2953
19.95000,2953
19.95833,2953
19.96667,2952
19.97500,2952
19.98333,2952
19.99167,2952
20.00000,2952
20.00833,2952
20.01667,2951
20.02500,2951
20.03333,2951
20.04167,2950
20.05000,2950
20.05833,2950
20.06667,2950
20.07500,2950
20.08333,2950
20.09167,2949
20.10000,2949
20.10833,2949
20.11667,2949
20.12500,2948
20.13333,2949
20.14167,2948
20.15000,2948
20.15833,2948
20.16667,2947
20.17500,2947
20.18333,2947
20.19167,2947
20.20000,2946
20.20833,2946
20.21667,2946
20.22500,2946
20.23333,2946
20.24167,2946
20.25000,2945
20.25833,2945
20.26667,2945
20.27500,2945
20.28333,2945
20.29167,2944
20.30000,2944
20.30833,2944
20.31667,2944
20.32500,2944
20.33333,2943
20.34167,2943
20.35000,2943
20.35833,2944
20.36667,2944
20.37500,2943
20.38333,2943
20.39167,2943
20.40000,2943
20.40833,2943
20.41667,2942
20.42500,2942
20.43333,2942
20.44167,2942
20.45000,2941
20.45833,2941
20.46667,2941
20.47500,2941
20.48333,2941
20.49167,2941
20.50000,2941
20.50833,2940
20.51667,2940
20.52500,2940
20.53333,2940
20.54167,2940
20.55000,2939
20.55833,2939
20.56667,2939
20.57500,2939
20.58333,2939
20.59167,2939
20.60000,2939
20.60833,2939
20.61667,2939
20.62500,2939
20.63333,2939
20.64167,2939
20.65000,2939
20.65833,2938
20.66667,2938
20.67500,2938
20.68333,2938
20.69167,2938
20.70000,2938
20.70833,2937
20.71667,2937
20.72500,2937
20.73333,2937
20.74167,2937
20.75000,2937
20.75833,2936
20.76667,2936
20.77500,2936
20.78333,2936
20.79167,2936
20.80000,2936
20.80833,2935
20.81667,2935
20.82500,2935
20.83333,2935
20.84167,2935
20.85000,2936
20.85833,2936
20.86667,2935
20.87500,2935
20.88333,2935
20.89167,2935
20.90000,2935
20.90833,2934
20.91667,2934
20.92500,2934
20.93333,2934
20.94167,2933
20.95000,2933
20.95833,2933
20.96667,2933
20.97500,2934
20.98333,2934
20.99167,2933
21.00000,2933
21.00833,2933
21.01667,2933
21.02500,2933
21.03333,2933
21.04167,2932
21.05000,2933
21.05833,2933
21.06667,2933
21.07500,2933
21.08333,2932
21.09167,2932
21.10000,2932
21.10833,2932
21.11667,2933
21.12500,2933
21.13333,2933
21.14167,2933
21.15000,2933
21.15833,2933
21.16667,2933
21.17500,2933
21.18333,2933
21.19167,2933
21.20000,2933
21.20833,2933
21.21667,2934
21.22500,2934
21.23333,2934
21.24167,2934
21.25000,2934
21.25833,2935
21.26667,2935
21.27500,2935
21.28333,2936
21.29167,2936
21.30000,2937
21.30833,2938
21.31667,2939
21.32500,2940
21.33333,2942
21.34167,2943
21.35000,2945
21.35833,2947
21.36667,2949
21.37500,2951
21.38333,2954
21.39167,2958
21.40000,2961
21.40833,2966
21.41667,2971
21.42500,2977
21.43333,2984
21.44167,2991
21.45000,2999
21.45833,3008
21.46667,3019
21.47500,3031
21.48333,3044
21.49167,3060
21.50000,3077
21.50833,3096
21.51667,3118
21.52500,3143
21.53333,3171
21.54167,3203
21.55000,3239
21.55833,3279
21.56667,3326
21.57500,3378
21.58333,3436
21.59167,3502
21.60000,3577
21.60833,3660
21.61667,3754
21.62500,3859
21.63333,3975
21.64167,4106
21.65000,4250
21.65833,4412
21.66667,4590
21.67500,4787
21.68333,5005
21.69167,5244
21.70000,5507
21.70833,5794
21.71667,6108
21.72500,6449
21.73333,6820
21.74167,7221
21.75000,7653
21.75833,8118
21.76667,8615
21.77500,9147
21.78333,9713
21.79167,10314
21.80000,10949
21.80833,11618
21.81667,12321
21.82500,13056
21.83333,13822
21.84167,14617
21.85000,15439
21.85833,16286
21.86667,17155
21.87500,18042
21.88333,18944
21.89167,19858
21.90000,20779
21.90833,21702
21.91667,22623
21.92500,23539
21.93333,24442
21.94167,25329
21.95000,26194
21.95833,27032
21.96667,27839
21.97500,28608
21.98333,29336
21.99167,30017
22.00000,30648
22.00833,31225
22.01667,31745
22.02500,32204
22.03333,32598
22.04167,32927
22.05000,33189
22.05833,33381
22.06667,33503
22.07500,33555
22.08333,33537
22.09167,33450
22.10000,33296
22.10833,33075
22.11667,32791
22.12500,32445
22.13333,32040
22.14167,31579
22.15000,31066
22.15833,30505
22.16667,29899
22.17500,29254
22.18333,28572
22.19167,27858
22.20000,27117
22.20833,26352
22.21667,25568
22.22500,24770
22.23333,23961
22.24167,23145
22.25000,22327
22.25833,21509
22.26667,20694
22.27500,19887
22.28333,19089
22.29167,18304
22.30000,17533
22.30833,16780
22.31667,16045
22.32500,15331
22.33333,14639
22.34167,13970
22.35000,13325
22.35833,12705
22.36667,12111
22.37500,11542
22.38333,10998
22.39167,10480
22.40000,9988
22.40833,9521
22.41667,9079
22.42500,8661
22.43333,8266
22.44167,7895
22.45000,7546
22.45833,7219
22.46667,6913
22.47500,6626
22.48333,6358
22.49167,6109
22.50000,5876
22.50833,5660
22.51667,5460
22.52500,5274
22.53333,5102
22.54167,4942
22.55000,4795
22.55833,4658
22.56667,4533
22.57500,4417
22.58333,4310
22.59167,4211
22.60000,4121
22.60833,4038
22.61667,3961
22.62500,3891
22.63333,3826
22.64167,3767
22.65000,3713
22.65833,3663
22.66667,3618
22.67500,3576
22.68333,3537
22.69167,3502
22.70000,3470
22.70833,3440
22.71667,3413
22.72500,3388
22.73333,3365
22.74167,3344
22.75000,3324
22.75833,3307
22.76667,3290
22.77500,3275
22.78333,3261
22.79167,3247
22.80000,3235
22.80833,3223
22.81667,3212
22.82500,3203
22.83333,3194
22.84167,3186
22.85000,3178
22.85833,3170
22.86667,3163
22.87500,3157
22.88333,3150
22.89167,3145
22.90000,3140
22.90833,3135
22.91667,3130
22.92500,3126
22.93333,3122
22.94167,3118
22.95000,3114
22.95833,3111
22.96667,3107
22.97500,3104
22.98333,3101
22.99167,3098
23.00000,3096
23.00833,3093
23.01667,3090
23.02500,3088
23.03333,3085
23.04167,3083
23.05000,3080
23.05833,3078
23.06667,3076
23.07500,3075
23.08333,3073
23.09167,3071
23.10000,3069
23.10833,3068
23.11667,3066
23.12500,3065
23.13333,3063
23.14167,3061
23.15000,3060
23.15833,3058
23.16667,3057
23.17500,3056
23.18333,3055
23.19167,3053
23.20000,3052
23.20833,3051
23.21667,3049
23.22500,3048
23.23333,3047
23.24167,3046
23.25000,3045
23.25833,3044
23.26667,3042
23.27500,3041
23.28333,3040
23.29167,3039
23.30000,3039
23.30833,3038
23.31667,3037
23.32500,3036
23.33333,3035
23.34167,3034
23.35000,3033
23.35833,3032
23.36667,3031
23.37500,3030
23.38333,3029
23.39167,3028
23.40000,3027
23.40833,3026
23.41667,3025
23.42500,3023
23.43333,3022
23.44167,3022
23.45000,3021
23.45833,3020
23.46667,3019
23.47500,3018
23.48333,3018
23.49167,3017
23.50000,3016
23.50833,3015
23.51667,3015
23.52500,3014
23.53333,3013
23.54167,3012
23.55000,3012
23.55833,3011
23.56667,3010
23.57500,3010
23.58333,3009
23.59167,3009
23.60000,3008
23.60833,3007
23.61667,3007
23.62500,3006
23.63333,3005
23.64167,3004
23.65000,3004
23.65833,3004
23.66667,3004
23.67500,3003
23.68333,3003
23.69167,3002
23.70000,3001
23.70833,3001
23.71667,3000
23.72500,2999
23.73333,2999
23.74167,2999
23.75000,2999
23.75833,2999
23.76667,2998
23.77500,2998
23.78333,2997
23.79167,2997
23.80000,2997
23.80833,2996
23.81667,2996
23.82500,2996
23.83333,2996
23.84167,2995
23.85000,2994
23.85833,2994
23.86667,2994
23.87500,2994
23.88333,2994
23.89167,2994
23.90000,2993
23.90833,2993
23.91667,2993
23.92500,2992
23.93333,2992
23.94167,2992
23.95000,2992
23.95833,2992
23.96667,2992
23.97500,2991
23.98333,2991
23.99167,2991
24.00000,2990
24.00833,2990
24.01667,2989
24.02500,2989
24.03333,2988
24.04167,2988
24.05000,2988
24.05833,2988
24.06667,2988
24.07500,2988
24.08333,2988
24.09167,2987
24.10000,2987
24.10833,2987
24.11667,2987
24.12500,2986
24.13333,2986
24.14167,2986
24.15000,2986
24.15833,2986
24.16667,2986
24.17500,2986
24.18333,2985
24.19167,2985
24.20000,2985
24.20833,2985
24.21667,2985
24.22500,2986
24.23333,2986
24.24167,2986
24.25000,2987
24.25833,2987
24.26667,2987
24.27500,2988
24.28333,2988
24.29167,2989
24.30000,2990
24.30833,2991
24.31667,2992
24.32500,2993
24.33333,2995
24.34167,2997
24.35000,2999
24.35833,3001
24.36667,3003
24.37500,3005
24.38333,3009
24.39167,3012
24.40000,3017
24.40833,3022
24.41667,3027
24.42500,3033
24.43333,3040
24.44167,3048
24.45000,3056
24.45833,3066
24.46667,3076
24.47500,3087
24.48333,3100
24.49167,3114
24.50000,3130
24.50833,3148
24.51667,3169
24.52500,3191
24.53333,3216
24.54167,3244
24.55000,3276
24.55833,3310
24.56667,3348
24.57500,3390
24.58333,3436
24.59167,3486
24.60000,3541
24.60833,3602
24.61667,3670
24.62500,3743
24.63333,3823
24.64167,3910
24.65000,4004
24.65833,4107
24.66667,4218
24.67500,4338
24.68333,4467
24.69167,4605
24.70000,4754
24.70833,4912
24.71667,5082
24.72500,5262
24.73333,5454
24.74167,5657
24.75000,5871
24.75833,6096
24.76667,6333
24.77500,6580
24.78333,6838
24.79167,7107
24.80000,7385
24.80833,7673
24.81667,7970
24.82500,8274
24.83333,8586
24.84167,8904
24.85000,9228
24.85833,9555
24.86667,9885
24.87500,10217
24.88333,10549
24.89167,10879
24.90000,11207
24.90833,11531
24.91667,11849
24.92500,12159
24.93333,12461
24.94167,12753
24.95000,13033
24.95833,13300
24.96667,13552
24.97500,13788
24.98333,14007
24.99167,14208
25.00000,14389
25.00833,14550
25.01667,14691
25.02500,14809
25.03333,14906
25.04167,14979
25.05000,15030
25.05833,15058
25.06667,15063
25.07500,15045
25.08333,15005
25.09167,14943
25.10000,14859
25.10833,14753
25.11667,14628
25.12500,14483
25.13333,14319
25.14167,14139
25.15000,13941
25.15833,13729
25.16667,13502
25.17500,13263
25.18333,13013
25.19167,12752
25.20000,12482
25.20833,12204
25.21667,11920
25.22500,11631
25.23333,11338
25.24167,11042
25.25000,10744
25.25833,10446
25.26667,10148
25.27500,9852
25.28333,9559
25.29167,9269
25.30000,8983
25.30833,8702
25.31667,8426
25.32500,8157
25.33333,7894
25.34167,7638
25.35000,7390
25.35833,7149
25.36667,6917
25.37500,6693
25.38333,6477
25.39167,6270
25.40000,6072
25.40833,5883
25.41667,5702
25.42500,5530
25.43333,5367
25.44167,5211
25.45000,5064
25.45833,4925
25.46667,4793
25.47500,4669
25.48333,4552
25.49167,4443
25.50000,4340
25.50833,4243
25.51667,4153
25.52500,4068
25.53333,3990
25.54167,3916
25.55000,3848
25.55833,3784
25.56667,3725
25.57500,3670
25.58333,3619
25.59167,3572
25.60000,3528
25.60833,3488
25.61667,3451
25.62500,3417
25.63333,3386
25.64167,3356
25.65000,3329
25.65833,3304
25.66667,3281
25.67500,3260
25.68333,3241
25.69167,3223
25.70000,3207
25.70833,3192
25.71667,3179
25.72500,3166
25.73333,3154
25.74167,3144
25.75000,3134
25.75833,3126
25.76667,3117
25.77500,3110
25.78333,3103
25.79167,3096
25.80000,3091
25.80833,3085
25.81667,3080
25.82500,3075
25.83333,3071
25.84167,3067
25.85000,3063
25.85833,3060
25.86667,3057
25.87500,3053
25.88333,3051
25.89167,3048
25.90000,3046
25.90833,3044
25.91667,3042
25.92500,3040
25.93333,3039
25.94167,3037
25.95000,3035
25.95833,3033
25.96667,3031
25.97500,3029
25.98333,3028
25.99167,3026
26.00000,3024
26.00833,3023
26.01667,3022
26.02500,3021
26.03333,3020
26.04167,3019
26.05000,3018
26.05833,3017
26.06667,3015
26.07500,3014
26.08333,3013
26.09167,3013
26.10000,3012
26.10833,3012
26.11667,3011
26.12500,3011
26.13333,3010
26.14167,3010
26.15000,3009
26.15833,3008
26.16667,3007
26.17500,3006
26.18333,3005
26.19167,3004
26.20000,3004
26.20833,3004
26.21667,3003
26.22500,3002
26.23333,3002
26.24167,3001
26.25000,3000
26.25833,3000
26.26667,2999
26.27500,2998
26.28333,2998
26.29167,2998
26.30000,2998
26.30833,2998
26.31667,2997
26.32500,2997
26.33333,2997
26.34167,2997
26.35000,2997
26.35833,2996
26.36667,2996
26.37500,2996
26.38333,2995
26.39167,2994
26.40000,2994
26.40833,2993
26.41667,2993
26.42500,2993
26.43333,2993
26.44167,2992
26.45000,2992
26.45833,2992
26.46667,2992
26.47500,2992
26.48333,2992
26.49167,2992
26.50000,2992
26.50833,2992
26.51667,2992
26.52500,2992
26.53333,2992
26.54167,2992
26.55000,2992
26.55833,2992
26.56667,2992
26.57500,2992
26.58333,2991
26.59167,2992
26.60000,2992
26.60833,2991
26.61667,2991
26.62500,2991
26.63333,2991
26.64167,2990
26.65000,2990
26.65833,2990
26.66667,2990
26.67500,2990
26.68333,2991
26.69167,2991
26.70000,2991
26.70833,2991
26.71667,2991
26.72500,2991
26.73333,2991
26.74167,2991
26.75000,2992
26.75833,2992
26.76667,2991
26.77500,2991
26.78333,2990
26.79167,2990
26.80000,2989
26.80833,2989
26.81667,2989
26.82500,2989
26.83333,2989
26.84167,2989
26.85000,2989
26.85833,2989
26.86667,2988
26.87500,2988
26.88333,2987
26.89167,2987
26.90000,2986
26.90833,2986
26.91667,2986
26.92500,2985
26.93333,2985
26.94167,2985
26.95000,2985
26.95833,2984
26.96667,2984
26.97500,2984
26.98333,2984
26.99167,2984
27.00000,2983
27.00833,2983
27.01667,2983
27.02500,2983
27.03333,2983
27.04167,2983
27.05000,2982
27.05833,2982
27.06667,2981
27.07500,2981
27.08333,2980
27.09167,2980
27.10000,2980
27.10833,2980
27.11667,2980
27.12500,2979
27.13333,2978
27.14167,2978
27.15000,2978
27.15833,2977
27.16667,2977
27.17500,2977
27.18333,2977
27.19167,2977
27.20000,2977
27.20833,2976
27.21667,2976
27.22500,2976
27.23333,2976
27.24167,2976
27.25000,2976
27.25833,2976
27.26667,2976
27.27500,2976
27.28333,2976
27.29167,2976
27.30000,2976
27.30833,2976
27.31667,2976
27.32500,2976
27.33333,2976
27.34167,2975
27.35000,2976
27.35833,2976
27.36667,2976
27.37500,2976
27.38333,2976
27.39167,2975
27.40000,2975
27.40833,2975
27.41667,2975
27.42500,2975
27.43333,2975
27.44167,2975
27.45000,2975
27.45833,2975
27.46667,2975
27.47500,2974
27.48333,2974
27.49167,2974
27.50000,2974
27.50833,2974
27.51667,2974
27.52500,2974
27.53333,2974
27.54167,2974
27.55000,2974
27.55833,2974
27.56667,2974
27.57500,2974
27.58333,2974
27.59167,2974
27.60000,2973
27.60833,2973
27.61667,2973
27.62500,2973
27.63333,2973
27.64167,2972
27.65000,2972
27.65833,2972
27.66667,2972
27.67500,2972
27.68333,2973
27.69167,2973
27.70000,2973
27.70833,2973
27.71667,2972
27.72500,2972
27.73333,2972
27.74167,2972
27.75000,2972
27.75833,2972
27.76667,2972
27.77500,2972
27.78333,2972
27.79167,2971
27.80000,2970
27.80833,2970
27.81667,2969
27.82500,2969
27.83333,2968
27.84167,2968
27.85000,2968
27.85833,2967
27.86667,2966
27.87500,2966
27.88333,2965
27.89167,2964
27.90000,2963
27.90833,2962
27.91667,2962
27.92500,2961
27.93333,2960
27.94167,2959
27.95000,2958
27.95833,2957
27.96667,2956
27.97500,2955
27.98333,2954
27.99167,2952
28.00000,2951
28.00833,2949
28.01667,2947
28.02500,2946
28.03333,2944
28.04167,2942
28.05000,2940
28.05833,2938
28.06667,2936
28.07500,2934
28.08333,2932
28.09167,2929
28.10000,2927
28.10833,2924
28.11667,2922
28.12500,2919
28.13333,2916
28.14167,2914
28.15000,2912
28.15833,2909
28.16667,2907
28.17500,2904
28.18333,2902
28.19167,2899
28.20000,2896
28.20833,2893
28.21667,2890
28.22500,2887
28.23333,2884
28.24167,2881
28.25000,2879
28.25833,2876
28.26667,2873
28.27500,2870
28.28333,2868
28.29167,2865
28.30000,2863
28.30833,2860
28.31667,2858
28.32500,2856
28.33333,2854
28.34167,2852
28.35000,2850
28.35833,2848
28.36667,2846
28.37500,2845
28.38333,2843
28.39167,2842
28.40000,2841
28.40833,2840
28.41667,2839
28.42500,2839
28.43333,2838
28.44167,2838
28.45000,2838
28.45833,2837
28.46667,2838
28.47500,2838
28.48333,2838
28.49167,2839
28.50000,2840
28.50833,2841
28.51667,2842
28.52500,2843
28.53333,2844
28.54167,2845
28.55000,2846
28.55833,2848
28.56667,2850
28.57500,2851
28.58333,2853
28.59167,2855
28.60000,2857
28.60833,2859
28.61667,2862
28.62500,2864
28.63333,2866
28.64167,2868
28.65000,2870
28.65833,2873
28.66667,2875
28.67500,2878
28.68333,2880
28.69167,2882
28.70000,2885
28.70833,2887
28.71667,2890
28.72500,2892
28.73333,2894
28.74167,2896
28.75000,2898
28.75833,2900
28.76667,2902
28.77500,2905
28.78333,2907
28.79167,2910
28.80000,2912
28.80833,2914
28.81667,2916
28.82500,2918
28.83333,2920
28.84167,2921
28.85000,2923
28.85833,2925
28.86667,2927
28.87500,2928
28.88333,2930
28.89167,2931
28.90000,2933
28.90833,2934
28.91667,2935
28.92500,2937
28.93333,2938
28.94167,2939
28.95000,2940
28.95833,2941
28.96667,2942
28.97500,2943
28.98333,2944
28.99167,2945
29.00000,2947
29.00833,2948
29.01667,2949
29.02500,2949
29.03333,2950
29.04167,2951
29.05000,2952
29.05833,2952
29.06667,2953
29.07500,2953
29.08333,2953
29.09167,2954
29.10000,2954
29.10833,2955
29.11667,2955
29.12500,2955
29.13333,2956
29.14167,2956
29.15000,2957
29.15833,2957
29.16667,2957
29.17500,2957
29.18333,2958
29.19167,2958
29.20000,2958
29.20833,2958
29.21667,2959
29.22500,2959
29.23333,2959
29.24167,2960
29.25000,2960
29.25833,2960
29.26667,2960
29.27500,2961
29.28333,2961
29.29167,2961
29.30000,2961
29.30833,2962
29.31667,2962
29.32500,2962
29.33333,2962
29.34167,2962
29.35000,2962
29.35833,2962
29.36667,2962
29.37500,2962
29.38333,2962
29.39167,2962
29.40000,2962
29.40833,2962
29.41667,2962
29.42500,2962
29.43333,2962
29.44167,2962
29.45000,2962
29.45833,2962
29.46667,2962
29.47500,2962
29.48333,2961
29.49167,2961
29.50000,2961
29.50833,2961
29.51667,2960
29.52500,2960
29.53333,2960
29.54167,2960
29.55000,2960
29.55833,2960
29.56667,2960
29.57500,2960
29.58333,2960
29.59167,2960
29.60000,2959
29.60833,2959
29.61667,2959
29.62500,2958
29.63333,2957
29.64167,2957
29.65000,2957
29.65833,2957
29.66667,2957
29.67500,2956
29.68333,2956
29.69167,2955
29.70000,2955
29.70833,2954
29.71667,2954
29.72500,2953
29.73333,2952
29.74167,2952
29.75000,2951
29.75833,2951
29.76667,2950
29.77500,2950
29.78333,2949
29.79167,2948
29.80000,2947
29.80833,2947
29.81667,2946
29.82500,2945
29.83333,2945
29.84167,2944
29.85000,2943
29.85833,2943
29.86667,2942
29.87500,2942
29.88333,2941
29.89167,2939
29.90000,2939
29.90833,2938
29.91667,2937
29.92500,2936
29.93333,2935
29.94167,2934
29.95000,2933
29.95833,2932
29.96667,2931
29.97500,2931
29.98333,2930
29.99167,2929
30.00000,2928
30.00833,2927
30.01667,2926
30.02500,2925
30.03333,2924
30.04167,2923
30.05000,2923
30.05833,2922
30.06667,2922
30.07500,2921
30.08333,2920
30.09167,2920
30.10000,2919
30.10833,2919
30.11667,2918
30.12500,2918
30.13333,2918
30.14167,2918
30.15000,2918
30.15833,2918
30.16667,2917
30.17500,2917
30.18333,2917
30.19167,2916
30.20000,2916
30.20833,2916
30.21667,2916
30.22500,2916
30.23333,2916
30.24167,2916
30.25000,2916
30.25833,2916
30.26667,2916
30.27500,2916
30.28333,2917
30.29167,2917
30.30000,2918
30.30833,2918
30.31667,2919
30.32500,2920
30.33333,2921
30.34167,2921
30.35000,2922
30.35833,2922
30.36667,2923
30.37500,2924
30.38333,2925
30.39167,2926
30.40000,2926
30.40833,2927
30.41667,2928
30.42500,2928
30.43333,2929
30.44167,2930
30.45000,2931
30.45833,2932
30.46667,2933
30.47500,2933
30.48333,2934
30.49167,2934
30.50000,2935
30.50833,2936
30.51667,2937
30.52500,2938
30.53333,2938
30.54167,2939
30.55000,2940
30.55833,2940
30.56667,2941
30.57500,2942
30.58333,2942
30.59167,2943
30.60000,2943
30.60833,2944
30.61667,2945
30.62500,2945
30.63333,2946
30.64167,2946
30.65000,2947
30.65833,2947
30.66667,2948
30.67500,2948
30.68333,2949
30.69167,2949
30.70000,2949
30.70833,2949
30.71667,2950
30.72500,2950
30.73333,2951
30.74167,2951
30.75000,2952
30.75833,2952
30.76667,2953
30.77500,2953
30.78333,2953
30.79167,2954
30.80000,2954
30.80833,2954
30.81667,2954
30.82500,2955
30.83333,2955
30.84167,2955
30.85000,2955
30.85833,2955
30.86667,2955
30.87500,2955
30.88333,2955
30.89167,2955
30.90000,2956
30.90833,2956
30.91667,2956
30.92500,2956
30.93333,2956
30.94167,2956
30.95000,2956
30.95833,2956
30.96667,2957
30.97500,2957
30.98333,2958
30.99167,2958
31.00000,2958
31.00833,2958
31.01667,2958
31.02500,2957
31.03333,2957
31.04167,2957
31.05000,2957
31.05833,2957
31.06667,2957
31.07500,2957
31.08333,2957
31.09167,2957
31.10000,2957
31.10833,2957
31.11667,2956
31.12500,2957
31.13333,2957
31.14167,2957
31.15000,2957
31.15833,2957
31.16667,2957
31.17500,2957
31.18333,2958
31.19167,2958
31.20000,2958
31.20833,2958
31.21667,2958
31.22500,2959
31.23333,2959
31.24167,2958
31.25000,2958
31.25833,2958
31.26667,2958
31.27500,2958
31.28333,2958
31.29167,2959
31.30000,2959
31.30833,2959
31.31667,2959
31.32500,2959
31.33333,2959
31.34167,2959
31.35000,2958
31.35833,2959
31.36667,2959
31.37500,2959
31.38333,2959
31.39167,2959
31.40000,2959
31.40833,2959
31.41667,2959
31.42500,2959
31.43333,2959
31.44167,2959
31.45000,2959
31.45833,2959
31.46667,2959
31.47500,2960
31.48333,2960
31.49167,2960
31.50000,2960
31.50833,2960
31.51667,2959
31.52500,2959
31.53333,2959
31.54167,2959
31.55000,2959
31.55833,2960
31.56667,2960
31.57500,2961
31.58333,2961
31.59167,2961
31.60000,2961
31.60833,2961
31.61667,2961
31.62500,2961
31.63333,2960
31.64167,2960
31.65000,2960
31.65833,2959
31.66667,2959
31.67500,2959
31.68333,2959
31.69167,2960
31.70000,2959
31.70833,2959
31.71667,2959
31.72500,2959
31.73333,2959
31.74167,2959
31.75000,2959
31.75833,2960
31.76667,2960
31.77500,2960
31.78333,2960
31.79167,2960
31.80000,2960
31.80833,2960
31.81667,2960
31.82500,2960
31.83333,2960
31.84167,2960
31.85000,2960
31.85833,2960
31.86667,2960
31.87500,2960
31.88333,2961
31.89167,2961
31.90000,2961
31.90833,2961
31.91667,2961
31.92500,2961
31.93333,2961
31.94167,2961
31.95000,2961
31.95833,2961
31.96667,2961
31.97500,2960
31.98333,2960
31.99167,2960
32.00000,2960
32.00833,2960
32.01667,2960
32.02500,2960
32.03333,2960
32.04167,2960
32.05000,2960
32.05833,2960
32.06667,2960
32.07500,2960
32.08333,2960
32.09167,2960
32.10000,2960
32.10833,2960
32.11667,2960
32.12500,2961
32.13333,2961
32.14167,2961
32.15000,2961
32.15833,2960
32.16667,2960
32.17500,2960
32.18333,2960
32.19167,2960
32.20000,2960
32.20833,2961
32.21667,2961
32.22500,2961
32.23333,2961
32.24167,2961
32.25000,2960
32.25833,2960
32.26667,2960
32.27500,2960
32.28333,2960
32.29167,2960
32.30000,2960
32.30833,2961
32.31667,2961
32.32500,2961
32.33333,2961
32.34167,2961
32.35000,2961
32.35833,2961
32.36667,2961
32.37500,2961
32.38333,2961
32.39167,2962
32.40000,2962
32.40833,2961
32.41667,2961
32.42500,2961
32.43333,2961
32.44167,2961
32.45000,2961
32.45833,2961
32.46667,2961
32.47500,2961
32.48333,2961
32.49167,2960
32.50000,2960
32.50833,2960
32.51667,2960
32.52500,2960
32.53333,2960
32.54167,2960
32.55000,2961
32.55833,2961
32.56667,2961
32.57500,2961
32.58333,2961
32.59167,2961
32.60000,2961
32.60833,2961
32.61667,2961
32.62500,2961
32.63333,2960
32.64167,2960
32.65000,2961
32.65833,2961
32.66667,2961
32.67500,2961
32.68333,2961
32.69167,2961
32.70000,2961
32.70833,2961
32.71667,2961
32.72500,2961
32.73333,2961
32.74167,2961
32.75000,2961
32.75833,2961
32.76667,2960
32.77500,2960
32.78333,2960
32.79167,2961
32.80000,2961
32.80833,2961
32.81667,2961
32.82500,2961
32.83333,2960
32.84167,2960
32.85000,2960
32.85833,2960
32.86667,2961
32.87500,2961
32.88333,2961
32.89167,2961
32.90000,2961
32.90833,2961
32.91667,2961
32.92500,2961
32.93333,2961
32.94167,2961
32.95000,2961
32.95833,2961
32.96667,2961
32.97500,2961
32.98333,2961
32.99167,2961
33.00000,2961
33.00833,2961
33.01667,2962
33.02500,2962
33.03333,2962
33.04167,2962
33.05000,2961
33.05833,2961
33.06667,2961
33.07500,2962
33.08333,2961
33.09167,2961
33.10000,2961
33.10833,2961
33.11667,2962
33.12500,2962
33.13333,2962
33.14167,2962
33.15000,2961
33.15833,2961
33.16667,2960
33.17500,2961
33.18333,2961
33.19167,2961
33.20000,2961
33.20833,2961
33.21667,2961
33.22500,2961
33.23333,2961
33.24167,2961
33.25000,2961
33.25833,2961
33.26667,2961
33.27500,2961
33.28333,2961
33.29167,2962
33.30000,2962
33.30833,2962
33.31667,2962
33.32500,2962
33.33333,2962
33.34167,2962
33.35000,2962
33.35833,2961
33.36667,2961
33.37500,2961
33.38333,2961
33.39167,2961
33.40000,2961
33.40833,2961
33.41667,2961
33.42500,2961
33.43333,2961
33.44167,2961
33.45000,2961
33.45833,2962
33.46667,2962
33.47500,2962
33.48333,2961
33.49167,2961
33.50000,2961
33.50833,2962
33.51667,2962
33.52500,2962
33.53333,2962
33.54167,2962
33.55000,2962
33.55833,2962
33.56667,2962
33.57500,2961
33.58333,2961
33.59167,2961
33.60000,2961
33.60833,2962
33.61667,2962
33.62500,2962
33.63333,2962
33.64167,2962
33.65000,2961
33.65833,2961
33.66667,2961
33.67500,2962
33.68333,2962
33.69167,2962
33.70000,2962
33.70833,2962
33.71667,2962
33.72500,2962
33.73333,2962
33.74167,2962
33.75000,2962
33.75833,2962
33.76667,2962
33.77500,2962
33.78333,2962
33.79167,2962
33.80000,2962
33.80833,2962
33.81667,2962
33.82500,2962
33.83333,2962
33.84167,2962
33.85000,2962
33.85833,2962
33.86667,2962
33.87500,2962
33.88333,2962
33.89167,2962
33.90000,2961
33.90833,2961
33.91667,2962
33.92500,2962
33.93333,2962
33.94167,2962
33.95000,2962
33.95833,2962
33.96667,2962
33.97500,2962
33.98333,2962
33.99167,2962
34.00000,2962
34.00833,2962
34.01667,2962
34.02500,2963
34.03333,2963
34.04167,2962
34.05000,2962
34.05833,2962
34.06667,2962
34.07500,2962
34.08333,2961
34.09167,2962
34.10000,2962
34.10833,2962
34.11667,2962
34.12500,2962
34.13333,2962
34.14167,2962
34.15000,2962
34.15833,2962
34.16667,2962
34.17500,2962
34.18333,2962
34.19167,2962
34.20000,2962
34.20833,2962
34.21667,2961
34.22500,2961
34.23333,2961
34.24167,2961
34.25000,2960
34.25833,2961
34.26667,2961
34.27500,2961
34.28333,2961
34.29167,2961
34.30000,2961
34.30833,2962
34.31667,2962
34.32500,2961
34.33333,2961
34.34167,2961
34.35000,2961
34.35833,2961
34.36667,2961
34.37500,2961
34.38333,2961
34.39167,2962
34.40000,2962
34.40833,2962
34.41667,2962
34.42500,2963
34.43333,2963
34.44167,2963
34.45000,2963
34.45833,2963
34.46667,2963
34.47500,2963
34.48333,2962
34.49167,2962
34.50000,2962
34.50833,2962
34.51667,2962
34.52500,2962
34.53333,2962
34.54167,2962
34.55000,2962
34.55833,2962
34.56667,2962
34.57500,2962
34.58333,2962
34.59167,2962
34.60000,2962
34.60833,2962
34.61667,2962
34.62500,2962
34.63333,2962
34.64167,2962
34.65000,2962
34.65833,2962
34.66667,2962
34.67500,2963
34.68333,2963
34.69167,2962
34.70000,2962
34.70833,2962
34.71667,2962
34.72500,2962
34.73333,2962
34.74167,2962
34.75000,2962
34.75833,2962
34.76667,2962
34.77500,2963
34.78333,2963
34.79167,2962
34.80000,2962
34.80833,2962
34.81667,2962
34.82500,2962
34.83333,2962
34.84167,2962
34.85000,2962
34.85833,2962
34.86667,2961
34.87500,2961
34.88333,2961
34.89167,2961
34.90000,2961
34.90833,2961
34.91667,2962
34.92500,2962
34.93333,2962
34.94167,2963
34.95000,2963
34.95833,2963
34.96667,2963
34.97500,2963
34.98333,2963
34.99167,2962
35.00000,2962
35.00833,2963
35.01667,2963
35.02500,2963
35.03333,2963
35.04167,2963
35.05000,2963
35.05833,2963
35.06667,2962
35.07500,2962
35.08333,2962
35.09167,2962
35.10000,2962
35.10833,2962
35.11667,2962
35.12500,2962
35.13333,2962
35.14167,2962
35.15000,2962
35.15833,2962
35.16667,2962
35.17500,2963
35.18333,2962
35.19167,2962
35.20000,2962
35.20833,2962
35.21667,2962
35.22500,2962
35.23333,2962
35.24167,2962
35.25000,2962
35.25833,2962
35.26667,2962
35.27500,2962
35.28333,2962
35.29167,2962
35.30000,2962
35.30833,2963
35.31667,2963
35.32500,2962
35.33333,2962
35.34167,2962
35.35000,2963
35.35833,2963
35.36667,2963
35.37500,2963
35.38333,2963
35.39167,2963
35.40000,2963
35.40833,2962
35.41667,2962
35.42500,2962
35.43333,2963
35.44167,2963
35.45000,2963
35.45833,2963
35.46667,2963
35.47500,2963
35.48333,2963
35.49167,2963
35.50000,2963
35.50833,2963
35.51667,2963
35.52500,2963
35.53333,2963
35.54167,2963
35.55000,2963
35.55833,2963
35.56667,2963
35.57500,2963
35.58333,2963
35.59167,2963
35.60000,2963
35.60833,2963
35.61667,2963
35.62500,2963
35.63333,2964
35.64167,2964
35.65000,2964
35.65833,2965
35.66667,2965
35.67500,2964
35.68333,2964
35.69167,2963
35.70000,2963
35.70833,2963
35.71667,2963
35.72500,2963
35.73333,2963
35.74167,2963
35.75000,2963
35.75833,2963
35.76667,2963
35.77500,2963
35.78333,2963
35.79167,2963
35.80000,2963
35.80833,2963
35.81667,2964
35.82500,2964
35.83333,2964
35.84167,2964
35.85000,2964
35.85833,2964
35.86667,2964
35.87500,2964
35.88333,2963
35.89167,2963
35.90000,2963
35.90833,2963
35.91667,2963
35.92500,2963
35.93333,2963
35.94167,2963
35.95000,2963
35.95833,2963
35.96667,2964
35.97500,2964
35.98333,2964
35.99167,2964
36.00000,2964
36.00833,2963
36.01667,2964
36.02500,2964
36.03333,2964
36.04167,2964
36.05000,2964
36.05833,2964
36.06667,2964
36.07500,2964
36.08333,2964
36.09167,2964
36.10000,2964
36.10833,2964
36.11667,2964
36.12500,2964
36.13333,2964
36.14167,2963
36.15000,2963
36.15833,2963
36.16667,2963
36.17500,2962
36.18333,2962
36.19167,2962
36.20000,2962
36.20833,2962
36.21667,2962
36.22500,2962
36.23333,2962
36.24167,2962
36.25000,2962
36.25833,2962
36.26667,2962
36.27500,2962
36.28333,2963
36.29167,2963
36.30000,2963
36.30833,2963
36.31667,2963
36.32500,2963
36.33333,2963
36.34167,2963
36.35000,2963
36.35833,2963
36.36667,2963
36.37500,2963
36.38333,2963
36.39167,2963
36.40000,2963
36.40833,2963
36.41667,2963
36.42500,2963
36.43333,2963
36.44167,2963
36.45000,2962
36.45833,2963
36.46667,2963
36.47500,2963
36.48333,2963
36.49167,2963
36.50000,2963
36.50833,2963
36.51667,2963
36.52500,2963
36.53333,2962
36.54167,2962
36.55000,2962
36.55833,2962
36.56667,2962
36.57500,2962
36.58333,2963
36.59167,2963
36.60000,2964
36.60833,2964
36.61667,2964
36.62500,2964
36.63333,2964
36.64167,2964
36.65000,2964
36.65833,2964
36.66667,2964
36.67500,2965
36.68333,2964
36.69167,2964
36.70000,2965
36.70833,2965
36.71667,2965
36.72500,2965
36.73333,2965
36.74167,2965
36.75000,2965
36.75833,2965
36.76667,2964
36.77500,2964
36.78333,2964
36.79167,2964
36.80000,2964
36.80833,2964
36.81667,2964
36.82500,2964
36.83333,2964
36.84167,2964
36.85000,2965
36.85833,2965
36.86667,2965
36.87500,2965
36.88333,2964
36.89167,2964
36.90000,2964
36.90833,2964
36.91667,2964
36.92500,2964
36.93333,2964
36.94167,2965
36.95000,2965
36.95833,2965
36.96667,2965
36.97500,2965
36.98333,2965
36.99167,2965
37.00000,2965
37.00833,2965
37.01667,2965
37.02500,2965
37.03333,2965
37.04167,2965
37.05000,2965
37.05833,2965
37.06667,2965
37.07500,2965
37.08333,2965
37.09167,2965
37.10000,2965
37.10833,2965
37.11667,2965
37.12500,2965
37.13333,2965
37.14167,2965
37.15000,2965
37.15833,2965
37.16667,2965
37.17500,2965
37.18333,2965
37.19167,2965
37.20000,2964
37.20833,2964
37.21667,2964
37.22500,2964
37.23333,2963
37.24167,2963
37.25000,2963
37.25833,2963
37.26667,2963
37.27500,2963
37.28333,2963
37.29167,2963
37.30000,2963
37.30833,2963
37.31667,2963
37.32500,2964
37.33333,2964
37.34167,2964
37.35000,2964
37.35833,2964
37.36667,2963
37.37500,2963
37.38333,2963
37.39167,2963
37.40000,2963
37.40833,2963
37.41667,2963
37.42500,2963
37.43333,2963
37.44167,2963
37.45000,2963
37.45833,2964
37.46667,2964
37.47500,2964
37.48333,2964
37.49167,2964
37.50000,2964
37.50833,2964
37.51667,2964
37.52500,2964
37.53333,2964
37.54167,2964
37.55000,2964
37.55833,2964
37.56667,2963
37.57500,2963
37.58333,2963
37.59167,2963
37.60000,2963
37.60833,2963
37.61667,2963
37.62500,2963
37.63333,2963
37.64167,2963
37.65000,2964
37.65833,2964
37.66667,2963
37.67500,2964
37.68333,2964
37.69167,2964
37.70000,2964
37.70833,2964
37.71667,2964
37.72500,2964
37.73333,2964
37.74167,2964
37.75000,2963
37.75833,2963
37.76667,2963
37.77500,2964
37.78333,2964
37.79167,2964
37.80000,2964
37.80833,2964
37.81667,2964
37.82500,2964
37.83333,2963
37.84167,2963
37.85000,2963
37.85833,2963
37.86667,2963
37.87500,2963
37.88333,2963
37.89167,2963
37.90000,2963
37.90833,2962
37.91667,2962
37.92500,2961
37.93333,2962
37.94167,2962
37.95000,2963
37.95833,2963
37.96667,2963
37.97500,2963
37.98333,2963
37.99167,2963
38.00000,2963
38.00833,2963
38.01667,2964
38.02500,2964
38.03333,2964
38.04167,2964
38.05000,2964
38.05833,2964
38.06667,2964
38.07500,2963
38.08333,2963
38.09167,2963
38.10000,2964
38.10833,2964
38.11667,2964
38.12500,2964
38.13333,2964
38.14167,2964
38.15000,2964
38.15833,2965
38.16667,2965
38.17500,2965
38.18333,2965
38.19167,2964
38.20000,2964
38.20833,2964
38.21667,2964
38.22500,2964
38.23333,2964
38.24167,2964
38.25000,2964
38.25833,2964
38.26667,2964
38.27500,2964
38.28333,2964
38.29167,2963
38.30000,2963
38.30833,2963
38.31667,2963
38.32500,2963
38.33333,2963
38.34167,2964
38.35000,2964
38.35833,2964
38.36667,2964
38.37500,2964
38.38333,2964
38.39167,2964
38.40000,2965
38.40833,2965
38.41667,2965
38.42500,2965
38.43333,2965
38.44167,2965
38.45000,2965
38.45833,2965
38.46667,2964
38.47500,2965
38.48333,2965
38.49167,2965
38.50000,2965
38.50833,2965
38.51667,2965
38.52500,2965
38.53333,2965
38.54167,2965
38.55000,2965
38.55833,2965
38.56667,2965
38.57500,2964
38.58333,2965
38.59167,2965
38.60000,2965
38.60833,2965
38.61667,2964
38.62500,2965
38.63333,2965
38.64167,2965
38.65000,2965
38.65833,2965
38.66667,2965
38.67500,2965
38.68333,2965
38.69167,2965
38.70000,2965
38.70833,2965
38.71667,2965
38.72500,2965
38.73333,2965
38.74167,2964
38.75000,2964
38.75833,2964
38.76667,2964
38.77500,2964
38.78333,2965
38.79167,2965
38.80000,2965
38.80833,2965
38.81667,2965
38.82500,2965
38.83333,2966
38.84167,2966
38.85000,2966
38.85833,2966
38.86667,2966
38.87500,2966
38.88333,2966
38.89167,2966
38.90000,2965
38.90833,2965
38.91667,2965
38.92500,2965
38.93333,2965
38.94167,2965
38.95000,2965
38.95833,2965
38.96667,2965
38.97500,2965
38.98333,2965
38.99167,2965
39.00000,2965
39.00833,2965
39.01667,2965
39.02500,2965
39.03333,2965
39.04167,2964
39.05000,2964
39.05833,2964
39.06667,2964
39.07500,2964
39.08333,2965
39.09167,2965
39.10000,2965
39.10833,2966
39.11667,2966
39.12500,2966
39.13333,2966
39.14167,2965
39.15000,2966
39.15833,2966
39.16667,2966
39.17500,2966
39.18333,2966
39.19167,2965
39.20000,2965
39.20833,2965
39.21667,2965
39.22500,2965
39.23333,2965
39.24167,2966
39.25000,2966
39.25833,2966
39.26667,2966
39.27500,2966
39.28333,2966
39.29167,2966
39.30000,2966
39.30833,2966
39.31667,2966
39.32500,2966
39.33333,2966
39.34167,2965
39.35000,2965
39.35833,2965
39.36667,2966
39.37500,2966
39.38333,2965
39.39167,2965
39.40000,2965
39.40833,2965
39.41667,2965
39.42500,2965
39.43333,2964
39.44167,2964
39.45000,2964
39.45833,2965
39.46667,2965
39.47500,2965
39.48333,2965
39.49167,2965
39.50000,2965
39.50833,2965
39.51667,2965
39.52500,2966
39.53333,2965
39.54167,2965
39.55000,2965
39.55833,2965
39.56667,2965
39.57500,2965
39.58333,2966
39.59167,2966
39.60000,2965
39.60833,2965
39.61667,2966
39.62500,2966
39.63333,2966
39.64167,2966
39.65000,2966
39.65833,2966
39.66667,2966
39.67500,2966
39.68333,2966
39.69167,2966
39.70000,2966
39.70833,2966
39.71667,2966
39.72500,2965
39.73333,2965
39.74167,2965
39.75000,2966
39.75833,2966
39.76667,2965
39.77500,2965
39.78333,2965
39.79167,2965
39.80000,2965
39.80833,2965
39.81667,2965
39.82500,2965
39.83333,2965
39.84167,2965
39.85000,2965
39.85833,2965
39.86667,2965
39.87500,2965
39.88333,2965
39.89167,2965
39.90000,2965
39.90833,2966
39.91667,2966
39.92500,2966
39.93333,2966
39.94167,2967
39.95000,2967
39.95833,2966
39.96667,2966
39.97500,2966
39.98333,2965
39.99167,2965
40.00000,2965

