[Header]
Application Name,LabSolutions
Version,5.97 SP1
Data File Name,C:\Users\cremerlab\Desktop\griffin\2021-04-03_buffer_calibration\2021-04-03_buffer_calibration_432021_004_004.lcd
Output Date,4/3/2021
Output Time,4:43:55 PM

[File Information]
Type,Data File
Generated,4/3/2021 4:03:36 PM
Generated by,System Administrator
Modified,4/3/2021 4:43:55 PM
Modified by,System Administrator

[Sample Information]
Operator Name,System Administrator
Acquired,4/3/2021 4:03:54 PM
Sample Type,1:Standard
Level,4
Sample Name,2021-04-02_NC_glucose_glycerol_acetate_calibration_15mM
Sample ID,004
ISTD Amount1,1
ISTD Amount2,1
ISTD Amount3,1
ISTD Amount4,1
ISTD Amount5,1
ISTD Amount6,1
ISTD Amount7,1
ISTD Amount8,1
ISTD Amount9,1
ISTD Amount10,1
ISTD Amount11,1
ISTD Amount12,1
ISTD Amount13,1
ISTD Amount14,1
ISTD Amount15,1
ISTD Amount16,1
ISTD Amount17,1
ISTD Amount18,1
ISTD Amount19,1
ISTD Amount20,1
ISTD Amount21,1
ISTD Amount22,1
ISTD Amount23,1
ISTD Amount24,1
ISTD Amount25,1
ISTD Amount26,1
ISTD Amount27,1
ISTD Amount28,1
ISTD Amount29,1
ISTD Amount30,1
ISTD Amount31,1
ISTD Amount32,1
Sample Amount,1
Dilution Factor,1
Vial#,4
Injection Volume,20

[Original Files]
Data File,C:\Users\cremerlab\Desktop\griffin\2021-04-03_buffer_calibration\2021-04-03_buffer_calibration_432021_004_004.lcd
Method File,C:\LabSolutions\Data\Project1\organicacidsetc2.lcm
Batch File,C:\Users\cremerlab\Desktop\griffin\2021-04-03_buffer_calibration\2021-04-03_buffer_calibration.lcb
Report Format File,c:\LabSolutions\System\DEFAULT.lsr

[File Description]


[Configuration]
Instrument Name,HPLC-PC-Instrument1
Instrument #,1
Line #,1
# of Detectors,2
Detector ID,Detector A,Detector B
Detector Name,Detector A,Detector B
# of Channels,1,1

[Peak Table(Detector A)]
# of Peaks,0

[Peak Table(Detector B)]
# of Peaks,5
Peak#,R.Time,I.Time,F.Time,Area,Height,A/H,Conc.,Mark,ID#,Name,k',Plate #,Plate Ht.,Tailing,Resolution,Sep.Factor,Area Ratio,Height Ratio,Conc. %,Norm Conc.
1,11.064,10.758,12.433,1187103,68646,17.293,0.000,   ,,,0.000,10719,13.994,1.271,0.000,0.000,0,0,0.000,0.000
2,15.107,14.100,15.383,3082789,116042,26.566,0.000,   ,,,0.365,6977,21.501,0.000,7.026,0.000,0,0,0.000,0.000
3,15.657,15.383,18.683,1473560,59808,24.638,0.000, V ,,,0.415,8948,16.764,0.000,0.795,1.136,0,0,0.000,0.000
4,22.077,21.350,23.375,414359,15305,27.074,0.000,   ,,,0.995,15387,9.748,1.091,9.344,2.397,0,0,0.000,0.000
5,25.070,24.350,26.075,177392,6044,29.349,0.000,   ,,,1.266,16688,8.989,1.066,4.023,1.272,0,0,0.000,0.000

[LC Chromatogram(Detector B-Ch1)]
Interval(msec),500
# of Points,4801
Start Time(min),0.000
End Time(min),40.000
Intensity Units,mV
Intensity Multiplier,0.001
R.Time (min),Intensity
0.00000,-0
0.00833,-0
0.01667,-0
0.02500,0
0.03333,0
0.04167,-0
0.05000,-0
0.05833,-0
0.06667,-0
0.07500,-0
0.08333,-0
0.09167,-0
0.10000,-0
0.10833,-0
0.11667,-1
0.12500,-0
0.13333,-0
0.14167,0
0.15000,0
0.15833,0
0.16667,0
0.17500,0
0.18333,0
0.19167,0
0.20000,0
0.20833,0
0.21667,0
0.22500,0
0.23333,1
0.24167,1
0.25000,1
0.25833,1
0.26667,1
0.27500,0
0.28333,0
0.29167,-0
0.30000,-1
0.30833,-1
0.31667,-1
0.32500,-0
0.33333,-0
0.34167,-0
0.35000,-0
0.35833,-0
0.36667,-0
0.37500,-1
0.38333,-1
0.39167,-1
0.40000,-1
0.40833,-1
0.41667,-1
0.42500,-1
0.43333,-0
0.44167,-0
0.45000,-1
0.45833,-1
0.46667,-0
0.47500,-0
0.48333,-0
0.49167,-0
0.50000,-0
0.50833,-0
0.51667,-0
0.52500,-0
0.53333,-0
0.54167,-0
0.55000,0
0.55833,0
0.56667,1
0.57500,1
0.58333,1
0.59167,1
0.60000,1
0.60833,1
0.61667,1
0.62500,1
0.63333,1
0.64167,0
0.65000,-1
0.65833,-1
0.66667,-1
0.67500,-1
0.68333,-2
0.69167,-2
0.70000,-1
0.70833,-1
0.71667,-1
0.72500,-1
0.73333,-1
0.74167,-1
0.75000,-1
0.75833,-1
0.76667,-1
0.77500,-1
0.78333,-1
0.79167,-0
0.80000,-0
0.80833,-1
0.81667,-1
0.82500,-1
0.83333,-1
0.84167,-1
0.85000,-1
0.85833,-1
0.86667,-1
0.87500,-1
0.88333,-1
0.89167,-1
0.90000,-1
0.90833,-1
0.91667,-1
0.92500,-1
0.93333,-1
0.94167,-1
0.95000,-1
0.95833,-1
0.96667,-1
0.97500,-1
0.98333,-0
0.99167,-0
1.00000,-1
1.00833,-1
1.01667,-1
1.02500,-1
1.03333,-1
1.04167,-1
1.05000,-1
1.05833,-1
1.06667,-1
1.07500,-1
1.08333,-1
1.09167,-1
1.10000,-1
1.10833,-0
1.11667,-0
1.12500,-1
1.13333,-0
1.14167,-0
1.15000,-0
1.15833,0
1.16667,0
1.17500,0
1.18333,-0
1.19167,-0
1.20000,-1
1.20833,-1
1.21667,-1
1.22500,-1
1.23333,-1
1.24167,-1
1.25000,-1
1.25833,-1
1.26667,-1
1.27500,-0
1.28333,-0
1.29167,-0
1.30000,-0
1.30833,-1
1.31667,-1
1.32500,-1
1.33333,-1
1.34167,-2
1.35000,-2
1.35833,-2
1.36667,-1
1.37500,-1
1.38333,-1
1.39167,-1
1.40000,-1
1.40833,-1
1.41667,-1
1.42500,-1
1.43333,-1
1.44167,-1
1.45000,-1
1.45833,-1
1.46667,-1
1.47500,-1
1.48333,-1
1.49167,-1
1.50000,-1
1.50833,-1
1.51667,-1
1.52500,-1
1.53333,-1
1.54167,-1
1.55000,-1
1.55833,-1
1.56667,-1
1.57500,-1
1.58333,-1
1.59167,-1
1.60000,-1
1.60833,-1
1.61667,-1
1.62500,-1
1.63333,-0
1.64167,-0
1.65000,-1
1.65833,-1
1.66667,-1
1.67500,-1
1.68333,-1
1.69167,-1
1.70000,-1
1.70833,-1
1.71667,-1
1.72500,-1
1.73333,-1
1.74167,-1
1.75000,-1
1.75833,-1
1.76667,-1
1.77500,-2
1.78333,-2
1.79167,-2
1.80000,-2
1.80833,-2
1.81667,-2
1.82500,-2
1.83333,-2
1.84167,-2
1.85000,-2
1.85833,-2
1.86667,-2
1.87500,-2
1.88333,-1
1.89167,-1
1.90000,-1
1.90833,-1
1.91667,-2
1.92500,-2
1.93333,-2
1.94167,-1
1.95000,-1
1.95833,-1
1.96667,-1
1.97500,-2
1.98333,-2
1.99167,-2
2.00000,-2
2.00833,-2
2.01667,-2
2.02500,-2
2.03333,-2
2.04167,-2
2.05000,-2
2.05833,-2
2.06667,-2
2.07500,-2
2.08333,-2
2.09167,-2
2.10000,-2
2.10833,-2
2.11667,-2
2.12500,-2
2.13333,-2
2.14167,-2
2.15000,-2
2.15833,-2
2.16667,-2
2.17500,-2
2.18333,-2
2.19167,-2
2.20000,-2
2.20833,-2
2.21667,-2
2.22500,-2
2.23333,-2
2.24167,-2
2.25000,-2
2.25833,-2
2.26667,-2
2.27500,-1
2.28333,-1
2.29167,-1
2.30000,-0
2.30833,-1
2.31667,-1
2.32500,-1
2.33333,-1
2.34167,-1
2.35000,-2
2.35833,-2
2.36667,-2
2.37500,-2
2.38333,-3
2.39167,-3
2.40000,-3
2.40833,-2
2.41667,-2
2.42500,-2
2.43333,-2
2.44167,-2
2.45000,-2
2.45833,-2
2.46667,-2
2.47500,-3
2.48333,-3
2.49167,-3
2.50000,-2
2.50833,-2
2.51667,-2
2.52500,-2
2.53333,-3
2.54167,-3
2.55000,-3
2.55833,-3
2.56667,-3
2.57500,-3
2.58333,-3
2.59167,-3
2.60000,-3
2.60833,-3
2.61667,-2
2.62500,-2
2.63333,-2
2.64167,-2
2.65000,-2
2.65833,-2
2.66667,-3
2.67500,-3
2.68333,-3
2.69167,-3
2.70000,-3
2.70833,-3
2.71667,-3
2.72500,-4
2.73333,-3
2.74167,-3
2.75000,-3
2.75833,-3
2.76667,-3
2.77500,-2
2.78333,-2
2.79167,-3
2.80000,-3
2.80833,-3
2.81667,-3
2.82500,-3
2.83333,-3
2.84167,-3
2.85000,-3
2.85833,-3
2.86667,-3
2.87500,-3
2.88333,-3
2.89167,-3
2.90000,-3
2.90833,-2
2.91667,-2
2.92500,-2
2.93333,-2
2.94167,-2
2.95000,-3
2.95833,-3
2.96667,-3
2.97500,-3
2.98333,-3
2.99167,-3
3.00000,-3
3.00833,-3
3.01667,-3
3.02500,-3
3.03333,-3
3.04167,-3
3.05000,-3
3.05833,-2
3.06667,-2
3.07500,-2
3.08333,-2
3.09167,-2
3.10000,-2
3.10833,-2
3.11667,-2
3.12500,-2
3.13333,-2
3.14167,-3
3.15000,-3
3.15833,-3
3.16667,-3
3.17500,-3
3.18333,-3
3.19167,-3
3.20000,-2
3.20833,-2
3.21667,-2
3.22500,-2
3.23333,-2
3.24167,-2
3.25000,-2
3.25833,-2
3.26667,-2
3.27500,-2
3.28333,-2
3.29167,-3
3.30000,-3
3.30833,-3
3.31667,-3
3.32500,-3
3.33333,-3
3.34167,-3
3.35000,-3
3.35833,-3
3.36667,-3
3.37500,-3
3.38333,-3
3.39167,-3
3.40000,-3
3.40833,-3
3.41667,-3
3.42500,-3
3.43333,-3
3.44167,-3
3.45000,-3
3.45833,-3
3.46667,-3
3.47500,-3
3.48333,-2
3.49167,-2
3.50000,-2
3.50833,-1
3.51667,-2
3.52500,-2
3.53333,-2
3.54167,-2
3.55000,-2
3.55833,-2
3.56667,-2
3.57500,-2
3.58333,-3
3.59167,-3
3.60000,-3
3.60833,-3
3.61667,-3
3.62500,-4
3.63333,-4
3.64167,-3
3.65000,-3
3.65833,-3
3.66667,-3
3.67500,-3
3.68333,-3
3.69167,-3
3.70000,-3
3.70833,-3
3.71667,-3
3.72500,-3
3.73333,-3
3.74167,-3
3.75000,-3
3.75833,-3
3.76667,-3
3.77500,-3
3.78333,-3
3.79167,-3
3.80000,-3
3.80833,-3
3.81667,-3
3.82500,-3
3.83333,-3
3.84167,-3
3.85000,-3
3.85833,-3
3.86667,-3
3.87500,-3
3.88333,-3
3.89167,-3
3.90000,-3
3.90833,-3
3.91667,-3
3.92500,-3
3.93333,-3
3.94167,-4
3.95000,-4
3.95833,-3
3.96667,-3
3.97500,-3
3.98333,-3
3.99167,-3
4.00000,-3
4.00833,-3
4.01667,-4
4.02500,-3
4.03333,-3
4.04167,-3
4.05000,-3
4.05833,-4
4.06667,-3
4.07500,-3
4.08333,-3
4.09167,-3
4.10000,-3
4.10833,-3
4.11667,-3
4.12500,-3
4.13333,-3
4.14167,-3
4.15000,-3
4.15833,-3
4.16667,-3
4.17500,-3
4.18333,-3
4.19167,-3
4.20000,-3
4.20833,-2
4.21667,-2
4.22500,-2
4.23333,-2
4.24167,-2
4.25000,-2
4.25833,-2
4.26667,-2
4.27500,-2
4.28333,-3
4.29167,-2
4.30000,-2
4.30833,-3
4.31667,-3
4.32500,-3
4.33333,-3
4.34167,-3
4.35000,-3
4.35833,-3
4.36667,-3
4.37500,-2
4.38333,-3
4.39167,-3
4.40000,-3
4.40833,-3
4.41667,-3
4.42500,-3
4.43333,-3
4.44167,-3
4.45000,-3
4.45833,-3
4.46667,-3
4.47500,-2
4.48333,-2
4.49167,-2
4.50000,-2
4.50833,-2
4.51667,-2
4.52500,-2
4.53333,-3
4.54167,-2
4.55000,-2
4.55833,-2
4.56667,-2
4.57500,-3
4.58333,-3
4.59167,-3
4.60000,-3
4.60833,-3
4.61667,-3
4.62500,-3
4.63333,-3
4.64167,-3
4.65000,-3
4.65833,-3
4.66667,-3
4.67500,-3
4.68333,-3
4.69167,-3
4.70000,-3
4.70833,-3
4.71667,-3
4.72500,-2
4.73333,-3
4.74167,-3
4.75000,-3
4.75833,-3
4.76667,-3
4.77500,-3
4.78333,-3
4.79167,-3
4.80000,-3
4.80833,-3
4.81667,-4
4.82500,-4
4.83333,-3
4.84167,-3
4.85000,-3
4.85833,-3
4.86667,-3
4.87500,-3
4.88333,-2
4.89167,-2
4.90000,-3
4.90833,-3
4.91667,-3
4.92500,-4
4.93333,-3
4.94167,-3
4.95000,-3
4.95833,-3
4.96667,-3
4.97500,-3
4.98333,-3
4.99167,-3
5.00000,-3
5.00833,-3
5.01667,-3
5.02500,-3
5.03333,-3
5.04167,-3
5.05000,-3
5.05833,-3
5.06667,-3
5.07500,-3
5.08333,-3
5.09167,-3
5.10000,-4
5.10833,-4
5.11667,-4
5.12500,-4
5.13333,-4
5.14167,-4
5.15000,-4
5.15833,-4
5.16667,-5
5.17500,-5
5.18333,-4
5.19167,-4
5.20000,-3
5.20833,-3
5.21667,-3
5.22500,-3
5.23333,-3
5.24167,-3
5.25000,-3
5.25833,-4
5.26667,-4
5.27500,-4
5.28333,-4
5.29167,-4
5.30000,-3
5.30833,-3
5.31667,-3
5.32500,-3
5.33333,-3
5.34167,-3
5.35000,-3
5.35833,-4
5.36667,-4
5.37500,-4
5.38333,-3
5.39167,-4
5.40000,-4
5.40833,-4
5.41667,-4
5.42500,-4
5.43333,-4
5.44167,-3
5.45000,-4
5.45833,-4
5.46667,-4
5.47500,-4
5.48333,-4
5.49167,-4
5.50000,-4
5.50833,-4
5.51667,-4
5.52500,-4
5.53333,-3
5.54167,-3
5.55000,-3
5.55833,-4
5.56667,-4
5.57500,-4
5.58333,-3
5.59167,-3
5.60000,-3
5.60833,-3
5.61667,-3
5.62500,-3
5.63333,-3
5.64167,-3
5.65000,-3
5.65833,-4
5.66667,-4
5.67500,-4
5.68333,-4
5.69167,-4
5.70000,-4
5.70833,-4
5.71667,-4
5.72500,-3
5.73333,-3
5.74167,-3
5.75000,-3
5.75833,-3
5.76667,-3
5.77500,-3
5.78333,-3
5.79167,-4
5.80000,-3
5.80833,-3
5.81667,-3
5.82500,-3
5.83333,-3
5.84167,-3
5.85000,-3
5.85833,-3
5.86667,-3
5.87500,-4
5.88333,-4
5.89167,-4
5.90000,-4
5.90833,-4
5.91667,-4
5.92500,-3
5.93333,-3
5.94167,-4
5.95000,-4
5.95833,-4
5.96667,-4
5.97500,-4
5.98333,-4
5.99167,-4
6.00000,-4
6.00833,-4
6.01667,-4
6.02500,-4
6.03333,-3
6.04167,-3
6.05000,-4
6.05833,-4
6.06667,-4
6.07500,-4
6.08333,-4
6.09167,-5
6.10000,-5
6.10833,-5
6.11667,-5
6.12500,-5
6.13333,-5
6.14167,-5
6.15000,-5
6.15833,-5
6.16667,-4
6.17500,-4
6.18333,-4
6.19167,-4
6.20000,-4
6.20833,-4
6.21667,-4
6.22500,-4
6.23333,-4
6.24167,-4
6.25000,-4
6.25833,-3
6.26667,-3
6.27500,-3
6.28333,-3
6.29167,-3
6.30000,-3
6.30833,-3
6.31667,-4
6.32500,-4
6.33333,-4
6.34167,-4
6.35000,-4
6.35833,-4
6.36667,-4
6.37500,-3
6.38333,-3
6.39167,-4
6.40000,-4
6.40833,-4
6.41667,-4
6.42500,-4
6.43333,-4
6.44167,-4
6.45000,-3
6.45833,-3
6.46667,-3
6.47500,-3
6.48333,-3
6.49167,-3
6.50000,-4
6.50833,-4
6.51667,-4
6.52500,-4
6.53333,-4
6.54167,-4
6.55000,-4
6.55833,-3
6.56667,-3
6.57500,-3
6.58333,-3
6.59167,-3
6.60000,-3
6.60833,-3
6.61667,-3
6.62500,-3
6.63333,-3
6.64167,-3
6.65000,-3
6.65833,-3
6.66667,-3
6.67500,-3
6.68333,-2
6.69167,-2
6.70000,-2
6.70833,-2
6.71667,-2
6.72500,-3
6.73333,-3
6.74167,-3
6.75000,-3
6.75833,-3
6.76667,-4
6.77500,-4
6.78333,-4
6.79167,-4
6.80000,-3
6.80833,-3
6.81667,-3
6.82500,-3
6.83333,-3
6.84167,-3
6.85000,-3
6.85833,-3
6.86667,-3
6.87500,-3
6.88333,-3
6.89167,-3
6.90000,-3
6.90833,-3
6.91667,-3
6.92500,-3
6.93333,-3
6.94167,-3
6.95000,-3
6.95833,-3
6.96667,-4
6.97500,-4
6.98333,-4
6.99167,-4
7.00000,-4
7.00833,-4
7.01667,-4
7.02500,-4
7.03333,-4
7.04167,-4
7.05000,-4
7.05833,-4
7.06667,-4
7.07500,-4
7.08333,-3
7.09167,-3
7.10000,-3
7.10833,-3
7.11667,-3
7.12500,-3
7.13333,-4
7.14167,-4
7.15000,-4
7.15833,-4
7.16667,-4
7.17500,-4
7.18333,-4
7.19167,-4
7.20000,-3
7.20833,-3
7.21667,-3
7.22500,-3
7.23333,-3
7.24167,-4
7.25000,-4
7.25833,-4
7.26667,-4
7.27500,-4
7.28333,-3
7.29167,-3
7.30000,-3
7.30833,-3
7.31667,-3
7.32500,-3
7.33333,-3
7.34167,-3
7.35000,-4
7.35833,-4
7.36667,-4
7.37500,-4
7.38333,-5
7.39167,-5
7.40000,-5
7.40833,-4
7.41667,-4
7.42500,-5
7.43333,-5
7.44167,-5
7.45000,-5
7.45833,-5
7.46667,-5
7.47500,-5
7.48333,-5
7.49167,-5
7.50000,-5
7.50833,-5
7.51667,-5
7.52500,-5
7.53333,-5
7.54167,-4
7.55000,-5
7.55833,-5
7.56667,-5
7.57500,-5
7.58333,-4
7.59167,-4
7.60000,-4
7.60833,-4
7.61667,-4
7.62500,-4
7.63333,-4
7.64167,-4
7.65000,-4
7.65833,-4
7.66667,-4
7.67500,-4
7.68333,-4
7.69167,-4
7.70000,-4
7.70833,-4
7.71667,-4
7.72500,-4
7.73333,-4
7.74167,-4
7.75000,-4
7.75833,-4
7.76667,-4
7.77500,-4
7.78333,-4
7.79167,-4
7.80000,-4
7.80833,-4
7.81667,-4
7.82500,-5
7.83333,-5
7.84167,-5
7.85000,-6
7.85833,-6
7.86667,-5
7.87500,-5
7.88333,-5
7.89167,-5
7.90000,-5
7.90833,-4
7.91667,-5
7.92500,-5
7.93333,-5
7.94167,-5
7.95000,-5
7.95833,-5
7.96667,-5
7.97500,-5
7.98333,-5
7.99167,-5
8.00000,-5
8.00833,-5
8.01667,-5
8.02500,-5
8.03333,-5
8.04167,-5
8.05000,-5
8.05833,-5
8.06667,-5
8.07500,-5
8.08333,-5
8.09167,-5
8.10000,-5
8.10833,-5
8.11667,-5
8.12500,-5
8.13333,-5
8.14167,-5
8.15000,-6
8.15833,-5
8.16667,-5
8.17500,-5
8.18333,-5
8.19167,-5
8.20000,-4
8.20833,-4
8.21667,-4
8.22500,-4
8.23333,-4
8.24167,-5
8.25000,-5
8.25833,-5
8.26667,-5
8.27500,-5
8.28333,-5
8.29167,-6
8.30000,-5
8.30833,-5
8.31667,-5
8.32500,-5
8.33333,-5
8.34167,-5
8.35000,-5
8.35833,-5
8.36667,-5
8.37500,-4
8.38333,-5
8.39167,-5
8.40000,-5
8.40833,-5
8.41667,-5
8.42500,-5
8.43333,-5
8.44167,-5
8.45000,-5
8.45833,-5
8.46667,-5
8.47500,-5
8.48333,-5
8.49167,-5
8.50000,-5
8.50833,-5
8.51667,-5
8.52500,-5
8.53333,-5
8.54167,-6
8.55000,-6
8.55833,-6
8.56667,-5
8.57500,-5
8.58333,-5
8.59167,-5
8.60000,-5
8.60833,-5
8.61667,-5
8.62500,-6
8.63333,-6
8.64167,-5
8.65000,-5
8.65833,-5
8.66667,-5
8.67500,-5
8.68333,-5
8.69167,-5
8.70000,-6
8.70833,-6
8.71667,-6
8.72500,-5
8.73333,-5
8.74167,-6
8.75000,-6
8.75833,-5
8.76667,-5
8.77500,-5
8.78333,-5
8.79167,-5
8.80000,-5
8.80833,-6
8.81667,-6
8.82500,-6
8.83333,-6
8.84167,-6
8.85000,-6
8.85833,-6
8.86667,-6
8.87500,-6
8.88333,-6
8.89167,-6
8.90000,-6
8.90833,-6
8.91667,-6
8.92500,-7
8.93333,-6
8.94167,-6
8.95000,-6
8.95833,-6
8.96667,-6
8.97500,-5
8.98333,-5
8.99167,-6
9.00000,-6
9.00833,-6
9.01667,-6
9.02500,-6
9.03333,-6
9.04167,-6
9.05000,-6
9.05833,-6
9.06667,-6
9.07500,-6
9.08333,-6
9.09167,-5
9.10000,-5
9.10833,-5
9.11667,-5
9.12500,-5
9.13333,-5
9.14167,-6
9.15000,-6
9.15833,-6
9.16667,-6
9.17500,-7
9.18333,-6
9.19167,-6
9.20000,-6
9.20833,-6
9.21667,-6
9.22500,-6
9.23333,-6
9.24167,-6
9.25000,-6
9.25833,-6
9.26667,-6
9.27500,-6
9.28333,-7
9.29167,-6
9.30000,-6
9.30833,-6
9.31667,-6
9.32500,-6
9.33333,-6
9.34167,-6
9.35000,-6
9.35833,-6
9.36667,-6
9.37500,-6
9.38333,-6
9.39167,-6
9.40000,-6
9.40833,-6
9.41667,-6
9.42500,-6
9.43333,-6
9.44167,-6
9.45000,-6
9.45833,-7
9.46667,-7
9.47500,-7
9.48333,-7
9.49167,-7
9.50000,-7
9.50833,-7
9.51667,-7
9.52500,-7
9.53333,-7
9.54167,-7
9.55000,-7
9.55833,-7
9.56667,-7
9.57500,-7
9.58333,-7
9.59167,-7
9.60000,-6
9.60833,-6
9.61667,-6
9.62500,-6
9.63333,-6
9.64167,-6
9.65000,-7
9.65833,-7
9.66667,-8
9.67500,-8
9.68333,-8
9.69167,-7
9.70000,-7
9.70833,-7
9.71667,-7
9.72500,-7
9.73333,-7
9.74167,-7
9.75000,-6
9.75833,-6
9.76667,-7
9.77500,-7
9.78333,-7
9.79167,-7
9.80000,-7
9.80833,-7
9.81667,-7
9.82500,-7
9.83333,-7
9.84167,-7
9.85000,-7
9.85833,-7
9.86667,-7
9.87500,-6
9.88333,-6
9.89167,-6
9.90000,-6
9.90833,-7
9.91667,-7
9.92500,-6
9.93333,-6
9.94167,-6
9.95000,-5
9.95833,-6
9.96667,-6
9.97500,-6
9.98333,-6
9.99167,-7
10.00000,-6
10.00833,-6
10.01667,-6
10.02500,-6
10.03333,-6
10.04167,-7
10.05000,-7
10.05833,-7
10.06667,-6
10.07500,-6
10.08333,-6
10.09167,-6
10.10000,-6
10.10833,-6
10.11667,-6
10.12500,-6
10.13333,-6
10.14167,-6
10.15000,-6
10.15833,-6
10.16667,-6
10.17500,-6
10.18333,-6
10.19167,-6
10.20000,-6
10.20833,-6
10.21667,-6
10.22500,-6
10.23333,-5
10.24167,-5
10.25000,-5
10.25833,-6
10.26667,-6
10.27500,-6
10.28333,-6
10.29167,-6
10.30000,-6
10.30833,-6
10.31667,-6
10.32500,-6
10.33333,-5
10.34167,-5
10.35000,-5
10.35833,-4
10.36667,-4
10.37500,-4
10.38333,-3
10.39167,-3
10.40000,-3
10.40833,-3
10.41667,-3
10.42500,-2
10.43333,-2
10.44167,-1
10.45000,-1
10.45833,-1
10.46667,-1
10.47500,-1
10.48333,-1
10.49167,-2
10.50000,-3
10.50833,-4
10.51667,-7
10.52500,-11
10.53333,-17
10.54167,-25
10.55000,-38
10.55833,-54
10.56667,-76
10.57500,-105
10.58333,-142
10.59167,-190
10.60000,-251
10.60833,-326
10.61667,-418
10.62500,-529
10.63333,-660
10.64167,-813
10.65000,-989
10.65833,-1187
10.66667,-1406
10.67500,-1645
10.68333,-1900
10.69167,-2165
10.70000,-2436
10.70833,-2703
10.71667,-2958
10.72500,-3192
10.73333,-3391
10.74167,-3544
10.75000,-3639
10.75833,-3661
10.76667,-3599
10.77500,-3438
10.78333,-3167
10.79167,-2773
10.80000,-2245
10.80833,-1574
10.81667,-752
10.82500,231
10.83333,1378
10.84167,2694
10.85000,4183
10.85833,5847
10.86667,7683
10.87500,9692
10.88333,11870
10.89167,14212
10.90000,16710
10.90833,19358
10.91667,22145
10.92500,25058
10.93333,28081
10.94167,31196
10.95000,34383
10.95833,37616
10.96667,40866
10.97500,44099
10.98333,47277
10.99167,50358
11.00000,53294
11.00833,56036
11.01667,58531
11.02500,60727
11.03333,62573
11.04167,64025
11.05000,65043
11.05833,65598
11.06667,65672
11.07500,65261
11.08333,64373
11.09167,63032
11.10000,61271
11.10833,59137
11.11667,56682
11.12500,53965
11.13333,51047
11.14167,47991
11.15000,44854
11.15833,41692
11.16667,38554
11.17500,35481
11.18333,32509
11.19167,29665
11.20000,26970
11.20833,24437
11.21667,22076
11.22500,19889
11.23333,17875
11.24167,16032
11.25000,14354
11.25833,12832
11.26667,11457
11.27500,10220
11.28333,9109
11.29167,8116
11.30000,7230
11.30833,6441
11.31667,5739
11.32500,5117
11.33333,4565
11.34167,4077
11.35000,3645
11.35833,3265
11.36667,2928
11.37500,2632
11.38333,2370
11.39167,2139
11.40000,1936
11.40833,1756
11.41667,1597
11.42500,1457
11.43333,1332
11.44167,1222
11.45000,1124
11.45833,1038
11.46667,960
11.47500,891
11.48333,830
11.49167,775
11.50000,725
11.50833,680
11.51667,641
11.52500,605
11.53333,572
11.54167,542
11.55000,515
11.55833,490
11.56667,467
11.57500,445
11.58333,426
11.59167,408
11.60000,391
11.60833,376
11.61667,362
11.62500,349
11.63333,336
11.64167,324
11.65000,313
11.65833,303
11.66667,293
11.67500,284
11.68333,276
11.69167,268
11.70000,261
11.70833,254
11.71667,247
11.72500,241
11.73333,236
11.74167,230
11.75000,226
11.75833,221
11.76667,216
11.77500,212
11.78333,208
11.79167,204
11.80000,201
11.80833,197
11.81667,194
11.82500,192
11.83333,189
11.84167,186
11.85000,183
11.85833,181
11.86667,179
11.87500,177
11.88333,175
11.89167,174
11.90000,172
11.90833,171
11.91667,169
11.92500,168
11.93333,166
11.94167,165
11.95000,163
11.95833,162
11.96667,161
11.97500,159
11.98333,159
11.99167,157
12.00000,156
12.00833,155
12.01667,154
12.02500,153
12.03333,152
12.04167,151
12.05000,150
12.05833,149
12.06667,148
12.07500,147
12.08333,146
12.09167,144
12.10000,143
12.10833,141
12.11667,140
12.12500,140
12.13333,139
12.14167,138
12.15000,137
12.15833,136
12.16667,136
12.17500,135
12.18333,134
12.19167,132
12.20000,131
12.20833,130
12.21667,128
12.22500,127
12.23333,126
12.24167,125
12.25000,124
12.25833,123
12.26667,122
12.27500,121
12.28333,121
12.29167,120
12.30000,119
12.30833,118
12.31667,117
12.32500,117
12.33333,116
12.34167,115
12.35000,114
12.35833,114
12.36667,113
12.37500,112
12.38333,111
12.39167,110
12.40000,109
12.40833,108
12.41667,108
12.42500,108
12.43333,108
12.44167,107
12.45000,107
12.45833,106
12.46667,105
12.47500,104
12.48333,104
12.49167,103
12.50000,103
12.50833,102
12.51667,101
12.52500,101
12.53333,100
12.54167,99
12.55000,99
12.55833,98
12.56667,98
12.57500,97
12.58333,97
12.59167,97
12.60000,96
12.60833,96
12.61667,95
12.62500,94
12.63333,93
12.64167,92
12.65000,91
12.65833,90
12.66667,90
12.67500,89
12.68333,88
12.69167,88
12.70000,87
12.70833,87
12.71667,86
12.72500,85
12.73333,84
12.74167,83
12.75000,83
12.75833,82
12.76667,82
12.77500,81
12.78333,81
12.79167,81
12.80000,80
12.80833,80
12.81667,80
12.82500,79
12.83333,79
12.84167,79
12.85000,78
12.85833,78
12.86667,79
12.87500,79
12.88333,79
12.89167,80
12.90000,80
12.90833,80
12.91667,80
12.92500,81
12.93333,81
12.94167,81
12.95000,81
12.95833,81
12.96667,81
12.97500,82
12.98333,82
12.99167,82
13.00000,83
13.00833,83
13.01667,83
13.02500,84
13.03333,84
13.04167,84
13.05000,84
13.05833,85
13.06667,85
13.07500,85
13.08333,85
13.09167,85
13.10000,85
13.10833,85
13.11667,85
13.12500,86
13.13333,86
13.14167,86
13.15000,86
13.15833,86
13.16667,86
13.17500,86
13.18333,86
13.19167,86
13.20000,86
13.20833,86
13.21667,86
13.22500,86
13.23333,85
13.24167,85
13.25000,84
13.25833,84
13.26667,83
13.27500,83
13.28333,82
13.29167,82
13.30000,81
13.30833,80
13.31667,79
13.32500,79
13.33333,78
13.34167,77
13.35000,77
13.35833,75
13.36667,74
13.37500,73
13.38333,72
13.39167,71
13.40000,71
13.40833,70
13.41667,68
13.42500,67
13.43333,66
13.44167,65
13.45000,64
13.45833,63
13.46667,62
13.47500,61
13.48333,59
13.49167,58
13.50000,57
13.50833,56
13.51667,55
13.52500,54
13.53333,53
13.54167,52
13.55000,51
13.55833,50
13.56667,49
13.57500,47
13.58333,46
13.59167,46
13.60000,45
13.60833,44
13.61667,43
13.62500,42
13.63333,42
13.64167,41
13.65000,41
13.65833,40
13.66667,39
13.67500,38
13.68333,37
13.69167,37
13.70000,36
13.70833,36
13.71667,36
13.72500,35
13.73333,35
13.74167,34
13.75000,34
13.75833,33
13.76667,33
13.77500,33
13.78333,33
13.79167,33
13.80000,32
13.80833,32
13.81667,32
13.82500,32
13.83333,32
13.84167,32
13.85000,32
13.85833,32
13.86667,32
13.87500,32
13.88333,32
13.89167,32
13.90000,32
13.90833,32
13.91667,32
13.92500,32
13.93333,32
13.94167,32
13.95000,32
13.95833,32
13.96667,32
13.97500,32
13.98333,33
13.99167,32
14.00000,33
14.00833,33
14.01667,34
14.02500,34
14.03333,35
14.04167,36
14.05000,36
14.05833,37
14.06667,37
14.07500,37
14.08333,38
14.09167,38
14.10000,39
14.10833,40
14.11667,41
14.12500,42
14.13333,44
14.14167,46
14.15000,48
14.15833,50
14.16667,52
14.17500,55
14.18333,58
14.19167,62
14.20000,66
14.20833,71
14.21667,78
14.22500,85
14.23333,94
14.24167,105
14.25000,119
14.25833,136
14.26667,156
14.27500,180
14.28333,208
14.29167,242
14.30000,282
14.30833,330
14.31667,386
14.32500,452
14.33333,529
14.34167,620
14.35000,724
14.35833,844
14.36667,982
14.37500,1138
14.38333,1316
14.39167,1516
14.40000,1741
14.40833,1991
14.41667,2269
14.42500,2576
14.43333,2913
14.44167,3281
14.45000,3682
14.45833,4117
14.46667,4587
14.47500,5091
14.48333,5631
14.49167,6208
14.50000,6821
14.50833,7471
14.51667,8158
14.52500,8882
14.53333,9642
14.54167,10438
14.55000,11270
14.55833,12137
14.56667,13040
14.57500,13977
14.58333,14948
14.59167,15953
14.60000,16990
14.60833,18060
14.61667,19161
14.62500,20293
14.63333,21456
14.64167,22648
14.65000,23870
14.65833,25121
14.66667,26399
14.67500,27705
14.68333,29038
14.69167,30397
14.70000,31782
14.70833,33193
14.71667,34630
14.72500,36092
14.73333,37578
14.74167,39088
14.75000,40622
14.75833,42180
14.76667,43761
14.77500,45365
14.78333,46992
14.79167,48641
14.80000,50313
14.80833,52007
14.81667,53722
14.82500,55459
14.83333,57218
14.84167,58997
14.85000,60797
14.85833,62618
14.86667,64460
14.87500,66321
14.88333,68202
14.89167,70103
14.90000,72023
14.90833,73962
14.91667,75918
14.92500,77892
14.93333,79883
14.94167,81889
14.95000,83911
14.95833,85947
14.96667,87995
14.97500,90054
14.98333,92121
14.99167,94195
15.00000,96271
15.00833,98345
15.01667,100409
15.02500,102455
15.03333,104470
15.04167,106436
15.05000,108330
15.05833,110121
15.06667,111771
15.07500,113234
15.08333,114458
15.09167,115384
15.10000,115950
15.10833,116095
15.11667,115762
15.12500,114902
15.13333,113479
15.14167,111474
15.15000,108885
15.15833,105731
15.16667,102051
15.17500,97900
15.18333,93350
15.19167,88484
15.20000,83391
15.20833,78163
15.21667,72891
15.22500,67660
15.23333,62548
15.24167,57620
15.25000,52931
15.25833,48523
15.26667,44426
15.27500,40661
15.28333,37238
15.29167,34161
15.30000,31426
15.30833,29024
15.31667,26944
15.32500,25172
15.33333,23694
15.34167,22494
15.35000,21557
15.35833,20868
15.36667,20415
15.37500,20184
15.38333,20163
15.39167,20341
15.40000,20708
15.40833,21255
15.41667,21970
15.42500,22844
15.43333,23868
15.44167,25032
15.45000,26325
15.45833,27736
15.46667,29252
15.47500,30861
15.48333,32550
15.49167,34304
15.50000,36111
15.50833,37952
15.51667,39813
15.52500,41678
15.53333,43529
15.54167,45350
15.55000,47124
15.55833,48836
15.56667,50470
15.57500,52011
15.58333,53444
15.59167,54758
15.60000,55940
15.60833,56980
15.61667,57869
15.62500,58602
15.63333,59171
15.64167,59573
15.65000,59806
15.65833,59869
15.66667,59764
15.67500,59493
15.68333,59061
15.69167,58473
15.70000,57737
15.70833,56860
15.71667,55852
15.72500,54722
15.73333,53482
15.74167,52141
15.75000,50711
15.75833,49205
15.76667,47632
15.77500,46005
15.78333,44335
15.79167,42634
15.80000,40911
15.80833,39178
15.81667,37442
15.82500,35713
15.83333,33999
15.84167,32307
15.85000,30645
15.85833,29017
15.86667,27430
15.87500,25888
15.88333,24395
15.89167,22953
15.90000,21566
15.90833,20235
15.91667,18962
15.92500,17746
15.93333,16590
15.94167,15491
15.95000,14451
15.95833,13467
15.96667,12540
15.97500,11668
15.98333,10848
15.99167,10080
16.00000,9361
16.00833,8691
16.01667,8065
16.02500,7483
16.03333,6941
16.04167,6439
16.05000,5974
16.05833,5542
16.06667,5143
16.07500,4775
16.08333,4435
16.09167,4122
16.10000,3833
16.10833,3568
16.11667,3324
16.12500,3100
16.13333,2895
16.14167,2706
16.15000,2533
16.15833,2374
16.16667,2228
16.17500,2094
16.18333,1972
16.19167,1859
16.20000,1756
16.20833,1662
16.21667,1575
16.22500,1496
16.23333,1422
16.24167,1355
16.25000,1293
16.25833,1237
16.26667,1185
16.27500,1137
16.28333,1092
16.29167,1051
16.30000,1014
16.30833,978
16.31667,945
16.32500,915
16.33333,887
16.34167,861
16.35000,837
16.35833,815
16.36667,794
16.37500,774
16.38333,756
16.39167,739
16.40000,722
16.40833,707
16.41667,693
16.42500,679
16.43333,666
16.44167,654
16.45000,642
16.45833,632
16.46667,622
16.47500,612
16.48333,603
16.49167,595
16.50000,586
16.50833,578
16.51667,570
16.52500,563
16.53333,556
16.54167,549
16.55000,542
16.55833,536
16.56667,530
16.57500,524
16.58333,519
16.59167,513
16.60000,508
16.60833,503
16.61667,499
16.62500,494
16.63333,490
16.64167,485
16.65000,481
16.65833,477
16.66667,473
16.67500,468
16.68333,464
16.69167,461
16.70000,457
16.70833,454
16.71667,450
16.72500,446
16.73333,442
16.74167,439
16.75000,436
16.75833,432
16.76667,429
16.77500,426
16.78333,423
16.79167,420
16.80000,417
16.80833,414
16.81667,411
16.82500,408
16.83333,405
16.84167,402
16.85000,399
16.85833,397
16.86667,394
16.87500,391
16.88333,388
16.89167,385
16.90000,382
16.90833,379
16.91667,377
16.92500,374
16.93333,372
16.94167,369
16.95000,367
16.95833,365
16.96667,362
16.97500,360
16.98333,357
16.99167,354
17.00000,352
17.00833,349
17.01667,347
17.02500,344
17.03333,342
17.04167,340
17.05000,338
17.05833,335
17.06667,333
17.07500,330
17.08333,328
17.09167,326
17.10000,323
17.10833,321
17.11667,319
17.12500,317
17.13333,315
17.14167,313
17.15000,310
17.15833,308
17.16667,306
17.17500,303
17.18333,301
17.19167,300
17.20000,298
17.20833,296
17.21667,294
17.22500,292
17.23333,290
17.24167,288
17.25000,286
17.25833,284
17.26667,283
17.27500,281
17.28333,279
17.29167,277
17.30000,275
17.30833,273
17.31667,272
17.32500,270
17.33333,268
17.34167,267
17.35000,265
17.35833,263
17.36667,262
17.37500,260
17.38333,259
17.39167,257
17.40000,256
17.40833,254
17.41667,253
17.42500,251
17.43333,249
17.44167,248
17.45000,247
17.45833,245
17.46667,244
17.47500,242
17.48333,240
17.49167,239
17.50000,237
17.50833,236
17.51667,234
17.52500,233
17.53333,232
17.54167,230
17.55000,229
17.55833,228
17.56667,227
17.57500,225
17.58333,224
17.59167,223
17.60000,222
17.60833,221
17.61667,220
17.62500,219
17.63333,218
17.64167,216
17.65000,215
17.65833,214
17.66667,212
17.67500,211
17.68333,209
17.69167,208
17.70000,207
17.70833,206
17.71667,205
17.72500,204
17.73333,203
17.74167,202
17.75000,200
17.75833,199
17.76667,198
17.77500,196
17.78333,195
17.79167,195
17.80000,194
17.80833,192
17.81667,191
17.82500,190
17.83333,189
17.84167,188
17.85000,187
17.85833,186
17.86667,185
17.87500,184
17.88333,183
17.89167,182
17.90000,181
17.90833,180
17.91667,178
17.92500,177
17.93333,176
17.94167,175
17.95000,173
17.95833,172
17.96667,171
17.97500,170
17.98333,169
17.99167,169
18.00000,168
18.00833,167
18.01667,166
18.02500,165
18.03333,164
18.04167,163
18.05000,162
18.05833,161
18.06667,160
18.07500,159
18.08333,158
18.09167,157
18.10000,157
18.10833,156
18.11667,155
18.12500,154
18.13333,153
18.14167,152
18.15000,151
18.15833,150
18.16667,149
18.17500,148
18.18333,148
18.19167,147
18.20000,146
18.20833,145
18.21667,144
18.22500,143
18.23333,142
18.24167,142
18.25000,141
18.25833,141
18.26667,140
18.27500,139
18.28333,138
18.29167,137
18.30000,136
18.30833,135
18.31667,134
18.32500,134
18.33333,133
18.34167,132
18.35000,131
18.35833,130
18.36667,130
18.37500,129
18.38333,128
18.39167,127
18.40000,127
18.40833,126
18.41667,125
18.42500,124
18.43333,123
18.44167,122
18.45000,121
18.45833,120
18.46667,120
18.47500,119
18.48333,118
18.49167,118
18.50000,117
18.50833,116
18.51667,115
18.52500,114
18.53333,114
18.54167,113
18.55000,113
18.55833,112
18.56667,112
18.57500,111
18.58333,110
18.59167,109
18.60000,109
18.60833,108
18.61667,108
18.62500,107
18.63333,106
18.64167,105
18.65000,104
18.65833,104
18.66667,103
18.67500,103
18.68333,103
18.69167,103
18.70000,102
18.70833,102
18.71667,102
18.72500,102
18.73333,102
18.74167,102
18.75000,102
18.75833,102
18.76667,101
18.77500,101
18.78333,101
18.79167,101
18.80000,101
18.80833,101
18.81667,101
18.82500,101
18.83333,101
18.84167,102
18.85000,102
18.85833,102
18.86667,102
18.87500,102
18.88333,102
18.89167,103
18.90000,103
18.90833,103
18.91667,104
18.92500,104
18.93333,104
18.94167,104
18.95000,104
18.95833,104
18.96667,104
18.97500,104
18.98333,104
18.99167,104
19.00000,105
19.00833,105
19.01667,104
19.02500,104
19.03333,103
19.04167,102
19.05000,102
19.05833,101
19.06667,100
19.07500,99
19.08333,98
19.09167,98
19.10000,97
19.10833,96
19.11667,95
19.12500,93
19.13333,92
19.14167,91
19.15000,90
19.15833,89
19.16667,88
19.17500,87
19.18333,86
19.19167,85
19.20000,84
19.20833,83
19.21667,82
19.22500,81
19.23333,80
19.24167,79
19.25000,78
19.25833,76
19.26667,75
19.27500,74
19.28333,73
19.29167,73
19.30000,72
19.30833,71
19.31667,70
19.32500,69
19.33333,69
19.34167,68
19.35000,67
19.35833,66
19.36667,66
19.37500,66
19.38333,65
19.39167,65
19.40000,64
19.40833,63
19.41667,63
19.42500,62
19.43333,61
19.44167,60
19.45000,59
19.45833,59
19.46667,59
19.47500,59
19.48333,59
19.49167,58
19.50000,58
19.50833,58
19.51667,57
19.52500,57
19.53333,56
19.54167,56
19.55000,55
19.55833,55
19.56667,54
19.57500,54
19.58333,54
19.59167,53
19.60000,53
19.60833,53
19.61667,53
19.62500,52
19.63333,52
19.64167,52
19.65000,52
19.65833,52
19.66667,52
19.67500,51
19.68333,51
19.69167,51
19.70000,50
19.70833,50
19.71667,49
19.72500,49
19.73333,49
19.74167,49
19.75000,48
19.75833,48
19.76667,48
19.77500,48
19.78333,47
19.79167,46
19.80000,46
19.80833,46
19.81667,46
19.82500,45
19.83333,45
19.84167,45
19.85000,45
19.85833,45
19.86667,44
19.87500,44
19.88333,44
19.89167,44
19.90000,44
19.90833,43
19.91667,43
19.92500,43
19.93333,43
19.94167,43
19.95000,43
19.95833,42
19.96667,42
19.97500,41
19.98333,41
19.99167,40
20.00000,40
20.00833,39
20.01667,39
20.02500,39
20.03333,39
20.04167,39
20.05000,39
20.05833,38
20.06667,38
20.07500,38
20.08333,38
20.09167,38
20.10000,38
20.10833,38
20.11667,37
20.12500,37
20.13333,37
20.14167,36
20.15000,36
20.15833,36
20.16667,36
20.17500,36
20.18333,36
20.19167,36
20.20000,35
20.20833,35
20.21667,34
20.22500,34
20.23333,34
20.24167,34
20.25000,34
20.25833,34
20.26667,34
20.27500,33
20.28333,33
20.29167,34
20.30000,33
20.30833,33
20.31667,33
20.32500,32
20.33333,32
20.34167,32
20.35000,31
20.35833,31
20.36667,31
20.37500,31
20.38333,32
20.39167,32
20.40000,32
20.40833,32
20.41667,31
20.42500,31
20.43333,30
20.44167,30
20.45000,30
20.45833,30
20.46667,30
20.47500,30
20.48333,30
20.49167,29
20.50000,29
20.50833,29
20.51667,29
20.52500,29
20.53333,28
20.54167,28
20.55000,28
20.55833,28
20.56667,28
20.57500,28
20.58333,28
20.59167,28
20.60000,27
20.60833,27
20.61667,27
20.62500,27
20.63333,27
20.64167,27
20.65000,27
20.65833,26
20.66667,26
20.67500,26
20.68333,26
20.69167,26
20.70000,26
20.70833,26
20.71667,26
20.72500,25
20.73333,25
20.74167,25
20.75000,25
20.75833,25
20.76667,25
20.77500,25
20.78333,24
20.79167,24
20.80000,24
20.80833,23
20.81667,23
20.82500,23
20.83333,23
20.84167,23
20.85000,23
20.85833,23
20.86667,23
20.87500,22
20.88333,22
20.89167,22
20.90000,22
20.90833,22
20.91667,22
20.92500,22
20.93333,22
20.94167,22
20.95000,22
20.95833,21
20.96667,21
20.97500,21
20.98333,21
20.99167,21
21.00000,21
21.00833,20
21.01667,21
21.02500,21
21.03333,20
21.04167,20
21.05000,20
21.05833,20
21.06667,20
21.07500,20
21.08333,20
21.09167,20
21.10000,20
21.10833,20
21.11667,19
21.12500,19
21.13333,18
21.14167,18
21.15000,18
21.15833,18
21.16667,18
21.17500,18
21.18333,18
21.19167,18
21.20000,18
21.20833,18
21.21667,18
21.22500,18
21.23333,19
21.24167,19
21.25000,18
21.25833,19
21.26667,19
21.27500,20
21.28333,20
21.29167,20
21.30000,20
21.30833,21
21.31667,21
21.32500,21
21.33333,22
21.34167,23
21.35000,24
21.35833,25
21.36667,25
21.37500,26
21.38333,28
21.39167,29
21.40000,31
21.40833,33
21.41667,36
21.42500,39
21.43333,42
21.44167,45
21.45000,49
21.45833,53
21.46667,58
21.47500,65
21.48333,72
21.49167,79
21.50000,88
21.50833,98
21.51667,109
21.52500,121
21.53333,136
21.54167,152
21.55000,170
21.55833,191
21.56667,214
21.57500,240
21.58333,269
21.59167,303
21.60000,341
21.60833,383
21.61667,430
21.62500,483
21.63333,541
21.64167,607
21.65000,679
21.65833,760
21.66667,850
21.67500,949
21.68333,1059
21.69167,1180
21.70000,1312
21.70833,1457
21.71667,1616
21.72500,1788
21.73333,1975
21.74167,2177
21.75000,2394
21.75833,2628
21.76667,2879
21.77500,3147
21.78333,3432
21.79167,3735
21.80000,4054
21.80833,4391
21.81667,4744
21.82500,5114
21.83333,5499
21.84167,5899
21.85000,6311
21.85833,6736
21.86667,7172
21.87500,7616
21.88333,8068
21.89167,8526
21.90000,8987
21.90833,9449
21.91667,9909
21.92500,10366
21.93333,10817
21.94167,11260
21.95000,11691
21.95833,12108
21.96667,12510
21.97500,12892
21.98333,13254
21.99167,13593
22.00000,13907
22.00833,14193
22.01667,14451
22.02500,14678
22.03333,14873
22.04167,15035
22.05000,15163
22.05833,15257
22.06667,15315
22.07500,15339
22.08333,15328
22.09167,15283
22.10000,15204
22.10833,15092
22.11667,14948
22.12500,14774
22.13333,14570
22.14167,14339
22.15000,14082
22.15833,13801
22.16667,13497
22.17500,13174
22.18333,12832
22.19167,12475
22.20000,12105
22.20833,11722
22.21667,11331
22.22500,10932
22.23333,10527
22.24167,10120
22.25000,9711
22.25833,9303
22.26667,8896
22.27500,8493
22.28333,8094
22.29167,7702
22.30000,7317
22.30833,6941
22.31667,6574
22.32500,6217
22.33333,5872
22.34167,5538
22.35000,5215
22.35833,4906
22.36667,4608
22.37500,4324
22.38333,4052
22.39167,3793
22.40000,3547
22.40833,3312
22.41667,3091
22.42500,2882
22.43333,2685
22.44167,2499
22.45000,2324
22.45833,2161
22.46667,2007
22.47500,1864
22.48333,1730
22.49167,1604
22.50000,1488
22.50833,1379
22.51667,1279
22.52500,1185
22.53333,1098
22.54167,1018
22.55000,944
22.55833,876
22.56667,813
22.57500,755
22.58333,701
22.59167,652
22.60000,606
22.60833,564
22.61667,526
22.62500,491
22.63333,458
22.64167,428
22.65000,401
22.65833,376
22.66667,352
22.67500,332
22.68333,313
22.69167,295
22.70000,279
22.70833,264
22.71667,250
22.72500,238
22.73333,226
22.74167,215
22.75000,205
22.75833,196
22.76667,187
22.77500,179
22.78333,172
22.79167,165
22.80000,159
22.80833,154
22.81667,148
22.82500,144
22.83333,139
22.84167,135
22.85000,130
22.85833,126
22.86667,123
22.87500,120
22.88333,117
22.89167,114
22.90000,112
22.90833,109
22.91667,107
22.92500,104
22.93333,102
22.94167,100
22.95000,99
22.95833,97
22.96667,95
22.97500,93
22.98333,92
22.99167,90
23.00000,88
23.00833,86
23.01667,85
23.02500,84
23.03333,83
23.04167,82
23.05000,81
23.05833,80
23.06667,79
23.07500,78
23.08333,77
23.09167,76
23.10000,75
23.10833,74
23.11667,73
23.12500,73
23.13333,72
23.14167,71
23.15000,70
23.15833,69
23.16667,68
23.17500,68
23.18333,67
23.19167,67
23.20000,66
23.20833,65
23.21667,65
23.22500,65
23.23333,64
23.24167,63
23.25000,63
23.25833,62
23.26667,62
23.27500,61
23.28333,60
23.29167,59
23.30000,58
23.30833,57
23.31667,56
23.32500,56
23.33333,55
23.34167,55
23.35000,55
23.35833,54
23.36667,54
23.37500,53
23.38333,53
23.39167,53
23.40000,52
23.40833,52
23.41667,51
23.42500,50
23.43333,50
23.44167,49
23.45000,49
23.45833,49
23.46667,48
23.47500,48
23.48333,48
23.49167,47
23.50000,47
23.50833,46
23.51667,45
23.52500,45
23.53333,45
23.54167,44
23.55000,44
23.55833,44
23.56667,44
23.57500,43
23.58333,43
23.59167,42
23.60000,42
23.60833,42
23.61667,41
23.62500,41
23.63333,40
23.64167,40
23.65000,40
23.65833,40
23.66667,39
23.67500,39
23.68333,38
23.69167,38
23.70000,38
23.70833,38
23.71667,38
23.72500,38
23.73333,38
23.74167,37
23.75000,37
23.75833,37
23.76667,36
23.77500,36
23.78333,36
23.79167,35
23.80000,35
23.80833,35
23.81667,35
23.82500,34
23.83333,34
23.84167,34
23.85000,34
23.85833,34
23.86667,34
23.87500,33
23.88333,33
23.89167,33
23.90000,33
23.90833,32
23.91667,32
23.92500,31
23.93333,31
23.94167,31
23.95000,31
23.95833,31
23.96667,30
23.97500,30
23.98333,30
23.99167,30
24.00000,30
24.00833,30
24.01667,31
24.02500,31
24.03333,31
24.04167,30
24.05000,30
24.05833,30
24.06667,29
24.07500,29
24.08333,29
24.09167,29
24.10000,29
24.10833,29
24.11667,29
24.12500,29
24.13333,29
24.14167,29
24.15000,28
24.15833,28
24.16667,28
24.17500,28
24.18333,27
24.19167,27
24.20000,27
24.20833,28
24.21667,28
24.22500,28
24.23333,28
24.24167,29
24.25000,29
24.25833,30
24.26667,30
24.27500,30
24.28333,30
24.29167,31
24.30000,31
24.30833,31
24.31667,31
24.32500,32
24.33333,33
24.34167,33
24.35000,34
24.35833,35
24.36667,36
24.37500,37
24.38333,39
24.39167,40
24.40000,42
24.40833,44
24.41667,47
24.42500,50
24.43333,53
24.44167,56
24.45000,60
24.45833,64
24.46667,69
24.47500,75
24.48333,82
24.49167,89
24.50000,96
24.50833,105
24.51667,114
24.52500,125
24.53333,137
24.54167,151
24.55000,165
24.55833,182
24.56667,200
24.57500,220
24.58333,242
24.59167,267
24.60000,293
24.60833,323
24.61667,355
24.62500,390
24.63333,428
24.64167,470
24.65000,515
24.65833,565
24.66667,618
24.67500,676
24.68333,738
24.69167,804
24.70000,876
24.70833,952
24.71667,1033
24.72500,1120
24.73333,1213
24.74167,1311
24.75000,1415
24.75833,1524
24.76667,1639
24.77500,1760
24.78333,1886
24.79167,2016
24.80000,2152
24.80833,2292
24.81667,2438
24.82500,2587
24.83333,2741
24.84167,2897
24.85000,3056
24.85833,3218
24.86667,3381
24.87500,3545
24.88333,3711
24.89167,3876
24.90000,4040
24.90833,4203
24.91667,4363
24.92500,4520
24.93333,4674
24.94167,4823
24.95000,4967
24.95833,5104
24.96667,5235
24.97500,5359
24.98333,5474
24.99167,5581
25.00000,5678
25.00833,5766
25.01667,5843
25.02500,5910
25.03333,5967
25.04167,6012
25.05000,6046
25.05833,6069
25.06667,6080
25.07500,6079
25.08333,6067
25.09167,6043
25.10000,6009
25.10833,5963
25.11667,5908
25.12500,5842
25.13333,5767
25.14167,5682
25.15000,5589
25.15833,5488
25.16667,5379
25.17500,5263
25.18333,5141
25.19167,5013
25.20000,4881
25.20833,4744
25.21667,4603
25.22500,4459
25.23333,4313
25.24167,4164
25.25000,4015
25.25833,3865
25.26667,3715
25.27500,3566
25.28333,3417
25.29167,3270
25.30000,3124
25.30833,2980
25.31667,2840
25.32500,2702
25.33333,2567
25.34167,2436
25.35000,2308
25.35833,2185
25.36667,2066
25.37500,1950
25.38333,1839
25.39167,1732
25.40000,1630
25.40833,1532
25.41667,1439
25.42500,1350
25.43333,1265
25.44167,1184
25.45000,1108
25.45833,1035
25.46667,966
25.47500,902
25.48333,841
25.49167,784
25.50000,731
25.50833,680
25.51667,633
25.52500,589
25.53333,547
25.54167,508
25.55000,473
25.55833,440
25.56667,409
25.57500,381
25.58333,354
25.59167,330
25.60000,307
25.60833,286
25.61667,267
25.62500,249
25.63333,232
25.64167,217
25.65000,203
25.65833,190
25.66667,178
25.67500,168
25.68333,158
25.69167,148
25.70000,140
25.70833,132
25.71667,125
25.72500,118
25.73333,112
25.74167,106
25.75000,101
25.75833,96
25.76667,92
25.77500,88
25.78333,84
25.79167,81
25.80000,78
25.80833,75
25.81667,72
25.82500,70
25.83333,67
25.84167,65
25.85000,63
25.85833,61
25.86667,60
25.87500,58
25.88333,56
25.89167,55
25.90000,54
25.90833,52
25.91667,51
25.92500,50
25.93333,49
25.94167,48
25.95000,47
25.95833,46
25.96667,46
25.97500,45
25.98333,44
25.99167,43
26.00000,43
26.00833,42
26.01667,41
26.02500,41
26.03333,40
26.04167,39
26.05000,38
26.05833,38
26.06667,38
26.07500,37
26.08333,37
26.09167,37
26.10000,37
26.10833,36
26.11667,36
26.12500,35
26.13333,35
26.14167,34
26.15000,33
26.15833,33
26.16667,33
26.17500,32
26.18333,32
26.19167,32
26.20000,32
26.20833,32
26.21667,32
26.22500,31
26.23333,31
26.24167,30
26.25000,30
26.25833,30
26.26667,29
26.27500,29
26.28333,29
26.29167,29
26.30000,29
26.30833,28
26.31667,28
26.32500,28
26.33333,28
26.34167,28
26.35000,27
26.35833,27
26.36667,27
26.37500,27
26.38333,27
26.39167,26
26.40000,26
26.40833,26
26.41667,26
26.42500,26
26.43333,26
26.44167,25
26.45000,25
26.45833,25
26.46667,25
26.47500,25
26.48333,25
26.49167,25
26.50000,26
26.50833,26
26.51667,26
26.52500,25
26.53333,25
26.54167,25
26.55000,25
26.55833,25
26.56667,25
26.57500,26
26.58333,26
26.59167,26
26.60000,25
26.60833,25
26.61667,25
26.62500,25
26.63333,25
26.64167,25
26.65000,25
26.65833,25
26.66667,25
26.67500,25
26.68333,24
26.69167,24
26.70000,24
26.70833,24
26.71667,24
26.72500,24
26.73333,24
26.74167,25
26.75000,25
26.75833,25
26.76667,25
26.77500,24
26.78333,24
26.79167,24
26.80000,24
26.80833,24
26.81667,24
26.82500,23
26.83333,23
26.84167,23
26.85000,22
26.85833,22
26.86667,22
26.87500,23
26.88333,23
26.89167,23
26.90000,22
26.90833,23
26.91667,23
26.92500,23
26.93333,22
26.94167,22
26.95000,22
26.95833,22
26.96667,22
26.97500,22
26.98333,22
26.99167,21
27.00000,21
27.00833,21
27.01667,22
27.02500,21
27.03333,21
27.04167,21
27.05000,20
27.05833,20
27.06667,20
27.07500,20
27.08333,20
27.09167,20
27.10000,20
27.10833,20
27.11667,20
27.12500,20
27.13333,20
27.14167,19
27.15000,19
27.15833,19
27.16667,18
27.17500,18
27.18333,18
27.19167,18
27.20000,18
27.20833,18
27.21667,18
27.22500,17
27.23333,17
27.24167,17
27.25000,17
27.25833,17
27.26667,17
27.27500,17
27.28333,17
27.29167,17
27.30000,16
27.30833,16
27.31667,16
27.32500,16
27.33333,17
27.34167,17
27.35000,17
27.35833,17
27.36667,17
27.37500,17
27.38333,17
27.39167,17
27.40000,17
27.40833,16
27.41667,16
27.42500,16
27.43333,16
27.44167,16
27.45000,16
27.45833,16
27.46667,15
27.47500,15
27.48333,15
27.49167,15
27.50000,15
27.50833,15
27.51667,15
27.52500,15
27.53333,15
27.54167,15
27.55000,15
27.55833,15
27.56667,15
27.57500,15
27.58333,15
27.59167,15
27.60000,15
27.60833,16
27.61667,16
27.62500,16
27.63333,16
27.64167,16
27.65000,15
27.65833,15
27.66667,14
27.67500,14
27.68333,14
27.69167,14
27.70000,14
27.70833,14
27.71667,14
27.72500,13
27.73333,13
27.74167,13
27.75000,13
27.75833,12
27.76667,12
27.77500,11
27.78333,11
27.79167,11
27.80000,11
27.80833,10
27.81667,10
27.82500,10
27.83333,9
27.84167,9
27.85000,8
27.85833,8
27.86667,7
27.87500,7
27.88333,6
27.89167,5
27.90000,4
27.90833,3
27.91667,2
27.92500,2
27.93333,1
27.94167,-0
27.95000,-1
27.95833,-3
27.96667,-4
27.97500,-5
27.98333,-7
27.99167,-8
28.00000,-10
28.00833,-12
28.01667,-13
28.02500,-15
28.03333,-17
28.04167,-19
28.05000,-21
28.05833,-23
28.06667,-25
28.07500,-27
28.08333,-29
28.09167,-32
28.10000,-34
28.10833,-37
28.11667,-39
28.12500,-42
28.13333,-45
28.14167,-47
28.15000,-50
28.15833,-53
28.16667,-56
28.17500,-59
28.18333,-62
28.19167,-64
28.20000,-67
28.20833,-70
28.21667,-73
28.22500,-76
28.23333,-79
28.24167,-82
28.25000,-85
28.25833,-88
28.26667,-91
28.27500,-94
28.28333,-97
28.29167,-100
28.30000,-102
28.30833,-104
28.31667,-106
28.32500,-109
28.33333,-110
28.34167,-112
28.35000,-114
28.35833,-116
28.36667,-117
28.37500,-119
28.38333,-120
28.39167,-122
28.40000,-123
28.40833,-124
28.41667,-124
28.42500,-125
28.43333,-126
28.44167,-127
28.45000,-127
28.45833,-127
28.46667,-127
28.47500,-126
28.48333,-126
28.49167,-125
28.50000,-124
28.50833,-124
28.51667,-123
28.52500,-122
28.53333,-120
28.54167,-119
28.55000,-117
28.55833,-116
28.56667,-114
28.57500,-112
28.58333,-111
28.59167,-109
28.60000,-107
28.60833,-104
28.61667,-102
28.62500,-99
28.63333,-97
28.64167,-94
28.65000,-92
28.65833,-90
28.66667,-87
28.67500,-85
28.68333,-82
28.69167,-79
28.70000,-77
28.70833,-75
28.71667,-72
28.72500,-70
28.73333,-67
28.74167,-65
28.75000,-63
28.75833,-61
28.76667,-58
28.77500,-56
28.78333,-54
28.79167,-52
28.80000,-49
28.80833,-47
28.81667,-45
28.82500,-43
28.83333,-41
28.84167,-39
28.85000,-37
28.85833,-35
28.86667,-34
28.87500,-32
28.88333,-31
28.89167,-29
28.90000,-28
28.90833,-27
28.91667,-25
28.92500,-24
28.93333,-22
28.94167,-21
28.95000,-19
28.95833,-18
28.96667,-17
28.97500,-16
28.98333,-16
28.99167,-15
29.00000,-14
29.00833,-13
29.01667,-12
29.02500,-11
29.03333,-10
29.04167,-10
29.05000,-10
29.05833,-9
29.06667,-9
29.07500,-8
29.08333,-7
29.09167,-7
29.10000,-6
29.10833,-6
29.11667,-5
29.12500,-5
29.13333,-5
29.14167,-4
29.15000,-4
29.15833,-3
29.16667,-3
29.17500,-3
29.18333,-3
29.19167,-2
29.20000,-2
29.20833,-2
29.21667,-2
29.22500,-2
29.23333,-2
29.24167,-2
29.25000,-1
29.25833,-1
29.26667,-1
29.27500,-1
29.28333,-1
29.29167,-1
29.30000,-0
29.30833,-1
29.31667,-1
29.32500,-1
29.33333,-1
29.34167,-1
29.35000,-0
29.35833,0
29.36667,1
29.37500,1
29.38333,1
29.39167,0
29.40000,0
29.40833,0
29.41667,0
29.42500,0
29.43333,0
29.44167,-0
29.45000,-0
29.45833,-0
29.46667,0
29.47500,-0
29.48333,0
29.49167,-0
29.50000,-0
29.50833,-0
29.51667,-0
29.52500,-0
29.53333,-0
29.54167,-1
29.55000,-1
29.55833,-1
29.56667,-1
29.57500,-2
29.58333,-2
29.59167,-2
29.60000,-2
29.60833,-2
29.61667,-3
29.62500,-3
29.63333,-3
29.64167,-3
29.65000,-4
29.65833,-4
29.66667,-5
29.67500,-6
29.68333,-6
29.69167,-7
29.70000,-7
29.70833,-8
29.71667,-8
29.72500,-9
29.73333,-10
29.74167,-10
29.75000,-10
29.75833,-11
29.76667,-12
29.77500,-13
29.78333,-13
29.79167,-14
29.80000,-14
29.80833,-14
29.81667,-15
29.82500,-16
29.83333,-17
29.84167,-18
29.85000,-19
29.85833,-20
29.86667,-21
29.87500,-21
29.88333,-22
29.89167,-24
29.90000,-25
29.90833,-26
29.91667,-26
29.92500,-27
29.93333,-28
29.94167,-29
29.95000,-29
29.95833,-30
29.96667,-31
29.97500,-32
29.98333,-34
29.99167,-35
30.00000,-36
30.00833,-36
30.01667,-37
30.02500,-38
30.03333,-40
30.04167,-41
30.05000,-42
30.05833,-42
30.06667,-43
30.07500,-43
30.08333,-44
30.09167,-44
30.10000,-45
30.10833,-46
30.11667,-47
30.12500,-47
30.13333,-47
30.14167,-48
30.15000,-48
30.15833,-48
30.16667,-48
30.17500,-49
30.18333,-49
30.19167,-49
30.20000,-49
30.20833,-49
30.21667,-49
30.22500,-48
30.23333,-48
30.24167,-48
30.25000,-48
30.25833,-48
30.26667,-48
30.27500,-48
30.28333,-48
30.29167,-47
30.30000,-47
30.30833,-47
30.31667,-46
30.32500,-45
30.33333,-44
30.34167,-43
30.35000,-42
30.35833,-42
30.36667,-41
30.37500,-41
30.38333,-40
30.39167,-39
30.40000,-39
30.40833,-38
30.41667,-38
30.42500,-37
30.43333,-36
30.44167,-35
30.45000,-33
30.45833,-32
30.46667,-32
30.47500,-31
30.48333,-31
30.49167,-30
30.50000,-29
30.50833,-28
30.51667,-27
30.52500,-26
30.53333,-25
30.54167,-24
30.55000,-24
30.55833,-23
30.56667,-22
30.57500,-22
30.58333,-21
30.59167,-21
30.60000,-21
30.60833,-20
30.61667,-19
30.62500,-19
30.63333,-18
30.64167,-18
30.65000,-17
30.65833,-16
30.66667,-16
30.67500,-15
30.68333,-15
30.69167,-15
30.70000,-14
30.70833,-14
30.71667,-13
30.72500,-13
30.73333,-12
30.74167,-12
30.75000,-12
30.75833,-11
30.76667,-11
30.77500,-10
30.78333,-10
30.79167,-10
30.80000,-10
30.80833,-10
30.81667,-10
30.82500,-10
30.83333,-9
30.84167,-9
30.85000,-9
30.85833,-9
30.86667,-9
30.87500,-9
30.88333,-9
30.89167,-8
30.90000,-8
30.90833,-8
30.91667,-8
30.92500,-8
30.93333,-8
30.94167,-8
30.95000,-8
30.95833,-8
30.96667,-8
30.97500,-7
30.98333,-7
30.99167,-7
31.00000,-7
31.00833,-7
31.01667,-7
31.02500,-7
31.03333,-7
31.04167,-6
31.05000,-6
31.05833,-6
31.06667,-6
31.07500,-6
31.08333,-6
31.09167,-6
31.10000,-6
31.10833,-7
31.11667,-6
31.12500,-6
31.13333,-6
31.14167,-6
31.15000,-6
31.15833,-6
31.16667,-5
31.17500,-5
31.18333,-6
31.19167,-6
31.20000,-6
31.20833,-6
31.21667,-6
31.22500,-5
31.23333,-5
31.24167,-6
31.25000,-6
31.25833,-5
31.26667,-5
31.27500,-5
31.28333,-5
31.29167,-5
31.30000,-5
31.30833,-5
31.31667,-5
31.32500,-5
31.33333,-5
31.34167,-5
31.35000,-4
31.35833,-4
31.36667,-4
31.37500,-4
31.38333,-4
31.39167,-4
31.40000,-4
31.40833,-4
31.41667,-4
31.42500,-4
31.43333,-4
31.44167,-4
31.45000,-3
31.45833,-3
31.46667,-4
31.47500,-4
31.48333,-4
31.49167,-4
31.50000,-4
31.50833,-4
31.51667,-4
31.52500,-5
31.53333,-5
31.54167,-5
31.55000,-5
31.55833,-5
31.56667,-4
31.57500,-4
31.58333,-4
31.59167,-4
31.60000,-4
31.60833,-4
31.61667,-4
31.62500,-4
31.63333,-4
31.64167,-4
31.65000,-5
31.65833,-4
31.66667,-4
31.67500,-5
31.68333,-5
31.69167,-5
31.70000,-5
31.70833,-5
31.71667,-5
31.72500,-5
31.73333,-5
31.74167,-5
31.75000,-5
31.75833,-5
31.76667,-5
31.77500,-5
31.78333,-5
31.79167,-4
31.80000,-4
31.80833,-4
31.81667,-4
31.82500,-4
31.83333,-4
31.84167,-4
31.85000,-4
31.85833,-4
31.86667,-4
31.87500,-4
31.88333,-5
31.89167,-5
31.90000,-5
31.90833,-5
31.91667,-4
31.92500,-4
31.93333,-4
31.94167,-4
31.95000,-4
31.95833,-4
31.96667,-4
31.97500,-3
31.98333,-3
31.99167,-3
32.00000,-3
32.00833,-4
32.01667,-4
32.02500,-4
32.03333,-4
32.04167,-4
32.05000,-4
32.05833,-4
32.06667,-4
32.07500,-4
32.08333,-4
32.09167,-4
32.10000,-4
32.10833,-4
32.11667,-4
32.12500,-4
32.13333,-4
32.14167,-4
32.15000,-4
32.15833,-4
32.16667,-4
32.17500,-4
32.18333,-4
32.19167,-4
32.20000,-4
32.20833,-4
32.21667,-4
32.22500,-4
32.23333,-5
32.24167,-5
32.25000,-5
32.25833,-5
32.26667,-5
32.27500,-5
32.28333,-5
32.29167,-5
32.30000,-5
32.30833,-5
32.31667,-5
32.32500,-4
32.33333,-4
32.34167,-4
32.35000,-5
32.35833,-4
32.36667,-4
32.37500,-4
32.38333,-4
32.39167,-4
32.40000,-4
32.40833,-4
32.41667,-4
32.42500,-4
32.43333,-4
32.44167,-4
32.45000,-3
32.45833,-3
32.46667,-3
32.47500,-4
32.48333,-4
32.49167,-4
32.50000,-4
32.50833,-4
32.51667,-4
32.52500,-4
32.53333,-4
32.54167,-4
32.55000,-4
32.55833,-4
32.56667,-4
32.57500,-5
32.58333,-5
32.59167,-5
32.60000,-5
32.60833,-5
32.61667,-5
32.62500,-5
32.63333,-5
32.64167,-5
32.65000,-5
32.65833,-5
32.66667,-5
32.67500,-5
32.68333,-4
32.69167,-4
32.70000,-4
32.70833,-4
32.71667,-4
32.72500,-4
32.73333,-4
32.74167,-4
32.75000,-4
32.75833,-4
32.76667,-4
32.77500,-4
32.78333,-4
32.79167,-5
32.80000,-5
32.80833,-5
32.81667,-5
32.82500,-5
32.83333,-5
32.84167,-5
32.85000,-5
32.85833,-5
32.86667,-5
32.87500,-5
32.88333,-5
32.89167,-5
32.90000,-5
32.90833,-5
32.91667,-4
32.92500,-4
32.93333,-4
32.94167,-5
32.95000,-5
32.95833,-5
32.96667,-5
32.97500,-5
32.98333,-5
32.99167,-5
33.00000,-5
33.00833,-5
33.01667,-5
33.02500,-5
33.03333,-5
33.04167,-5
33.05000,-5
33.05833,-5
33.06667,-5
33.07500,-5
33.08333,-6
33.09167,-6
33.10000,-6
33.10833,-6
33.11667,-6
33.12500,-6
33.13333,-6
33.14167,-6
33.15000,-5
33.15833,-5
33.16667,-5
33.17500,-5
33.18333,-5
33.19167,-6
33.20000,-6
33.20833,-6
33.21667,-7
33.22500,-7
33.23333,-7
33.24167,-7
33.25000,-6
33.25833,-6
33.26667,-6
33.27500,-6
33.28333,-6
33.29167,-5
33.30000,-5
33.30833,-5
33.31667,-5
33.32500,-5
33.33333,-5
33.34167,-5
33.35000,-5
33.35833,-5
33.36667,-5
33.37500,-5
33.38333,-5
33.39167,-6
33.40000,-6
33.40833,-6
33.41667,-6
33.42500,-6
33.43333,-6
33.44167,-6
33.45000,-6
33.45833,-6
33.46667,-6
33.47500,-6
33.48333,-6
33.49167,-6
33.50000,-7
33.50833,-7
33.51667,-6
33.52500,-6
33.53333,-6
33.54167,-6
33.55000,-5
33.55833,-5
33.56667,-6
33.57500,-6
33.58333,-6
33.59167,-6
33.60000,-7
33.60833,-7
33.61667,-7
33.62500,-7
33.63333,-7
33.64167,-7
33.65000,-7
33.65833,-7
33.66667,-7
33.67500,-8
33.68333,-8
33.69167,-8
33.70000,-8
33.70833,-8
33.71667,-8
33.72500,-7
33.73333,-7
33.74167,-7
33.75000,-7
33.75833,-7
33.76667,-7
33.77500,-8
33.78333,-8
33.79167,-8
33.80000,-8
33.80833,-7
33.81667,-7
33.82500,-7
33.83333,-6
33.84167,-6
33.85000,-6
33.85833,-6
33.86667,-6
33.87500,-6
33.88333,-7
33.89167,-7
33.90000,-7
33.90833,-7
33.91667,-7
33.92500,-8
33.93333,-8
33.94167,-7
33.95000,-7
33.95833,-7
33.96667,-7
33.97500,-7
33.98333,-7
33.99167,-7
34.00000,-7
34.00833,-7
34.01667,-7
34.02500,-7
34.03333,-7
34.04167,-7
34.05000,-7
34.05833,-7
34.06667,-7
34.07500,-7
34.08333,-7
34.09167,-7
34.10000,-6
34.10833,-6
34.11667,-6
34.12500,-7
34.13333,-7
34.14167,-8
34.15000,-8
34.15833,-8
34.16667,-8
34.17500,-8
34.18333,-8
34.19167,-8
34.20000,-8
34.20833,-7
34.21667,-7
34.22500,-7
34.23333,-7
34.24167,-7
34.25000,-7
34.25833,-7
34.26667,-7
34.27500,-7
34.28333,-7
34.29167,-7
34.30000,-7
34.30833,-6
34.31667,-7
34.32500,-7
34.33333,-7
34.34167,-8
34.35000,-8
34.35833,-8
34.36667,-8
34.37500,-8
34.38333,-8
34.39167,-8
34.40000,-8
34.40833,-8
34.41667,-8
34.42500,-8
34.43333,-7
34.44167,-8
34.45000,-8
34.45833,-8
34.46667,-7
34.47500,-7
34.48333,-7
34.49167,-8
34.50000,-8
34.50833,-8
34.51667,-8
34.52500,-8
34.53333,-8
34.54167,-8
34.55000,-8
34.55833,-8
34.56667,-8
34.57500,-8
34.58333,-8
34.59167,-8
34.60000,-8
34.60833,-8
34.61667,-9
34.62500,-9
34.63333,-8
34.64167,-8
34.65000,-9
34.65833,-9
34.66667,-9
34.67500,-9
34.68333,-9
34.69167,-9
34.70000,-9
34.70833,-9
34.71667,-9
34.72500,-9
34.73333,-9
34.74167,-8
34.75000,-8
34.75833,-9
34.76667,-8
34.77500,-8
34.78333,-8
34.79167,-8
34.80000,-8
34.80833,-8
34.81667,-8
34.82500,-8
34.83333,-8
34.84167,-8
34.85000,-9
34.85833,-9
34.86667,-8
34.87500,-8
34.88333,-8
34.89167,-8
34.90000,-8
34.90833,-8
34.91667,-9
34.92500,-9
34.93333,-9
34.94167,-9
34.95000,-9
34.95833,-9
34.96667,-9
34.97500,-9
34.98333,-9
34.99167,-9
35.00000,-9
35.00833,-9
35.01667,-9
35.02500,-9
35.03333,-9
35.04167,-9
35.05000,-9
35.05833,-9
35.06667,-9
35.07500,-9
35.08333,-9
35.09167,-9
35.10000,-9
35.10833,-9
35.11667,-9
35.12500,-9
35.13333,-9
35.14167,-9
35.15000,-9
35.15833,-9
35.16667,-9
35.17500,-9
35.18333,-9
35.19167,-9
35.20000,-9
35.20833,-9
35.21667,-9
35.22500,-9
35.23333,-9
35.24167,-9
35.25000,-9
35.25833,-9
35.26667,-9
35.27500,-9
35.28333,-9
35.29167,-10
35.30000,-10
35.30833,-10
35.31667,-10
35.32500,-10
35.33333,-10
35.34167,-10
35.35000,-10
35.35833,-10
35.36667,-9
35.37500,-9
35.38333,-9
35.39167,-9
35.40000,-9
35.40833,-9
35.41667,-9
35.42500,-9
35.43333,-9
35.44167,-9
35.45000,-9
35.45833,-10
35.46667,-10
35.47500,-10
35.48333,-10
35.49167,-10
35.50000,-10
35.50833,-10
35.51667,-10
35.52500,-10
35.53333,-9
35.54167,-9
35.55000,-8
35.55833,-9
35.56667,-9
35.57500,-9
35.58333,-9
35.59167,-9
35.60000,-10
35.60833,-10
35.61667,-10
35.62500,-10
35.63333,-10
35.64167,-10
35.65000,-10
35.65833,-10
35.66667,-10
35.67500,-10
35.68333,-10
35.69167,-10
35.70000,-9
35.70833,-9
35.71667,-9
35.72500,-9
35.73333,-10
35.74167,-10
35.75000,-10
35.75833,-10
35.76667,-10
35.77500,-10
35.78333,-10
35.79167,-10
35.80000,-9
35.80833,-10
35.81667,-10
35.82500,-10
35.83333,-10
35.84167,-10
35.85000,-11
35.85833,-11
35.86667,-11
35.87500,-11
35.88333,-10
35.89167,-10
35.90000,-10
35.90833,-10
35.91667,-11
35.92500,-11
35.93333,-11
35.94167,-11
35.95000,-11
35.95833,-11
35.96667,-11
35.97500,-11
35.98333,-11
35.99167,-11
36.00000,-10
36.00833,-10
36.01667,-10
36.02500,-10
36.03333,-10
36.04167,-10
36.05000,-11
36.05833,-11
36.06667,-11
36.07500,-11
36.08333,-11
36.09167,-11
36.10000,-11
36.10833,-11
36.11667,-11
36.12500,-11
36.13333,-11
36.14167,-11
36.15000,-11
36.15833,-11
36.16667,-11
36.17500,-11
36.18333,-11
36.19167,-11
36.20000,-11
36.20833,-11
36.21667,-11
36.22500,-11
36.23333,-11
36.24167,-11
36.25000,-11
36.25833,-11
36.26667,-11
36.27500,-12
36.28333,-12
36.29167,-11
36.30000,-11
36.30833,-11
36.31667,-11
36.32500,-11
36.33333,-11
36.34167,-11
36.35000,-11
36.35833,-11
36.36667,-11
36.37500,-11
36.38333,-12
36.39167,-12
36.40000,-12
36.40833,-12
36.41667,-12
36.42500,-12
36.43333,-12
36.44167,-12
36.45000,-12
36.45833,-12
36.46667,-12
36.47500,-12
36.48333,-12
36.49167,-12
36.50000,-12
36.50833,-12
36.51667,-12
36.52500,-12
36.53333,-12
36.54167,-12
36.55000,-12
36.55833,-12
36.56667,-12
36.57500,-12
36.58333,-11
36.59167,-11
36.60000,-11
36.60833,-11
36.61667,-11
36.62500,-11
36.63333,-11
36.64167,-11
36.65000,-11
36.65833,-11
36.66667,-11
36.67500,-11
36.68333,-11
36.69167,-11
36.70000,-11
36.70833,-11
36.71667,-12
36.72500,-12
36.73333,-11
36.74167,-11
36.75000,-11
36.75833,-11
36.76667,-11
36.77500,-11
36.78333,-11
36.79167,-11
36.80000,-11
36.80833,-11
36.81667,-11
36.82500,-11
36.83333,-10
36.84167,-10
36.85000,-10
36.85833,-10
36.86667,-11
36.87500,-11
36.88333,-10
36.89167,-10
36.90000,-10
36.90833,-10
36.91667,-10
36.92500,-10
36.93333,-10
36.94167,-10
36.95000,-11
36.95833,-11
36.96667,-11
36.97500,-11
36.98333,-11
36.99167,-11
37.00000,-11
37.00833,-11
37.01667,-10
37.02500,-10
37.03333,-10
37.04167,-10
37.05000,-10
37.05833,-10
37.06667,-10
37.07500,-10
37.08333,-10
37.09167,-11
37.10000,-11
37.10833,-11
37.11667,-11
37.12500,-11
37.13333,-11
37.14167,-11
37.15000,-11
37.15833,-12
37.16667,-12
37.17500,-12
37.18333,-12
37.19167,-12
37.20000,-12
37.20833,-12
37.21667,-12
37.22500,-12
37.23333,-12
37.24167,-12
37.25000,-11
37.25833,-11
37.26667,-11
37.27500,-11
37.28333,-11
37.29167,-12
37.30000,-12
37.30833,-12
37.31667,-12
37.32500,-12
37.33333,-12
37.34167,-12
37.35000,-12
37.35833,-12
37.36667,-11
37.37500,-11
37.38333,-11
37.39167,-11
37.40000,-11
37.40833,-12
37.41667,-12
37.42500,-12
37.43333,-12
37.44167,-13
37.45000,-13
37.45833,-13
37.46667,-12
37.47500,-12
37.48333,-12
37.49167,-13
37.50000,-13
37.50833,-13
37.51667,-13
37.52500,-13
37.53333,-13
37.54167,-13
37.55000,-13
37.55833,-13
37.56667,-13
37.57500,-13
37.58333,-13
37.59167,-13
37.60000,-13
37.60833,-13
37.61667,-13
37.62500,-13
37.63333,-14
37.64167,-14
37.65000,-14
37.65833,-13
37.66667,-13
37.67500,-14
37.68333,-14
37.69167,-14
37.70000,-14
37.70833,-15
37.71667,-15
37.72500,-15
37.73333,-15
37.74167,-15
37.75000,-15
37.75833,-15
37.76667,-15
37.77500,-15
37.78333,-15
37.79167,-15
37.80000,-15
37.80833,-15
37.81667,-15
37.82500,-15
37.83333,-15
37.84167,-15
37.85000,-15
37.85833,-15
37.86667,-14
37.87500,-14
37.88333,-14
37.89167,-15
37.90000,-15
37.90833,-14
37.91667,-14
37.92500,-14
37.93333,-14
37.94167,-14
37.95000,-14
37.95833,-15
37.96667,-15
37.97500,-15
37.98333,-15
37.99167,-14
38.00000,-14
38.00833,-14
38.01667,-14
38.02500,-14
38.03333,-14
38.04167,-13
38.05000,-14
38.05833,-14
38.06667,-15
38.07500,-15
38.08333,-15
38.09167,-15
38.10000,-15
38.10833,-15
38.11667,-14
38.12500,-14
38.13333,-14
38.14167,-14
38.15000,-14
38.15833,-14
38.16667,-14
38.17500,-14
38.18333,-14
38.19167,-14
38.20000,-14
38.20833,-14
38.21667,-14
38.22500,-14
38.23333,-14
38.24167,-14
38.25000,-14
38.25833,-15
38.26667,-14
38.27500,-14
38.28333,-14
38.29167,-14
38.30000,-14
38.30833,-14
38.31667,-14
38.32500,-14
38.33333,-14
38.34167,-14
38.35000,-14
38.35833,-14
38.36667,-14
38.37500,-14
38.38333,-14
38.39167,-14
38.40000,-14
38.40833,-14
38.41667,-14
38.42500,-15
38.43333,-15
38.44167,-15
38.45000,-15
38.45833,-15
38.46667,-15
38.47500,-14
38.48333,-14
38.49167,-14
38.50000,-14
38.50833,-14
38.51667,-14
38.52500,-14
38.53333,-13
38.54167,-13
38.55000,-13
38.55833,-13
38.56667,-13
38.57500,-14
38.58333,-14
38.59167,-14
38.60000,-14
38.60833,-14
38.61667,-14
38.62500,-14
38.63333,-14
38.64167,-14
38.65000,-14
38.65833,-15
38.66667,-15
38.67500,-15
38.68333,-14
38.69167,-13
38.70000,-13
38.70833,-13
38.71667,-13
38.72500,-13
38.73333,-13
38.74167,-14
38.75000,-14
38.75833,-14
38.76667,-14
38.77500,-14
38.78333,-14
38.79167,-14
38.80000,-14
38.80833,-14
38.81667,-14
38.82500,-14
38.83333,-14
38.84167,-14
38.85000,-14
38.85833,-14
38.86667,-14
38.87500,-14
38.88333,-14
38.89167,-14
38.90000,-14
38.90833,-14
38.91667,-14
38.92500,-14
38.93333,-14
38.94167,-14
38.95000,-15
38.95833,-15
38.96667,-15
38.97500,-15
38.98333,-15
38.99167,-15
39.00000,-15
39.00833,-15
39.01667,-15
39.02500,-15
39.03333,-15
39.04167,-14
39.05000,-14
39.05833,-14
39.06667,-14
39.07500,-14
39.08333,-14
39.09167,-14
39.10000,-14
39.10833,-14
39.11667,-15
39.12500,-15
39.13333,-15
39.14167,-15
39.15000,-15
39.15833,-15
39.16667,-15
39.17500,-15
39.18333,-15
39.19167,-15
39.20000,-15
39.20833,-15
39.21667,-15
39.22500,-15
39.23333,-15
39.24167,-15
39.25000,-15
39.25833,-15
39.26667,-15
39.27500,-15
39.28333,-16
39.29167,-16
39.30000,-16
39.30833,-16
39.31667,-16
39.32500,-16
39.33333,-16
39.34167,-15
39.35000,-15
39.35833,-15
39.36667,-15
39.37500,-15
39.38333,-15
39.39167,-14
39.40000,-14
39.40833,-14
39.41667,-14
39.42500,-14
39.43333,-13
39.44167,-13
39.45000,-13
39.45833,-13
39.46667,-13
39.47500,-14
39.48333,-14
39.49167,-14
39.50000,-14
39.50833,-13
39.51667,-14
39.52500,-14
39.53333,-14
39.54167,-14
39.55000,-14
39.55833,-14
39.56667,-14
39.57500,-14
39.58333,-14
39.59167,-14
39.60000,-13
39.60833,-13
39.61667,-13
39.62500,-13
39.63333,-13
39.64167,-13
39.65000,-13
39.65833,-13
39.66667,-13
39.67500,-14
39.68333,-13
39.69167,-13
39.70000,-14
39.70833,-14
39.71667,-14
39.72500,-14
39.73333,-14
39.74167,-14
39.75000,-14
39.75833,-14
39.76667,-14
39.77500,-14
39.78333,-14
39.79167,-15
39.80000,-15
39.80833,-14
39.81667,-14
39.82500,-14
39.83333,-14
39.84167,-14
39.85000,-14
39.85833,-14
39.86667,-14
39.87500,-14
39.88333,-14
39.89167,-15
39.90000,-15
39.90833,-16
39.91667,-15
39.92500,-15
39.93333,-15
39.94167,-15
39.95000,-15
39.95833,-15
39.96667,-15
39.97500,-15
39.98333,-14
39.99167,-14
40.00000,-14

