[Header]
Application Name,LabSolutions
Version,5.97 SP1
Data File Name,C:\Users\cremerlab\Desktop\griffin\2021-04-03_buffer_calibration\2021-04-03_buffer_calibration_432021_010_023.lcd
Output Date,4/4/2021
Output Time,6:11:00 AM

[File Information]
Type,Data File
Generated,4/4/2021 5:30:40 AM
Generated by,System Administrator
Modified,4/4/2021 6:11:00 AM
Modified by,System Administrator

[Sample Information]
Operator Name,System Administrator
Acquired,4/4/2021 5:30:59 AM
Sample Type,1:Standard
Level,1
Sample Name,2021-04-02_DM_glucose_glycerol_acetate_calibration_0.5mM
Sample ID,010
ISTD Amount1,1
ISTD Amount2,1
ISTD Amount3,1
ISTD Amount4,1
ISTD Amount5,1
ISTD Amount6,1
ISTD Amount7,1
ISTD Amount8,1
ISTD Amount9,1
ISTD Amount10,1
ISTD Amount11,1
ISTD Amount12,1
ISTD Amount13,1
ISTD Amount14,1
ISTD Amount15,1
ISTD Amount16,1
ISTD Amount17,1
ISTD Amount18,1
ISTD Amount19,1
ISTD Amount20,1
ISTD Amount21,1
ISTD Amount22,1
ISTD Amount23,1
ISTD Amount24,1
ISTD Amount25,1
ISTD Amount26,1
ISTD Amount27,1
ISTD Amount28,1
ISTD Amount29,1
ISTD Amount30,1
ISTD Amount31,1
ISTD Amount32,1
Sample Amount,1
Dilution Factor,1
Vial#,28
Injection Volume,20

[Original Files]
Data File,C:\Users\cremerlab\Desktop\griffin\2021-04-03_buffer_calibration\2021-04-03_buffer_calibration_432021_010_023.lcd
Method File,C:\LabSolutions\Data\Project1\organicacidsetc2.lcm
Batch File,C:\Users\cremerlab\Desktop\griffin\2021-04-03_buffer_calibration\2021-04-03_buffer_calibration.lcb
Report Format File,c:\LabSolutions\System\DEFAULT.lsr

[File Description]


[Configuration]
Instrument Name,HPLC-PC-Instrument1
Instrument #,1
Line #,1
# of Detectors,2
Detector ID,Detector A,Detector B
Detector Name,Detector A,Detector B
# of Channels,1,1

[Peak Table(Detector A)]
# of Peaks,0

[Peak Table(Detector B)]
# of Peaks,5
Peak#,R.Time,I.Time,F.Time,Area,Height,A/H,Conc.,Mark,ID#,Name,k',Plate #,Plate Ht.,Tailing,Resolution,Sep.Factor,Area Ratio,Height Ratio,Conc. %,Norm Conc.
1,10.744,10.550,10.967,41566,2847,14.599,0.000,   ,,,0.000,12859,11.665,1.051,0.000,0.000,0,0,0.000,0.000
2,14.919,14.108,15.400,1507264,60841,24.774,0.000,   ,,,0.389,7548,19.873,0.829,7.834,0.000,0,0,0.000,0.000
3,15.659,15.400,16.850,60754,2310,26.304,0.000, V ,,,0.457,7148,20.985,0.000,1.036,1.177,0,0,0.000,0.000
4,22.084,21.575,22.733,14180,539,26.320,0.000,   ,,,1.055,15821,9.481,1.081,8.905,2.307,0,0,0.000,0.000
5,25.085,24.658,25.683,5411,199,27.193,0.000,   ,,,1.335,18756,7.997,1.121,4.182,1.265,0,0,0.000,0.000

[LC Chromatogram(Detector B-Ch1)]
Interval(msec),500
# of Points,4801
Start Time(min),0.000
End Time(min),40.000
Intensity Units,mV
Intensity Multiplier,0.001
R.Time (min),Intensity
0.00000,1
0.00833,1
0.01667,0
0.02500,0
0.03333,0
0.04167,-0
0.05000,-0
0.05833,-1
0.06667,-1
0.07500,-1
0.08333,-1
0.09167,-0
0.10000,-0
0.10833,-0
0.11667,0
0.12500,-0
0.13333,-0
0.14167,-0
0.15000,-0
0.15833,0
0.16667,0
0.17500,0
0.18333,1
0.19167,1
0.20000,1
0.20833,1
0.21667,1
0.22500,1
0.23333,1
0.24167,1
0.25000,1
0.25833,1
0.26667,0
0.27500,0
0.28333,0
0.29167,0
0.30000,-0
0.30833,-0
0.31667,-0
0.32500,0
0.33333,0
0.34167,0
0.35000,0
0.35833,0
0.36667,0
0.37500,0
0.38333,0
0.39167,0
0.40000,0
0.40833,0
0.41667,0
0.42500,0
0.43333,0
0.44167,0
0.45000,1
0.45833,1
0.46667,1
0.47500,1
0.48333,1
0.49167,1
0.50000,2
0.50833,2
0.51667,1
0.52500,1
0.53333,1
0.54167,1
0.55000,1
0.55833,1
0.56667,1
0.57500,2
0.58333,2
0.59167,2
0.60000,2
0.60833,2
0.61667,2
0.62500,1
0.63333,1
0.64167,1
0.65000,0
0.65833,0
0.66667,-0
0.67500,-0
0.68333,-0
0.69167,-0
0.70000,0
0.70833,-0
0.71667,-0
0.72500,-0
0.73333,0
0.74167,1
0.75000,1
0.75833,1
0.76667,1
0.77500,1
0.78333,1
0.79167,0
0.80000,1
0.80833,1
0.81667,1
0.82500,1
0.83333,1
0.84167,2
0.85000,2
0.85833,2
0.86667,2
0.87500,2
0.88333,2
0.89167,2
0.90000,2
0.90833,2
0.91667,2
0.92500,1
0.93333,1
0.94167,1
0.95000,1
0.95833,1
0.96667,2
0.97500,2
0.98333,2
0.99167,1
1.00000,1
1.00833,1
1.01667,1
1.02500,2
1.03333,2
1.04167,2
1.05000,2
1.05833,3
1.06667,3
1.07500,3
1.08333,3
1.09167,2
1.10000,2
1.10833,2
1.11667,2
1.12500,2
1.13333,2
1.14167,2
1.15000,2
1.15833,2
1.16667,2
1.17500,2
1.18333,2
1.19167,1
1.20000,1
1.20833,1
1.21667,1
1.22500,1
1.23333,2
1.24167,2
1.25000,2
1.25833,3
1.26667,3
1.27500,3
1.28333,3
1.29167,3
1.30000,3
1.30833,3
1.31667,2
1.32500,2
1.33333,2
1.34167,2
1.35000,2
1.35833,2
1.36667,2
1.37500,2
1.38333,2
1.39167,2
1.40000,2
1.40833,2
1.41667,2
1.42500,2
1.43333,2
1.44167,2
1.45000,3
1.45833,3
1.46667,3
1.47500,3
1.48333,3
1.49167,3
1.50000,3
1.50833,3
1.51667,3
1.52500,3
1.53333,3
1.54167,3
1.55000,3
1.55833,3
1.56667,3
1.57500,3
1.58333,3
1.59167,3
1.60000,3
1.60833,3
1.61667,3
1.62500,3
1.63333,3
1.64167,2
1.65000,3
1.65833,3
1.66667,3
1.67500,4
1.68333,4
1.69167,4
1.70000,4
1.70833,4
1.71667,4
1.72500,4
1.73333,4
1.74167,4
1.75000,4
1.75833,3
1.76667,3
1.77500,3
1.78333,3
1.79167,3
1.80000,3
1.80833,4
1.81667,4
1.82500,4
1.83333,4
1.84167,4
1.85000,4
1.85833,4
1.86667,4
1.87500,3
1.88333,3
1.89167,3
1.90000,3
1.90833,3
1.91667,4
1.92500,4
1.93333,4
1.94167,4
1.95000,4
1.95833,3
1.96667,3
1.97500,3
1.98333,3
1.99167,2
2.00000,3
2.00833,3
2.01667,3
2.02500,3
2.03333,3
2.04167,3
2.05000,3
2.05833,3
2.06667,3
2.07500,3
2.08333,3
2.09167,4
2.10000,4
2.10833,3
2.11667,3
2.12500,3
2.13333,3
2.14167,3
2.15000,3
2.15833,3
2.16667,3
2.17500,2
2.18333,2
2.19167,3
2.20000,3
2.20833,3
2.21667,3
2.22500,3
2.23333,3
2.24167,4
2.25000,3
2.25833,3
2.26667,4
2.27500,4
2.28333,4
2.29167,4
2.30000,4
2.30833,3
2.31667,3
2.32500,3
2.33333,2
2.34167,2
2.35000,2
2.35833,2
2.36667,2
2.37500,2
2.38333,2
2.39167,2
2.40000,2
2.40833,2
2.41667,2
2.42500,3
2.43333,3
2.44167,3
2.45000,3
2.45833,3
2.46667,3
2.47500,3
2.48333,3
2.49167,3
2.50000,3
2.50833,3
2.51667,3
2.52500,4
2.53333,4
2.54167,4
2.55000,3
2.55833,3
2.56667,3
2.57500,3
2.58333,4
2.59167,4
2.60000,4
2.60833,4
2.61667,3
2.62500,3
2.63333,3
2.64167,3
2.65000,3
2.65833,2
2.66667,2
2.67500,2
2.68333,2
2.69167,2
2.70000,2
2.70833,2
2.71667,2
2.72500,2
2.73333,2
2.74167,2
2.75000,2
2.75833,2
2.76667,2
2.77500,3
2.78333,3
2.79167,3
2.80000,3
2.80833,3
2.81667,3
2.82500,3
2.83333,3
2.84167,3
2.85000,3
2.85833,3
2.86667,3
2.87500,3
2.88333,3
2.89167,3
2.90000,3
2.90833,4
2.91667,4
2.92500,3
2.93333,3
2.94167,3
2.95000,3
2.95833,4
2.96667,4
2.97500,4
2.98333,4
2.99167,4
3.00000,3
3.00833,3
3.01667,3
3.02500,3
3.03333,3
3.04167,3
3.05000,3
3.05833,3
3.06667,3
3.07500,3
3.08333,3
3.09167,4
3.10000,3
3.10833,3
3.11667,3
3.12500,3
3.13333,3
3.14167,3
3.15000,3
3.15833,3
3.16667,3
3.17500,3
3.18333,3
3.19167,4
3.20000,4
3.20833,3
3.21667,3
3.22500,3
3.23333,3
3.24167,3
3.25000,3
3.25833,4
3.26667,4
3.27500,3
3.28333,3
3.29167,3
3.30000,4
3.30833,4
3.31667,4
3.32500,4
3.33333,4
3.34167,4
3.35000,4
3.35833,4
3.36667,4
3.37500,4
3.38333,4
3.39167,3
3.40000,3
3.40833,3
3.41667,3
3.42500,3
3.43333,2
3.44167,3
3.45000,3
3.45833,3
3.46667,3
3.47500,3
3.48333,3
3.49167,3
3.50000,3
3.50833,3
3.51667,3
3.52500,4
3.53333,3
3.54167,3
3.55000,3
3.55833,3
3.56667,3
3.57500,3
3.58333,2
3.59167,3
3.60000,3
3.60833,3
3.61667,3
3.62500,4
3.63333,4
3.64167,4
3.65000,3
3.65833,3
3.66667,3
3.67500,3
3.68333,3
3.69167,3
3.70000,3
3.70833,3
3.71667,3
3.72500,3
3.73333,3
3.74167,3
3.75000,3
3.75833,3
3.76667,3
3.77500,3
3.78333,3
3.79167,3
3.80000,3
3.80833,3
3.81667,3
3.82500,3
3.83333,3
3.84167,4
3.85000,4
3.85833,4
3.86667,4
3.87500,4
3.88333,4
3.89167,3
3.90000,3
3.90833,3
3.91667,3
3.92500,3
3.93333,3
3.94167,3
3.95000,3
3.95833,3
3.96667,3
3.97500,3
3.98333,3
3.99167,3
4.00000,4
4.00833,4
4.01667,4
4.02500,4
4.03333,3
4.04167,4
4.05000,4
4.05833,4
4.06667,4
4.07500,4
4.08333,4
4.09167,4
4.10000,4
4.10833,4
4.11667,4
4.12500,4
4.13333,4
4.14167,4
4.15000,3
4.15833,3
4.16667,3
4.17500,3
4.18333,3
4.19167,3
4.20000,3
4.20833,3
4.21667,3
4.22500,3
4.23333,3
4.24167,2
4.25000,2
4.25833,2
4.26667,3
4.27500,3
4.28333,2
4.29167,3
4.30000,3
4.30833,3
4.31667,3
4.32500,3
4.33333,3
4.34167,3
4.35000,3
4.35833,3
4.36667,3
4.37500,3
4.38333,3
4.39167,2
4.40000,2
4.40833,2
4.41667,3
4.42500,2
4.43333,2
4.44167,2
4.45000,3
4.45833,3
4.46667,3
4.47500,3
4.48333,2
4.49167,2
4.50000,2
4.50833,2
4.51667,2
4.52500,2
4.53333,3
4.54167,3
4.55000,3
4.55833,3
4.56667,3
4.57500,3
4.58333,2
4.59167,3
4.60000,3
4.60833,3
4.61667,3
4.62500,3
4.63333,3
4.64167,3
4.65000,3
4.65833,3
4.66667,3
4.67500,3
4.68333,2
4.69167,2
4.70000,2
4.70833,2
4.71667,2
4.72500,2
4.73333,2
4.74167,2
4.75000,2
4.75833,3
4.76667,3
4.77500,3
4.78333,2
4.79167,2
4.80000,2
4.80833,2
4.81667,2
4.82500,1
4.83333,1
4.84167,2
4.85000,1
4.85833,1
4.86667,1
4.87500,2
4.88333,2
4.89167,2
4.90000,2
4.90833,2
4.91667,3
4.92500,3
4.93333,3
4.94167,2
4.95000,2
4.95833,2
4.96667,2
4.97500,2
4.98333,2
4.99167,2
5.00000,3
5.00833,3
5.01667,3
5.02500,3
5.03333,3
5.04167,4
5.05000,3
5.05833,3
5.06667,3
5.07500,3
5.08333,3
5.09167,3
5.10000,3
5.10833,3
5.11667,3
5.12500,3
5.13333,3
5.14167,4
5.15000,4
5.15833,4
5.16667,4
5.17500,4
5.18333,3
5.19167,3
5.20000,3
5.20833,4
5.21667,3
5.22500,3
5.23333,3
5.24167,3
5.25000,3
5.25833,3
5.26667,4
5.27500,4
5.28333,4
5.29167,4
5.30000,4
5.30833,3
5.31667,3
5.32500,3
5.33333,3
5.34167,3
5.35000,4
5.35833,4
5.36667,4
5.37500,4
5.38333,4
5.39167,4
5.40000,4
5.40833,4
5.41667,4
5.42500,4
5.43333,4
5.44167,4
5.45000,4
5.45833,4
5.46667,4
5.47500,3
5.48333,3
5.49167,3
5.50000,3
5.50833,4
5.51667,4
5.52500,4
5.53333,4
5.54167,4
5.55000,4
5.55833,4
5.56667,4
5.57500,3
5.58333,3
5.59167,3
5.60000,3
5.60833,3
5.61667,3
5.62500,3
5.63333,3
5.64167,3
5.65000,3
5.65833,3
5.66667,3
5.67500,3
5.68333,3
5.69167,2
5.70000,2
5.70833,3
5.71667,3
5.72500,3
5.73333,4
5.74167,4
5.75000,4
5.75833,4
5.76667,3
5.77500,3
5.78333,3
5.79167,3
5.80000,3
5.80833,3
5.81667,2
5.82500,2
5.83333,2
5.84167,3
5.85000,3
5.85833,3
5.86667,3
5.87500,3
5.88333,3
5.89167,3
5.90000,3
5.90833,3
5.91667,3
5.92500,3
5.93333,3
5.94167,3
5.95000,3
5.95833,3
5.96667,3
5.97500,3
5.98333,3
5.99167,3
6.00000,3
6.00833,4
6.01667,4
6.02500,3
6.03333,3
6.04167,3
6.05000,3
6.05833,2
6.06667,3
6.07500,3
6.08333,3
6.09167,3
6.10000,3
6.10833,3
6.11667,3
6.12500,3
6.13333,4
6.14167,4
6.15000,3
6.15833,4
6.16667,4
6.17500,4
6.18333,4
6.19167,4
6.20000,4
6.20833,4
6.21667,4
6.22500,4
6.23333,4
6.24167,4
6.25000,4
6.25833,4
6.26667,3
6.27500,3
6.28333,4
6.29167,4
6.30000,4
6.30833,4
6.31667,4
6.32500,4
6.33333,4
6.34167,4
6.35000,5
6.35833,5
6.36667,5
6.37500,4
6.38333,4
6.39167,4
6.40000,4
6.40833,4
6.41667,4
6.42500,4
6.43333,4
6.44167,4
6.45000,4
6.45833,4
6.46667,4
6.47500,5
6.48333,4
6.49167,5
6.50000,5
6.50833,5
6.51667,5
6.52500,5
6.53333,5
6.54167,5
6.55000,5
6.55833,5
6.56667,5
6.57500,5
6.58333,5
6.59167,5
6.60000,5
6.60833,5
6.61667,4
6.62500,4
6.63333,4
6.64167,4
6.65000,4
6.65833,4
6.66667,5
6.67500,5
6.68333,5
6.69167,5
6.70000,5
6.70833,5
6.71667,5
6.72500,5
6.73333,5
6.74167,5
6.75000,5
6.75833,5
6.76667,5
6.77500,6
6.78333,6
6.79167,5
6.80000,6
6.80833,6
6.81667,5
6.82500,5
6.83333,5
6.84167,5
6.85000,5
6.85833,5
6.86667,5
6.87500,5
6.88333,5
6.89167,5
6.90000,4
6.90833,4
6.91667,4
6.92500,4
6.93333,4
6.94167,4
6.95000,4
6.95833,4
6.96667,4
6.97500,5
6.98333,5
6.99167,5
7.00000,4
7.00833,4
7.01667,5
7.02500,4
7.03333,4
7.04167,5
7.05000,5
7.05833,5
7.06667,5
7.07500,5
7.08333,5
7.09167,6
7.10000,6
7.10833,6
7.11667,6
7.12500,6
7.13333,5
7.14167,5
7.15000,5
7.15833,4
7.16667,4
7.17500,4
7.18333,4
7.19167,4
7.20000,4
7.20833,5
7.21667,5
7.22500,5
7.23333,5
7.24167,5
7.25000,5
7.25833,5
7.26667,5
7.27500,5
7.28333,5
7.29167,5
7.30000,5
7.30833,5
7.31667,5
7.32500,5
7.33333,5
7.34167,5
7.35000,5
7.35833,5
7.36667,5
7.37500,5
7.38333,5
7.39167,5
7.40000,5
7.40833,5
7.41667,5
7.42500,5
7.43333,5
7.44167,5
7.45000,5
7.45833,5
7.46667,5
7.47500,5
7.48333,5
7.49167,5
7.50000,5
7.50833,5
7.51667,5
7.52500,5
7.53333,5
7.54167,4
7.55000,4
7.55833,4
7.56667,4
7.57500,5
7.58333,5
7.59167,5
7.60000,5
7.60833,5
7.61667,6
7.62500,6
7.63333,6
7.64167,5
7.65000,5
7.65833,5
7.66667,5
7.67500,5
7.68333,5
7.69167,5
7.70000,5
7.70833,5
7.71667,5
7.72500,4
7.73333,5
7.74167,5
7.75000,5
7.75833,5
7.76667,5
7.77500,5
7.78333,5
7.79167,5
7.80000,5
7.80833,6
7.81667,6
7.82500,6
7.83333,6
7.84167,6
7.85000,5
7.85833,5
7.86667,5
7.87500,5
7.88333,5
7.89167,5
7.90000,5
7.90833,5
7.91667,6
7.92500,6
7.93333,6
7.94167,5
7.95000,5
7.95833,5
7.96667,5
7.97500,5
7.98333,5
7.99167,5
8.00000,5
8.00833,5
8.01667,5
8.02500,5
8.03333,5
8.04167,5
8.05000,6
8.05833,6
8.06667,6
8.07500,6
8.08333,5
8.09167,5
8.10000,5
8.10833,5
8.11667,5
8.12500,5
8.13333,5
8.14167,5
8.15000,5
8.15833,5
8.16667,5
8.17500,5
8.18333,5
8.19167,6
8.20000,6
8.20833,6
8.21667,6
8.22500,6
8.23333,6
8.24167,6
8.25000,6
8.25833,6
8.26667,5
8.27500,5
8.28333,5
8.29167,5
8.30000,5
8.30833,5
8.31667,5
8.32500,5
8.33333,5
8.34167,5
8.35000,5
8.35833,4
8.36667,4
8.37500,5
8.38333,5
8.39167,5
8.40000,5
8.40833,5
8.41667,5
8.42500,5
8.43333,5
8.44167,5
8.45000,4
8.45833,4
8.46667,4
8.47500,4
8.48333,5
8.49167,5
8.50000,5
8.50833,5
8.51667,5
8.52500,5
8.53333,5
8.54167,5
8.55000,5
8.55833,4
8.56667,5
8.57500,5
8.58333,5
8.59167,5
8.60000,5
8.60833,6
8.61667,6
8.62500,6
8.63333,6
8.64167,6
8.65000,6
8.65833,5
8.66667,5
8.67500,4
8.68333,5
8.69167,5
8.70000,5
8.70833,5
8.71667,5
8.72500,5
8.73333,6
8.74167,6
8.75000,6
8.75833,6
8.76667,5
8.77500,5
8.78333,5
8.79167,5
8.80000,5
8.80833,5
8.81667,5
8.82500,5
8.83333,5
8.84167,5
8.85000,5
8.85833,5
8.86667,5
8.87500,5
8.88333,5
8.89167,5
8.90000,5
8.90833,5
8.91667,5
8.92500,4
8.93333,4
8.94167,4
8.95000,4
8.95833,4
8.96667,4
8.97500,4
8.98333,4
8.99167,4
9.00000,4
9.00833,4
9.01667,4
9.02500,5
9.03333,5
9.04167,5
9.05000,5
9.05833,5
9.06667,5
9.07500,5
9.08333,5
9.09167,5
9.10000,5
9.10833,5
9.11667,5
9.12500,5
9.13333,5
9.14167,5
9.15000,5
9.15833,5
9.16667,5
9.17500,5
9.18333,5
9.19167,5
9.20000,5
9.20833,5
9.21667,5
9.22500,5
9.23333,6
9.24167,6
9.25000,6
9.25833,6
9.26667,5
9.27500,5
9.28333,5
9.29167,5
9.30000,5
9.30833,5
9.31667,5
9.32500,5
9.33333,5
9.34167,5
9.35000,6
9.35833,6
9.36667,6
9.37500,5
9.38333,5
9.39167,5
9.40000,5
9.40833,5
9.41667,5
9.42500,5
9.43333,6
9.44167,5
9.45000,5
9.45833,5
9.46667,5
9.47500,5
9.48333,5
9.49167,5
9.50000,6
9.50833,6
9.51667,6
9.52500,6
9.53333,5
9.54167,5
9.55000,6
9.55833,6
9.56667,6
9.57500,6
9.58333,6
9.59167,6
9.60000,6
9.60833,6
9.61667,5
9.62500,5
9.63333,5
9.64167,5
9.65000,5
9.65833,5
9.66667,5
9.67500,5
9.68333,5
9.69167,5
9.70000,5
9.70833,6
9.71667,6
9.72500,6
9.73333,6
9.74167,6
9.75000,6
9.75833,6
9.76667,5
9.77500,5
9.78333,5
9.79167,5
9.80000,5
9.80833,5
9.81667,5
9.82500,5
9.83333,5
9.84167,5
9.85000,5
9.85833,5
9.86667,5
9.87500,5
9.88333,5
9.89167,5
9.90000,5
9.90833,4
9.91667,4
9.92500,4
9.93333,4
9.94167,4
9.95000,5
9.95833,5
9.96667,6
9.97500,6
9.98333,6
9.99167,6
10.00000,6
10.00833,6
10.01667,6
10.02500,6
10.03333,6
10.04167,6
10.05000,6
10.05833,5
10.06667,5
10.07500,5
10.08333,5
10.09167,5
10.10000,5
10.10833,5
10.11667,5
10.12500,5
10.13333,5
10.14167,5
10.15000,5
10.15833,5
10.16667,5
10.17500,5
10.18333,6
10.19167,5
10.20000,5
10.20833,6
10.21667,6
10.22500,6
10.23333,6
10.24167,6
10.25000,5
10.25833,6
10.26667,6
10.27500,6
10.28333,6
10.29167,6
10.30000,5
10.30833,5
10.31667,5
10.32500,5
10.33333,5
10.34167,5
10.35000,6
10.35833,6
10.36667,7
10.37500,7
10.38333,8
10.39167,8
10.40000,8
10.40833,7
10.41667,7
10.42500,7
10.43333,7
10.44167,7
10.45000,7
10.45833,7
10.46667,7
10.47500,7
10.48333,7
10.49167,7
10.50000,7
10.50833,7
10.51667,7
10.52500,8
10.53333,8
10.54167,8
10.55000,8
10.55833,9
10.56667,10
10.57500,11
10.58333,13
10.59167,15
10.60000,18
10.60833,22
10.61667,26
10.62500,32
10.63333,40
10.64167,49
10.65000,60
10.65833,73
10.66667,89
10.67500,107
10.68333,126
10.69167,147
10.70000,169
10.70833,192
10.71667,214
10.72500,233
10.73333,247
10.74167,255
10.75000,253
10.75833,239
10.76667,211
10.77500,164
10.78333,97
10.79167,6
10.80000,-112
10.80833,-257
10.81667,-432
10.82500,-637
10.83333,-872
10.84167,-1135
10.85000,-1425
10.85833,-1737
10.86667,-2069
10.87500,-2416
10.88333,-2773
10.89167,-3133
10.90000,-3491
10.90833,-3841
10.91667,-4175
10.92500,-4488
10.93333,-4776
10.94167,-5031
10.95000,-5251
10.95833,-5432
10.96667,-5571
10.97500,-5665
10.98333,-5716
10.99167,-5722
11.00000,-5684
11.00833,-5604
11.01667,-5486
11.02500,-5332
11.03333,-5145
11.04167,-4931
11.05000,-4692
11.05833,-4434
11.06667,-4162
11.07500,-3880
11.08333,-3592
11.09167,-3303
11.10000,-3017
11.10833,-2737
11.11667,-2466
11.12500,-2207
11.13333,-1962
11.14167,-1732
11.15000,-1519
11.15833,-1323
11.16667,-1145
11.17500,-984
11.18333,-841
11.19167,-714
11.20000,-603
11.20833,-507
11.21667,-425
11.22500,-355
11.23333,-296
11.24167,-247
11.25000,-208
11.25833,-175
11.26667,-150
11.27500,-129
11.28333,-114
11.29167,-102
11.30000,-93
11.30833,-87
11.31667,-82
11.32500,-79
11.33333,-77
11.34167,-76
11.35000,-75
11.35833,-74
11.36667,-73
11.37500,-73
11.38333,-73
11.39167,-72
11.40000,-71
11.40833,-70
11.41667,-69
11.42500,-68
11.43333,-67
11.44167,-65
11.45000,-64
11.45833,-62
11.46667,-60
11.47500,-58
11.48333,-56
11.49167,-54
11.50000,-52
11.50833,-51
11.51667,-49
11.52500,-47
11.53333,-46
11.54167,-44
11.55000,-42
11.55833,-41
11.56667,-39
11.57500,-37
11.58333,-36
11.59167,-34
11.60000,-33
11.60833,-32
11.61667,-31
11.62500,-30
11.63333,-29
11.64167,-28
11.65000,-27
11.65833,-27
11.66667,-26
11.67500,-26
11.68333,-25
11.69167,-25
11.70000,-24
11.70833,-23
11.71667,-22
11.72500,-22
11.73333,-21
11.74167,-21
11.75000,-20
11.75833,-20
11.76667,-19
11.77500,-19
11.78333,-18
11.79167,-17
11.80000,-17
11.80833,-17
11.81667,-17
11.82500,-16
11.83333,-16
11.84167,-16
11.85000,-15
11.85833,-15
11.86667,-14
11.87500,-14
11.88333,-14
11.89167,-13
11.90000,-13
11.90833,-13
11.91667,-12
11.92500,-12
11.93333,-11
11.94167,-11
11.95000,-11
11.95833,-10
11.96667,-9
11.97500,-9
11.98333,-8
11.99167,-8
12.00000,-7
12.00833,-7
12.01667,-7
12.02500,-7
12.03333,-7
12.04167,-6
12.05000,-6
12.05833,-7
12.06667,-7
12.07500,-7
12.08333,-8
12.09167,-8
12.10000,-8
12.10833,-7
12.11667,-7
12.12500,-8
12.13333,-8
12.14167,-7
12.15000,-7
12.15833,-7
12.16667,-6
12.17500,-6
12.18333,-6
12.19167,-6
12.20000,-6
12.20833,-7
12.21667,-7
12.22500,-7
12.23333,-7
12.24167,-7
12.25000,-7
12.25833,-7
12.26667,-7
12.27500,-6
12.28333,-6
12.29167,-6
12.30000,-6
12.30833,-5
12.31667,-6
12.32500,-6
12.33333,-5
12.34167,-5
12.35000,-5
12.35833,-5
12.36667,-5
12.37500,-5
12.38333,-5
12.39167,-5
12.40000,-4
12.40833,-4
12.41667,-4
12.42500,-4
12.43333,-3
12.44167,-3
12.45000,-3
12.45833,-3
12.46667,-2
12.47500,-2
12.48333,-2
12.49167,-2
12.50000,-2
12.50833,-2
12.51667,-2
12.52500,-1
12.53333,-1
12.54167,-1
12.55000,-1
12.55833,-1
12.56667,-1
12.57500,-1
12.58333,-1
12.59167,-1
12.60000,-1
12.60833,-0
12.61667,-0
12.62500,-0
12.63333,0
12.64167,0
12.65000,-0
12.65833,-0
12.66667,-0
12.67500,-0
12.68333,0
12.69167,1
12.70000,1
12.70833,1
12.71667,1
12.72500,1
12.73333,1
12.74167,1
12.75000,1
12.75833,1
12.76667,1
12.77500,1
12.78333,2
12.79167,2
12.80000,2
12.80833,2
12.81667,2
12.82500,2
12.83333,2
12.84167,2
12.85000,2
12.85833,3
12.86667,3
12.87500,3
12.88333,3
12.89167,3
12.90000,3
12.90833,3
12.91667,3
12.92500,2
12.93333,2
12.94167,3
12.95000,3
12.95833,4
12.96667,4
12.97500,4
12.98333,4
12.99167,4
13.00000,4
13.00833,4
13.01667,4
13.02500,4
13.03333,4
13.04167,4
13.05000,4
13.05833,4
13.06667,4
13.07500,4
13.08333,4
13.09167,4
13.10000,5
13.10833,5
13.11667,5
13.12500,6
13.13333,6
13.14167,6
13.15000,6
13.15833,6
13.16667,6
13.17500,6
13.18333,6
13.19167,6
13.20000,6
13.20833,6
13.21667,6
13.22500,6
13.23333,6
13.24167,6
13.25000,6
13.25833,6
13.26667,6
13.27500,6
13.28333,6
13.29167,6
13.30000,7
13.30833,7
13.31667,7
13.32500,6
13.33333,6
13.34167,6
13.35000,6
13.35833,6
13.36667,7
13.37500,7
13.38333,7
13.39167,7
13.40000,7
13.40833,7
13.41667,7
13.42500,6
13.43333,6
13.44167,7
13.45000,7
13.45833,7
13.46667,7
13.47500,8
13.48333,8
13.49167,8
13.50000,8
13.50833,8
13.51667,8
13.52500,8
13.53333,8
13.54167,8
13.55000,8
13.55833,7
13.56667,7
13.57500,7
13.58333,7
13.59167,7
13.60000,7
13.60833,7
13.61667,7
13.62500,8
13.63333,8
13.64167,8
13.65000,8
13.65833,9
13.66667,9
13.67500,9
13.68333,9
13.69167,9
13.70000,9
13.70833,9
13.71667,9
13.72500,9
13.73333,9
13.74167,9
13.75000,9
13.75833,9
13.76667,9
13.77500,9
13.78333,9
13.79167,9
13.80000,9
13.80833,9
13.81667,10
13.82500,9
13.83333,9
13.84167,10
13.85000,10
13.85833,10
13.86667,10
13.87500,10
13.88333,11
13.89167,11
13.90000,11
13.90833,11
13.91667,11
13.92500,11
13.93333,11
13.94167,11
13.95000,11
13.95833,12
13.96667,12
13.97500,12
13.98333,12
13.99167,12
14.00000,12
14.00833,13
14.01667,13
14.02500,13
14.03333,14
14.04167,14
14.05000,15
14.05833,16
14.06667,17
14.07500,17
14.08333,17
14.09167,18
14.10000,19
14.10833,20
14.11667,21
14.12500,22
14.13333,23
14.14167,25
14.15000,27
14.15833,30
14.16667,32
14.17500,36
14.18333,40
14.19167,45
14.20000,51
14.20833,58
14.21667,67
14.22500,78
14.23333,91
14.24167,107
14.25000,126
14.25833,150
14.26667,178
14.27500,211
14.28333,250
14.29167,298
14.30000,354
14.30833,421
14.31667,499
14.32500,590
14.33333,696
14.34167,817
14.35000,958
14.35833,1118
14.36667,1300
14.37500,1506
14.38333,1738
14.39167,1997
14.40000,2286
14.40833,2605
14.41667,2958
14.42500,3345
14.43333,3767
14.44167,4225
14.45000,4721
14.45833,5256
14.46667,5829
14.47500,6443
14.48333,7095
14.49167,7787
14.50000,8518
14.50833,9287
14.51667,10095
14.52500,10939
14.53333,11819
14.54167,12734
14.55000,13682
14.55833,14662
14.56667,15673
14.57500,16712
14.58333,17778
14.59167,18869
14.60000,19982
14.60833,21116
14.61667,22269
14.62500,23440
14.63333,24626
14.64167,25825
14.65000,27035
14.65833,28254
14.66667,29482
14.67500,30716
14.68333,31955
14.69167,33198
14.70000,34442
14.70833,35687
14.71667,36932
14.72500,38175
14.73333,39415
14.74167,40651
14.75000,41883
14.75833,43108
14.76667,44327
14.77500,45537
14.78333,46738
14.79167,47927
14.80000,49103
14.80833,50265
14.81667,51408
14.82500,52531
14.83333,53628
14.84167,54693
14.85000,55720
14.85833,56698
14.86667,57616
14.87500,58460
14.88333,59213
14.89167,59855
14.90000,60365
14.90833,60717
14.91667,60888
14.92500,60852
14.93333,60587
14.94167,60073
14.95000,59296
14.95833,58249
14.96667,56929
14.97500,55343
14.98333,53507
14.99167,51442
15.00000,49178
15.00833,46749
15.01667,44193
15.02500,41549
15.03333,38857
15.04167,36155
15.05000,33480
15.05833,30862
15.06667,28331
15.07500,25907
15.08333,23608
15.09167,21447
15.10000,19431
15.10833,17562
15.11667,15843
15.12500,14269
15.13333,12836
15.14167,11537
15.15000,10364
15.15833,9309
15.16667,8363
15.17500,7516
15.18333,6760
15.19167,6086
15.20000,5485
15.20833,4951
15.21667,4477
15.22500,4056
15.23333,3682
15.24167,3350
15.25000,3056
15.25833,2796
15.26667,2565
15.27500,2361
15.28333,2181
15.29167,2021
15.30000,1881
15.30833,1758
15.31667,1651
15.32500,1558
15.33333,1478
15.34167,1410
15.35000,1353
15.35833,1306
15.36667,1268
15.37500,1240
15.38333,1220
15.39167,1208
15.40000,1204
15.40833,1206
15.41667,1216
15.42500,1232
15.43333,1253
15.44167,1281
15.45000,1313
15.45833,1351
15.46667,1393
15.47500,1439
15.48333,1489
15.49167,1542
15.50000,1597
15.50833,1654
15.51667,1712
15.52500,1771
15.53333,1831
15.54167,1890
15.55000,1948
15.55833,2004
15.56667,2058
15.57500,2109
15.58333,2157
15.59167,2201
15.60000,2242
15.60833,2278
15.61667,2309
15.62500,2334
15.63333,2355
15.64167,2369
15.65000,2378
15.65833,2381
15.66667,2379
15.67500,2370
15.68333,2357
15.69167,2338
15.70000,2313
15.70833,2284
15.71667,2250
15.72500,2211
15.73333,2169
15.74167,2123
15.75000,2073
15.75833,2020
15.76667,1965
15.77500,1908
15.78333,1849
15.79167,1788
15.80000,1727
15.80833,1664
15.81667,1602
15.82500,1539
15.83333,1477
15.84167,1415
15.85000,1354
15.85833,1294
15.86667,1236
15.87500,1178
15.88333,1123
15.89167,1069
15.90000,1017
15.90833,967
15.91667,919
15.92500,873
15.93333,829
15.94167,787
15.95000,747
15.95833,709
15.96667,673
15.97500,639
15.98333,607
15.99167,576
16.00000,547
16.00833,520
16.01667,495
16.02500,471
16.03333,449
16.04167,429
16.05000,410
16.05833,392
16.06667,375
16.07500,359
16.08333,345
16.09167,332
16.10000,319
16.10833,308
16.11667,297
16.12500,287
16.13333,278
16.14167,269
16.15000,261
16.15833,253
16.16667,246
16.17500,240
16.18333,234
16.19167,228
16.20000,223
16.20833,218
16.21667,214
16.22500,209
16.23333,205
16.24167,201
16.25000,198
16.25833,195
16.26667,192
16.27500,189
16.28333,186
16.29167,184
16.30000,181
16.30833,178
16.31667,176
16.32500,173
16.33333,171
16.34167,169
16.35000,168
16.35833,166
16.36667,164
16.37500,162
16.38333,160
16.39167,159
16.40000,157
16.40833,156
16.41667,154
16.42500,153
16.43333,152
16.44167,150
16.45000,149
16.45833,148
16.46667,147
16.47500,146
16.48333,144
16.49167,143
16.50000,142
16.50833,141
16.51667,140
16.52500,139
16.53333,138
16.54167,137
16.55000,136
16.55833,134
16.56667,133
16.57500,132
16.58333,132
16.59167,131
16.60000,130
16.60833,130
16.61667,129
16.62500,128
16.63333,127
16.64167,126
16.65000,125
16.65833,125
16.66667,124
16.67500,124
16.68333,123
16.69167,122
16.70000,121
16.70833,121
16.71667,120
16.72500,119
16.73333,119
16.74167,118
16.75000,117
16.75833,117
16.76667,116
16.77500,116
16.78333,115
16.79167,115
16.80000,114
16.80833,114
16.81667,113
16.82500,112
16.83333,112
16.84167,111
16.85000,111
16.85833,111
16.86667,111
16.87500,110
16.88333,110
16.89167,110
16.90000,109
16.90833,109
16.91667,108
16.92500,108
16.93333,107
16.94167,106
16.95000,106
16.95833,105
16.96667,105
16.97500,104
16.98333,104
16.99167,103
17.00000,103
17.00833,103
17.01667,103
17.02500,103
17.03333,103
17.04167,103
17.05000,102
17.05833,101
17.06667,101
17.07500,100
17.08333,100
17.09167,100
17.10000,99
17.10833,99
17.11667,98
17.12500,97
17.13333,97
17.14167,97
17.15000,97
17.15833,97
17.16667,97
17.17500,96
17.18333,96
17.19167,95
17.20000,95
17.20833,94
17.21667,93
17.22500,93
17.23333,92
17.24167,91
17.25000,91
17.25833,91
17.26667,90
17.27500,90
17.28333,90
17.29167,89
17.30000,89
17.30833,89
17.31667,88
17.32500,88
17.33333,88
17.34167,88
17.35000,87
17.35833,87
17.36667,86
17.37500,86
17.38333,86
17.39167,85
17.40000,85
17.40833,85
17.41667,84
17.42500,84
17.43333,83
17.44167,82
17.45000,82
17.45833,81
17.46667,81
17.47500,80
17.48333,80
17.49167,80
17.50000,80
17.50833,79
17.51667,79
17.52500,78
17.53333,78
17.54167,77
17.55000,77
17.55833,77
17.56667,77
17.57500,76
17.58333,76
17.59167,76
17.60000,75
17.60833,75
17.61667,74
17.62500,74
17.63333,74
17.64167,74
17.65000,74
17.65833,74
17.66667,74
17.67500,73
17.68333,73
17.69167,72
17.70000,72
17.70833,72
17.71667,72
17.72500,71
17.73333,71
17.74167,71
17.75000,71
17.75833,70
17.76667,70
17.77500,69
17.78333,69
17.79167,68
17.80000,68
17.80833,67
17.81667,67
17.82500,67
17.83333,67
17.84167,67
17.85000,67
17.85833,67
17.86667,67
17.87500,67
17.88333,66
17.89167,66
17.90000,66
17.90833,66
17.91667,65
17.92500,65
17.93333,65
17.94167,65
17.95000,65
17.95833,64
17.96667,64
17.97500,63
17.98333,63
17.99167,63
18.00000,63
18.00833,63
18.01667,63
18.02500,63
18.03333,63
18.04167,63
18.05000,62
18.05833,62
18.06667,62
18.07500,62
18.08333,61
18.09167,61
18.10000,61
18.10833,60
18.11667,60
18.12500,59
18.13333,58
18.14167,58
18.15000,58
18.15833,57
18.16667,57
18.17500,57
18.18333,57
18.19167,57
18.20000,57
18.20833,57
18.21667,58
18.22500,58
18.23333,58
18.24167,57
18.25000,57
18.25833,57
18.26667,57
18.27500,57
18.28333,57
18.29167,56
18.30000,56
18.30833,56
18.31667,55
18.32500,55
18.33333,55
18.34167,55
18.35000,55
18.35833,55
18.36667,54
18.37500,54
18.38333,54
18.39167,54
18.40000,54
18.40833,54
18.41667,54
18.42500,54
18.43333,54
18.44167,54
18.45000,54
18.45833,54
18.46667,54
18.47500,53
18.48333,53
18.49167,52
18.50000,52
18.50833,53
18.51667,53
18.52500,53
18.53333,54
18.54167,54
18.55000,54
18.55833,54
18.56667,54
18.57500,54
18.58333,54
18.59167,54
18.60000,54
18.60833,54
18.61667,54
18.62500,53
18.63333,53
18.64167,53
18.65000,52
18.65833,52
18.66667,52
18.67500,52
18.68333,53
18.69167,53
18.70000,53
18.70833,53
18.71667,53
18.72500,53
18.73333,53
18.74167,54
18.75000,54
18.75833,54
18.76667,54
18.77500,55
18.78333,56
18.79167,56
18.80000,57
18.80833,58
18.81667,59
18.82500,59
18.83333,60
18.84167,61
18.85000,61
18.85833,62
18.86667,63
18.87500,64
18.88333,65
18.89167,66
18.90000,67
18.90833,68
18.91667,69
18.92500,70
18.93333,71
18.94167,72
18.95000,72
18.95833,73
18.96667,74
18.97500,74
18.98333,75
18.99167,75
19.00000,76
19.00833,76
19.01667,76
19.02500,76
19.03333,76
19.04167,76
19.05000,76
19.05833,76
19.06667,76
19.07500,75
19.08333,75
19.09167,74
19.10000,74
19.10833,73
19.11667,73
19.12500,72
19.13333,71
19.14167,70
19.15000,69
19.15833,68
19.16667,67
19.17500,66
19.18333,65
19.19167,64
19.20000,62
19.20833,61
19.21667,60
19.22500,59
19.23333,58
19.24167,57
19.25000,55
19.25833,54
19.26667,53
19.27500,53
19.28333,52
19.29167,51
19.30000,50
19.30833,49
19.31667,48
19.32500,48
19.33333,47
19.34167,47
19.35000,46
19.35833,45
19.36667,44
19.37500,43
19.38333,43
19.39167,43
19.40000,42
19.40833,42
19.41667,42
19.42500,41
19.43333,41
19.44167,40
19.45000,39
19.45833,39
19.46667,39
19.47500,39
19.48333,39
19.49167,39
19.50000,39
19.50833,39
19.51667,38
19.52500,38
19.53333,38
19.54167,37
19.55000,37
19.55833,37
19.56667,37
19.57500,37
19.58333,36
19.59167,36
19.60000,36
19.60833,36
19.61667,36
19.62500,36
19.63333,36
19.64167,36
19.65000,36
19.65833,36
19.66667,36
19.67500,36
19.68333,36
19.69167,36
19.70000,36
19.70833,35
19.71667,35
19.72500,35
19.73333,35
19.74167,35
19.75000,34
19.75833,34
19.76667,34
19.77500,34
19.78333,34
19.79167,34
19.80000,34
19.80833,34
19.81667,34
19.82500,33
19.83333,33
19.84167,33
19.85000,33
19.85833,33
19.86667,33
19.87500,33
19.88333,32
19.89167,33
19.90000,33
19.90833,33
19.91667,33
19.92500,33
19.93333,33
19.94167,33
19.95000,33
19.95833,33
19.96667,32
19.97500,32
19.98333,32
19.99167,32
20.00000,32
20.00833,32
20.01667,32
20.02500,33
20.03333,33
20.04167,33
20.05000,33
20.05833,33
20.06667,32
20.07500,32
20.08333,32
20.09167,32
20.10000,31
20.10833,31
20.11667,31
20.12500,31
20.13333,31
20.14167,31
20.15000,31
20.15833,31
20.16667,31
20.17500,31
20.18333,31
20.19167,31
20.20000,31
20.20833,31
20.21667,31
20.22500,31
20.23333,31
20.24167,31
20.25000,31
20.25833,31
20.26667,31
20.27500,30
20.28333,30
20.29167,30
20.30000,30
20.30833,30
20.31667,30
20.32500,30
20.33333,30
20.34167,30
20.35000,30
20.35833,29
20.36667,29
20.37500,29
20.38333,29
20.39167,28
20.40000,29
20.40833,29
20.41667,29
20.42500,29
20.43333,29
20.44167,29
20.45000,29
20.45833,29
20.46667,30
20.47500,30
20.48333,29
20.49167,29
20.50000,28
20.50833,28
20.51667,28
20.52500,29
20.53333,29
20.54167,29
20.55000,29
20.55833,29
20.56667,29
20.57500,29
20.58333,29
20.59167,29
20.60000,29
20.60833,29
20.61667,30
20.62500,30
20.63333,30
20.64167,29
20.65000,29
20.65833,29
20.66667,28
20.67500,28
20.68333,29
20.69167,29
20.70000,29
20.70833,29
20.71667,28
20.72500,28
20.73333,28
20.74167,28
20.75000,28
20.75833,27
20.76667,27
20.77500,27
20.78333,27
20.79167,27
20.80000,27
20.80833,27
20.81667,28
20.82500,28
20.83333,28
20.84167,27
20.85000,27
20.85833,27
20.86667,27
20.87500,27
20.88333,27
20.89167,27
20.90000,27
20.90833,27
20.91667,27
20.92500,27
20.93333,27
20.94167,27
20.95000,27
20.95833,27
20.96667,27
20.97500,27
20.98333,27
20.99167,27
21.00000,26
21.00833,26
21.01667,26
21.02500,26
21.03333,26
21.04167,26
21.05000,26
21.05833,26
21.06667,26
21.07500,26
21.08333,26
21.09167,26
21.10000,26
21.10833,26
21.11667,26
21.12500,25
21.13333,25
21.14167,25
21.15000,25
21.15833,25
21.16667,26
21.17500,26
21.18333,26
21.19167,26
21.20000,26
21.20833,26
21.21667,26
21.22500,26
21.23333,26
21.24167,26
21.25000,26
21.25833,26
21.26667,26
21.27500,25
21.28333,25
21.29167,25
21.30000,25
21.30833,25
21.31667,25
21.32500,25
21.33333,25
21.34167,25
21.35000,25
21.35833,25
21.36667,24
21.37500,24
21.38333,24
21.39167,24
21.40000,25
21.40833,25
21.41667,25
21.42500,25
21.43333,25
21.44167,25
21.45000,25
21.45833,26
21.46667,26
21.47500,27
21.48333,27
21.49167,27
21.50000,28
21.50833,28
21.51667,28
21.52500,28
21.53333,29
21.54167,29
21.55000,30
21.55833,31
21.56667,31
21.57500,32
21.58333,33
21.59167,34
21.60000,35
21.60833,36
21.61667,38
21.62500,40
21.63333,42
21.64167,44
21.65000,46
21.65833,49
21.66667,51
21.67500,54
21.68333,58
21.69167,62
21.70000,66
21.70833,71
21.71667,77
21.72500,83
21.73333,90
21.74167,97
21.75000,104
21.75833,112
21.76667,121
21.77500,130
21.78333,140
21.79167,150
21.80000,161
21.80833,173
21.81667,185
21.82500,197
21.83333,211
21.84167,224
21.85000,239
21.85833,254
21.86667,269
21.87500,285
21.88333,301
21.89167,317
21.90000,333
21.90833,350
21.91667,366
21.92500,382
21.93333,398
21.94167,414
21.95000,430
21.95833,445
21.96667,460
21.97500,474
21.98333,487
21.99167,500
22.00000,512
22.00833,523
22.01667,532
22.02500,541
22.03333,549
22.04167,555
22.05000,561
22.05833,565
22.06667,568
22.07500,570
22.08333,571
22.09167,570
22.10000,568
22.10833,565
22.11667,560
22.12500,555
22.13333,548
22.14167,540
22.15000,532
22.15833,522
22.16667,512
22.17500,500
22.18333,488
22.19167,476
22.20000,463
22.20833,450
22.21667,437
22.22500,423
22.23333,409
22.24167,395
22.25000,380
22.25833,365
22.26667,350
22.27500,335
22.28333,321
22.29167,307
22.30000,293
22.30833,279
22.31667,266
22.32500,252
22.33333,240
22.34167,227
22.35000,216
22.35833,205
22.36667,194
22.37500,184
22.38333,174
22.39167,165
22.40000,155
22.40833,147
22.41667,138
22.42500,130
22.43333,123
22.44167,116
22.45000,109
22.45833,103
22.46667,97
22.47500,92
22.48333,87
22.49167,83
22.50000,79
22.50833,75
22.51667,71
22.52500,68
22.53333,64
22.54167,61
22.55000,58
22.55833,55
22.56667,53
22.57500,51
22.58333,49
22.59167,47
22.60000,46
22.60833,44
22.61667,43
22.62500,41
22.63333,40
22.64167,40
22.65000,39
22.65833,38
22.66667,37
22.67500,36
22.68333,35
22.69167,34
22.70000,34
22.70833,33
22.71667,33
22.72500,32
22.73333,32
22.74167,32
22.75000,31
22.75833,30
22.76667,30
22.77500,30
22.78333,30
22.79167,29
22.80000,29
22.80833,29
22.81667,29
22.82500,29
22.83333,29
22.84167,28
22.85000,28
22.85833,28
22.86667,28
22.87500,28
22.88333,28
22.89167,27
22.90000,27
22.90833,27
22.91667,27
22.92500,27
22.93333,27
22.94167,27
22.95000,27
22.95833,26
22.96667,27
22.97500,27
22.98333,27
22.99167,27
23.00000,27
23.00833,27
23.01667,26
23.02500,26
23.03333,26
23.04167,26
23.05000,26
23.05833,26
23.06667,25
23.07500,25
23.08333,25
23.09167,26
23.10000,26
23.10833,25
23.11667,25
23.12500,25
23.13333,25
23.14167,25
23.15000,25
23.15833,24
23.16667,24
23.17500,24
23.18333,24
23.19167,25
23.20000,25
23.20833,25
23.21667,25
23.22500,25
23.23333,25
23.24167,25
23.25000,25
23.25833,25
23.26667,25
23.27500,25
23.28333,24
23.29167,24
23.30000,25
23.30833,25
23.31667,24
23.32500,25
23.33333,25
23.34167,25
23.35000,25
23.35833,24
23.36667,24
23.37500,24
23.38333,24
23.39167,24
23.40000,24
23.40833,24
23.41667,25
23.42500,25
23.43333,25
23.44167,25
23.45000,25
23.45833,24
23.46667,24
23.47500,24
23.48333,24
23.49167,23
23.50000,24
23.50833,24
23.51667,24
23.52500,24
23.53333,24
23.54167,24
23.55000,24
23.55833,23
23.56667,23
23.57500,23
23.58333,23
23.59167,23
23.60000,23
23.60833,23
23.61667,23
23.62500,23
23.63333,24
23.64167,24
23.65000,24
23.65833,25
23.66667,24
23.67500,24
23.68333,24
23.69167,24
23.70000,24
23.70833,24
23.71667,24
23.72500,24
23.73333,24
23.74167,24
23.75000,24
23.75833,24
23.76667,24
23.77500,24
23.78333,24
23.79167,24
23.80000,24
23.80833,24
23.81667,24
23.82500,24
23.83333,24
23.84167,24
23.85000,24
23.85833,24
23.86667,24
23.87500,24
23.88333,24
23.89167,24
23.90000,24
23.90833,24
23.91667,24
23.92500,24
23.93333,24
23.94167,24
23.95000,24
23.95833,24
23.96667,24
23.97500,24
23.98333,24
23.99167,24
24.00000,24
24.00833,24
24.01667,24
24.02500,24
24.03333,24
24.04167,24
24.05000,23
24.05833,23
24.06667,23
24.07500,23
24.08333,23
24.09167,23
24.10000,23
24.10833,23
24.11667,24
24.12500,24
24.13333,24
24.14167,24
24.15000,24
24.15833,24
24.16667,24
24.17500,24
24.18333,24
24.19167,24
24.20000,24
24.20833,24
24.21667,24
24.22500,25
24.23333,25
24.24167,25
24.25000,25
24.25833,25
24.26667,25
24.27500,25
24.28333,25
24.29167,25
24.30000,25
24.30833,26
24.31667,26
24.32500,26
24.33333,26
24.34167,26
24.35000,26
24.35833,26
24.36667,26
24.37500,27
24.38333,27
24.39167,27
24.40000,27
24.40833,27
24.41667,27
24.42500,27
24.43333,26
24.44167,27
24.45000,27
24.45833,27
24.46667,28
24.47500,28
24.48333,28
24.49167,28
24.50000,28
24.50833,28
24.51667,28
24.52500,28
24.53333,29
24.54167,30
24.55000,30
24.55833,31
24.56667,32
24.57500,32
24.58333,33
24.59167,33
24.60000,34
24.60833,35
24.61667,36
24.62500,36
24.63333,37
24.64167,39
24.65000,40
24.65833,42
24.66667,44
24.67500,45
24.68333,46
24.69167,48
24.70000,50
24.70833,52
24.71667,54
24.72500,57
24.73333,60
24.74167,64
24.75000,67
24.75833,71
24.76667,74
24.77500,78
24.78333,82
24.79167,86
24.80000,91
24.80833,95
24.81667,100
24.82500,105
24.83333,110
24.84167,115
24.85000,120
24.85833,125
24.86667,131
24.87500,136
24.88333,142
24.89167,147
24.90000,153
24.90833,159
24.91667,165
24.92500,170
24.93333,176
24.94167,182
24.95000,187
24.95833,192
24.96667,197
24.97500,202
24.98333,206
24.99167,211
25.00000,215
25.00833,219
25.01667,223
25.02500,226
25.03333,229
25.04167,232
25.05000,234
25.05833,235
25.06667,236
25.07500,237
25.08333,237
25.09167,237
25.10000,236
25.10833,236
25.11667,235
25.12500,233
25.13333,231
25.14167,229
25.15000,226
25.15833,223
25.16667,220
25.17500,216
25.18333,213
25.19167,209
25.20000,205
25.20833,201
25.21667,196
25.22500,191
25.23333,186
25.24167,181
25.25000,176
25.25833,171
25.26667,166
25.27500,161
25.28333,155
25.29167,150
25.30000,144
25.30833,138
25.31667,133
25.32500,128
25.33333,123
25.34167,119
25.35000,114
25.35833,110
25.36667,105
25.37500,101
25.38333,97
25.39167,92
25.40000,88
25.40833,85
25.41667,81
25.42500,78
25.43333,75
25.44167,71
25.45000,68
25.45833,66
25.46667,63
25.47500,61
25.48333,58
25.49167,56
25.50000,54
25.50833,52
25.51667,50
25.52500,48
25.53333,46
25.54167,45
25.55000,44
25.55833,43
25.56667,42
25.57500,41
25.58333,40
25.59167,39
25.60000,38
25.60833,37
25.61667,36
25.62500,36
25.63333,35
25.64167,34
25.65000,34
25.65833,33
25.66667,32
25.67500,32
25.68333,32
25.69167,32
25.70000,31
25.70833,31
25.71667,31
25.72500,31
25.73333,30
25.74167,30
25.75000,30
25.75833,29
25.76667,29
25.77500,29
25.78333,29
25.79167,29
25.80000,29
25.80833,29
25.81667,29
25.82500,29
25.83333,29
25.84167,29
25.85000,29
25.85833,29
25.86667,29
25.87500,29
25.88333,29
25.89167,30
25.90000,30
25.90833,29
25.91667,29
25.92500,29
25.93333,29
25.94167,29
25.95000,29
25.95833,29
25.96667,29
25.97500,29
25.98333,29
25.99167,29
26.00000,29
26.00833,29
26.01667,29
26.02500,29
26.03333,29
26.04167,29
26.05000,29
26.05833,29
26.06667,29
26.07500,29
26.08333,29
26.09167,28
26.10000,28
26.10833,28
26.11667,28
26.12500,29
26.13333,29
26.14167,29
26.15000,29
26.15833,29
26.16667,29
26.17500,29
26.18333,28
26.19167,28
26.20000,28
26.20833,29
26.21667,29
26.22500,29
26.23333,29
26.24167,28
26.25000,28
26.25833,28
26.26667,28
26.27500,28
26.28333,28
26.29167,28
26.30000,28
26.30833,28
26.31667,29
26.32500,29
26.33333,29
26.34167,29
26.35000,29
26.35833,29
26.36667,28
26.37500,28
26.38333,28
26.39167,28
26.40000,28
26.40833,28
26.41667,29
26.42500,29
26.43333,29
26.44167,29
26.45000,29
26.45833,29
26.46667,29
26.47500,29
26.48333,29
26.49167,29
26.50000,29
26.50833,29
26.51667,29
26.52500,29
26.53333,29
26.54167,29
26.55000,29
26.55833,29
26.56667,29
26.57500,29
26.58333,29
26.59167,29
26.60000,29
26.60833,29
26.61667,29
26.62500,29
26.63333,29
26.64167,29
26.65000,29
26.65833,29
26.66667,29
26.67500,29
26.68333,29
26.69167,30
26.70000,30
26.70833,29
26.71667,29
26.72500,29
26.73333,29
26.74167,29
26.75000,29
26.75833,29
26.76667,29
26.77500,29
26.78333,29
26.79167,30
26.80000,30
26.80833,30
26.81667,30
26.82500,30
26.83333,30
26.84167,30
26.85000,30
26.85833,30
26.86667,30
26.87500,30
26.88333,30
26.89167,30
26.90000,29
26.90833,30
26.91667,30
26.92500,30
26.93333,30
26.94167,30
26.95000,30
26.95833,30
26.96667,30
26.97500,30
26.98333,31
26.99167,31
27.00000,31
27.00833,31
27.01667,31
27.02500,31
27.03333,32
27.04167,32
27.05000,31
27.05833,31
27.06667,31
27.07500,31
27.08333,31
27.09167,31
27.10000,31
27.10833,31
27.11667,31
27.12500,31
27.13333,31
27.14167,31
27.15000,31
27.15833,31
27.16667,31
27.17500,31
27.18333,31
27.19167,31
27.20000,31
27.20833,31
27.21667,31
27.22500,31
27.23333,31
27.24167,31
27.25000,31
27.25833,31
27.26667,31
27.27500,31
27.28333,31
27.29167,31
27.30000,31
27.30833,31
27.31667,31
27.32500,31
27.33333,31
27.34167,31
27.35000,31
27.35833,31
27.36667,31
27.37500,31
27.38333,31
27.39167,31
27.40000,32
27.40833,32
27.41667,32
27.42500,32
27.43333,32
27.44167,32
27.45000,31
27.45833,31
27.46667,31
27.47500,31
27.48333,31
27.49167,31
27.50000,31
27.50833,31
27.51667,32
27.52500,32
27.53333,32
27.54167,33
27.55000,33
27.55833,33
27.56667,32
27.57500,32
27.58333,33
27.59167,33
27.60000,32
27.60833,32
27.61667,32
27.62500,32
27.63333,32
27.64167,32
27.65000,32
27.65833,32
27.66667,32
27.67500,32
27.68333,32
27.69167,32
27.70000,32
27.70833,31
27.71667,31
27.72500,31
27.73333,30
27.74167,30
27.75000,30
27.75833,30
27.76667,30
27.77500,29
27.78333,29
27.79167,28
27.80000,28
27.80833,27
27.81667,27
27.82500,26
27.83333,25
27.84167,25
27.85000,25
27.85833,25
27.86667,25
27.87500,24
27.88333,23
27.89167,23
27.90000,22
27.90833,21
27.91667,20
27.92500,19
27.93333,18
27.94167,17
27.95000,16
27.95833,14
27.96667,13
27.97500,12
27.98333,10
27.99167,8
28.00000,7
28.00833,5
28.01667,3
28.02500,2
28.03333,-0
28.04167,-2
28.05000,-5
28.05833,-8
28.06667,-10
28.07500,-13
28.08333,-16
28.09167,-19
28.10000,-22
28.10833,-25
28.11667,-27
28.12500,-31
28.13333,-34
28.14167,-37
28.15000,-40
28.15833,-43
28.16667,-46
28.17500,-49
28.18333,-52
28.19167,-55
28.20000,-58
28.20833,-61
28.21667,-64
28.22500,-68
28.23333,-71
28.24167,-75
28.25000,-78
28.25833,-81
28.26667,-84
28.27500,-87
28.28333,-90
28.29167,-93
28.30000,-96
28.30833,-99
28.31667,-101
28.32500,-104
28.33333,-106
28.34167,-108
28.35000,-110
28.35833,-112
28.36667,-114
28.37500,-115
28.38333,-117
28.39167,-118
28.40000,-119
28.40833,-120
28.41667,-121
28.42500,-122
28.43333,-122
28.44167,-123
28.45000,-123
28.45833,-123
28.46667,-123
28.47500,-122
28.48333,-122
28.49167,-121
28.50000,-120
28.50833,-119
28.51667,-118
28.52500,-116
28.53333,-115
28.54167,-113
28.55000,-111
28.55833,-109
28.56667,-107
28.57500,-105
28.58333,-102
28.59167,-100
28.60000,-98
28.60833,-95
28.61667,-93
28.62500,-90
28.63333,-87
28.64167,-84
28.65000,-82
28.65833,-79
28.66667,-77
28.67500,-74
28.68333,-72
28.69167,-69
28.70000,-66
28.70833,-63
28.71667,-60
28.72500,-57
28.73333,-54
28.74167,-51
28.75000,-48
28.75833,-46
28.76667,-43
28.77500,-41
28.78333,-38
28.79167,-36
28.80000,-33
28.80833,-31
28.81667,-29
28.82500,-26
28.83333,-24
28.84167,-22
28.85000,-20
28.85833,-18
28.86667,-16
28.87500,-15
28.88333,-12
28.89167,-10
28.90000,-9
28.90833,-7
28.91667,-6
28.92500,-4
28.93333,-3
28.94167,-2
28.95000,-0
28.95833,1
28.96667,2
28.97500,3
28.98333,4
28.99167,5
29.00000,6
29.00833,7
29.01667,8
29.02500,9
29.03333,10
29.04167,11
29.05000,12
29.05833,12
29.06667,13
29.07500,14
29.08333,14
29.09167,15
29.10000,15
29.10833,16
29.11667,16
29.12500,17
29.13333,17
29.14167,17
29.15000,18
29.15833,18
29.16667,18
29.17500,18
29.18333,19
29.19167,19
29.20000,20
29.20833,20
29.21667,21
29.22500,21
29.23333,22
29.24167,22
29.25000,23
29.25833,23
29.26667,23
29.27500,23
29.28333,23
29.29167,23
29.30000,24
29.30833,24
29.31667,24
29.32500,24
29.33333,25
29.34167,25
29.35000,24
29.35833,24
29.36667,24
29.37500,24
29.38333,24
29.39167,24
29.40000,24
29.40833,24
29.41667,24
29.42500,24
29.43333,24
29.44167,24
29.45000,24
29.45833,24
29.46667,24
29.47500,24
29.48333,24
29.49167,25
29.50000,25
29.50833,25
29.51667,25
29.52500,25
29.53333,25
29.54167,25
29.55000,24
29.55833,24
29.56667,24
29.57500,24
29.58333,23
29.59167,23
29.60000,23
29.60833,23
29.61667,22
29.62500,22
29.63333,22
29.64167,22
29.65000,21
29.65833,21
29.66667,21
29.67500,20
29.68333,20
29.69167,19
29.70000,19
29.70833,18
29.71667,17
29.72500,17
29.73333,16
29.74167,15
29.75000,14
29.75833,14
29.76667,13
29.77500,12
29.78333,11
29.79167,10
29.80000,9
29.80833,8
29.81667,8
29.82500,7
29.83333,6
29.84167,5
29.85000,3
29.85833,2
29.86667,1
29.87500,0
29.88333,-1
29.89167,-2
29.90000,-3
29.90833,-5
29.91667,-6
29.92500,-7
29.93333,-8
29.94167,-9
29.95000,-11
29.95833,-11
29.96667,-12
29.97500,-14
29.98333,-15
29.99167,-16
30.00000,-17
30.00833,-17
30.01667,-18
30.02500,-19
30.03333,-19
30.04167,-20
30.05000,-22
30.05833,-23
30.06667,-24
30.07500,-24
30.08333,-25
30.09167,-26
30.10000,-26
30.10833,-27
30.11667,-27
30.12500,-28
30.13333,-28
30.14167,-29
30.15000,-29
30.15833,-29
30.16667,-30
30.17500,-30
30.18333,-30
30.19167,-30
30.20000,-30
30.20833,-30
30.21667,-30
30.22500,-30
30.23333,-30
30.24167,-30
30.25000,-30
30.25833,-29
30.26667,-28
30.27500,-28
30.28333,-27
30.29167,-26
30.30000,-25
30.30833,-24
30.31667,-23
30.32500,-22
30.33333,-22
30.34167,-22
30.35000,-21
30.35833,-20
30.36667,-19
30.37500,-18
30.38333,-17
30.39167,-16
30.40000,-15
30.40833,-14
30.41667,-13
30.42500,-12
30.43333,-11
30.44167,-10
30.45000,-9
30.45833,-8
30.46667,-7
30.47500,-7
30.48333,-5
30.49167,-4
30.50000,-3
30.50833,-2
30.51667,-1
30.52500,0
30.53333,1
30.54167,2
30.55000,3
30.55833,4
30.56667,5
30.57500,6
30.58333,7
30.59167,7
30.60000,8
30.60833,9
30.61667,10
30.62500,10
30.63333,11
30.64167,12
30.65000,12
30.65833,13
30.66667,14
30.67500,15
30.68333,15
30.69167,16
30.70000,16
30.70833,17
30.71667,17
30.72500,18
30.73333,18
30.74167,18
30.75000,18
30.75833,19
30.76667,19
30.77500,20
30.78333,20
30.79167,21
30.80000,21
30.80833,21
30.81667,22
30.82500,22
30.83333,22
30.84167,22
30.85000,23
30.85833,23
30.86667,23
30.87500,24
30.88333,24
30.89167,24
30.90000,25
30.90833,25
30.91667,25
30.92500,25
30.93333,26
30.94167,26
30.95000,26
30.95833,26
30.96667,26
30.97500,26
30.98333,26
30.99167,25
31.00000,25
31.00833,25
31.01667,25
31.02500,25
31.03333,25
31.04167,25
31.05000,26
31.05833,26
31.06667,27
31.07500,27
31.08333,27
31.09167,27
31.10000,27
31.10833,27
31.11667,27
31.12500,27
31.13333,27
31.14167,27
31.15000,27
31.15833,28
31.16667,28
31.17500,28
31.18333,29
31.19167,29
31.20000,29
31.20833,29
31.21667,29
31.22500,28
31.23333,28
31.24167,28
31.25000,28
31.25833,28
31.26667,29
31.27500,29
31.28333,29
31.29167,29
31.30000,29
31.30833,29
31.31667,30
31.32500,30
31.33333,30
31.34167,30
31.35000,29
31.35833,29
31.36667,29
31.37500,30
31.38333,30
31.39167,30
31.40000,30
31.40833,30
31.41667,30
31.42500,30
31.43333,31
31.44167,31
31.45000,31
31.45833,31
31.46667,31
31.47500,31
31.48333,31
31.49167,31
31.50000,31
31.50833,31
31.51667,31
31.52500,31
31.53333,30
31.54167,31
31.55000,31
31.55833,31
31.56667,31
31.57500,31
31.58333,31
31.59167,31
31.60000,31
31.60833,31
31.61667,31
31.62500,32
31.63333,32
31.64167,32
31.65000,32
31.65833,32
31.66667,32
31.67500,32
31.68333,32
31.69167,32
31.70000,32
31.70833,32
31.71667,32
31.72500,32
31.73333,32
31.74167,32
31.75000,32
31.75833,32
31.76667,32
31.77500,32
31.78333,32
31.79167,32
31.80000,33
31.80833,32
31.81667,33
31.82500,33
31.83333,32
31.84167,32
31.85000,32
31.85833,32
31.86667,33
31.87500,33
31.88333,33
31.89167,33
31.90000,33
31.90833,33
31.91667,33
31.92500,34
31.93333,34
31.94167,34
31.95000,34
31.95833,33
31.96667,33
31.97500,33
31.98333,33
31.99167,33
32.00000,33
32.00833,33
32.01667,33
32.02500,33
32.03333,33
32.04167,33
32.05000,33
32.05833,33
32.06667,33
32.07500,33
32.08333,32
32.09167,32
32.10000,32
32.10833,33
32.11667,33
32.12500,33
32.13333,33
32.14167,33
32.15000,33
32.15833,34
32.16667,34
32.17500,34
32.18333,34
32.19167,34
32.20000,34
32.20833,34
32.21667,34
32.22500,34
32.23333,34
32.24167,34
32.25000,34
32.25833,33
32.26667,33
32.27500,33
32.28333,33
32.29167,33
32.30000,33
32.30833,33
32.31667,34
32.32500,34
32.33333,34
32.34167,34
32.35000,34
32.35833,33
32.36667,33
32.37500,33
32.38333,33
32.39167,33
32.40000,33
32.40833,33
32.41667,34
32.42500,34
32.43333,34
32.44167,34
32.45000,34
32.45833,34
32.46667,34
32.47500,34
32.48333,34
32.49167,34
32.50000,34
32.50833,34
32.51667,34
32.52500,34
32.53333,34
32.54167,34
32.55000,34
32.55833,34
32.56667,34
32.57500,34
32.58333,34
32.59167,34
32.60000,34
32.60833,34
32.61667,34
32.62500,34
32.63333,34
32.64167,34
32.65000,35
32.65833,35
32.66667,35
32.67500,36
32.68333,36
32.69167,35
32.70000,35
32.70833,35
32.71667,35
32.72500,35
32.73333,35
32.74167,35
32.75000,35
32.75833,35
32.76667,35
32.77500,35
32.78333,34
32.79167,34
32.80000,34
32.80833,35
32.81667,35
32.82500,35
32.83333,35
32.84167,35
32.85000,35
32.85833,35
32.86667,35
32.87500,34
32.88333,34
32.89167,34
32.90000,34
32.90833,34
32.91667,34
32.92500,34
32.93333,35
32.94167,35
32.95000,35
32.95833,35
32.96667,35
32.97500,35
32.98333,34
32.99167,34
33.00000,34
33.00833,34
33.01667,34
33.02500,34
33.03333,34
33.04167,34
33.05000,34
33.05833,34
33.06667,35
33.07500,35
33.08333,35
33.09167,35
33.10000,35
33.10833,35
33.11667,35
33.12500,35
33.13333,35
33.14167,35
33.15000,35
33.15833,35
33.16667,35
33.17500,35
33.18333,36
33.19167,36
33.20000,36
33.20833,35
33.21667,35
33.22500,35
33.23333,35
33.24167,36
33.25000,36
33.25833,36
33.26667,36
33.27500,37
33.28333,36
33.29167,36
33.30000,36
33.30833,36
33.31667,36
33.32500,36
33.33333,36
33.34167,36
33.35000,36
33.35833,36
33.36667,36
33.37500,36
33.38333,37
33.39167,37
33.40000,36
33.40833,36
33.41667,36
33.42500,36
33.43333,36
33.44167,36
33.45000,36
33.45833,36
33.46667,36
33.47500,36
33.48333,36
33.49167,36
33.50000,36
33.50833,35
33.51667,36
33.52500,35
33.53333,35
33.54167,35
33.55000,35
33.55833,35
33.56667,35
33.57500,36
33.58333,36
33.59167,36
33.60000,36
33.60833,36
33.61667,36
33.62500,36
33.63333,36
33.64167,36
33.65000,36
33.65833,35
33.66667,36
33.67500,36
33.68333,36
33.69167,36
33.70000,35
33.70833,35
33.71667,35
33.72500,35
33.73333,35
33.74167,36
33.75000,36
33.75833,36
33.76667,36
33.77500,36
33.78333,36
33.79167,36
33.80000,36
33.80833,36
33.81667,36
33.82500,36
33.83333,36
33.84167,36
33.85000,36
33.85833,36
33.86667,36
33.87500,36
33.88333,36
33.89167,35
33.90000,35
33.90833,35
33.91667,35
33.92500,35
33.93333,35
33.94167,35
33.95000,35
33.95833,36
33.96667,36
33.97500,36
33.98333,36
33.99167,36
34.00000,36
34.00833,36
34.01667,37
34.02500,37
34.03333,37
34.04167,37
34.05000,37
34.05833,37
34.06667,37
34.07500,37
34.08333,37
34.09167,36
34.10000,36
34.10833,36
34.11667,37
34.12500,37
34.13333,37
34.14167,36
34.15000,36
34.15833,36
34.16667,36
34.17500,36
34.18333,36
34.19167,36
34.20000,36
34.20833,36
34.21667,36
34.22500,37
34.23333,37
34.24167,37
34.25000,37
34.25833,38
34.26667,38
34.27500,38
34.28333,38
34.29167,38
34.30000,37
34.30833,37
34.31667,37
34.32500,37
34.33333,37
34.34167,38
34.35000,38
34.35833,38
34.36667,38
34.37500,37
34.38333,37
34.39167,37
34.40000,37
34.40833,37
34.41667,37
34.42500,37
34.43333,37
34.44167,36
34.45000,36
34.45833,36
34.46667,37
34.47500,37
34.48333,37
34.49167,38
34.50000,38
34.50833,38
34.51667,38
34.52500,38
34.53333,38
34.54167,39
34.55000,38
34.55833,38
34.56667,38
34.57500,38
34.58333,38
34.59167,38
34.60000,38
34.60833,38
34.61667,38
34.62500,38
34.63333,38
34.64167,38
34.65000,38
34.65833,38
34.66667,38
34.67500,39
34.68333,39
34.69167,39
34.70000,38
34.70833,38
34.71667,39
34.72500,39
34.73333,39
34.74167,39
34.75000,39
34.75833,39
34.76667,39
34.77500,39
34.78333,38
34.79167,38
34.80000,38
34.80833,38
34.81667,38
34.82500,38
34.83333,38
34.84167,38
34.85000,38
34.85833,38
34.86667,38
34.87500,38
34.88333,38
34.89167,38
34.90000,38
34.90833,38
34.91667,38
34.92500,38
34.93333,38
34.94167,38
34.95000,39
34.95833,39
34.96667,39
34.97500,39
34.98333,39
34.99167,39
35.00000,39
35.00833,39
35.01667,39
35.02500,39
35.03333,38
35.04167,38
35.05000,37
35.05833,37
35.06667,37
35.07500,38
35.08333,38
35.09167,39
35.10000,39
35.10833,39
35.11667,39
35.12500,39
35.13333,39
35.14167,39
35.15000,39
35.15833,39
35.16667,39
35.17500,39
35.18333,39
35.19167,39
35.20000,39
35.20833,39
35.21667,39
35.22500,39
35.23333,40
35.24167,39
35.25000,39
35.25833,39
35.26667,40
35.27500,40
35.28333,40
35.29167,40
35.30000,40
35.30833,40
35.31667,40
35.32500,40
35.33333,39
35.34167,39
35.35000,39
35.35833,39
35.36667,39
35.37500,39
35.38333,39
35.39167,38
35.40000,39
35.40833,39
35.41667,39
35.42500,39
35.43333,39
35.44167,39
35.45000,39
35.45833,40
35.46667,40
35.47500,40
35.48333,39
35.49167,39
35.50000,39
35.50833,39
35.51667,39
35.52500,39
35.53333,39
35.54167,39
35.55000,39
35.55833,39
35.56667,39
35.57500,39
35.58333,39
35.59167,39
35.60000,39
35.60833,39
35.61667,39
35.62500,39
35.63333,39
35.64167,39
35.65000,39
35.65833,39
35.66667,40
35.67500,40
35.68333,40
35.69167,40
35.70000,40
35.70833,40
35.71667,40
35.72500,40
35.73333,40
35.74167,40
35.75000,40
35.75833,40
35.76667,40
35.77500,40
35.78333,40
35.79167,40
35.80000,39
35.80833,39
35.81667,39
35.82500,39
35.83333,39
35.84167,38
35.85000,38
35.85833,38
35.86667,38
35.87500,38
35.88333,38
35.89167,38
35.90000,38
35.90833,38
35.91667,38
35.92500,38
35.93333,38
35.94167,38
35.95000,38
35.95833,38
35.96667,38
35.97500,38
35.98333,38
35.99167,38
36.00000,38
36.00833,38
36.01667,38
36.02500,38
36.03333,39
36.04167,39
36.05000,39
36.05833,38
36.06667,38
36.07500,38
36.08333,38
36.09167,38
36.10000,38
36.10833,38
36.11667,38
36.12500,38
36.13333,38
36.14167,38
36.15000,38
36.15833,38
36.16667,38
36.17500,38
36.18333,38
36.19167,38
36.20000,38
36.20833,38
36.21667,38
36.22500,38
36.23333,38
36.24167,38
36.25000,38
36.25833,38
36.26667,38
36.27500,38
36.28333,38
36.29167,38
36.30000,38
36.30833,38
36.31667,38
36.32500,38
36.33333,38
36.34167,38
36.35000,38
36.35833,38
36.36667,38
36.37500,38
36.38333,38
36.39167,38
36.40000,38
36.40833,38
36.41667,38
36.42500,38
36.43333,38
36.44167,38
36.45000,38
36.45833,39
36.46667,39
36.47500,39
36.48333,38
36.49167,38
36.50000,39
36.50833,39
36.51667,38
36.52500,38
36.53333,38
36.54167,38
36.55000,38
36.55833,38
36.56667,38
36.57500,38
36.58333,38
36.59167,38
36.60000,38
36.60833,38
36.61667,38
36.62500,38
36.63333,38
36.64167,39
36.65000,39
36.65833,39
36.66667,39
36.67500,39
36.68333,39
36.69167,39
36.70000,40
36.70833,40
36.71667,40
36.72500,40
36.73333,40
36.74167,40
36.75000,41
36.75833,41
36.76667,41
36.77500,41
36.78333,41
36.79167,41
36.80000,41
36.80833,41
36.81667,41
36.82500,40
36.83333,40
36.84167,40
36.85000,40
36.85833,40
36.86667,40
36.87500,40
36.88333,40
36.89167,41
36.90000,41
36.90833,40
36.91667,40
36.92500,40
36.93333,40
36.94167,40
36.95000,40
36.95833,41
36.96667,40
36.97500,40
36.98333,40
36.99167,40
37.00000,41
37.00833,41
37.01667,41
37.02500,41
37.03333,41
37.04167,41
37.05000,41
37.05833,41
37.06667,40
37.07500,40
37.08333,40
37.09167,41
37.10000,41
37.10833,41
37.11667,41
37.12500,41
37.13333,41
37.14167,41
37.15000,41
37.15833,41
37.16667,41
37.17500,41
37.18333,41
37.19167,41
37.20000,41
37.20833,41
37.21667,41
37.22500,41
37.23333,42
37.24167,42
37.25000,42
37.25833,42
37.26667,42
37.27500,42
37.28333,41
37.29167,41
37.30000,41
37.30833,41
37.31667,41
37.32500,41
37.33333,41
37.34167,41
37.35000,41
37.35833,41
37.36667,41
37.37500,41
37.38333,41
37.39167,42
37.40000,42
37.40833,42
37.41667,41
37.42500,41
37.43333,41
37.44167,41
37.45000,42
37.45833,42
37.46667,42
37.47500,42
37.48333,42
37.49167,43
37.50000,43
37.50833,43
37.51667,43
37.52500,43
37.53333,43
37.54167,42
37.55000,42
37.55833,42
37.56667,42
37.57500,42
37.58333,43
37.59167,43
37.60000,43
37.60833,42
37.61667,42
37.62500,42
37.63333,41
37.64167,41
37.65000,42
37.65833,42
37.66667,42
37.67500,42
37.68333,42
37.69167,42
37.70000,41
37.70833,41
37.71667,41
37.72500,42
37.73333,41
37.74167,42
37.75000,42
37.75833,42
37.76667,42
37.77500,43
37.78333,43
37.79167,43
37.80000,42
37.80833,43
37.81667,43
37.82500,43
37.83333,43
37.84167,43
37.85000,43
37.85833,42
37.86667,42
37.87500,42
37.88333,42
37.89167,42
37.90000,42
37.90833,42
37.91667,42
37.92500,42
37.93333,42
37.94167,42
37.95000,42
37.95833,42
37.96667,42
37.97500,42
37.98333,42
37.99167,42
38.00000,42
38.00833,42
38.01667,42
38.02500,42
38.03333,42
38.04167,43
38.05000,42
38.05833,42
38.06667,42
38.07500,42
38.08333,42
38.09167,42
38.10000,43
38.10833,43
38.11667,43
38.12500,43
38.13333,43
38.14167,43
38.15000,43
38.15833,43
38.16667,43
38.17500,43
38.18333,43
38.19167,43
38.20000,43
38.20833,43
38.21667,43
38.22500,42
38.23333,43
38.24167,43
38.25000,43
38.25833,42
38.26667,42
38.27500,43
38.28333,43
38.29167,42
38.30000,42
38.30833,42
38.31667,42
38.32500,42
38.33333,42
38.34167,42
38.35000,42
38.35833,43
38.36667,43
38.37500,43
38.38333,43
38.39167,43
38.40000,43
38.40833,42
38.41667,42
38.42500,42
38.43333,42
38.44167,42
38.45000,42
38.45833,42
38.46667,42
38.47500,42
38.48333,43
38.49167,43
38.50000,43
38.50833,43
38.51667,43
38.52500,43
38.53333,43
38.54167,44
38.55000,44
38.55833,44
38.56667,44
38.57500,44
38.58333,44
38.59167,43
38.60000,43
38.60833,43
38.61667,43
38.62500,43
38.63333,43
38.64167,43
38.65000,43
38.65833,44
38.66667,44
38.67500,44
38.68333,44
38.69167,44
38.70000,44
38.70833,44
38.71667,44
38.72500,44
38.73333,44
38.74167,44
38.75000,43
38.75833,43
38.76667,42
38.77500,42
38.78333,42
38.79167,43
38.80000,43
38.80833,43
38.81667,43
38.82500,44
38.83333,44
38.84167,44
38.85000,43
38.85833,43
38.86667,43
38.87500,43
38.88333,43
38.89167,44
38.90000,44
38.90833,44
38.91667,44
38.92500,44
38.93333,44
38.94167,43
38.95000,43
38.95833,43
38.96667,43
38.97500,43
38.98333,43
38.99167,43
39.00000,43
39.00833,44
39.01667,44
39.02500,44
39.03333,44
39.04167,44
39.05000,44
39.05833,44
39.06667,43
39.07500,43
39.08333,43
39.09167,43
39.10000,43
39.10833,43
39.11667,43
39.12500,43
39.13333,43
39.14167,42
39.15000,42
39.15833,42
39.16667,42
39.17500,42
39.18333,43
39.19167,42
39.20000,42
39.20833,42
39.21667,42
39.22500,43
39.23333,43
39.24167,43
39.25000,43
39.25833,43
39.26667,44
39.27500,43
39.28333,43
39.29167,43
39.30000,43
39.30833,43
39.31667,43
39.32500,43
39.33333,43
39.34167,43
39.35000,43
39.35833,43
39.36667,43
39.37500,43
39.38333,44
39.39167,43
39.40000,43
39.40833,43
39.41667,43
39.42500,43
39.43333,43
39.44167,43
39.45000,43
39.45833,44
39.46667,44
39.47500,44
39.48333,44
39.49167,44
39.50000,44
39.50833,44
39.51667,44
39.52500,44
39.53333,44
39.54167,44
39.55000,44
39.55833,44
39.56667,44
39.57500,44
39.58333,44
39.59167,44
39.60000,45
39.60833,45
39.61667,45
39.62500,45
39.63333,45
39.64167,45
39.65000,45
39.65833,44
39.66667,45
39.67500,45
39.68333,45
39.69167,45
39.70000,45
39.70833,45
39.71667,45
39.72500,45
39.73333,45
39.74167,45
39.75000,45
39.75833,45
39.76667,45
39.77500,45
39.78333,45
39.79167,45
39.80000,45
39.80833,45
39.81667,45
39.82500,45
39.83333,44
39.84167,44
39.85000,44
39.85833,45
39.86667,45
39.87500,45
39.88333,45
39.89167,44
39.90000,44
39.90833,44
39.91667,44
39.92500,44
39.93333,45
39.94167,44
39.95000,44
39.95833,44
39.96667,44
39.97500,44
39.98333,44
39.99167,44
40.00000,44

