[Header]
Application Name,LabSolutions
Version,5.97 SP1
Data File Name,C:\Users\cremerlab\Desktop\griffin\2021-04-03_buffer_calibration\2021-04-03_buffer_calibration_432021_010_010.lcd
Output Date,4/3/2021
Output Time,8:45:59 PM

[File Information]
Type,Data File
Generated,4/3/2021 8:05:40 PM
Generated by,System Administrator
Modified,4/3/2021 8:45:59 PM
Modified by,System Administrator

[Sample Information]
Operator Name,System Administrator
Acquired,4/3/2021 8:05:58 PM
Sample Type,1:Standard
Level,1
Sample Name,2021-04-02_NC_glucose_glycerol_acetate_calibration_0.5mM
Sample ID,010
ISTD Amount1,1
ISTD Amount2,1
ISTD Amount3,1
ISTD Amount4,1
ISTD Amount5,1
ISTD Amount6,1
ISTD Amount7,1
ISTD Amount8,1
ISTD Amount9,1
ISTD Amount10,1
ISTD Amount11,1
ISTD Amount12,1
ISTD Amount13,1
ISTD Amount14,1
ISTD Amount15,1
ISTD Amount16,1
ISTD Amount17,1
ISTD Amount18,1
ISTD Amount19,1
ISTD Amount20,1
ISTD Amount21,1
ISTD Amount22,1
ISTD Amount23,1
ISTD Amount24,1
ISTD Amount25,1
ISTD Amount26,1
ISTD Amount27,1
ISTD Amount28,1
ISTD Amount29,1
ISTD Amount30,1
ISTD Amount31,1
ISTD Amount32,1
Sample Amount,1
Dilution Factor,1
Vial#,10
Injection Volume,20

[Original Files]
Data File,C:\Users\cremerlab\Desktop\griffin\2021-04-03_buffer_calibration\2021-04-03_buffer_calibration_432021_010_010.lcd
Method File,C:\LabSolutions\Data\Project1\organicacidsetc2.lcm
Batch File,C:\Users\cremerlab\Desktop\griffin\2021-04-03_buffer_calibration\2021-04-03_buffer_calibration.lcb
Report Format File,c:\LabSolutions\System\DEFAULT.lsr

[File Description]


[Configuration]
Instrument Name,HPLC-PC-Instrument1
Instrument #,1
Line #,1
# of Detectors,2
Detector ID,Detector A,Detector B
Detector Name,Detector A,Detector B
# of Channels,1,1

[Peak Table(Detector A)]
# of Peaks,0

[Peak Table(Detector B)]
# of Peaks,4
Peak#,R.Time,I.Time,F.Time,Area,Height,A/H,Conc.,Mark,ID#,Name,k',Plate #,Plate Ht.,Tailing,Resolution,Sep.Factor,Area Ratio,Height Ratio,Conc. %,Norm Conc.
1,11.064,10.758,12.925,1250116,69016,18.113,0.000,   ,,,0.000,10677,14.049,1.333,0.000,0.000,0,0,0.000,0.000
2,15.110,14.117,18.150,3201501,117262,27.302,0.000,   ,,,0.366,7116,21.079,0.776,7.068,0.000,0,0,0.000,0.000
3,22.075,21.583,22.742,13936,530,26.278,0.000,   ,,,0.995,15753,9.522,1.085,9.810,2.722,0,0,0.000,0.000
4,25.072,24.625,25.675,5578,203,27.461,0.000,   ,,,1.266,18172,8.255,1.105,4.140,1.272,0,0,0.000,0.000

[LC Chromatogram(Detector B-Ch1)]
Interval(msec),500
# of Points,4801
Start Time(min),0.000
End Time(min),40.000
Intensity Units,mV
Intensity Multiplier,0.001
R.Time (min),Intensity
0.00000,0
0.00833,0
0.01667,0
0.02500,0
0.03333,0
0.04167,-0
0.05000,-0
0.05833,-1
0.06667,-1
0.07500,-1
0.08333,-1
0.09167,-1
0.10000,-1
0.10833,-1
0.11667,-0
0.12500,0
0.13333,0
0.14167,0
0.15000,0
0.15833,-0
0.16667,-0
0.17500,-0
0.18333,-0
0.19167,-0
0.20000,0
0.20833,0
0.21667,0
0.22500,0
0.23333,0
0.24167,0
0.25000,0
0.25833,0
0.26667,1
0.27500,1
0.28333,1
0.29167,1
0.30000,1
0.30833,0
0.31667,0
0.32500,0
0.33333,-0
0.34167,-0
0.35000,-0
0.35833,-0
0.36667,-0
0.37500,-0
0.38333,-0
0.39167,-0
0.40000,0
0.40833,0
0.41667,0
0.42500,0
0.43333,0
0.44167,0
0.45000,-0
0.45833,-0
0.46667,-1
0.47500,-1
0.48333,-1
0.49167,-1
0.50000,-1
0.50833,-0
0.51667,0
0.52500,0
0.53333,0
0.54167,0
0.55000,0
0.55833,0
0.56667,0
0.57500,0
0.58333,0
0.59167,0
0.60000,0
0.60833,-0
0.61667,-0
0.62500,-0
0.63333,-0
0.64167,-0
0.65000,-0
0.65833,-1
0.66667,-1
0.67500,-2
0.68333,-2
0.69167,-2
0.70000,-2
0.70833,-3
0.71667,-2
0.72500,-2
0.73333,-2
0.74167,-2
0.75000,-2
0.75833,-2
0.76667,-2
0.77500,-2
0.78333,-2
0.79167,-2
0.80000,-2
0.80833,-2
0.81667,-2
0.82500,-2
0.83333,-2
0.84167,-2
0.85000,-1
0.85833,-2
0.86667,-2
0.87500,-2
0.88333,-2
0.89167,-2
0.90000,-2
0.90833,-2
0.91667,-2
0.92500,-2
0.93333,-2
0.94167,-2
0.95000,-2
0.95833,-2
0.96667,-2
0.97500,-2
0.98333,-2
0.99167,-2
1.00000,-2
1.00833,-2
1.01667,-2
1.02500,-2
1.03333,-2
1.04167,-2
1.05000,-2
1.05833,-2
1.06667,-2
1.07500,-2
1.08333,-2
1.09167,-3
1.10000,-3
1.10833,-3
1.11667,-2
1.12500,-2
1.13333,-2
1.14167,-2
1.15000,-2
1.15833,-2
1.16667,-2
1.17500,-2
1.18333,-2
1.19167,-2
1.20000,-2
1.20833,-2
1.21667,-2
1.22500,-2
1.23333,-2
1.24167,-2
1.25000,-2
1.25833,-2
1.26667,-2
1.27500,-2
1.28333,-2
1.29167,-2
1.30000,-3
1.30833,-3
1.31667,-3
1.32500,-3
1.33333,-3
1.34167,-3
1.35000,-3
1.35833,-3
1.36667,-3
1.37500,-3
1.38333,-3
1.39167,-2
1.40000,-3
1.40833,-3
1.41667,-3
1.42500,-3
1.43333,-3
1.44167,-3
1.45000,-2
1.45833,-2
1.46667,-2
1.47500,-2
1.48333,-2
1.49167,-2
1.50000,-2
1.50833,-2
1.51667,-2
1.52500,-3
1.53333,-3
1.54167,-3
1.55000,-3
1.55833,-3
1.56667,-3
1.57500,-3
1.58333,-3
1.59167,-3
1.60000,-3
1.60833,-3
1.61667,-3
1.62500,-2
1.63333,-2
1.64167,-2
1.65000,-2
1.65833,-2
1.66667,-3
1.67500,-3
1.68333,-3
1.69167,-3
1.70000,-3
1.70833,-3
1.71667,-3
1.72500,-3
1.73333,-3
1.74167,-3
1.75000,-3
1.75833,-3
1.76667,-3
1.77500,-3
1.78333,-3
1.79167,-3
1.80000,-3
1.80833,-4
1.81667,-4
1.82500,-4
1.83333,-4
1.84167,-4
1.85000,-3
1.85833,-3
1.86667,-3
1.87500,-4
1.88333,-4
1.89167,-4
1.90000,-4
1.90833,-4
1.91667,-4
1.92500,-4
1.93333,-4
1.94167,-4
1.95000,-3
1.95833,-4
1.96667,-3
1.97500,-3
1.98333,-4
1.99167,-4
2.00000,-4
2.00833,-4
2.01667,-4
2.02500,-4
2.03333,-4
2.04167,-4
2.05000,-5
2.05833,-5
2.06667,-5
2.07500,-5
2.08333,-4
2.09167,-4
2.10000,-4
2.10833,-4
2.11667,-4
2.12500,-4
2.13333,-4
2.14167,-4
2.15000,-4
2.15833,-5
2.16667,-5
2.17500,-5
2.18333,-5
2.19167,-4
2.20000,-5
2.20833,-5
2.21667,-5
2.22500,-5
2.23333,-5
2.24167,-5
2.25000,-5
2.25833,-5
2.26667,-5
2.27500,-4
2.28333,-4
2.29167,-4
2.30000,-4
2.30833,-4
2.31667,-4
2.32500,-4
2.33333,-4
2.34167,-4
2.35000,-4
2.35833,-4
2.36667,-5
2.37500,-5
2.38333,-4
2.39167,-4
2.40000,-4
2.40833,-4
2.41667,-4
2.42500,-4
2.43333,-4
2.44167,-4
2.45000,-4
2.45833,-4
2.46667,-4
2.47500,-4
2.48333,-4
2.49167,-4
2.50000,-4
2.50833,-4
2.51667,-4
2.52500,-4
2.53333,-4
2.54167,-4
2.55000,-4
2.55833,-3
2.56667,-3
2.57500,-3
2.58333,-3
2.59167,-3
2.60000,-3
2.60833,-3
2.61667,-3
2.62500,-3
2.63333,-4
2.64167,-4
2.65000,-4
2.65833,-4
2.66667,-4
2.67500,-4
2.68333,-4
2.69167,-4
2.70000,-4
2.70833,-5
2.71667,-5
2.72500,-5
2.73333,-4
2.74167,-4
2.75000,-4
2.75833,-3
2.76667,-3
2.77500,-4
2.78333,-4
2.79167,-4
2.80000,-4
2.80833,-5
2.81667,-5
2.82500,-5
2.83333,-4
2.84167,-4
2.85000,-4
2.85833,-4
2.86667,-4
2.87500,-3
2.88333,-4
2.89167,-4
2.90000,-4
2.90833,-4
2.91667,-4
2.92500,-4
2.93333,-4
2.94167,-4
2.95000,-4
2.95833,-4
2.96667,-3
2.97500,-3
2.98333,-3
2.99167,-3
3.00000,-3
3.00833,-3
3.01667,-4
3.02500,-4
3.03333,-5
3.04167,-4
3.05000,-4
3.05833,-4
3.06667,-5
3.07500,-5
3.08333,-5
3.09167,-5
3.10000,-5
3.10833,-5
3.11667,-5
3.12500,-5
3.13333,-5
3.14167,-4
3.15000,-4
3.15833,-3
3.16667,-3
3.17500,-3
3.18333,-3
3.19167,-3
3.20000,-3
3.20833,-3
3.21667,-3
3.22500,-3
3.23333,-3
3.24167,-3
3.25000,-3
3.25833,-3
3.26667,-3
3.27500,-3
3.28333,-3
3.29167,-3
3.30000,-3
3.30833,-4
3.31667,-4
3.32500,-4
3.33333,-3
3.34167,-3
3.35000,-3
3.35833,-4
3.36667,-4
3.37500,-4
3.38333,-4
3.39167,-4
3.40000,-4
3.40833,-4
3.41667,-3
3.42500,-3
3.43333,-3
3.44167,-3
3.45000,-3
3.45833,-3
3.46667,-3
3.47500,-4
3.48333,-4
3.49167,-4
3.50000,-4
3.50833,-4
3.51667,-4
3.52500,-4
3.53333,-4
3.54167,-4
3.55000,-4
3.55833,-4
3.56667,-4
3.57500,-3
3.58333,-3
3.59167,-4
3.60000,-4
3.60833,-4
3.61667,-4
3.62500,-4
3.63333,-4
3.64167,-4
3.65000,-4
3.65833,-5
3.66667,-5
3.67500,-5
3.68333,-5
3.69167,-5
3.70000,-5
3.70833,-4
3.71667,-4
3.72500,-5
3.73333,-5
3.74167,-4
3.75000,-4
3.75833,-4
3.76667,-4
3.77500,-4
3.78333,-4
3.79167,-3
3.80000,-3
3.80833,-3
3.81667,-3
3.82500,-3
3.83333,-4
3.84167,-4
3.85000,-4
3.85833,-4
3.86667,-4
3.87500,-4
3.88333,-4
3.89167,-5
3.90000,-5
3.90833,-5
3.91667,-5
3.92500,-5
3.93333,-5
3.94167,-5
3.95000,-5
3.95833,-5
3.96667,-4
3.97500,-4
3.98333,-4
3.99167,-5
4.00000,-5
4.00833,-5
4.01667,-6
4.02500,-6
4.03333,-6
4.04167,-5
4.05000,-5
4.05833,-6
4.06667,-6
4.07500,-6
4.08333,-6
4.09167,-6
4.10000,-5
4.10833,-5
4.11667,-6
4.12500,-6
4.13333,-6
4.14167,-5
4.15000,-5
4.15833,-5
4.16667,-4
4.17500,-4
4.18333,-4
4.19167,-5
4.20000,-5
4.20833,-5
4.21667,-5
4.22500,-5
4.23333,-5
4.24167,-5
4.25000,-5
4.25833,-5
4.26667,-4
4.27500,-4
4.28333,-4
4.29167,-4
4.30000,-5
4.30833,-5
4.31667,-6
4.32500,-6
4.33333,-6
4.34167,-6
4.35000,-6
4.35833,-5
4.36667,-5
4.37500,-6
4.38333,-6
4.39167,-5
4.40000,-5
4.40833,-5
4.41667,-5
4.42500,-5
4.43333,-5
4.44167,-5
4.45000,-5
4.45833,-5
4.46667,-5
4.47500,-5
4.48333,-5
4.49167,-5
4.50000,-5
4.50833,-5
4.51667,-5
4.52500,-4
4.53333,-4
4.54167,-4
4.55000,-4
4.55833,-4
4.56667,-4
4.57500,-4
4.58333,-4
4.59167,-4
4.60000,-4
4.60833,-4
4.61667,-4
4.62500,-4
4.63333,-4
4.64167,-4
4.65000,-3
4.65833,-4
4.66667,-4
4.67500,-4
4.68333,-4
4.69167,-4
4.70000,-4
4.70833,-4
4.71667,-4
4.72500,-4
4.73333,-4
4.74167,-4
4.75000,-4
4.75833,-4
4.76667,-4
4.77500,-4
4.78333,-4
4.79167,-3
4.80000,-4
4.80833,-4
4.81667,-3
4.82500,-3
4.83333,-3
4.84167,-3
4.85000,-3
4.85833,-3
4.86667,-3
4.87500,-4
4.88333,-4
4.89167,-4
4.90000,-4
4.90833,-5
4.91667,-5
4.92500,-5
4.93333,-5
4.94167,-5
4.95000,-5
4.95833,-5
4.96667,-5
4.97500,-4
4.98333,-4
4.99167,-3
5.00000,-3
5.00833,-4
5.01667,-4
5.02500,-4
5.03333,-4
5.04167,-5
5.05000,-4
5.05833,-4
5.06667,-4
5.07500,-5
5.08333,-5
5.09167,-5
5.10000,-5
5.10833,-4
5.11667,-4
5.12500,-5
5.13333,-5
5.14167,-5
5.15000,-5
5.15833,-5
5.16667,-4
5.17500,-4
5.18333,-5
5.19167,-5
5.20000,-5
5.20833,-5
5.21667,-5
5.22500,-5
5.23333,-5
5.24167,-5
5.25000,-5
5.25833,-6
5.26667,-6
5.27500,-6
5.28333,-6
5.29167,-6
5.30000,-6
5.30833,-5
5.31667,-5
5.32500,-5
5.33333,-5
5.34167,-5
5.35000,-6
5.35833,-6
5.36667,-6
5.37500,-6
5.38333,-6
5.39167,-6
5.40000,-6
5.40833,-6
5.41667,-6
5.42500,-7
5.43333,-6
5.44167,-6
5.45000,-7
5.45833,-7
5.46667,-7
5.47500,-6
5.48333,-6
5.49167,-6
5.50000,-6
5.50833,-6
5.51667,-6
5.52500,-5
5.53333,-5
5.54167,-5
5.55000,-5
5.55833,-5
5.56667,-5
5.57500,-6
5.58333,-6
5.59167,-6
5.60000,-6
5.60833,-6
5.61667,-6
5.62500,-6
5.63333,-6
5.64167,-6
5.65000,-6
5.65833,-6
5.66667,-6
5.67500,-6
5.68333,-6
5.69167,-6
5.70000,-6
5.70833,-6
5.71667,-6
5.72500,-6
5.73333,-6
5.74167,-6
5.75000,-6
5.75833,-5
5.76667,-5
5.77500,-5
5.78333,-5
5.79167,-5
5.80000,-6
5.80833,-6
5.81667,-6
5.82500,-6
5.83333,-6
5.84167,-6
5.85000,-6
5.85833,-5
5.86667,-5
5.87500,-5
5.88333,-6
5.89167,-6
5.90000,-6
5.90833,-7
5.91667,-7
5.92500,-7
5.93333,-6
5.94167,-6
5.95000,-6
5.95833,-6
5.96667,-6
5.97500,-7
5.98333,-6
5.99167,-6
6.00000,-6
6.00833,-6
6.01667,-6
6.02500,-6
6.03333,-6
6.04167,-6
6.05000,-6
6.05833,-6
6.06667,-6
6.07500,-5
6.08333,-5
6.09167,-5
6.10000,-5
6.10833,-5
6.11667,-5
6.12500,-6
6.13333,-6
6.14167,-6
6.15000,-6
6.15833,-7
6.16667,-7
6.17500,-7
6.18333,-7
6.19167,-6
6.20000,-6
6.20833,-6
6.21667,-6
6.22500,-6
6.23333,-6
6.24167,-6
6.25000,-6
6.25833,-6
6.26667,-6
6.27500,-6
6.28333,-6
6.29167,-6
6.30000,-6
6.30833,-6
6.31667,-6
6.32500,-6
6.33333,-6
6.34167,-7
6.35000,-6
6.35833,-7
6.36667,-7
6.37500,-7
6.38333,-6
6.39167,-6
6.40000,-6
6.40833,-6
6.41667,-6
6.42500,-6
6.43333,-6
6.44167,-6
6.45000,-6
6.45833,-6
6.46667,-6
6.47500,-6
6.48333,-7
6.49167,-7
6.50000,-7
6.50833,-7
6.51667,-6
6.52500,-7
6.53333,-7
6.54167,-7
6.55000,-7
6.55833,-7
6.56667,-7
6.57500,-7
6.58333,-6
6.59167,-6
6.60000,-6
6.60833,-6
6.61667,-6
6.62500,-6
6.63333,-6
6.64167,-6
6.65000,-6
6.65833,-6
6.66667,-6
6.67500,-6
6.68333,-7
6.69167,-7
6.70000,-7
6.70833,-7
6.71667,-7
6.72500,-6
6.73333,-6
6.74167,-6
6.75000,-6
6.75833,-6
6.76667,-6
6.77500,-6
6.78333,-6
6.79167,-6
6.80000,-6
6.80833,-6
6.81667,-6
6.82500,-6
6.83333,-7
6.84167,-7
6.85000,-7
6.85833,-7
6.86667,-6
6.87500,-6
6.88333,-6
6.89167,-6
6.90000,-5
6.90833,-5
6.91667,-5
6.92500,-5
6.93333,-5
6.94167,-5
6.95000,-6
6.95833,-5
6.96667,-5
6.97500,-5
6.98333,-6
6.99167,-6
7.00000,-6
7.00833,-6
7.01667,-6
7.02500,-7
7.03333,-7
7.04167,-7
7.05000,-7
7.05833,-6
7.06667,-6
7.07500,-6
7.08333,-6
7.09167,-6
7.10000,-6
7.10833,-6
7.11667,-6
7.12500,-6
7.13333,-6
7.14167,-6
7.15000,-6
7.15833,-6
7.16667,-6
7.17500,-6
7.18333,-7
7.19167,-7
7.20000,-7
7.20833,-7
7.21667,-7
7.22500,-7
7.23333,-6
7.24167,-6
7.25000,-6
7.25833,-5
7.26667,-5
7.27500,-6
7.28333,-6
7.29167,-6
7.30000,-6
7.30833,-6
7.31667,-6
7.32500,-6
7.33333,-6
7.34167,-6
7.35000,-7
7.35833,-7
7.36667,-6
7.37500,-6
7.38333,-6
7.39167,-6
7.40000,-6
7.40833,-6
7.41667,-6
7.42500,-6
7.43333,-6
7.44167,-6
7.45000,-6
7.45833,-6
7.46667,-6
7.47500,-6
7.48333,-6
7.49167,-6
7.50000,-6
7.50833,-5
7.51667,-5
7.52500,-5
7.53333,-5
7.54167,-5
7.55000,-6
7.55833,-6
7.56667,-6
7.57500,-6
7.58333,-6
7.59167,-6
7.60000,-6
7.60833,-6
7.61667,-6
7.62500,-6
7.63333,-6
7.64167,-6
7.65000,-6
7.65833,-7
7.66667,-7
7.67500,-7
7.68333,-6
7.69167,-6
7.70000,-6
7.70833,-6
7.71667,-6
7.72500,-6
7.73333,-6
7.74167,-6
7.75000,-6
7.75833,-6
7.76667,-6
7.77500,-6
7.78333,-7
7.79167,-7
7.80000,-7
7.80833,-6
7.81667,-7
7.82500,-7
7.83333,-7
7.84167,-7
7.85000,-7
7.85833,-7
7.86667,-7
7.87500,-7
7.88333,-7
7.89167,-7
7.90000,-7
7.90833,-7
7.91667,-7
7.92500,-7
7.93333,-7
7.94167,-7
7.95000,-7
7.95833,-7
7.96667,-7
7.97500,-7
7.98333,-6
7.99167,-6
8.00000,-7
8.00833,-7
8.01667,-7
8.02500,-7
8.03333,-7
8.04167,-7
8.05000,-7
8.05833,-6
8.06667,-6
8.07500,-6
8.08333,-6
8.09167,-6
8.10000,-7
8.10833,-7
8.11667,-7
8.12500,-7
8.13333,-7
8.14167,-7
8.15000,-6
8.15833,-6
8.16667,-6
8.17500,-6
8.18333,-6
8.19167,-6
8.20000,-6
8.20833,-6
8.21667,-6
8.22500,-6
8.23333,-6
8.24167,-6
8.25000,-6
8.25833,-7
8.26667,-7
8.27500,-6
8.28333,-6
8.29167,-6
8.30000,-6
8.30833,-6
8.31667,-6
8.32500,-6
8.33333,-6
8.34167,-7
8.35000,-7
8.35833,-7
8.36667,-7
8.37500,-7
8.38333,-7
8.39167,-7
8.40000,-7
8.40833,-7
8.41667,-6
8.42500,-6
8.43333,-7
8.44167,-6
8.45000,-6
8.45833,-6
8.46667,-6
8.47500,-6
8.48333,-6
8.49167,-6
8.50000,-6
8.50833,-6
8.51667,-6
8.52500,-6
8.53333,-6
8.54167,-6
8.55000,-6
8.55833,-6
8.56667,-6
8.57500,-6
8.58333,-6
8.59167,-6
8.60000,-6
8.60833,-6
8.61667,-7
8.62500,-7
8.63333,-7
8.64167,-7
8.65000,-7
8.65833,-8
8.66667,-7
8.67500,-7
8.68333,-7
8.69167,-6
8.70000,-6
8.70833,-6
8.71667,-6
8.72500,-6
8.73333,-6
8.74167,-6
8.75000,-7
8.75833,-7
8.76667,-7
8.77500,-7
8.78333,-7
8.79167,-8
8.80000,-8
8.80833,-7
8.81667,-7
8.82500,-7
8.83333,-7
8.84167,-7
8.85000,-7
8.85833,-7
8.86667,-7
8.87500,-7
8.88333,-7
8.89167,-7
8.90000,-7
8.90833,-7
8.91667,-7
8.92500,-7
8.93333,-7
8.94167,-7
8.95000,-7
8.95833,-7
8.96667,-7
8.97500,-7
8.98333,-6
8.99167,-6
9.00000,-6
9.00833,-6
9.01667,-6
9.02500,-6
9.03333,-6
9.04167,-7
9.05000,-7
9.05833,-6
9.06667,-6
9.07500,-6
9.08333,-6
9.09167,-6
9.10000,-6
9.10833,-6
9.11667,-7
9.12500,-7
9.13333,-7
9.14167,-7
9.15000,-7
9.15833,-7
9.16667,-7
9.17500,-7
9.18333,-7
9.19167,-7
9.20000,-7
9.20833,-7
9.21667,-7
9.22500,-7
9.23333,-7
9.24167,-8
9.25000,-8
9.25833,-7
9.26667,-7
9.27500,-7
9.28333,-7
9.29167,-7
9.30000,-7
9.30833,-7
9.31667,-7
9.32500,-7
9.33333,-7
9.34167,-7
9.35000,-7
9.35833,-7
9.36667,-7
9.37500,-7
9.38333,-7
9.39167,-7
9.40000,-7
9.40833,-7
9.41667,-7
9.42500,-7
9.43333,-7
9.44167,-7
9.45000,-7
9.45833,-7
9.46667,-7
9.47500,-7
9.48333,-7
9.49167,-7
9.50000,-8
9.50833,-8
9.51667,-8
9.52500,-8
9.53333,-8
9.54167,-7
9.55000,-7
9.55833,-7
9.56667,-7
9.57500,-7
9.58333,-7
9.59167,-7
9.60000,-7
9.60833,-7
9.61667,-7
9.62500,-7
9.63333,-7
9.64167,-7
9.65000,-7
9.65833,-7
9.66667,-8
9.67500,-8
9.68333,-8
9.69167,-8
9.70000,-8
9.70833,-8
9.71667,-8
9.72500,-8
9.73333,-8
9.74167,-8
9.75000,-8
9.75833,-8
9.76667,-8
9.77500,-7
9.78333,-7
9.79167,-7
9.80000,-7
9.80833,-7
9.81667,-7
9.82500,-8
9.83333,-8
9.84167,-8
9.85000,-8
9.85833,-8
9.86667,-8
9.87500,-8
9.88333,-8
9.89167,-8
9.90000,-8
9.90833,-8
9.91667,-8
9.92500,-7
9.93333,-7
9.94167,-8
9.95000,-8
9.95833,-8
9.96667,-8
9.97500,-8
9.98333,-7
9.99167,-7
10.00000,-7
10.00833,-7
10.01667,-7
10.02500,-8
10.03333,-8
10.04167,-8
10.05000,-8
10.05833,-8
10.06667,-8
10.07500,-8
10.08333,-8
10.09167,-8
10.10000,-8
10.10833,-7
10.11667,-7
10.12500,-7
10.13333,-7
10.14167,-7
10.15000,-6
10.15833,-6
10.16667,-6
10.17500,-7
10.18333,-7
10.19167,-7
10.20000,-7
10.20833,-7
10.21667,-7
10.22500,-7
10.23333,-7
10.24167,-7
10.25000,-7
10.25833,-7
10.26667,-7
10.27500,-6
10.28333,-6
10.29167,-6
10.30000,-6
10.30833,-7
10.31667,-7
10.32500,-7
10.33333,-7
10.34167,-6
10.35000,-6
10.35833,-6
10.36667,-6
10.37500,-6
10.38333,-6
10.39167,-6
10.40000,-5
10.40833,-5
10.41667,-5
10.42500,-4
10.43333,-4
10.44167,-4
10.45000,-3
10.45833,-3
10.46667,-3
10.47500,-3
10.48333,-3
10.49167,-3
10.50000,-4
10.50833,-6
10.51667,-8
10.52500,-12
10.53333,-18
10.54167,-27
10.55000,-38
10.55833,-54
10.56667,-76
10.57500,-105
10.58333,-142
10.59167,-190
10.60000,-251
10.60833,-326
10.61667,-418
10.62500,-529
10.63333,-661
10.64167,-815
10.65000,-992
10.65833,-1192
10.66667,-1415
10.67500,-1656
10.68333,-1915
10.69167,-2184
10.70000,-2459
10.70833,-2732
10.71667,-2994
10.72500,-3233
10.73333,-3439
10.74167,-3600
10.75000,-3703
10.75833,-3734
10.76667,-3680
10.77500,-3528
10.78333,-3265
10.79167,-2879
10.80000,-2359
10.80833,-1696
10.81667,-880
10.82500,96
10.83333,1236
10.84167,2547
10.85000,4031
10.85833,5690
10.86667,7522
10.87500,9527
10.88333,11702
10.89167,14042
10.90000,16539
10.90833,19186
10.91667,21972
10.92500,24885
10.93333,27910
10.94167,31029
10.95000,34220
10.95833,37459
10.96667,40716
10.97500,43959
10.98333,47149
10.99167,50244
11.00000,53198
11.00833,55960
11.01667,58479
11.02500,60702
11.03333,62578
11.04167,64063
11.05000,65116
11.05833,65707
11.06667,65818
11.07500,65443
11.08333,64590
11.09167,63279
11.10000,61545
11.10833,59432
11.11667,56993
11.12500,54285
11.13333,51372
11.14167,48313
11.15000,45170
11.15833,41996
11.16667,38842
11.17500,35750
11.18333,32756
11.19167,29888
11.20000,27168
11.20833,24611
11.21667,22226
11.22500,20016
11.23333,17981
11.24167,16119
11.25000,14423
11.25833,12885
11.26667,11497
11.27500,10248
11.28333,9129
11.29167,8128
11.30000,7235
11.30833,6441
11.31667,5736
11.32500,5110
11.33333,4557
11.34167,4068
11.35000,3636
11.35833,3254
11.36667,2918
11.37500,2622
11.38333,2362
11.39167,2132
11.40000,1929
11.40833,1751
11.41667,1593
11.42500,1454
11.43333,1331
11.44167,1222
11.45000,1126
11.45833,1040
11.46667,963
11.47500,895
11.48333,834
11.49167,779
11.50000,731
11.50833,687
11.51667,647
11.52500,611
11.53333,579
11.54167,549
11.55000,522
11.55833,497
11.56667,474
11.57500,453
11.58333,434
11.59167,416
11.60000,400
11.60833,385
11.61667,371
11.62500,357
11.63333,345
11.64167,334
11.65000,323
11.65833,313
11.66667,303
11.67500,294
11.68333,286
11.69167,278
11.70000,271
11.70833,263
11.71667,256
11.72500,250
11.73333,243
11.74167,237
11.75000,232
11.75833,226
11.76667,221
11.77500,217
11.78333,212
11.79167,209
11.80000,205
11.80833,201
11.81667,197
11.82500,193
11.83333,190
11.84167,186
11.85000,183
11.85833,180
11.86667,178
11.87500,175
11.88333,173
11.89167,170
11.90000,168
11.90833,166
11.91667,163
11.92500,161
11.93333,159
11.94167,157
11.95000,155
11.95833,154
11.96667,152
11.97500,151
11.98333,150
11.99167,148
12.00000,147
12.00833,146
12.01667,144
12.02500,143
12.03333,142
12.04167,141
12.05000,140
12.05833,139
12.06667,138
12.07500,137
12.08333,136
12.09167,135
12.10000,135
12.10833,133
12.11667,132
12.12500,131
12.13333,131
12.14167,130
12.15000,129
12.15833,128
12.16667,127
12.17500,126
12.18333,126
12.19167,125
12.20000,124
12.20833,123
12.21667,121
12.22500,120
12.23333,119
12.24167,118
12.25000,118
12.25833,117
12.26667,117
12.27500,116
12.28333,116
12.29167,115
12.30000,113
12.30833,112
12.31667,112
12.32500,111
12.33333,111
12.34167,110
12.35000,110
12.35833,109
12.36667,108
12.37500,108
12.38333,107
12.39167,106
12.40000,106
12.40833,105
12.41667,105
12.42500,104
12.43333,104
12.44167,103
12.45000,102
12.45833,101
12.46667,101
12.47500,100
12.48333,99
12.49167,98
12.50000,97
12.50833,96
12.51667,96
12.52500,95
12.53333,95
12.54167,94
12.55000,93
12.55833,92
12.56667,92
12.57500,91
12.58333,91
12.59167,90
12.60000,89
12.60833,89
12.61667,88
12.62500,87
12.63333,86
12.64167,85
12.65000,84
12.65833,83
12.66667,82
12.67500,82
12.68333,81
12.69167,80
12.70000,80
12.70833,79
12.71667,78
12.72500,77
12.73333,76
12.74167,76
12.75000,75
12.75833,74
12.76667,74
12.77500,73
12.78333,72
12.79167,71
12.80000,71
12.80833,70
12.81667,70
12.82500,69
12.83333,68
12.84167,67
12.85000,67
12.85833,66
12.86667,66
12.87500,65
12.88333,65
12.89167,64
12.90000,63
12.90833,63
12.91667,63
12.92500,62
12.93333,62
12.94167,62
12.95000,61
12.95833,61
12.96667,60
12.97500,59
12.98333,59
12.99167,58
13.00000,58
13.00833,58
13.01667,58
13.02500,58
13.03333,58
13.04167,57
13.05000,57
13.05833,57
13.06667,57
13.07500,56
13.08333,56
13.09167,56
13.10000,55
13.10833,55
13.11667,55
13.12500,55
13.13333,54
13.14167,54
13.15000,54
13.15833,53
13.16667,53
13.17500,53
13.18333,52
13.19167,52
13.20000,51
13.20833,51
13.21667,51
13.22500,51
13.23333,51
13.24167,51
13.25000,51
13.25833,50
13.26667,50
13.27500,49
13.28333,49
13.29167,48
13.30000,48
13.30833,48
13.31667,47
13.32500,47
13.33333,47
13.34167,46
13.35000,46
13.35833,46
13.36667,46
13.37500,46
13.38333,46
13.39167,46
13.40000,46
13.40833,45
13.41667,44
13.42500,44
13.43333,44
13.44167,43
13.45000,43
13.45833,43
13.46667,42
13.47500,41
13.48333,41
13.49167,40
13.50000,40
13.50833,40
13.51667,39
13.52500,39
13.53333,38
13.54167,38
13.55000,38
13.55833,38
13.56667,38
13.57500,38
13.58333,37
13.59167,37
13.60000,37
13.60833,37
13.61667,37
13.62500,37
13.63333,36
13.64167,36
13.65000,35
13.65833,35
13.66667,35
13.67500,34
13.68333,34
13.69167,34
13.70000,34
13.70833,34
13.71667,33
13.72500,33
13.73333,33
13.74167,33
13.75000,33
13.75833,32
13.76667,32
13.77500,32
13.78333,32
13.79167,32
13.80000,32
13.80833,32
13.81667,32
13.82500,32
13.83333,32
13.84167,32
13.85000,32
13.85833,32
13.86667,32
13.87500,32
13.88333,32
13.89167,32
13.90000,32
13.90833,32
13.91667,32
13.92500,32
13.93333,33
13.94167,33
13.95000,32
13.95833,32
13.96667,32
13.97500,32
13.98333,33
13.99167,33
14.00000,34
14.00833,34
14.01667,34
14.02500,34
14.03333,34
14.04167,34
14.05000,35
14.05833,35
14.06667,36
14.07500,36
14.08333,37
14.09167,37
14.10000,38
14.10833,39
14.11667,39
14.12500,40
14.13333,41
14.14167,42
14.15000,43
14.15833,45
14.16667,48
14.17500,50
14.18333,53
14.19167,57
14.20000,61
14.20833,66
14.21667,72
14.22500,80
14.23333,89
14.24167,100
14.25000,113
14.25833,128
14.26667,147
14.27500,169
14.28333,196
14.29167,228
14.30000,266
14.30833,311
14.31667,365
14.32500,428
14.33333,503
14.34167,589
14.35000,689
14.35833,804
14.36667,937
14.37500,1089
14.38333,1261
14.39167,1455
14.40000,1674
14.40833,1917
14.41667,2188
14.42500,2487
14.43333,2816
14.44167,3176
14.45000,3569
14.45833,3996
14.46667,4457
14.47500,4953
14.48333,5485
14.49167,6053
14.50000,6658
14.50833,7300
14.51667,7978
14.52500,8693
14.53333,9445
14.54167,10233
14.55000,11058
14.55833,11918
14.56667,12813
14.57500,13743
14.58333,14707
14.59167,15705
14.60000,16736
14.60833,17800
14.61667,18896
14.62500,20023
14.63333,21180
14.64167,22368
14.65000,23585
14.65833,24832
14.66667,26107
14.67500,27410
14.68333,28740
14.69167,30097
14.70000,31480
14.70833,32890
14.71667,34325
14.72500,35785
14.73333,37270
14.74167,38779
14.75000,40313
14.75833,41871
14.76667,43452
14.77500,45057
14.78333,46685
14.79167,48336
14.80000,50009
14.80833,51706
14.81667,53424
14.82500,55165
14.83333,56928
14.84167,58713
14.85000,60519
14.85833,62347
14.86667,64195
14.87500,66065
14.88333,67955
14.89167,69865
14.90000,71794
14.90833,73744
14.91667,75712
14.92500,77698
14.93333,79703
14.94167,81725
14.95000,83763
14.95833,85817
14.96667,87885
14.97500,89966
14.98333,92058
14.99167,94159
15.00000,96264
15.00833,98371
15.01667,100473
15.02500,102562
15.03333,104628
15.04167,106653
15.05000,108617
15.05833,110491
15.06667,112240
15.07500,113819
15.08333,115176
15.09167,116253
15.10000,116987
15.10833,117313
15.11667,117171
15.12500,116504
15.13333,115271
15.14167,113442
15.15000,111007
15.15833,107978
15.16667,104385
15.17500,100279
15.18333,95727
15.19167,90810
15.20000,85615
15.20833,80238
15.21667,74771
15.22500,69302
15.23333,63913
15.24167,58674
15.25000,53643
15.25833,48866
15.26667,44377
15.27500,40196
15.28333,36334
15.29167,32793
15.30000,29567
15.30833,26644
15.31667,24010
15.32500,21646
15.33333,19531
15.34167,17645
15.35000,15967
15.35833,14476
15.36667,13154
15.37500,11983
15.38333,10947
15.39167,10031
15.40000,9222
15.40833,8507
15.41667,7876
15.42500,7319
15.43333,6829
15.44167,6396
15.45000,6016
15.45833,5682
15.46667,5388
15.47500,5130
15.48333,4904
15.49167,4707
15.50000,4534
15.50833,4384
15.51667,4253
15.52500,4139
15.53333,4039
15.54167,3952
15.55000,3875
15.55833,3807
15.56667,3746
15.57500,3691
15.58333,3640
15.59167,3593
15.60000,3548
15.60833,3505
15.61667,3463
15.62500,3420
15.63333,3375
15.64167,3330
15.65000,3283
15.65833,3235
15.66667,3184
15.67500,3130
15.68333,3074
15.69167,3015
15.70000,2953
15.70833,2889
15.71667,2823
15.72500,2754
15.73333,2683
15.74167,2611
15.75000,2537
15.75833,2463
15.76667,2387
15.77500,2311
15.78333,2234
15.79167,2157
15.80000,2081
15.80833,2005
15.81667,1930
15.82500,1855
15.83333,1783
15.84167,1712
15.85000,1642
15.85833,1575
15.86667,1509
15.87500,1445
15.88333,1383
15.89167,1323
15.90000,1266
15.90833,1211
15.91667,1159
15.92500,1109
15.93333,1062
15.94167,1018
15.95000,976
15.95833,936
15.96667,898
15.97500,862
15.98333,828
15.99167,796
16.00000,766
16.00833,738
16.01667,712
16.02500,688
16.03333,665
16.04167,643
16.05000,623
16.05833,604
16.06667,586
16.07500,569
16.08333,554
16.09167,540
16.10000,527
16.10833,515
16.11667,503
16.12500,493
16.13333,483
16.14167,473
16.15000,465
16.15833,456
16.16667,448
16.17500,441
16.18333,434
16.19167,428
16.20000,421
16.20833,415
16.21667,410
16.22500,405
16.23333,400
16.24167,395
16.25000,391
16.25833,387
16.26667,382
16.27500,378
16.28333,374
16.29167,370
16.30000,367
16.30833,363
16.31667,360
16.32500,356
16.33333,353
16.34167,349
16.35000,346
16.35833,343
16.36667,340
16.37500,337
16.38333,334
16.39167,331
16.40000,329
16.40833,326
16.41667,323
16.42500,321
16.43333,318
16.44167,315
16.45000,312
16.45833,310
16.46667,307
16.47500,305
16.48333,302
16.49167,300
16.50000,298
16.50833,296
16.51667,294
16.52500,292
16.53333,289
16.54167,287
16.55000,285
16.55833,283
16.56667,281
16.57500,279
16.58333,277
16.59167,275
16.60000,273
16.60833,271
16.61667,269
16.62500,267
16.63333,266
16.64167,264
16.65000,262
16.65833,261
16.66667,259
16.67500,257
16.68333,256
16.69167,254
16.70000,252
16.70833,251
16.71667,249
16.72500,248
16.73333,246
16.74167,244
16.75000,243
16.75833,241
16.76667,240
16.77500,239
16.78333,238
16.79167,236
16.80000,234
16.80833,233
16.81667,232
16.82500,230
16.83333,229
16.84167,228
16.85000,226
16.85833,225
16.86667,224
16.87500,222
16.88333,221
16.89167,220
16.90000,218
16.90833,217
16.91667,216
16.92500,215
16.93333,214
16.94167,213
16.95000,212
16.95833,211
16.96667,209
16.97500,208
16.98333,207
16.99167,206
17.00000,205
17.00833,204
17.01667,202
17.02500,201
17.03333,200
17.04167,199
17.05000,198
17.05833,197
17.06667,196
17.07500,195
17.08333,194
17.09167,193
17.10000,192
17.10833,191
17.11667,190
17.12500,189
17.13333,188
17.14167,187
17.15000,186
17.15833,184
17.16667,183
17.17500,182
17.18333,181
17.19167,180
17.20000,179
17.20833,178
17.21667,178
17.22500,177
17.23333,176
17.24167,176
17.25000,175
17.25833,174
17.26667,173
17.27500,172
17.28333,171
17.29167,169
17.30000,168
17.30833,167
17.31667,166
17.32500,165
17.33333,164
17.34167,163
17.35000,163
17.35833,162
17.36667,161
17.37500,160
17.38333,159
17.39167,158
17.40000,156
17.40833,155
17.41667,154
17.42500,153
17.43333,151
17.44167,150
17.45000,149
17.45833,149
17.46667,149
17.47500,148
17.48333,147
17.49167,146
17.50000,145
17.50833,145
17.51667,144
17.52500,143
17.53333,142
17.54167,142
17.55000,141
17.55833,140
17.56667,139
17.57500,138
17.58333,137
17.59167,136
17.60000,135
17.60833,134
17.61667,133
17.62500,133
17.63333,132
17.64167,131
17.65000,130
17.65833,129
17.66667,128
17.67500,128
17.68333,127
17.69167,126
17.70000,126
17.70833,125
17.71667,124
17.72500,124
17.73333,123
17.74167,123
17.75000,122
17.75833,121
17.76667,120
17.77500,119
17.78333,118
17.79167,117
17.80000,116
17.80833,115
17.81667,114
17.82500,114
17.83333,113
17.84167,113
17.85000,113
17.85833,112
17.86667,111
17.87500,110
17.88333,109
17.89167,109
17.90000,108
17.90833,107
17.91667,106
17.92500,106
17.93333,105
17.94167,105
17.95000,104
17.95833,103
17.96667,102
17.97500,101
17.98333,101
17.99167,100
18.00000,99
18.00833,99
18.01667,98
18.02500,97
18.03333,97
18.04167,97
18.05000,96
18.05833,95
18.06667,94
18.07500,94
18.08333,93
18.09167,92
18.10000,91
18.10833,91
18.11667,90
18.12500,89
18.13333,89
18.14167,89
18.15000,89
18.15833,88
18.16667,88
18.17500,87
18.18333,86
18.19167,86
18.20000,86
18.20833,85
18.21667,85
18.22500,84
18.23333,84
18.24167,83
18.25000,83
18.25833,82
18.26667,82
18.27500,81
18.28333,81
18.29167,80
18.30000,79
18.30833,79
18.31667,78
18.32500,78
18.33333,77
18.34167,77
18.35000,76
18.35833,76
18.36667,75
18.37500,75
18.38333,74
18.39167,73
18.40000,73
18.40833,73
18.41667,72
18.42500,72
18.43333,71
18.44167,71
18.45000,71
18.45833,70
18.46667,70
18.47500,69
18.48333,69
18.49167,69
18.50000,68
18.50833,68
18.51667,67
18.52500,67
18.53333,67
18.54167,66
18.55000,66
18.55833,65
18.56667,65
18.57500,65
18.58333,64
18.59167,64
18.60000,63
18.60833,63
18.61667,62
18.62500,62
18.63333,61
18.64167,61
18.65000,61
18.65833,61
18.66667,61
18.67500,60
18.68333,60
18.69167,60
18.70000,60
18.70833,60
18.71667,60
18.72500,60
18.73333,60
18.74167,60
18.75000,60
18.75833,60
18.76667,60
18.77500,60
18.78333,61
18.79167,61
18.80000,62
18.80833,62
18.81667,62
18.82500,63
18.83333,64
18.84167,64
18.85000,64
18.85833,65
18.86667,66
18.87500,67
18.88333,68
18.89167,69
18.90000,69
18.90833,70
18.91667,70
18.92500,70
18.93333,71
18.94167,71
18.95000,71
18.95833,72
18.96667,72
18.97500,72
18.98333,73
18.99167,73
19.00000,73
19.00833,73
19.01667,73
19.02500,73
19.03333,73
19.04167,72
19.05000,71
19.05833,71
19.06667,71
19.07500,70
19.08333,70
19.09167,70
19.10000,69
19.10833,68
19.11667,67
19.12500,66
19.13333,65
19.14167,64
19.15000,63
19.15833,63
19.16667,61
19.17500,60
19.18333,59
19.19167,58
19.20000,57
19.20833,56
19.21667,55
19.22500,54
19.23333,52
19.24167,51
19.25000,50
19.25833,49
19.26667,49
19.27500,48
19.28333,48
19.29167,47
19.30000,46
19.30833,45
19.31667,44
19.32500,43
19.33333,43
19.34167,42
19.35000,42
19.35833,41
19.36667,40
19.37500,40
19.38333,39
19.39167,38
19.40000,38
19.40833,37
19.41667,37
19.42500,37
19.43333,36
19.44167,36
19.45000,35
19.45833,35
19.46667,35
19.47500,34
19.48333,34
19.49167,34
19.50000,34
19.50833,33
19.51667,32
19.52500,32
19.53333,31
19.54167,31
19.55000,31
19.55833,31
19.56667,31
19.57500,31
19.58333,31
19.59167,30
19.60000,30
19.60833,30
19.61667,30
19.62500,30
19.63333,30
19.64167,30
19.65000,30
19.65833,30
19.66667,30
19.67500,29
19.68333,29
19.69167,28
19.70000,28
19.70833,28
19.71667,28
19.72500,28
19.73333,28
19.74167,28
19.75000,27
19.75833,27
19.76667,26
19.77500,27
19.78333,27
19.79167,27
19.80000,27
19.80833,27
19.81667,26
19.82500,26
19.83333,26
19.84167,25
19.85000,25
19.85833,25
19.86667,25
19.87500,25
19.88333,25
19.89167,25
19.90000,24
19.90833,24
19.91667,24
19.92500,24
19.93333,24
19.94167,24
19.95000,24
19.95833,24
19.96667,24
19.97500,24
19.98333,23
19.99167,23
20.00000,22
20.00833,22
20.01667,21
20.02500,21
20.03333,21
20.04167,21
20.05000,21
20.05833,21
20.06667,21
20.07500,21
20.08333,21
20.09167,21
20.10000,20
20.10833,20
20.11667,20
20.12500,20
20.13333,19
20.14167,19
20.15000,19
20.15833,19
20.16667,19
20.17500,19
20.18333,19
20.19167,19
20.20000,19
20.20833,19
20.21667,19
20.22500,19
20.23333,19
20.24167,18
20.25000,18
20.25833,17
20.26667,17
20.27500,18
20.28333,18
20.29167,18
20.30000,18
20.30833,18
20.31667,18
20.32500,17
20.33333,17
20.34167,17
20.35000,16
20.35833,16
20.36667,16
20.37500,16
20.38333,16
20.39167,16
20.40000,16
20.40833,16
20.41667,16
20.42500,16
20.43333,15
20.44167,15
20.45000,15
20.45833,15
20.46667,15
20.47500,15
20.48333,15
20.49167,15
20.50000,15
20.50833,15
20.51667,15
20.52500,15
20.53333,15
20.54167,14
20.55000,14
20.55833,14
20.56667,13
20.57500,13
20.58333,13
20.59167,13
20.60000,13
20.60833,13
20.61667,13
20.62500,13
20.63333,13
20.64167,12
20.65000,12
20.65833,13
20.66667,13
20.67500,14
20.68333,14
20.69167,13
20.70000,13
20.70833,12
20.71667,12
20.72500,12
20.73333,12
20.74167,11
20.75000,11
20.75833,11
20.76667,12
20.77500,12
20.78333,12
20.79167,12
20.80000,12
20.80833,12
20.81667,12
20.82500,12
20.83333,11
20.84167,11
20.85000,11
20.85833,11
20.86667,11
20.87500,11
20.88333,11
20.89167,11
20.90000,10
20.90833,10
20.91667,10
20.92500,10
20.93333,10
20.94167,10
20.95000,10
20.95833,10
20.96667,10
20.97500,10
20.98333,10
20.99167,9
21.00000,9
21.00833,9
21.01667,9
21.02500,9
21.03333,9
21.04167,9
21.05000,9
21.05833,9
21.06667,8
21.07500,8
21.08333,8
21.09167,8
21.10000,8
21.10833,8
21.11667,8
21.12500,8
21.13333,7
21.14167,7
21.15000,7
21.15833,8
21.16667,8
21.17500,8
21.18333,7
21.19167,7
21.20000,7
21.20833,7
21.21667,7
21.22500,7
21.23333,7
21.24167,7
21.25000,7
21.25833,7
21.26667,7
21.27500,7
21.28333,7
21.29167,7
21.30000,6
21.30833,6
21.31667,5
21.32500,5
21.33333,6
21.34167,6
21.35000,6
21.35833,6
21.36667,6
21.37500,6
21.38333,6
21.39167,6
21.40000,6
21.40833,6
21.41667,6
21.42500,6
21.43333,6
21.44167,6
21.45000,6
21.45833,6
21.46667,7
21.47500,7
21.48333,8
21.49167,8
21.50000,8
21.50833,8
21.51667,9
21.52500,9
21.53333,10
21.54167,10
21.55000,11
21.55833,11
21.56667,12
21.57500,13
21.58333,14
21.59167,15
21.60000,17
21.60833,18
21.61667,20
21.62500,21
21.63333,23
21.64167,26
21.65000,29
21.65833,32
21.66667,36
21.67500,39
21.68333,43
21.69167,47
21.70000,51
21.70833,56
21.71667,62
21.72500,68
21.73333,75
21.74167,82
21.75000,90
21.75833,99
21.76667,107
21.77500,117
21.78333,127
21.79167,138
21.80000,149
21.80833,161
21.81667,174
21.82500,187
21.83333,201
21.84167,215
21.85000,230
21.85833,244
21.86667,260
21.87500,276
21.88333,292
21.89167,308
21.90000,324
21.90833,341
21.91667,358
21.92500,374
21.93333,390
21.94167,405
21.95000,420
21.95833,434
21.96667,448
21.97500,461
21.98333,473
21.99167,485
22.00000,496
22.00833,506
22.01667,514
22.02500,522
22.03333,528
22.04167,533
22.05000,537
22.05833,540
22.06667,541
22.07500,542
22.08333,541
22.09167,539
22.10000,536
22.10833,531
22.11667,525
22.12500,519
22.13333,511
22.14167,502
22.15000,492
22.15833,482
22.16667,471
22.17500,460
22.18333,448
22.19167,435
22.20000,423
22.20833,409
22.21667,395
22.22500,381
22.23333,367
22.24167,353
22.25000,339
22.25833,325
22.26667,310
22.27500,296
22.28333,282
22.29167,268
22.30000,254
22.30833,241
22.31667,229
22.32500,216
22.33333,204
22.34167,192
22.35000,181
22.35833,171
22.36667,160
22.37500,150
22.38333,141
22.39167,132
22.40000,123
22.40833,114
22.41667,106
22.42500,99
22.43333,92
22.44167,86
22.45000,80
22.45833,74
22.46667,69
22.47500,64
22.48333,59
22.49167,55
22.50000,51
22.50833,47
22.51667,43
22.52500,40
22.53333,37
22.54167,35
22.55000,32
22.55833,30
22.56667,28
22.57500,26
22.58333,25
22.59167,23
22.60000,21
22.60833,19
22.61667,18
22.62500,17
22.63333,16
22.64167,15
22.65000,14
22.65833,14
22.66667,13
22.67500,12
22.68333,11
22.69167,11
22.70000,10
22.70833,9
22.71667,9
22.72500,8
22.73333,8
22.74167,7
22.75000,7
22.75833,7
22.76667,7
22.77500,7
22.78333,7
22.79167,7
22.80000,6
22.80833,6
22.81667,6
22.82500,6
22.83333,5
22.84167,5
22.85000,5
22.85833,5
22.86667,5
22.87500,5
22.88333,5
22.89167,5
22.90000,5
22.90833,4
22.91667,4
22.92500,4
22.93333,4
22.94167,3
22.95000,3
22.95833,3
22.96667,3
22.97500,3
22.98333,3
22.99167,3
23.00000,3
23.00833,3
23.01667,3
23.02500,3
23.03333,2
23.04167,2
23.05000,2
23.05833,3
23.06667,3
23.07500,3
23.08333,3
23.09167,3
23.10000,3
23.10833,2
23.11667,2
23.12500,2
23.13333,2
23.14167,2
23.15000,2
23.15833,2
23.16667,2
23.17500,2
23.18333,2
23.19167,2
23.20000,2
23.20833,2
23.21667,2
23.22500,2
23.23333,2
23.24167,1
23.25000,1
23.25833,1
23.26667,1
23.27500,1
23.28333,1
23.29167,1
23.30000,0
23.30833,0
23.31667,0
23.32500,0
23.33333,0
23.34167,0
23.35000,0
23.35833,-0
23.36667,0
23.37500,0
23.38333,0
23.39167,0
23.40000,0
23.40833,0
23.41667,-0
23.42500,-0
23.43333,-1
23.44167,-1
23.45000,-1
23.45833,-1
23.46667,-1
23.47500,-1
23.48333,-0
23.49167,-0
23.50000,-1
23.50833,-1
23.51667,-1
23.52500,-1
23.53333,-1
23.54167,-1
23.55000,-1
23.55833,-1
23.56667,-1
23.57500,-1
23.58333,-1
23.59167,-1
23.60000,-2
23.60833,-2
23.61667,-1
23.62500,-1
23.63333,-1
23.64167,-1
23.65000,-1
23.65833,-1
23.66667,-1
23.67500,-1
23.68333,-1
23.69167,-2
23.70000,-2
23.70833,-2
23.71667,-2
23.72500,-2
23.73333,-2
23.74167,-2
23.75000,-1
23.75833,-1
23.76667,-1
23.77500,-1
23.78333,-1
23.79167,-1
23.80000,-1
23.80833,-2
23.81667,-2
23.82500,-2
23.83333,-2
23.84167,-2
23.85000,-2
23.85833,-2
23.86667,-2
23.87500,-2
23.88333,-2
23.89167,-2
23.90000,-2
23.90833,-2
23.91667,-2
23.92500,-3
23.93333,-3
23.94167,-3
23.95000,-3
23.95833,-3
23.96667,-3
23.97500,-3
23.98333,-3
23.99167,-3
24.00000,-3
24.00833,-3
24.01667,-3
24.02500,-3
24.03333,-3
24.04167,-3
24.05000,-3
24.05833,-3
24.06667,-3
24.07500,-3
24.08333,-4
24.09167,-4
24.10000,-4
24.10833,-3
24.11667,-3
24.12500,-3
24.13333,-3
24.14167,-3
24.15000,-3
24.15833,-3
24.16667,-4
24.17500,-4
24.18333,-4
24.19167,-4
24.20000,-3
24.20833,-3
24.21667,-3
24.22500,-3
24.23333,-3
24.24167,-3
24.25000,-3
24.25833,-3
24.26667,-2
24.27500,-2
24.28333,-2
24.29167,-2
24.30000,-3
24.30833,-2
24.31667,-2
24.32500,-2
24.33333,-2
24.34167,-2
24.35000,-2
24.35833,-2
24.36667,-2
24.37500,-2
24.38333,-3
24.39167,-3
24.40000,-2
24.40833,-2
24.41667,-2
24.42500,-2
24.43333,-1
24.44167,-1
24.45000,-1
24.45833,-1
24.46667,-0
24.47500,-0
24.48333,-0
24.49167,-0
24.50000,0
24.50833,0
24.51667,0
24.52500,1
24.53333,1
24.54167,2
24.55000,3
24.55833,3
24.56667,3
24.57500,4
24.58333,4
24.59167,5
24.60000,6
24.60833,8
24.61667,9
24.62500,10
24.63333,11
24.64167,12
24.65000,14
24.65833,15
24.66667,17
24.67500,19
24.68333,22
24.69167,24
24.70000,26
24.70833,29
24.71667,31
24.72500,34
24.73333,37
24.74167,40
24.75000,44
24.75833,47
24.76667,52
24.77500,56
24.78333,60
24.79167,65
24.80000,69
24.80833,74
24.81667,79
24.82500,84
24.83333,90
24.84167,95
24.85000,100
24.85833,105
24.86667,111
24.87500,116
24.88333,122
24.89167,128
24.90000,134
24.90833,139
24.91667,145
24.92500,151
24.93333,156
24.94167,161
24.95000,166
24.95833,171
24.96667,176
24.97500,180
24.98333,185
24.99167,189
25.00000,193
25.00833,197
25.01667,200
25.02500,202
25.03333,204
25.04167,206
25.05000,208
25.05833,209
25.06667,210
25.07500,210
25.08333,209
25.09167,208
25.10000,207
25.10833,205
25.11667,203
25.12500,201
25.13333,199
25.14167,196
25.15000,193
25.15833,190
25.16667,186
25.17500,182
25.18333,178
25.19167,174
25.20000,169
25.20833,164
25.21667,159
25.22500,155
25.23333,150
25.24167,145
25.25000,140
25.25833,135
25.26667,130
25.27500,124
25.28333,118
25.29167,113
25.30000,108
25.30833,103
25.31667,98
25.32500,93
25.33333,89
25.34167,84
25.35000,79
25.35833,75
25.36667,71
25.37500,66
25.38333,62
25.39167,59
25.40000,55
25.40833,52
25.41667,48
25.42500,45
25.43333,41
25.44167,38
25.45000,36
25.45833,33
25.46667,31
25.47500,28
25.48333,26
25.49167,24
25.50000,23
25.50833,21
25.51667,19
25.52500,18
25.53333,16
25.54167,15
25.55000,14
25.55833,12
25.56667,12
25.57500,11
25.58333,10
25.59167,9
25.60000,8
25.60833,7
25.61667,6
25.62500,6
25.63333,5
25.64167,4
25.65000,4
25.65833,3
25.66667,3
25.67500,3
25.68333,2
25.69167,2
25.70000,2
25.70833,2
25.71667,1
25.72500,1
25.73333,1
25.74167,1
25.75000,1
25.75833,0
25.76667,0
25.77500,0
25.78333,-0
25.79167,-0
25.80000,-1
25.80833,-1
25.81667,-1
25.82500,-2
25.83333,-2
25.84167,-2
25.85000,-2
25.85833,-2
25.86667,-2
25.87500,-2
25.88333,-2
25.89167,-2
25.90000,-2
25.90833,-2
25.91667,-2
25.92500,-2
25.93333,-2
25.94167,-1
25.95000,-1
25.95833,-2
25.96667,-2
25.97500,-2
25.98333,-2
25.99167,-2
26.00000,-2
26.00833,-2
26.01667,-1
26.02500,-1
26.03333,-1
26.04167,-2
26.05000,-2
26.05833,-2
26.06667,-2
26.07500,-2
26.08333,-2
26.09167,-3
26.10000,-3
26.10833,-3
26.11667,-2
26.12500,-2
26.13333,-2
26.14167,-2
26.15000,-2
26.15833,-2
26.16667,-3
26.17500,-2
26.18333,-2
26.19167,-2
26.20000,-2
26.20833,-2
26.21667,-2
26.22500,-3
26.23333,-3
26.24167,-3
26.25000,-3
26.25833,-3
26.26667,-3
26.27500,-3
26.28333,-3
26.29167,-3
26.30000,-3
26.30833,-3
26.31667,-2
26.32500,-2
26.33333,-2
26.34167,-2
26.35000,-2
26.35833,-2
26.36667,-3
26.37500,-3
26.38333,-3
26.39167,-2
26.40000,-2
26.40833,-3
26.41667,-3
26.42500,-3
26.43333,-3
26.44167,-3
26.45000,-3
26.45833,-3
26.46667,-3
26.47500,-3
26.48333,-3
26.49167,-3
26.50000,-3
26.50833,-3
26.51667,-2
26.52500,-2
26.53333,-2
26.54167,-2
26.55000,-2
26.55833,-2
26.56667,-2
26.57500,-2
26.58333,-2
26.59167,-2
26.60000,-1
26.60833,-1
26.61667,-1
26.62500,-1
26.63333,-2
26.64167,-2
26.65000,-2
26.65833,-2
26.66667,-2
26.67500,-2
26.68333,-2
26.69167,-1
26.70000,-1
26.70833,-1
26.71667,-1
26.72500,-1
26.73333,-1
26.74167,-1
26.75000,-2
26.75833,-2
26.76667,-2
26.77500,-2
26.78333,-2
26.79167,-2
26.80000,-1
26.80833,-1
26.81667,-1
26.82500,-1
26.83333,-1
26.84167,-1
26.85000,-1
26.85833,-1
26.86667,-1
26.87500,-1
26.88333,-1
26.89167,-1
26.90000,-0
26.90833,-0
26.91667,-0
26.92500,-1
26.93333,-1
26.94167,-1
26.95000,-2
26.95833,-2
26.96667,-2
26.97500,-1
26.98333,-2
26.99167,-2
27.00000,-2
27.00833,-1
27.01667,-1
27.02500,-1
27.03333,-0
27.04167,-1
27.05000,-1
27.05833,-1
27.06667,-1
27.07500,-1
27.08333,-1
27.09167,-1
27.10000,-1
27.10833,-1
27.11667,-1
27.12500,-1
27.13333,-2
27.14167,-2
27.15000,-2
27.15833,-2
27.16667,-1
27.17500,-1
27.18333,-2
27.19167,-2
27.20000,-2
27.20833,-1
27.21667,-1
27.22500,-1
27.23333,-1
27.24167,-1
27.25000,-1
27.25833,-1
27.26667,-1
27.27500,-1
27.28333,-1
27.29167,-1
27.30000,-1
27.30833,-1
27.31667,-1
27.32500,-1
27.33333,-1
27.34167,-1
27.35000,-1
27.35833,-0
27.36667,0
27.37500,0
27.38333,-0
27.39167,-0
27.40000,-0
27.40833,-0
27.41667,-1
27.42500,-1
27.43333,-1
27.44167,-1
27.45000,-1
27.45833,-1
27.46667,-1
27.47500,-1
27.48333,-1
27.49167,-1
27.50000,-1
27.50833,-1
27.51667,-1
27.52500,-1
27.53333,-1
27.54167,-1
27.55000,-1
27.55833,-1
27.56667,-1
27.57500,-1
27.58333,-1
27.59167,-0
27.60000,-0
27.60833,-0
27.61667,-0
27.62500,-0
27.63333,-0
27.64167,-0
27.65000,-0
27.65833,-0
27.66667,-0
27.67500,-1
27.68333,-1
27.69167,-1
27.70000,-2
27.70833,-2
27.71667,-1
27.72500,-1
27.73333,-2
27.74167,-2
27.75000,-3
27.75833,-3
27.76667,-3
27.77500,-3
27.78333,-4
27.79167,-4
27.80000,-5
27.80833,-5
27.81667,-5
27.82500,-5
27.83333,-5
27.84167,-6
27.85000,-6
27.85833,-7
27.86667,-8
27.87500,-8
27.88333,-9
27.89167,-10
27.90000,-10
27.90833,-11
27.91667,-12
27.92500,-13
27.93333,-15
27.94167,-16
27.95000,-17
27.95833,-18
27.96667,-20
27.97500,-22
27.98333,-23
27.99167,-25
28.00000,-26
28.00833,-27
28.01667,-29
28.02500,-31
28.03333,-33
28.04167,-35
28.05000,-37
28.05833,-39
28.06667,-41
28.07500,-44
28.08333,-46
28.09167,-49
28.10000,-51
28.10833,-54
28.11667,-57
28.12500,-60
28.13333,-63
28.14167,-66
28.15000,-69
28.15833,-71
28.16667,-74
28.17500,-77
28.18333,-80
28.19167,-83
28.20000,-86
28.20833,-90
28.21667,-93
28.22500,-96
28.23333,-99
28.24167,-102
28.25000,-105
28.25833,-108
28.26667,-111
28.27500,-114
28.28333,-116
28.29167,-119
28.30000,-121
28.30833,-124
28.31667,-127
28.32500,-129
28.33333,-131
28.34167,-133
28.35000,-135
28.35833,-136
28.36667,-138
28.37500,-139
28.38333,-140
28.39167,-141
28.40000,-142
28.40833,-143
28.41667,-143
28.42500,-144
28.43333,-144
28.44167,-145
28.45000,-145
28.45833,-145
28.46667,-145
28.47500,-145
28.48333,-144
28.49167,-143
28.50000,-142
28.50833,-141
28.51667,-140
28.52500,-139
28.53333,-137
28.54167,-136
28.55000,-134
28.55833,-132
28.56667,-131
28.57500,-129
28.58333,-126
28.59167,-124
28.60000,-122
28.60833,-120
28.61667,-117
28.62500,-115
28.63333,-112
28.64167,-109
28.65000,-107
28.65833,-104
28.66667,-102
28.67500,-100
28.68333,-97
28.69167,-95
28.70000,-92
28.70833,-89
28.71667,-87
28.72500,-84
28.73333,-82
28.74167,-79
28.75000,-77
28.75833,-74
28.76667,-72
28.77500,-69
28.78333,-67
28.79167,-64
28.80000,-62
28.80833,-60
28.81667,-58
28.82500,-57
28.83333,-55
28.84167,-54
28.85000,-52
28.85833,-51
28.86667,-49
28.87500,-47
28.88333,-46
28.89167,-44
28.90000,-42
28.90833,-41
28.91667,-39
28.92500,-38
28.93333,-37
28.94167,-36
28.95000,-35
28.95833,-33
28.96667,-32
28.97500,-31
28.98333,-30
28.99167,-28
29.00000,-27
29.00833,-26
29.01667,-26
29.02500,-25
29.03333,-24
29.04167,-23
29.05000,-23
29.05833,-22
29.06667,-21
29.07500,-21
29.08333,-21
29.09167,-20
29.10000,-20
29.10833,-19
29.11667,-18
29.12500,-18
29.13333,-17
29.14167,-17
29.15000,-16
29.15833,-16
29.16667,-16
29.17500,-16
29.18333,-15
29.19167,-15
29.20000,-15
29.20833,-15
29.21667,-15
29.22500,-14
29.23333,-14
29.24167,-14
29.25000,-14
29.25833,-14
29.26667,-14
29.27500,-13
29.28333,-13
29.29167,-13
29.30000,-13
29.30833,-13
29.31667,-13
29.32500,-13
29.33333,-13
29.34167,-13
29.35000,-13
29.35833,-13
29.36667,-12
29.37500,-12
29.38333,-12
29.39167,-12
29.40000,-12
29.40833,-11
29.41667,-11
29.42500,-11
29.43333,-11
29.44167,-11
29.45000,-11
29.45833,-12
29.46667,-12
29.47500,-12
29.48333,-13
29.49167,-13
29.50000,-13
29.50833,-13
29.51667,-13
29.52500,-13
29.53333,-13
29.54167,-13
29.55000,-13
29.55833,-14
29.56667,-14
29.57500,-14
29.58333,-14
29.59167,-14
29.60000,-15
29.60833,-15
29.61667,-15
29.62500,-15
29.63333,-16
29.64167,-17
29.65000,-18
29.65833,-18
29.66667,-19
29.67500,-19
29.68333,-20
29.69167,-20
29.70000,-21
29.70833,-21
29.71667,-22
29.72500,-23
29.73333,-23
29.74167,-23
29.75000,-24
29.75833,-24
29.76667,-25
29.77500,-26
29.78333,-27
29.79167,-28
29.80000,-28
29.80833,-29
29.81667,-31
29.82500,-32
29.83333,-33
29.84167,-34
29.85000,-35
29.85833,-35
29.86667,-36
29.87500,-36
29.88333,-37
29.89167,-38
29.90000,-39
29.90833,-40
29.91667,-41
29.92500,-42
29.93333,-43
29.94167,-44
29.95000,-45
29.95833,-46
29.96667,-47
29.97500,-48
29.98333,-49
29.99167,-50
30.00000,-51
30.00833,-52
30.01667,-52
30.02500,-53
30.03333,-54
30.04167,-55
30.05000,-56
30.05833,-57
30.06667,-58
30.07500,-59
30.08333,-60
30.09167,-60
30.10000,-61
30.10833,-61
30.11667,-61
30.12500,-61
30.13333,-61
30.14167,-62
30.15000,-62
30.15833,-62
30.16667,-62
30.17500,-62
30.18333,-63
30.19167,-63
30.20000,-63
30.20833,-63
30.21667,-63
30.22500,-63
30.23333,-62
30.24167,-62
30.25000,-62
30.25833,-61
30.26667,-61
30.27500,-61
30.28333,-60
30.29167,-60
30.30000,-59
30.30833,-58
30.31667,-58
30.32500,-57
30.33333,-56
30.34167,-55
30.35000,-54
30.35833,-54
30.36667,-53
30.37500,-52
30.38333,-52
30.39167,-51
30.40000,-50
30.40833,-49
30.41667,-48
30.42500,-47
30.43333,-46
30.44167,-45
30.45000,-45
30.45833,-44
30.46667,-43
30.47500,-42
30.48333,-41
30.49167,-40
30.50000,-39
30.50833,-38
30.51667,-37
30.52500,-37
30.53333,-36
30.54167,-36
30.55000,-35
30.55833,-34
30.56667,-33
30.57500,-32
30.58333,-32
30.59167,-31
30.60000,-30
30.60833,-30
30.61667,-29
30.62500,-28
30.63333,-28
30.64167,-27
30.65000,-27
30.65833,-26
30.66667,-25
30.67500,-25
30.68333,-24
30.69167,-24
30.70000,-24
30.70833,-23
30.71667,-23
30.72500,-23
30.73333,-22
30.74167,-22
30.75000,-22
30.75833,-22
30.76667,-21
30.77500,-21
30.78333,-21
30.79167,-20
30.80000,-20
30.80833,-19
30.81667,-19
30.82500,-19
30.83333,-19
30.84167,-19
30.85000,-19
30.85833,-19
30.86667,-19
30.87500,-19
30.88333,-19
30.89167,-19
30.90000,-18
30.90833,-18
30.91667,-18
30.92500,-18
30.93333,-18
30.94167,-17
30.95000,-17
30.95833,-16
30.96667,-16
30.97500,-16
30.98333,-16
30.99167,-16
31.00000,-16
31.00833,-16
31.01667,-16
31.02500,-17
31.03333,-16
31.04167,-16
31.05000,-17
31.05833,-16
31.06667,-16
31.07500,-16
31.08333,-16
31.09167,-16
31.10000,-16
31.10833,-16
31.11667,-16
31.12500,-16
31.13333,-16
31.14167,-16
31.15000,-17
31.15833,-17
31.16667,-16
31.17500,-16
31.18333,-16
31.19167,-16
31.20000,-16
31.20833,-16
31.21667,-16
31.22500,-16
31.23333,-16
31.24167,-16
31.25000,-16
31.25833,-16
31.26667,-16
31.27500,-16
31.28333,-16
31.29167,-16
31.30000,-16
31.30833,-16
31.31667,-16
31.32500,-16
31.33333,-16
31.34167,-16
31.35000,-16
31.35833,-16
31.36667,-15
31.37500,-15
31.38333,-15
31.39167,-15
31.40000,-15
31.40833,-15
31.41667,-15
31.42500,-15
31.43333,-15
31.44167,-15
31.45000,-15
31.45833,-15
31.46667,-15
31.47500,-15
31.48333,-16
31.49167,-16
31.50000,-15
31.50833,-15
31.51667,-15
31.52500,-15
31.53333,-15
31.54167,-15
31.55000,-15
31.55833,-15
31.56667,-15
31.57500,-15
31.58333,-15
31.59167,-15
31.60000,-14
31.60833,-14
31.61667,-14
31.62500,-14
31.63333,-14
31.64167,-14
31.65000,-14
31.65833,-14
31.66667,-14
31.67500,-14
31.68333,-14
31.69167,-14
31.70000,-14
31.70833,-15
31.71667,-15
31.72500,-15
31.73333,-15
31.74167,-15
31.75000,-15
31.75833,-15
31.76667,-15
31.77500,-15
31.78333,-15
31.79167,-15
31.80000,-15
31.80833,-15
31.81667,-15
31.82500,-15
31.83333,-14
31.84167,-14
31.85000,-14
31.85833,-14
31.86667,-14
31.87500,-14
31.88333,-14
31.89167,-14
31.90000,-14
31.90833,-14
31.91667,-14
31.92500,-14
31.93333,-14
31.94167,-14
31.95000,-14
31.95833,-14
31.96667,-15
31.97500,-15
31.98333,-15
31.99167,-15
32.00000,-15
32.00833,-16
32.01667,-16
32.02500,-16
32.03333,-16
32.04167,-16
32.05000,-16
32.05833,-16
32.06667,-16
32.07500,-16
32.08333,-16
32.09167,-16
32.10000,-16
32.10833,-15
32.11667,-15
32.12500,-15
32.13333,-15
32.14167,-15
32.15000,-15
32.15833,-14
32.16667,-15
32.17500,-15
32.18333,-15
32.19167,-15
32.20000,-15
32.20833,-15
32.21667,-15
32.22500,-15
32.23333,-16
32.24167,-16
32.25000,-16
32.25833,-16
32.26667,-16
32.27500,-16
32.28333,-16
32.29167,-16
32.30000,-16
32.30833,-16
32.31667,-16
32.32500,-16
32.33333,-15
32.34167,-15
32.35000,-15
32.35833,-16
32.36667,-16
32.37500,-16
32.38333,-16
32.39167,-16
32.40000,-16
32.40833,-16
32.41667,-16
32.42500,-16
32.43333,-16
32.44167,-16
32.45000,-16
32.45833,-16
32.46667,-16
32.47500,-16
32.48333,-16
32.49167,-16
32.50000,-17
32.50833,-17
32.51667,-16
32.52500,-16
32.53333,-16
32.54167,-17
32.55000,-17
32.55833,-16
32.56667,-16
32.57500,-15
32.58333,-15
32.59167,-15
32.60000,-15
32.60833,-15
32.61667,-16
32.62500,-16
32.63333,-16
32.64167,-16
32.65000,-16
32.65833,-16
32.66667,-16
32.67500,-17
32.68333,-16
32.69167,-16
32.70000,-16
32.70833,-16
32.71667,-16
32.72500,-16
32.73333,-16
32.74167,-16
32.75000,-16
32.75833,-16
32.76667,-16
32.77500,-16
32.78333,-16
32.79167,-17
32.80000,-17
32.80833,-17
32.81667,-17
32.82500,-17
32.83333,-17
32.84167,-17
32.85000,-17
32.85833,-17
32.86667,-17
32.87500,-17
32.88333,-17
32.89167,-16
32.90000,-16
32.90833,-16
32.91667,-17
32.92500,-17
32.93333,-17
32.94167,-17
32.95000,-17
32.95833,-16
32.96667,-16
32.97500,-16
32.98333,-16
32.99167,-16
33.00000,-16
33.00833,-16
33.01667,-16
33.02500,-16
33.03333,-17
33.04167,-17
33.05000,-17
33.05833,-17
33.06667,-17
33.07500,-17
33.08333,-17
33.09167,-17
33.10000,-17
33.10833,-17
33.11667,-16
33.12500,-16
33.13333,-16
33.14167,-16
33.15000,-16
33.15833,-16
33.16667,-16
33.17500,-16
33.18333,-16
33.19167,-16
33.20000,-17
33.20833,-17
33.21667,-17
33.22500,-17
33.23333,-17
33.24167,-16
33.25000,-16
33.25833,-16
33.26667,-16
33.27500,-16
33.28333,-17
33.29167,-17
33.30000,-17
33.30833,-17
33.31667,-16
33.32500,-16
33.33333,-17
33.34167,-17
33.35000,-17
33.35833,-17
33.36667,-17
33.37500,-17
33.38333,-17
33.39167,-17
33.40000,-17
33.40833,-18
33.41667,-18
33.42500,-17
33.43333,-17
33.44167,-17
33.45000,-17
33.45833,-17
33.46667,-17
33.47500,-17
33.48333,-17
33.49167,-17
33.50000,-17
33.50833,-17
33.51667,-17
33.52500,-17
33.53333,-18
33.54167,-18
33.55000,-17
33.55833,-17
33.56667,-17
33.57500,-18
33.58333,-18
33.59167,-18
33.60000,-18
33.60833,-18
33.61667,-17
33.62500,-17
33.63333,-17
33.64167,-17
33.65000,-17
33.65833,-17
33.66667,-17
33.67500,-18
33.68333,-18
33.69167,-18
33.70000,-18
33.70833,-18
33.71667,-18
33.72500,-18
33.73333,-18
33.74167,-18
33.75000,-18
33.75833,-17
33.76667,-17
33.77500,-18
33.78333,-18
33.79167,-18
33.80000,-18
33.80833,-17
33.81667,-17
33.82500,-17
33.83333,-18
33.84167,-18
33.85000,-18
33.85833,-18
33.86667,-18
33.87500,-18
33.88333,-18
33.89167,-18
33.90000,-18
33.90833,-19
33.91667,-19
33.92500,-19
33.93333,-19
33.94167,-19
33.95000,-19
33.95833,-19
33.96667,-19
33.97500,-19
33.98333,-19
33.99167,-19
34.00000,-19
34.00833,-19
34.01667,-19
34.02500,-19
34.03333,-19
34.04167,-19
34.05000,-19
34.05833,-19
34.06667,-19
34.07500,-19
34.08333,-20
34.09167,-20
34.10000,-20
34.10833,-19
34.11667,-19
34.12500,-19
34.13333,-19
34.14167,-19
34.15000,-20
34.15833,-20
34.16667,-20
34.17500,-20
34.18333,-20
34.19167,-20
34.20000,-20
34.20833,-20
34.21667,-20
34.22500,-20
34.23333,-20
34.24167,-20
34.25000,-20
34.25833,-20
34.26667,-20
34.27500,-20
34.28333,-20
34.29167,-20
34.30000,-20
34.30833,-20
34.31667,-20
34.32500,-20
34.33333,-20
34.34167,-19
34.35000,-20
34.35833,-20
34.36667,-20
34.37500,-20
34.38333,-20
34.39167,-20
34.40000,-20
34.40833,-20
34.41667,-20
34.42500,-20
34.43333,-20
34.44167,-20
34.45000,-20
34.45833,-21
34.46667,-21
34.47500,-21
34.48333,-20
34.49167,-20
34.50000,-20
34.50833,-21
34.51667,-20
34.52500,-20
34.53333,-20
34.54167,-20
34.55000,-20
34.55833,-20
34.56667,-20
34.57500,-20
34.58333,-20
34.59167,-20
34.60000,-19
34.60833,-20
34.61667,-20
34.62500,-20
34.63333,-20
34.64167,-20
34.65000,-20
34.65833,-20
34.66667,-20
34.67500,-21
34.68333,-21
34.69167,-21
34.70000,-21
34.70833,-21
34.71667,-21
34.72500,-21
34.73333,-21
34.74167,-21
34.75000,-20
34.75833,-20
34.76667,-20
34.77500,-20
34.78333,-20
34.79167,-20
34.80000,-20
34.80833,-20
34.81667,-20
34.82500,-20
34.83333,-19
34.84167,-19
34.85000,-19
34.85833,-19
34.86667,-19
34.87500,-19
34.88333,-19
34.89167,-20
34.90000,-20
34.90833,-20
34.91667,-20
34.92500,-20
34.93333,-20
34.94167,-20
34.95000,-20
34.95833,-20
34.96667,-20
34.97500,-20
34.98333,-20
34.99167,-20
35.00000,-20
35.00833,-21
35.01667,-21
35.02500,-21
35.03333,-21
35.04167,-21
35.05000,-21
35.05833,-21
35.06667,-21
35.07500,-21
35.08333,-21
35.09167,-21
35.10000,-21
35.10833,-21
35.11667,-21
35.12500,-21
35.13333,-22
35.14167,-22
35.15000,-22
35.15833,-21
35.16667,-21
35.17500,-21
35.18333,-21
35.19167,-21
35.20000,-21
35.20833,-21
35.21667,-21
35.22500,-21
35.23333,-21
35.24167,-21
35.25000,-21
35.25833,-21
35.26667,-21
35.27500,-21
35.28333,-21
35.29167,-21
35.30000,-22
35.30833,-22
35.31667,-22
35.32500,-22
35.33333,-22
35.34167,-22
35.35000,-22
35.35833,-22
35.36667,-22
35.37500,-21
35.38333,-21
35.39167,-21
35.40000,-21
35.40833,-21
35.41667,-21
35.42500,-21
35.43333,-21
35.44167,-22
35.45000,-22
35.45833,-22
35.46667,-21
35.47500,-21
35.48333,-21
35.49167,-21
35.50000,-21
35.50833,-21
35.51667,-21
35.52500,-21
35.53333,-21
35.54167,-21
35.55000,-21
35.55833,-21
35.56667,-21
35.57500,-21
35.58333,-21
35.59167,-21
35.60000,-21
35.60833,-21
35.61667,-21
35.62500,-21
35.63333,-21
35.64167,-21
35.65000,-21
35.65833,-22
35.66667,-22
35.67500,-22
35.68333,-22
35.69167,-22
35.70000,-22
35.70833,-22
35.71667,-22
35.72500,-22
35.73333,-22
35.74167,-22
35.75000,-22
35.75833,-22
35.76667,-22
35.77500,-22
35.78333,-21
35.79167,-21
35.80000,-21
35.80833,-22
35.81667,-22
35.82500,-22
35.83333,-22
35.84167,-22
35.85000,-22
35.85833,-22
35.86667,-22
35.87500,-22
35.88333,-23
35.89167,-23
35.90000,-23
35.90833,-23
35.91667,-22
35.92500,-22
35.93333,-22
35.94167,-22
35.95000,-22
35.95833,-22
35.96667,-22
35.97500,-22
35.98333,-23
35.99167,-23
36.00000,-23
36.00833,-23
36.01667,-23
36.02500,-23
36.03333,-23
36.04167,-23
36.05000,-23
36.05833,-23
36.06667,-23
36.07500,-23
36.08333,-23
36.09167,-23
36.10000,-23
36.10833,-23
36.11667,-23
36.12500,-23
36.13333,-23
36.14167,-23
36.15000,-23
36.15833,-23
36.16667,-23
36.17500,-23
36.18333,-23
36.19167,-23
36.20000,-23
36.20833,-23
36.21667,-23
36.22500,-23
36.23333,-23
36.24167,-23
36.25000,-23
36.25833,-23
36.26667,-23
36.27500,-23
36.28333,-23
36.29167,-23
36.30000,-23
36.30833,-23
36.31667,-23
36.32500,-23
36.33333,-23
36.34167,-23
36.35000,-24
36.35833,-24
36.36667,-24
36.37500,-24
36.38333,-24
36.39167,-24
36.40000,-23
36.40833,-23
36.41667,-23
36.42500,-23
36.43333,-23
36.44167,-23
36.45000,-23
36.45833,-23
36.46667,-23
36.47500,-23
36.48333,-23
36.49167,-23
36.50000,-23
36.50833,-23
36.51667,-23
36.52500,-23
36.53333,-23
36.54167,-24
36.55000,-24
36.55833,-24
36.56667,-24
36.57500,-24
36.58333,-24
36.59167,-24
36.60000,-24
36.60833,-24
36.61667,-24
36.62500,-24
36.63333,-24
36.64167,-24
36.65000,-24
36.65833,-24
36.66667,-24
36.67500,-25
36.68333,-25
36.69167,-25
36.70000,-25
36.70833,-25
36.71667,-25
36.72500,-25
36.73333,-25
36.74167,-24
36.75000,-24
36.75833,-24
36.76667,-24
36.77500,-24
36.78333,-24
36.79167,-24
36.80000,-24
36.80833,-24
36.81667,-24
36.82500,-24
36.83333,-24
36.84167,-24
36.85000,-24
36.85833,-24
36.86667,-24
36.87500,-24
36.88333,-24
36.89167,-24
36.90000,-25
36.90833,-24
36.91667,-24
36.92500,-24
36.93333,-24
36.94167,-23
36.95000,-24
36.95833,-24
36.96667,-24
36.97500,-25
36.98333,-25
36.99167,-25
37.00000,-25
37.00833,-24
37.01667,-24
37.02500,-24
37.03333,-24
37.04167,-24
37.05000,-23
37.05833,-24
37.06667,-24
37.07500,-24
37.08333,-24
37.09167,-25
37.10000,-25
37.10833,-24
37.11667,-24
37.12500,-24
37.13333,-24
37.14167,-24
37.15000,-24
37.15833,-24
37.16667,-24
37.17500,-24
37.18333,-23
37.19167,-23
37.20000,-23
37.20833,-23
37.21667,-23
37.22500,-24
37.23333,-24
37.24167,-24
37.25000,-24
37.25833,-24
37.26667,-25
37.27500,-25
37.28333,-25
37.29167,-25
37.30000,-25
37.30833,-25
37.31667,-24
37.32500,-24
37.33333,-24
37.34167,-24
37.35000,-25
37.35833,-25
37.36667,-24
37.37500,-24
37.38333,-24
37.39167,-24
37.40000,-24
37.40833,-24
37.41667,-24
37.42500,-24
37.43333,-24
37.44167,-24
37.45000,-24
37.45833,-24
37.46667,-24
37.47500,-24
37.48333,-24
37.49167,-24
37.50000,-24
37.50833,-24
37.51667,-24
37.52500,-24
37.53333,-24
37.54167,-24
37.55000,-24
37.55833,-25
37.56667,-25
37.57500,-25
37.58333,-25
37.59167,-25
37.60000,-24
37.60833,-24
37.61667,-24
37.62500,-24
37.63333,-24
37.64167,-24
37.65000,-24
37.65833,-24
37.66667,-24
37.67500,-24
37.68333,-25
37.69167,-25
37.70000,-25
37.70833,-25
37.71667,-25
37.72500,-25
37.73333,-25
37.74167,-25
37.75000,-25
37.75833,-25
37.76667,-25
37.77500,-25
37.78333,-25
37.79167,-25
37.80000,-25
37.80833,-25
37.81667,-25
37.82500,-25
37.83333,-25
37.84167,-25
37.85000,-25
37.85833,-25
37.86667,-24
37.87500,-24
37.88333,-24
37.89167,-24
37.90000,-24
37.90833,-24
37.91667,-25
37.92500,-25
37.93333,-25
37.94167,-25
37.95000,-25
37.95833,-25
37.96667,-25
37.97500,-25
37.98333,-25
37.99167,-25
38.00000,-24
38.00833,-24
38.01667,-24
38.02500,-24
38.03333,-24
38.04167,-24
38.05000,-24
38.05833,-24
38.06667,-24
38.07500,-24
38.08333,-24
38.09167,-24
38.10000,-24
38.10833,-24
38.11667,-25
38.12500,-25
38.13333,-25
38.14167,-25
38.15000,-25
38.15833,-25
38.16667,-25
38.17500,-25
38.18333,-25
38.19167,-25
38.20000,-25
38.20833,-25
38.21667,-24
38.22500,-24
38.23333,-24
38.24167,-24
38.25000,-25
38.25833,-25
38.26667,-25
38.27500,-25
38.28333,-24
38.29167,-25
38.30000,-25
38.30833,-25
38.31667,-25
38.32500,-25
38.33333,-24
38.34167,-25
38.35000,-25
38.35833,-25
38.36667,-25
38.37500,-25
38.38333,-25
38.39167,-25
38.40000,-25
38.40833,-25
38.41667,-25
38.42500,-25
38.43333,-25
38.44167,-25
38.45000,-24
38.45833,-24
38.46667,-24
38.47500,-25
38.48333,-25
38.49167,-26
38.50000,-26
38.50833,-26
38.51667,-26
38.52500,-26
38.53333,-26
38.54167,-26
38.55000,-26
38.55833,-26
38.56667,-25
38.57500,-25
38.58333,-25
38.59167,-26
38.60000,-26
38.60833,-26
38.61667,-26
38.62500,-26
38.63333,-25
38.64167,-25
38.65000,-25
38.65833,-25
38.66667,-25
38.67500,-25
38.68333,-25
38.69167,-25
38.70000,-25
38.70833,-25
38.71667,-25
38.72500,-25
38.73333,-25
38.74167,-25
38.75000,-25
38.75833,-26
38.76667,-26
38.77500,-26
38.78333,-26
38.79167,-26
38.80000,-25
38.80833,-25
38.81667,-25
38.82500,-25
38.83333,-26
38.84167,-25
38.85000,-25
38.85833,-25
38.86667,-25
38.87500,-25
38.88333,-25
38.89167,-25
38.90000,-25
38.90833,-26
38.91667,-26
38.92500,-26
38.93333,-26
38.94167,-26
38.95000,-26
38.95833,-26
38.96667,-26
38.97500,-26
38.98333,-26
38.99167,-26
39.00000,-26
39.00833,-26
39.01667,-26
39.02500,-26
39.03333,-26
39.04167,-26
39.05000,-26
39.05833,-26
39.06667,-26
39.07500,-26
39.08333,-26
39.09167,-26
39.10000,-26
39.10833,-27
39.11667,-27
39.12500,-27
39.13333,-28
39.14167,-28
39.15000,-28
39.15833,-28
39.16667,-27
39.17500,-27
39.18333,-27
39.19167,-27
39.20000,-27
39.20833,-27
39.21667,-27
39.22500,-26
39.23333,-26
39.24167,-26
39.25000,-26
39.25833,-26
39.26667,-26
39.27500,-26
39.28333,-26
39.29167,-27
39.30000,-27
39.30833,-27
39.31667,-27
39.32500,-27
39.33333,-27
39.34167,-27
39.35000,-27
39.35833,-27
39.36667,-27
39.37500,-27
39.38333,-27
39.39167,-27
39.40000,-27
39.40833,-27
39.41667,-27
39.42500,-27
39.43333,-28
39.44167,-28
39.45000,-28
39.45833,-28
39.46667,-28
39.47500,-28
39.48333,-28
39.49167,-27
39.50000,-27
39.50833,-28
39.51667,-28
39.52500,-27
39.53333,-27
39.54167,-28
39.55000,-27
39.55833,-27
39.56667,-27
39.57500,-27
39.58333,-27
39.59167,-28
39.60000,-27
39.60833,-27
39.61667,-27
39.62500,-27
39.63333,-27
39.64167,-27
39.65000,-27
39.65833,-27
39.66667,-27
39.67500,-27
39.68333,-27
39.69167,-27
39.70000,-27
39.70833,-27
39.71667,-27
39.72500,-27
39.73333,-28
39.74167,-28
39.75000,-28
39.75833,-28
39.76667,-28
39.77500,-29
39.78333,-28
39.79167,-28
39.80000,-27
39.80833,-27
39.81667,-27
39.82500,-27
39.83333,-27
39.84167,-27
39.85000,-27
39.85833,-27
39.86667,-27
39.87500,-27
39.88333,-27
39.89167,-27
39.90000,-27
39.90833,-27
39.91667,-27
39.92500,-28
39.93333,-28
39.94167,-28
39.95000,-27
39.95833,-27
39.96667,-27
39.97500,-27
39.98333,-27
39.99167,-27
40.00000,-27

