[Header]
Application Name,LabSolutions
Version,5.97 SP1
Data File Name,C:\Users\cremerlab\Desktop\griffin\2021-04-03_buffer_calibration\2021-04-03_buffer_calibration_432021_009_009.lcd
Output Date,4/3/2021
Output Time,8:05:39 PM

[File Information]
Type,Data File
Generated,4/3/2021 7:25:18 PM
Generated by,System Administrator
Modified,4/3/2021 8:05:39 PM
Modified by,System Administrator

[Sample Information]
Operator Name,System Administrator
Acquired,4/3/2021 7:25:38 PM
Sample Type,1:Standard
Level,9
Sample Name,2021-04-02_NC_glucose_glycerol_acetate_calibration_01mM
Sample ID,009
ISTD Amount1,1
ISTD Amount2,1
ISTD Amount3,1
ISTD Amount4,1
ISTD Amount5,1
ISTD Amount6,1
ISTD Amount7,1
ISTD Amount8,1
ISTD Amount9,1
ISTD Amount10,1
ISTD Amount11,1
ISTD Amount12,1
ISTD Amount13,1
ISTD Amount14,1
ISTD Amount15,1
ISTD Amount16,1
ISTD Amount17,1
ISTD Amount18,1
ISTD Amount19,1
ISTD Amount20,1
ISTD Amount21,1
ISTD Amount22,1
ISTD Amount23,1
ISTD Amount24,1
ISTD Amount25,1
ISTD Amount26,1
ISTD Amount27,1
ISTD Amount28,1
ISTD Amount29,1
ISTD Amount30,1
ISTD Amount31,1
ISTD Amount32,1
Sample Amount,1
Dilution Factor,1
Vial#,9
Injection Volume,20

[Original Files]
Data File,C:\Users\cremerlab\Desktop\griffin\2021-04-03_buffer_calibration\2021-04-03_buffer_calibration_432021_009_009.lcd
Method File,C:\LabSolutions\Data\Project1\organicacidsetc2.lcm
Batch File,C:\Users\cremerlab\Desktop\griffin\2021-04-03_buffer_calibration\2021-04-03_buffer_calibration.lcb
Report Format File,c:\LabSolutions\System\DEFAULT.lsr

[File Description]


[Configuration]
Instrument Name,HPLC-PC-Instrument1
Instrument #,1
Line #,1
# of Detectors,2
Detector ID,Detector A,Detector B
Detector Name,Detector A,Detector B
# of Channels,1,1

[Peak Table(Detector A)]
# of Peaks,0

[Peak Table(Detector B)]
# of Peaks,4
Peak#,R.Time,I.Time,F.Time,Area,Height,A/H,Conc.,Mark,ID#,Name,k',Plate #,Plate Ht.,Tailing,Resolution,Sep.Factor,Area Ratio,Height Ratio,Conc. %,Norm Conc.
1,11.065,10.758,12.867,1243248,69021,18.013,27.437,   ,,,0.000,10677,14.049,1.325,0.000,0.000,0,0,0.000,0.000
2,15.110,14.117,18.150,3248826,117233,27.713,71.698,   ,,,0.366,7111,21.094,0.799,7.066,0.000,0,0,0.000,0.000
3,22.076,21.542,22.833,27680,1040,26.626,0.611,   ,,,0.995,15581,9.627,1.093,9.781,2.722,0,0,0.000,0.000
4,25.075,24.558,25.742,11531,405,28.460,0.254,   ,,,1.266,17187,8.727,1.071,4.074,1.272,0,0,0.000,0.000

[LC Chromatogram(Detector B-Ch1)]
Interval(msec),500
# of Points,4801
Start Time(min),0.000
End Time(min),40.000
Intensity Units,mV
Intensity Multiplier,0.001
R.Time (min),Intensity
0.00000,-0
0.00833,-0
0.01667,0
0.02500,0
0.03333,0
0.04167,0
0.05000,0
0.05833,-0
0.06667,-0
0.07500,-0
0.08333,-0
0.09167,-1
0.10000,-0
0.10833,-0
0.11667,-0
0.12500,-0
0.13333,0
0.14167,0
0.15000,0
0.15833,0
0.16667,0
0.17500,0
0.18333,-0
0.19167,-0
0.20000,-0
0.20833,-0
0.21667,0
0.22500,0
0.23333,0
0.24167,0
0.25000,0
0.25833,0
0.26667,-0
0.27500,-0
0.28333,-1
0.29167,-1
0.30000,-0
0.30833,-0
0.31667,-0
0.32500,0
0.33333,0
0.34167,-0
0.35000,-0
0.35833,-0
0.36667,-0
0.37500,-1
0.38333,-1
0.39167,-1
0.40000,-1
0.40833,-1
0.41667,-1
0.42500,-1
0.43333,-1
0.44167,-1
0.45000,-1
0.45833,-1
0.46667,-1
0.47500,-1
0.48333,-1
0.49167,-1
0.50000,-1
0.50833,-1
0.51667,-1
0.52500,-0
0.53333,-0
0.54167,-0
0.55000,-0
0.55833,-0
0.56667,0
0.57500,0
0.58333,1
0.59167,1
0.60000,1
0.60833,0
0.61667,-0
0.62500,-0
0.63333,-0
0.64167,-1
0.65000,-1
0.65833,-1
0.66667,-1
0.67500,-1
0.68333,-1
0.69167,-1
0.70000,-1
0.70833,-1
0.71667,-1
0.72500,-1
0.73333,-2
0.74167,-2
0.75000,-2
0.75833,-2
0.76667,-3
0.77500,-3
0.78333,-3
0.79167,-2
0.80000,-2
0.80833,-2
0.81667,-2
0.82500,-2
0.83333,-2
0.84167,-2
0.85000,-2
0.85833,-2
0.86667,-1
0.87500,-1
0.88333,-1
0.89167,-1
0.90000,-1
0.90833,-1
0.91667,-1
0.92500,-1
0.93333,-1
0.94167,-0
0.95000,-0
0.95833,-1
0.96667,-1
0.97500,-1
0.98333,-0
0.99167,-0
1.00000,0
1.00833,0
1.01667,-0
1.02500,-0
1.03333,-1
1.04167,-1
1.05000,-1
1.05833,-2
1.06667,-2
1.07500,-2
1.08333,-1
1.09167,-1
1.10000,-1
1.10833,-1
1.11667,-1
1.12500,-1
1.13333,-2
1.14167,-2
1.15000,-2
1.15833,-2
1.16667,-2
1.17500,-3
1.18333,-3
1.19167,-2
1.20000,-2
1.20833,-2
1.21667,-2
1.22500,-1
1.23333,-1
1.24167,-1
1.25000,-1
1.25833,-1
1.26667,-1
1.27500,-1
1.28333,-2
1.29167,-2
1.30000,-1
1.30833,-1
1.31667,-1
1.32500,-2
1.33333,-2
1.34167,-2
1.35000,-2
1.35833,-3
1.36667,-3
1.37500,-3
1.38333,-2
1.39167,-2
1.40000,-2
1.40833,-2
1.41667,-2
1.42500,-2
1.43333,-2
1.44167,-2
1.45000,-2
1.45833,-3
1.46667,-3
1.47500,-2
1.48333,-2
1.49167,-2
1.50000,-2
1.50833,-2
1.51667,-2
1.52500,-2
1.53333,-2
1.54167,-2
1.55000,-2
1.55833,-2
1.56667,-2
1.57500,-1
1.58333,-1
1.59167,-1
1.60000,-1
1.60833,-1
1.61667,-1
1.62500,-1
1.63333,-2
1.64167,-2
1.65000,-2
1.65833,-2
1.66667,-2
1.67500,-1
1.68333,-1
1.69167,-1
1.70000,-1
1.70833,-1
1.71667,-0
1.72500,-1
1.73333,-1
1.74167,-1
1.75000,-1
1.75833,-1
1.76667,-1
1.77500,-1
1.78333,-1
1.79167,-2
1.80000,-2
1.80833,-2
1.81667,-2
1.82500,-2
1.83333,-3
1.84167,-2
1.85000,-2
1.85833,-2
1.86667,-1
1.87500,-1
1.88333,-1
1.89167,-1
1.90000,-1
1.90833,-2
1.91667,-2
1.92500,-1
1.93333,-1
1.94167,-1
1.95000,-1
1.95833,-1
1.96667,-1
1.97500,-2
1.98333,-2
1.99167,-2
2.00000,-1
2.00833,-1
2.01667,-1
2.02500,-1
2.03333,-2
2.04167,-2
2.05000,-2
2.05833,-2
2.06667,-2
2.07500,-2
2.08333,-2
2.09167,-2
2.10000,-2
2.10833,-2
2.11667,-2
2.12500,-2
2.13333,-2
2.14167,-2
2.15000,-2
2.15833,-2
2.16667,-2
2.17500,-2
2.18333,-2
2.19167,-2
2.20000,-2
2.20833,-2
2.21667,-2
2.22500,-2
2.23333,-2
2.24167,-2
2.25000,-1
2.25833,-1
2.26667,-1
2.27500,-1
2.28333,-1
2.29167,-1
2.30000,-1
2.30833,-1
2.31667,-2
2.32500,-1
2.33333,-1
2.34167,-1
2.35000,-1
2.35833,-1
2.36667,-1
2.37500,-1
2.38333,-1
2.39167,-2
2.40000,-2
2.40833,-2
2.41667,-2
2.42500,-2
2.43333,-2
2.44167,-2
2.45000,-2
2.45833,-2
2.46667,-2
2.47500,-2
2.48333,-2
2.49167,-2
2.50000,-1
2.50833,-1
2.51667,-1
2.52500,-1
2.53333,-1
2.54167,-2
2.55000,-2
2.55833,-2
2.56667,-2
2.57500,-2
2.58333,-1
2.59167,-1
2.60000,-1
2.60833,-1
2.61667,-1
2.62500,-1
2.63333,-1
2.64167,-1
2.65000,-1
2.65833,-1
2.66667,-1
2.67500,-1
2.68333,-1
2.69167,-1
2.70000,-1
2.70833,-1
2.71667,-1
2.72500,-1
2.73333,-1
2.74167,-1
2.75000,-1
2.75833,-1
2.76667,-1
2.77500,-1
2.78333,-1
2.79167,-1
2.80000,-1
2.80833,-1
2.81667,-1
2.82500,-1
2.83333,-0
2.84167,-0
2.85000,-0
2.85833,-0
2.86667,-1
2.87500,-1
2.88333,-1
2.89167,-1
2.90000,-2
2.90833,-2
2.91667,-1
2.92500,-1
2.93333,-1
2.94167,-1
2.95000,-1
2.95833,-1
2.96667,-1
2.97500,-1
2.98333,-1
2.99167,-1
3.00000,-1
3.00833,-1
3.01667,-1
3.02500,-2
3.03333,-2
3.04167,-2
3.05000,-2
3.05833,-2
3.06667,-2
3.07500,-1
3.08333,-0
3.09167,-0
3.10000,-0
3.10833,-0
3.11667,-0
3.12500,-0
3.13333,-0
3.14167,-1
3.15000,-1
3.15833,-1
3.16667,-1
3.17500,-1
3.18333,-1
3.19167,-1
3.20000,-1
3.20833,-1
3.21667,-1
3.22500,-2
3.23333,-2
3.24167,-1
3.25000,-1
3.25833,-1
3.26667,-1
3.27500,-1
3.28333,-1
3.29167,-1
3.30000,-0
3.30833,-0
3.31667,-0
3.32500,-0
3.33333,-0
3.34167,-0
3.35000,-1
3.35833,-1
3.36667,-1
3.37500,-1
3.38333,-1
3.39167,-1
3.40000,-1
3.40833,-1
3.41667,-1
3.42500,-1
3.43333,-1
3.44167,-1
3.45000,-1
3.45833,-2
3.46667,-2
3.47500,-2
3.48333,-2
3.49167,-2
3.50000,-2
3.50833,-2
3.51667,-2
3.52500,-1
3.53333,-1
3.54167,-1
3.55000,-1
3.55833,-1
3.56667,-1
3.57500,-0
3.58333,-1
3.59167,-1
3.60000,-1
3.60833,-1
3.61667,-1
3.62500,-1
3.63333,-1
3.64167,-1
3.65000,-1
3.65833,-1
3.66667,-1
3.67500,-2
3.68333,-2
3.69167,-2
3.70000,-1
3.70833,-2
3.71667,-2
3.72500,-2
3.73333,-2
3.74167,-1
3.75000,-1
3.75833,-1
3.76667,-2
3.77500,-2
3.78333,-2
3.79167,-2
3.80000,-2
3.80833,-2
3.81667,-1
3.82500,-1
3.83333,-2
3.84167,-2
3.85000,-2
3.85833,-2
3.86667,-2
3.87500,-2
3.88333,-2
3.89167,-2
3.90000,-2
3.90833,-2
3.91667,-3
3.92500,-3
3.93333,-2
3.94167,-2
3.95000,-1
3.95833,-1
3.96667,-1
3.97500,-1
3.98333,-1
3.99167,-1
4.00000,-1
4.00833,-2
4.01667,-2
4.02500,-2
4.03333,-2
4.04167,-2
4.05000,-3
4.05833,-3
4.06667,-3
4.07500,-2
4.08333,-2
4.09167,-2
4.10000,-3
4.10833,-3
4.11667,-3
4.12500,-3
4.13333,-3
4.14167,-3
4.15000,-3
4.15833,-3
4.16667,-2
4.17500,-2
4.18333,-2
4.19167,-2
4.20000,-2
4.20833,-2
4.21667,-2
4.22500,-2
4.23333,-3
4.24167,-3
4.25000,-2
4.25833,-2
4.26667,-2
4.27500,-2
4.28333,-2
4.29167,-2
4.30000,-2
4.30833,-2
4.31667,-2
4.32500,-2
4.33333,-2
4.34167,-2
4.35000,-2
4.35833,-2
4.36667,-2
4.37500,-2
4.38333,-2
4.39167,-2
4.40000,-2
4.40833,-1
4.41667,-1
4.42500,-1
4.43333,-1
4.44167,-1
4.45000,-1
4.45833,-1
4.46667,-1
4.47500,-1
4.48333,-2
4.49167,-2
4.50000,-2
4.50833,-2
4.51667,-2
4.52500,-2
4.53333,-1
4.54167,-2
4.55000,-2
4.55833,-2
4.56667,-2
4.57500,-2
4.58333,-2
4.59167,-2
4.60000,-2
4.60833,-3
4.61667,-2
4.62500,-2
4.63333,-2
4.64167,-2
4.65000,-2
4.65833,-3
4.66667,-2
4.67500,-2
4.68333,-2
4.69167,-2
4.70000,-2
4.70833,-1
4.71667,-1
4.72500,-1
4.73333,-1
4.74167,-1
4.75000,-1
4.75833,-1
4.76667,-1
4.77500,-1
4.78333,-2
4.79167,-2
4.80000,-2
4.80833,-2
4.81667,-2
4.82500,-2
4.83333,-1
4.84167,-1
4.85000,-1
4.85833,-1
4.86667,-1
4.87500,-1
4.88333,-1
4.89167,-1
4.90000,-1
4.90833,-1
4.91667,-1
4.92500,-1
4.93333,-1
4.94167,-1
4.95000,-1
4.95833,-1
4.96667,-1
4.97500,-1
4.98333,-2
4.99167,-2
5.00000,-2
5.00833,-2
5.01667,-2
5.02500,-2
5.03333,-2
5.04167,-2
5.05000,-2
5.05833,-2
5.06667,-2
5.07500,-2
5.08333,-2
5.09167,-2
5.10000,-3
5.10833,-3
5.11667,-3
5.12500,-2
5.13333,-2
5.14167,-2
5.15000,-2
5.15833,-2
5.16667,-3
5.17500,-2
5.18333,-2
5.19167,-2
5.20000,-2
5.20833,-2
5.21667,-2
5.22500,-3
5.23333,-3
5.24167,-3
5.25000,-2
5.25833,-2
5.26667,-2
5.27500,-2
5.28333,-2
5.29167,-2
5.30000,-3
5.30833,-2
5.31667,-3
5.32500,-3
5.33333,-3
5.34167,-3
5.35000,-3
5.35833,-2
5.36667,-3
5.37500,-3
5.38333,-2
5.39167,-2
5.40000,-2
5.40833,-2
5.41667,-2
5.42500,-2
5.43333,-2
5.44167,-2
5.45000,-2
5.45833,-2
5.46667,-2
5.47500,-2
5.48333,-2
5.49167,-2
5.50000,-2
5.50833,-2
5.51667,-2
5.52500,-2
5.53333,-2
5.54167,-3
5.55000,-3
5.55833,-3
5.56667,-3
5.57500,-3
5.58333,-3
5.59167,-3
5.60000,-3
5.60833,-3
5.61667,-3
5.62500,-3
5.63333,-3
5.64167,-3
5.65000,-3
5.65833,-3
5.66667,-3
5.67500,-3
5.68333,-3
5.69167,-3
5.70000,-3
5.70833,-3
5.71667,-3
5.72500,-3
5.73333,-3
5.74167,-3
5.75000,-3
5.75833,-3
5.76667,-3
5.77500,-3
5.78333,-3
5.79167,-3
5.80000,-3
5.80833,-3
5.81667,-3
5.82500,-3
5.83333,-3
5.84167,-3
5.85000,-3
5.85833,-3
5.86667,-3
5.87500,-2
5.88333,-2
5.89167,-2
5.90000,-2
5.90833,-2
5.91667,-3
5.92500,-3
5.93333,-3
5.94167,-3
5.95000,-2
5.95833,-2
5.96667,-2
5.97500,-3
5.98333,-3
5.99167,-3
6.00000,-2
6.00833,-2
6.01667,-2
6.02500,-2
6.03333,-3
6.04167,-3
6.05000,-3
6.05833,-3
6.06667,-3
6.07500,-3
6.08333,-3
6.09167,-3
6.10000,-3
6.10833,-3
6.11667,-4
6.12500,-4
6.13333,-4
6.14167,-4
6.15000,-4
6.15833,-4
6.16667,-3
6.17500,-3
6.18333,-3
6.19167,-3
6.20000,-4
6.20833,-4
6.21667,-4
6.22500,-4
6.23333,-4
6.24167,-4
6.25000,-4
6.25833,-4
6.26667,-4
6.27500,-4
6.28333,-4
6.29167,-4
6.30000,-4
6.30833,-4
6.31667,-4
6.32500,-4
6.33333,-3
6.34167,-3
6.35000,-3
6.35833,-3
6.36667,-3
6.37500,-4
6.38333,-4
6.39167,-4
6.40000,-4
6.40833,-4
6.41667,-4
6.42500,-4
6.43333,-5
6.44167,-5
6.45000,-5
6.45833,-5
6.46667,-5
6.47500,-4
6.48333,-4
6.49167,-4
6.50000,-3
6.50833,-3
6.51667,-3
6.52500,-3
6.53333,-4
6.54167,-4
6.55000,-4
6.55833,-4
6.56667,-4
6.57500,-4
6.58333,-4
6.59167,-4
6.60000,-4
6.60833,-4
6.61667,-4
6.62500,-4
6.63333,-4
6.64167,-4
6.65000,-4
6.65833,-4
6.66667,-4
6.67500,-4
6.68333,-4
6.69167,-4
6.70000,-4
6.70833,-3
6.71667,-3
6.72500,-3
6.73333,-3
6.74167,-3
6.75000,-3
6.75833,-4
6.76667,-3
6.77500,-4
6.78333,-4
6.79167,-4
6.80000,-4
6.80833,-4
6.81667,-4
6.82500,-4
6.83333,-4
6.84167,-3
6.85000,-3
6.85833,-3
6.86667,-3
6.87500,-3
6.88333,-4
6.89167,-4
6.90000,-4
6.90833,-4
6.91667,-4
6.92500,-4
6.93333,-4
6.94167,-4
6.95000,-4
6.95833,-3
6.96667,-3
6.97500,-3
6.98333,-3
6.99167,-3
7.00000,-3
7.00833,-3
7.01667,-3
7.02500,-3
7.03333,-3
7.04167,-3
7.05000,-4
7.05833,-4
7.06667,-4
7.07500,-4
7.08333,-4
7.09167,-4
7.10000,-5
7.10833,-4
7.11667,-4
7.12500,-4
7.13333,-4
7.14167,-4
7.15000,-4
7.15833,-4
7.16667,-4
7.17500,-4
7.18333,-4
7.19167,-4
7.20000,-4
7.20833,-4
7.21667,-4
7.22500,-4
7.23333,-4
7.24167,-4
7.25000,-4
7.25833,-4
7.26667,-4
7.27500,-4
7.28333,-4
7.29167,-4
7.30000,-4
7.30833,-4
7.31667,-4
7.32500,-4
7.33333,-4
7.34167,-4
7.35000,-4
7.35833,-4
7.36667,-4
7.37500,-4
7.38333,-4
7.39167,-4
7.40000,-4
7.40833,-4
7.41667,-5
7.42500,-5
7.43333,-5
7.44167,-5
7.45000,-5
7.45833,-5
7.46667,-4
7.47500,-4
7.48333,-4
7.49167,-4
7.50000,-4
7.50833,-5
7.51667,-4
7.52500,-4
7.53333,-4
7.54167,-4
7.55000,-4
7.55833,-4
7.56667,-4
7.57500,-5
7.58333,-5
7.59167,-5
7.60000,-5
7.60833,-5
7.61667,-5
7.62500,-5
7.63333,-5
7.64167,-5
7.65000,-5
7.65833,-5
7.66667,-5
7.67500,-5
7.68333,-6
7.69167,-6
7.70000,-6
7.70833,-6
7.71667,-7
7.72500,-6
7.73333,-6
7.74167,-6
7.75000,-6
7.75833,-6
7.76667,-6
7.77500,-6
7.78333,-6
7.79167,-6
7.80000,-6
7.80833,-6
7.81667,-6
7.82500,-6
7.83333,-6
7.84167,-6
7.85000,-6
7.85833,-6
7.86667,-6
7.87500,-6
7.88333,-6
7.89167,-5
7.90000,-5
7.90833,-5
7.91667,-5
7.92500,-5
7.93333,-6
7.94167,-6
7.95000,-6
7.95833,-6
7.96667,-6
7.97500,-6
7.98333,-6
7.99167,-6
8.00000,-6
8.00833,-5
8.01667,-5
8.02500,-5
8.03333,-5
8.04167,-5
8.05000,-5
8.05833,-5
8.06667,-5
8.07500,-6
8.08333,-6
8.09167,-6
8.10000,-5
8.10833,-5
8.11667,-5
8.12500,-5
8.13333,-5
8.14167,-5
8.15000,-5
8.15833,-5
8.16667,-5
8.17500,-5
8.18333,-5
8.19167,-5
8.20000,-5
8.20833,-5
8.21667,-5
8.22500,-5
8.23333,-5
8.24167,-5
8.25000,-6
8.25833,-6
8.26667,-6
8.27500,-6
8.28333,-6
8.29167,-6
8.30000,-6
8.30833,-6
8.31667,-6
8.32500,-6
8.33333,-6
8.34167,-6
8.35000,-5
8.35833,-5
8.36667,-5
8.37500,-5
8.38333,-5
8.39167,-5
8.40000,-5
8.40833,-5
8.41667,-5
8.42500,-5
8.43333,-5
8.44167,-5
8.45000,-5
8.45833,-4
8.46667,-5
8.47500,-5
8.48333,-5
8.49167,-5
8.50000,-5
8.50833,-5
8.51667,-5
8.52500,-5
8.53333,-5
8.54167,-5
8.55000,-5
8.55833,-6
8.56667,-6
8.57500,-6
8.58333,-6
8.59167,-6
8.60000,-6
8.60833,-6
8.61667,-6
8.62500,-6
8.63333,-6
8.64167,-6
8.65000,-6
8.65833,-6
8.66667,-6
8.67500,-6
8.68333,-6
8.69167,-6
8.70000,-6
8.70833,-6
8.71667,-6
8.72500,-6
8.73333,-6
8.74167,-6
8.75000,-6
8.75833,-7
8.76667,-6
8.77500,-6
8.78333,-6
8.79167,-6
8.80000,-6
8.80833,-7
8.81667,-7
8.82500,-7
8.83333,-7
8.84167,-7
8.85000,-7
8.85833,-7
8.86667,-6
8.87500,-6
8.88333,-6
8.89167,-6
8.90000,-6
8.90833,-6
8.91667,-6
8.92500,-6
8.93333,-6
8.94167,-6
8.95000,-7
8.95833,-7
8.96667,-7
8.97500,-7
8.98333,-7
8.99167,-7
9.00000,-7
9.00833,-7
9.01667,-7
9.02500,-7
9.03333,-7
9.04167,-7
9.05000,-7
9.05833,-8
9.06667,-8
9.07500,-8
9.08333,-8
9.09167,-7
9.10000,-7
9.10833,-7
9.11667,-7
9.12500,-7
9.13333,-7
9.14167,-7
9.15000,-7
9.15833,-7
9.16667,-7
9.17500,-7
9.18333,-7
9.19167,-6
9.20000,-6
9.20833,-6
9.21667,-6
9.22500,-6
9.23333,-6
9.24167,-6
9.25000,-6
9.25833,-6
9.26667,-6
9.27500,-7
9.28333,-6
9.29167,-6
9.30000,-5
9.30833,-5
9.31667,-5
9.32500,-5
9.33333,-5
9.34167,-5
9.35000,-5
9.35833,-5
9.36667,-5
9.37500,-6
9.38333,-6
9.39167,-6
9.40000,-5
9.40833,-5
9.41667,-5
9.42500,-5
9.43333,-6
9.44167,-6
9.45000,-6
9.45833,-6
9.46667,-6
9.47500,-6
9.48333,-5
9.49167,-5
9.50000,-5
9.50833,-5
9.51667,-6
9.52500,-6
9.53333,-6
9.54167,-6
9.55000,-6
9.55833,-6
9.56667,-6
9.57500,-6
9.58333,-6
9.59167,-6
9.60000,-6
9.60833,-6
9.61667,-5
9.62500,-5
9.63333,-5
9.64167,-5
9.65000,-5
9.65833,-5
9.66667,-5
9.67500,-5
9.68333,-5
9.69167,-5
9.70000,-5
9.70833,-5
9.71667,-4
9.72500,-4
9.73333,-4
9.74167,-4
9.75000,-5
9.75833,-5
9.76667,-5
9.77500,-5
9.78333,-5
9.79167,-6
9.80000,-6
9.80833,-6
9.81667,-6
9.82500,-6
9.83333,-6
9.84167,-6
9.85000,-6
9.85833,-6
9.86667,-5
9.87500,-5
9.88333,-5
9.89167,-5
9.90000,-5
9.90833,-5
9.91667,-6
9.92500,-6
9.93333,-6
9.94167,-6
9.95000,-5
9.95833,-5
9.96667,-5
9.97500,-5
9.98333,-5
9.99167,-5
10.00000,-5
10.00833,-6
10.01667,-6
10.02500,-6
10.03333,-6
10.04167,-6
10.05000,-6
10.05833,-6
10.06667,-6
10.07500,-5
10.08333,-5
10.09167,-5
10.10000,-5
10.10833,-5
10.11667,-6
10.12500,-6
10.13333,-6
10.14167,-6
10.15000,-6
10.15833,-5
10.16667,-5
10.17500,-5
10.18333,-5
10.19167,-5
10.20000,-5
10.20833,-5
10.21667,-5
10.22500,-5
10.23333,-5
10.24167,-5
10.25000,-5
10.25833,-5
10.26667,-5
10.27500,-4
10.28333,-4
10.29167,-4
10.30000,-4
10.30833,-5
10.31667,-5
10.32500,-5
10.33333,-5
10.34167,-4
10.35000,-4
10.35833,-3
10.36667,-3
10.37500,-3
10.38333,-2
10.39167,-2
10.40000,-1
10.40833,-1
10.41667,-1
10.42500,-0
10.43333,-1
10.44167,-1
10.45000,-1
10.45833,-1
10.46667,-1
10.47500,-1
10.48333,-1
10.49167,-1
10.50000,-1
10.50833,-3
10.51667,-6
10.52500,-10
10.53333,-16
10.54167,-25
10.55000,-36
10.55833,-52
10.56667,-74
10.57500,-102
10.58333,-139
10.59167,-186
10.60000,-245
10.60833,-319
10.61667,-410
10.62500,-520
10.63333,-651
10.64167,-803
10.65000,-979
10.65833,-1178
10.66667,-1399
10.67500,-1639
10.68333,-1897
10.69167,-2165
10.70000,-2440
10.70833,-2712
10.71667,-2974
10.72500,-3215
10.73333,-3423
10.74167,-3586
10.75000,-3692
10.75833,-3727
10.76667,-3678
10.77500,-3531
10.78333,-3273
10.79167,-2894
10.80000,-2382
10.80833,-1726
10.81667,-919
10.82500,48
10.83333,1180
10.84167,2482
10.85000,3957
10.85833,5606
10.86667,7429
10.87500,9425
10.88333,11591
10.89167,13921
10.90000,16409
10.90833,19047
10.91667,21826
10.92500,24731
10.93333,27750
10.94167,30862
10.95000,34049
10.95833,37284
10.96667,40540
10.97500,43784
10.98333,46977
10.99167,50078
11.00000,53041
11.00833,55816
11.01667,58351
11.02500,60594
11.03333,62493
11.04167,64003
11.05000,65084
11.05833,65705
11.06667,65846
11.07500,65501
11.08333,64677
11.09167,63394
11.10000,61685
11.10833,59593
11.11667,57172
11.12500,54479
11.13333,51576
11.14167,48524
11.15000,45383
11.15833,42209
11.16667,39051
11.17500,35953
11.18333,32951
11.19167,30074
11.20000,27344
11.20833,24776
11.21667,22379
11.22500,20157
11.23333,18112
11.24167,16238
11.25000,14532
11.25833,12985
11.26667,11588
11.27500,10331
11.28333,9203
11.29167,8195
11.30000,7295
11.30833,6495
11.31667,5784
11.32500,5153
11.33333,4595
11.34167,4102
11.35000,3667
11.35833,3282
11.36667,2944
11.37500,2645
11.38333,2381
11.39167,2150
11.40000,1945
11.40833,1765
11.41667,1606
11.42500,1465
11.43333,1341
11.44167,1230
11.45000,1133
11.45833,1046
11.46667,969
11.47500,900
11.48333,839
11.49167,784
11.50000,735
11.50833,691
11.51667,651
11.52500,615
11.53333,583
11.54167,553
11.55000,526
11.55833,501
11.56667,478
11.57500,457
11.58333,437
11.59167,419
11.60000,402
11.60833,387
11.61667,373
11.62500,359
11.63333,347
11.64167,335
11.65000,324
11.65833,314
11.66667,304
11.67500,295
11.68333,287
11.69167,279
11.70000,272
11.70833,264
11.71667,258
11.72500,251
11.73333,245
11.74167,239
11.75000,233
11.75833,228
11.76667,223
11.77500,219
11.78333,214
11.79167,210
11.80000,205
11.80833,202
11.81667,198
11.82500,194
11.83333,191
11.84167,188
11.85000,184
11.85833,181
11.86667,178
11.87500,176
11.88333,174
11.89167,171
11.90000,169
11.90833,167
11.91667,165
11.92500,163
11.93333,160
11.94167,159
11.95000,157
11.95833,156
11.96667,154
11.97500,152
11.98333,151
11.99167,150
12.00000,149
12.00833,148
12.01667,147
12.02500,146
12.03333,145
12.04167,144
12.05000,144
12.05833,143
12.06667,141
12.07500,140
12.08333,139
12.09167,138
12.10000,137
12.10833,136
12.11667,135
12.12500,134
12.13333,133
12.14167,133
12.15000,132
12.15833,131
12.16667,130
12.17500,129
12.18333,128
12.19167,127
12.20000,126
12.20833,126
12.21667,125
12.22500,124
12.23333,123
12.24167,122
12.25000,121
12.25833,120
12.26667,120
12.27500,119
12.28333,118
12.29167,117
12.30000,117
12.30833,116
12.31667,115
12.32500,115
12.33333,114
12.34167,113
12.35000,112
12.35833,111
12.36667,111
12.37500,111
12.38333,110
12.39167,109
12.40000,109
12.40833,108
12.41667,108
12.42500,107
12.43333,107
12.44167,107
12.45000,106
12.45833,105
12.46667,104
12.47500,103
12.48333,102
12.49167,102
12.50000,101
12.50833,100
12.51667,100
12.52500,99
12.53333,99
12.54167,98
12.55000,97
12.55833,96
12.56667,96
12.57500,95
12.58333,94
12.59167,93
12.60000,93
12.60833,92
12.61667,92
12.62500,91
12.63333,90
12.64167,89
12.65000,88
12.65833,88
12.66667,87
12.67500,86
12.68333,85
12.69167,84
12.70000,84
12.70833,83
12.71667,82
12.72500,81
12.73333,80
12.74167,79
12.75000,79
12.75833,78
12.76667,77
12.77500,76
12.78333,76
12.79167,75
12.80000,74
12.80833,74
12.81667,73
12.82500,73
12.83333,72
12.84167,72
12.85000,71
12.85833,71
12.86667,71
12.87500,70
12.88333,69
12.89167,69
12.90000,68
12.90833,68
12.91667,67
12.92500,66
12.93333,66
12.94167,66
12.95000,66
12.95833,66
12.96667,66
12.97500,65
12.98333,65
12.99167,65
13.00000,64
13.00833,63
13.01667,63
13.02500,63
13.03333,62
13.04167,62
13.05000,62
13.05833,61
13.06667,61
13.07500,61
13.08333,61
13.09167,61
13.10000,61
13.10833,60
13.11667,60
13.12500,60
13.13333,60
13.14167,59
13.15000,59
13.15833,59
13.16667,59
13.17500,58
13.18333,58
13.19167,58
13.20000,57
13.20833,57
13.21667,56
13.22500,56
13.23333,56
13.24167,56
13.25000,55
13.25833,55
13.26667,54
13.27500,54
13.28333,54
13.29167,53
13.30000,53
13.30833,52
13.31667,52
13.32500,51
13.33333,50
13.34167,50
13.35000,50
13.35833,50
13.36667,50
13.37500,49
13.38333,49
13.39167,48
13.40000,48
13.40833,47
13.41667,47
13.42500,46
13.43333,46
13.44167,46
13.45000,46
13.45833,45
13.46667,45
13.47500,44
13.48333,44
13.49167,43
13.50000,42
13.50833,42
13.51667,42
13.52500,42
13.53333,42
13.54167,42
13.55000,41
13.55833,41
13.56667,41
13.57500,41
13.58333,40
13.59167,40
13.60000,39
13.60833,39
13.61667,38
13.62500,38
13.63333,38
13.64167,38
13.65000,38
13.65833,38
13.66667,38
13.67500,38
13.68333,37
13.69167,37
13.70000,37
13.70833,37
13.71667,36
13.72500,36
13.73333,36
13.74167,36
13.75000,36
13.75833,36
13.76667,36
13.77500,36
13.78333,36
13.79167,36
13.80000,35
13.80833,35
13.81667,35
13.82500,35
13.83333,35
13.84167,34
13.85000,35
13.85833,35
13.86667,35
13.87500,34
13.88333,34
13.89167,34
13.90000,34
13.90833,35
13.91667,35
13.92500,35
13.93333,34
13.94167,34
13.95000,35
13.95833,35
13.96667,35
13.97500,35
13.98333,35
13.99167,35
14.00000,36
14.00833,36
14.01667,36
14.02500,36
14.03333,36
14.04167,37
14.05000,37
14.05833,37
14.06667,38
14.07500,38
14.08333,38
14.09167,39
14.10000,40
14.10833,41
14.11667,42
14.12500,43
14.13333,44
14.14167,45
14.15000,46
14.15833,48
14.16667,50
14.17500,53
14.18333,56
14.19167,60
14.20000,64
14.20833,68
14.21667,75
14.22500,82
14.23333,91
14.24167,102
14.25000,114
14.25833,130
14.26667,148
14.27500,169
14.28333,196
14.29167,227
14.30000,265
14.30833,310
14.31667,363
14.32500,426
14.33333,499
14.34167,586
14.35000,685
14.35833,800
14.36667,932
14.37500,1082
14.38333,1253
14.39167,1446
14.40000,1663
14.40833,1905
14.41667,2175
14.42500,2472
14.43333,2800
14.44167,3159
14.45000,3550
14.45833,3975
14.46667,4434
14.47500,4928
14.48333,5458
14.49167,6025
14.50000,6628
14.50833,7268
14.51667,7945
14.52500,8658
14.53333,9409
14.54167,10195
14.55000,11018
14.55833,11876
14.56667,12770
14.57500,13698
14.58333,14661
14.59167,15657
14.60000,16687
14.60833,17749
14.61667,18843
14.62500,19969
14.63333,21125
14.64167,22311
14.65000,23527
14.65833,24772
14.66667,26045
14.67500,27346
14.68333,28674
14.69167,30029
14.70000,31411
14.70833,32818
14.71667,34252
14.72500,35711
14.73333,37195
14.74167,38704
14.75000,40237
14.75833,41794
14.76667,43374
14.77500,44978
14.78333,46604
14.79167,48254
14.80000,49927
14.80833,51623
14.81667,53341
14.82500,55081
14.83333,56844
14.84167,58628
14.85000,60433
14.85833,62260
14.86667,64107
14.87500,65975
14.88333,67864
14.89167,69773
14.90000,71702
14.90833,73650
14.91667,75617
14.92500,77603
14.93333,79607
14.94167,81628
14.95000,83666
14.95833,85719
14.96667,87786
14.97500,89866
14.98333,91957
14.99167,94056
15.00000,96161
15.00833,98267
15.01667,100369
15.02500,102458
15.03333,104523
15.04167,106549
15.05000,108515
15.05833,110392
15.06667,112146
15.07500,113733
15.08333,115100
15.09167,116190
15.10000,116941
15.10833,117287
15.11667,117167
15.12500,116526
15.13333,115319
15.14167,113519
15.15000,111115
15.15833,108115
15.16667,104550
15.17500,100470
15.18333,95941
15.19167,91043
15.20000,85864
15.20833,80498
15.21667,75039
15.22500,69576
15.23333,64189
15.24167,58949
15.25000,53916
15.25833,49136
15.26667,44643
15.27500,40458
15.28333,36593
15.29167,33049
15.30000,29823
15.30833,26902
15.31667,24271
15.32500,21912
15.33333,19804
15.34167,17929
15.35000,16264
15.35833,14790
15.36667,13488
15.37500,12341
15.38333,11332
15.39167,10447
15.40000,9672
15.40833,8996
15.41667,8406
15.42500,7894
15.43333,7452
15.44167,7071
15.45000,6745
15.45833,6468
15.46667,6234
15.47500,6038
15.48333,5876
15.49167,5744
15.50000,5638
15.50833,5555
15.51667,5492
15.52500,5445
15.53333,5411
15.54167,5389
15.55000,5375
15.55833,5368
15.56667,5365
15.57500,5365
15.58333,5366
15.59167,5366
15.60000,5363
15.60833,5357
15.61667,5347
15.62500,5331
15.63333,5310
15.64167,5281
15.65000,5244
15.65833,5200
15.66667,5148
15.67500,5088
15.68333,5019
15.69167,4943
15.70000,4858
15.70833,4767
15.71667,4668
15.72500,4564
15.73333,4453
15.74167,4338
15.75000,4218
15.75833,4094
15.76667,3967
15.77500,3838
15.78333,3707
15.79167,3574
15.80000,3441
15.80833,3308
15.81667,3175
15.82500,3043
15.83333,2913
15.84167,2786
15.85000,2661
15.85833,2539
15.86667,2421
15.87500,2306
15.88333,2195
15.89167,2087
15.90000,1984
15.90833,1885
15.91667,1789
15.92500,1699
15.93333,1612
15.94167,1531
15.95000,1453
15.95833,1380
15.96667,1310
15.97500,1245
15.98333,1184
15.99167,1126
16.00000,1072
16.00833,1021
16.01667,974
16.02500,929
16.03333,888
16.04167,850
16.05000,814
16.05833,781
16.06667,750
16.07500,721
16.08333,694
16.09167,670
16.10000,647
16.10833,625
16.11667,605
16.12500,587
16.13333,570
16.14167,554
16.15000,539
16.15833,525
16.16667,513
16.17500,501
16.18333,490
16.19167,480
16.20000,471
16.20833,462
16.21667,453
16.22500,445
16.23333,438
16.24167,431
16.25000,424
16.25833,418
16.26667,412
16.27500,406
16.28333,400
16.29167,395
16.30000,390
16.30833,386
16.31667,381
16.32500,377
16.33333,374
16.34167,370
16.35000,366
16.35833,362
16.36667,358
16.37500,355
16.38333,351
16.39167,347
16.40000,344
16.40833,341
16.41667,338
16.42500,335
16.43333,331
16.44167,328
16.45000,326
16.45833,323
16.46667,321
16.47500,318
16.48333,316
16.49167,313
16.50000,311
16.50833,309
16.51667,306
16.52500,304
16.53333,301
16.54167,299
16.55000,296
16.55833,294
16.56667,292
16.57500,290
16.58333,288
16.59167,286
16.60000,284
16.60833,282
16.61667,280
16.62500,279
16.63333,277
16.64167,275
16.65000,273
16.65833,271
16.66667,268
16.67500,266
16.68333,265
16.69167,263
16.70000,261
16.70833,259
16.71667,257
16.72500,256
16.73333,255
16.74167,253
16.75000,251
16.75833,250
16.76667,248
16.77500,246
16.78333,245
16.79167,243
16.80000,241
16.80833,240
16.81667,239
16.82500,237
16.83333,236
16.84167,235
16.85000,233
16.85833,232
16.86667,231
16.87500,229
16.88333,228
16.89167,227
16.90000,225
16.90833,224
16.91667,222
16.92500,221
16.93333,220
16.94167,219
16.95000,218
16.95833,217
16.96667,216
16.97500,215
16.98333,213
16.99167,212
17.00000,211
17.00833,210
17.01667,208
17.02500,207
17.03333,206
17.04167,205
17.05000,204
17.05833,203
17.06667,202
17.07500,201
17.08333,200
17.09167,198
17.10000,198
17.10833,197
17.11667,195
17.12500,194
17.13333,192
17.14167,191
17.15000,191
17.15833,190
17.16667,189
17.17500,187
17.18333,186
17.19167,185
17.20000,184
17.20833,183
17.21667,182
17.22500,181
17.23333,181
17.24167,180
17.25000,179
17.25833,177
17.26667,176
17.27500,176
17.28333,175
17.29167,174
17.30000,173
17.30833,172
17.31667,171
17.32500,170
17.33333,169
17.34167,168
17.35000,167
17.35833,166
17.36667,166
17.37500,165
17.38333,164
17.39167,162
17.40000,161
17.40833,160
17.41667,159
17.42500,158
17.43333,157
17.44167,156
17.45000,155
17.45833,154
17.46667,153
17.47500,152
17.48333,151
17.49167,150
17.50000,149
17.50833,148
17.51667,148
17.52500,147
17.53333,146
17.54167,145
17.55000,144
17.55833,143
17.56667,142
17.57500,142
17.58333,141
17.59167,140
17.60000,139
17.60833,138
17.61667,138
17.62500,137
17.63333,136
17.64167,135
17.65000,134
17.65833,133
17.66667,132
17.67500,131
17.68333,131
17.69167,130
17.70000,129
17.70833,128
17.71667,128
17.72500,127
17.73333,126
17.74167,125
17.75000,124
17.75833,124
17.76667,123
17.77500,123
17.78333,122
17.79167,121
17.80000,120
17.80833,119
17.81667,118
17.82500,117
17.83333,116
17.84167,115
17.85000,114
17.85833,114
17.86667,113
17.87500,113
17.88333,112
17.89167,111
17.90000,111
17.90833,110
17.91667,109
17.92500,109
17.93333,108
17.94167,107
17.95000,106
17.95833,106
17.96667,105
17.97500,104
17.98333,103
17.99167,103
18.00000,102
18.00833,101
18.01667,101
18.02500,100
18.03333,99
18.04167,98
18.05000,98
18.05833,97
18.06667,96
18.07500,96
18.08333,95
18.09167,95
18.10000,94
18.10833,93
18.11667,93
18.12500,92
18.13333,92
18.14167,91
18.15000,91
18.15833,91
18.16667,91
18.17500,90
18.18333,89
18.19167,89
18.20000,88
18.20833,88
18.21667,87
18.22500,86
18.23333,86
18.24167,85
18.25000,84
18.25833,83
18.26667,82
18.27500,82
18.28333,81
18.29167,81
18.30000,80
18.30833,80
18.31667,79
18.32500,78
18.33333,78
18.34167,78
18.35000,77
18.35833,77
18.36667,76
18.37500,76
18.38333,75
18.39167,75
18.40000,75
18.40833,74
18.41667,74
18.42500,73
18.43333,73
18.44167,72
18.45000,71
18.45833,71
18.46667,71
18.47500,70
18.48333,70
18.49167,70
18.50000,70
18.50833,69
18.51667,69
18.52500,68
18.53333,67
18.54167,67
18.55000,67
18.55833,66
18.56667,66
18.57500,66
18.58333,65
18.59167,65
18.60000,65
18.60833,64
18.61667,64
18.62500,63
18.63333,62
18.64167,62
18.65000,61
18.65833,61
18.66667,61
18.67500,61
18.68333,61
18.69167,61
18.70000,61
18.70833,61
18.71667,61
18.72500,61
18.73333,61
18.74167,61
18.75000,62
18.75833,62
18.76667,62
18.77500,62
18.78333,62
18.79167,62
18.80000,63
18.80833,63
18.81667,64
18.82500,64
18.83333,65
18.84167,65
18.85000,66
18.85833,66
18.86667,67
18.87500,68
18.88333,69
18.89167,70
18.90000,71
18.90833,71
18.91667,72
18.92500,72
18.93333,73
18.94167,73
18.95000,73
18.95833,74
18.96667,74
18.97500,74
18.98333,74
18.99167,74
19.00000,74
19.00833,74
19.01667,73
19.02500,73
19.03333,73
19.04167,73
19.05000,73
19.05833,72
19.06667,72
19.07500,72
19.08333,72
19.09167,71
19.10000,70
19.10833,70
19.11667,69
19.12500,67
19.13333,66
19.14167,65
19.15000,64
19.15833,63
19.16667,62
19.17500,61
19.18333,60
19.19167,59
19.20000,58
19.20833,57
19.21667,56
19.22500,55
19.23333,54
19.24167,53
19.25000,52
19.25833,51
19.26667,51
19.27500,50
19.28333,49
19.29167,48
19.30000,47
19.30833,46
19.31667,45
19.32500,44
19.33333,44
19.34167,43
19.35000,43
19.35833,42
19.36667,42
19.37500,41
19.38333,40
19.39167,40
19.40000,39
19.40833,39
19.41667,38
19.42500,38
19.43333,38
19.44167,38
19.45000,38
19.45833,37
19.46667,37
19.47500,37
19.48333,36
19.49167,35
19.50000,35
19.50833,34
19.51667,34
19.52500,34
19.53333,33
19.54167,33
19.55000,34
19.55833,33
19.56667,33
19.57500,32
19.58333,32
19.59167,32
19.60000,31
19.60833,31
19.61667,30
19.62500,30
19.63333,30
19.64167,30
19.65000,30
19.65833,30
19.66667,30
19.67500,30
19.68333,30
19.69167,30
19.70000,30
19.70833,30
19.71667,29
19.72500,29
19.73333,29
19.74167,28
19.75000,28
19.75833,28
19.76667,28
19.77500,28
19.78333,28
19.79167,28
19.80000,28
19.80833,28
19.81667,27
19.82500,27
19.83333,26
19.84167,26
19.85000,26
19.85833,25
19.86667,25
19.87500,25
19.88333,25
19.89167,25
19.90000,24
19.90833,24
19.91667,24
19.92500,25
19.93333,25
19.94167,25
19.95000,24
19.95833,24
19.96667,24
19.97500,24
19.98333,24
19.99167,24
20.00000,24
20.00833,23
20.01667,23
20.02500,23
20.03333,23
20.04167,23
20.05000,23
20.05833,23
20.06667,23
20.07500,22
20.08333,22
20.09167,22
20.10000,22
20.10833,22
20.11667,22
20.12500,22
20.13333,22
20.14167,21
20.15000,21
20.15833,21
20.16667,21
20.17500,21
20.18333,21
20.19167,21
20.20000,21
20.20833,21
20.21667,21
20.22500,20
20.23333,20
20.24167,20
20.25000,20
20.25833,20
20.26667,19
20.27500,19
20.28333,19
20.29167,20
20.30000,20
20.30833,20
20.31667,20
20.32500,20
20.33333,20
20.34167,20
20.35000,19
20.35833,19
20.36667,19
20.37500,19
20.38333,19
20.39167,18
20.40000,18
20.40833,18
20.41667,18
20.42500,18
20.43333,18
20.44167,17
20.45000,17
20.45833,17
20.46667,17
20.47500,17
20.48333,17
20.49167,17
20.50000,17
20.50833,17
20.51667,17
20.52500,17
20.53333,17
20.54167,17
20.55000,17
20.55833,17
20.56667,17
20.57500,16
20.58333,16
20.59167,16
20.60000,16
20.60833,16
20.61667,15
20.62500,15
20.63333,15
20.64167,15
20.65000,14
20.65833,14
20.66667,14
20.67500,14
20.68333,14
20.69167,14
20.70000,14
20.70833,14
20.71667,13
20.72500,13
20.73333,13
20.74167,13
20.75000,13
20.75833,13
20.76667,13
20.77500,13
20.78333,13
20.79167,13
20.80000,13
20.80833,13
20.81667,13
20.82500,13
20.83333,13
20.84167,12
20.85000,12
20.85833,12
20.86667,12
20.87500,12
20.88333,12
20.89167,12
20.90000,12
20.90833,12
20.91667,12
20.92500,12
20.93333,12
20.94167,12
20.95000,11
20.95833,11
20.96667,10
20.97500,10
20.98333,11
20.99167,11
21.00000,11
21.00833,11
21.01667,11
21.02500,11
21.03333,11
21.04167,11
21.05000,10
21.05833,10
21.06667,10
21.07500,10
21.08333,9
21.09167,9
21.10000,9
21.10833,9
21.11667,9
21.12500,9
21.13333,9
21.14167,9
21.15000,9
21.15833,9
21.16667,9
21.17500,9
21.18333,9
21.19167,9
21.20000,9
21.20833,9
21.21667,9
21.22500,9
21.23333,9
21.24167,9
21.25000,9
21.25833,9
21.26667,9
21.27500,9
21.28333,9
21.29167,9
21.30000,8
21.30833,8
21.31667,8
21.32500,8
21.33333,8
21.34167,8
21.35000,9
21.35833,9
21.36667,9
21.37500,9
21.38333,9
21.39167,9
21.40000,9
21.40833,9
21.41667,10
21.42500,10
21.43333,10
21.44167,10
21.45000,10
21.45833,11
21.46667,11
21.47500,11
21.48333,11
21.49167,11
21.50000,12
21.50833,13
21.51667,14
21.52500,15
21.53333,16
21.54167,16
21.55000,18
21.55833,19
21.56667,21
21.57500,22
21.58333,24
21.59167,26
21.60000,29
21.60833,32
21.61667,35
21.62500,39
21.63333,43
21.64167,47
21.65000,52
21.65833,58
21.66667,64
21.67500,71
21.68333,79
21.69167,87
21.70000,97
21.70833,107
21.71667,118
21.72500,130
21.73333,143
21.74167,157
21.75000,172
21.75833,188
21.76667,205
21.77500,223
21.78333,243
21.79167,263
21.80000,285
21.80833,309
21.81667,333
21.82500,359
21.83333,385
21.84167,413
21.85000,442
21.85833,471
21.86667,500
21.87500,531
21.88333,562
21.89167,593
21.90000,625
21.90833,657
21.91667,688
21.92500,720
21.93333,750
21.94167,780
21.95000,809
21.95833,838
21.96667,865
21.97500,891
21.98333,916
21.99167,939
22.00000,960
22.00833,980
22.01667,997
22.02500,1012
22.03333,1024
22.04167,1035
22.05000,1043
22.05833,1049
22.06667,1052
22.07500,1053
22.08333,1052
22.09167,1049
22.10000,1043
22.10833,1035
22.11667,1025
22.12500,1013
22.13333,998
22.14167,982
22.15000,963
22.15833,943
22.16667,922
22.17500,899
22.18333,876
22.19167,851
22.20000,826
22.20833,800
22.21667,773
22.22500,746
22.23333,719
22.24167,691
22.25000,663
22.25833,635
22.26667,607
22.27500,579
22.28333,552
22.29167,525
22.30000,499
22.30833,473
22.31667,448
22.32500,424
22.33333,400
22.34167,377
22.35000,355
22.35833,334
22.36667,314
22.37500,295
22.38333,276
22.39167,259
22.40000,242
22.40833,227
22.41667,212
22.42500,197
22.43333,184
22.44167,171
22.45000,159
22.45833,148
22.46667,138
22.47500,128
22.48333,118
22.49167,110
22.50000,102
22.50833,95
22.51667,88
22.52500,82
22.53333,76
22.54167,71
22.55000,66
22.55833,61
22.56667,57
22.57500,53
22.58333,49
22.59167,46
22.60000,43
22.60833,40
22.61667,38
22.62500,35
22.63333,33
22.64167,31
22.65000,29
22.65833,27
22.66667,26
22.67500,24
22.68333,23
22.69167,21
22.70000,20
22.70833,19
22.71667,19
22.72500,18
22.73333,17
22.74167,16
22.75000,15
22.75833,14
22.76667,14
22.77500,13
22.78333,13
22.79167,12
22.80000,11
22.80833,11
22.81667,10
22.82500,10
22.83333,10
22.84167,9
22.85000,9
22.85833,9
22.86667,9
22.87500,9
22.88333,9
22.89167,8
22.90000,8
22.90833,8
22.91667,8
22.92500,7
22.93333,7
22.94167,7
22.95000,7
22.95833,7
22.96667,7
22.97500,7
22.98333,7
22.99167,7
23.00000,7
23.00833,6
23.01667,6
23.02500,6
23.03333,6
23.04167,5
23.05000,5
23.05833,5
23.06667,5
23.07500,5
23.08333,4
23.09167,4
23.10000,4
23.10833,5
23.11667,5
23.12500,5
23.13333,5
23.14167,5
23.15000,4
23.15833,4
23.16667,4
23.17500,5
23.18333,4
23.19167,4
23.20000,4
23.20833,4
23.21667,4
23.22500,4
23.23333,4
23.24167,4
23.25000,4
23.25833,4
23.26667,4
23.27500,4
23.28333,4
23.29167,4
23.30000,4
23.30833,4
23.31667,4
23.32500,4
23.33333,4
23.34167,3
23.35000,3
23.35833,3
23.36667,3
23.37500,3
23.38333,3
23.39167,3
23.40000,3
23.40833,3
23.41667,3
23.42500,3
23.43333,3
23.44167,3
23.45000,3
23.45833,2
23.46667,2
23.47500,2
23.48333,2
23.49167,2
23.50000,2
23.50833,2
23.51667,1
23.52500,1
23.53333,2
23.54167,2
23.55000,2
23.55833,2
23.56667,2
23.57500,2
23.58333,2
23.59167,1
23.60000,1
23.60833,1
23.61667,1
23.62500,1
23.63333,1
23.64167,1
23.65000,1
23.65833,1
23.66667,1
23.67500,1
23.68333,1
23.69167,1
23.70000,1
23.70833,1
23.71667,1
23.72500,2
23.73333,2
23.74167,2
23.75000,2
23.75833,2
23.76667,2
23.77500,1
23.78333,1
23.79167,1
23.80000,1
23.80833,1
23.81667,1
23.82500,1
23.83333,1
23.84167,1
23.85000,1
23.85833,1
23.86667,1
23.87500,1
23.88333,1
23.89167,0
23.90000,0
23.90833,1
23.91667,1
23.92500,1
23.93333,1
23.94167,1
23.95000,1
23.95833,1
23.96667,1
23.97500,0
23.98333,0
23.99167,-0
24.00000,-0
24.00833,-0
24.01667,-0
24.02500,0
24.03333,0
24.04167,0
24.05000,0
24.05833,0
24.06667,0
24.07500,1
24.08333,1
24.09167,1
24.10000,0
24.10833,0
24.11667,0
24.12500,-0
24.13333,0
24.14167,0
24.15000,0
24.15833,-0
24.16667,-0
24.17500,-0
24.18333,-0
24.19167,-0
24.20000,-0
24.20833,-0
24.21667,-0
24.22500,-0
24.23333,-0
24.24167,-0
24.25000,-0
24.25833,0
24.26667,0
24.27500,0
24.28333,0
24.29167,0
24.30000,0
24.30833,0
24.31667,1
24.32500,1
24.33333,1
24.34167,1
24.35000,1
24.35833,1
24.36667,0
24.37500,0
24.38333,0
24.39167,1
24.40000,1
24.40833,2
24.41667,2
24.42500,2
24.43333,2
24.44167,3
24.45000,3
24.45833,3
24.46667,4
24.47500,4
24.48333,5
24.49167,5
24.50000,5
24.50833,6
24.51667,6
24.52500,7
24.53333,8
24.54167,8
24.55000,9
24.55833,10
24.56667,11
24.57500,12
24.58333,14
24.59167,15
24.60000,17
24.60833,19
24.61667,21
24.62500,24
24.63333,26
24.64167,29
24.65000,32
24.65833,35
24.66667,39
24.67500,43
24.68333,46
24.69167,50
24.70000,55
24.70833,60
24.71667,65
24.72500,71
24.73333,77
24.74167,84
24.75000,91
24.75833,99
24.76667,107
24.77500,115
24.78333,123
24.79167,132
24.80000,140
24.80833,150
24.81667,160
24.82500,169
24.83333,179
24.84167,189
24.85000,200
24.85833,211
24.86667,222
24.87500,233
24.88333,245
24.89167,256
24.90000,267
24.90833,278
24.91667,289
24.92500,300
24.93333,311
24.94167,321
24.95000,332
24.95833,341
24.96667,351
24.97500,360
24.98333,368
24.99167,375
25.00000,382
25.00833,389
25.01667,395
25.02500,400
25.03333,404
25.04167,407
25.05000,410
25.05833,412
25.06667,413
25.07500,414
25.08333,413
25.09167,412
25.10000,410
25.10833,408
25.11667,405
25.12500,401
25.13333,396
25.14167,391
25.15000,385
25.15833,378
25.16667,371
25.17500,363
25.18333,355
25.19167,346
25.20000,337
25.20833,328
25.21667,319
25.22500,309
25.23333,299
25.24167,289
25.25000,279
25.25833,269
25.26667,258
25.27500,248
25.28333,238
25.29167,228
25.30000,218
25.30833,208
25.31667,199
25.32500,189
25.33333,180
25.34167,171
25.35000,162
25.35833,153
25.36667,145
25.37500,136
25.38333,128
25.39167,121
25.40000,113
25.40833,106
25.41667,100
25.42500,93
25.43333,87
25.44167,82
25.45000,76
25.45833,72
25.46667,67
25.47500,62
25.48333,58
25.49167,54
25.50000,50
25.50833,47
25.51667,43
25.52500,40
25.53333,37
25.54167,34
25.55000,31
25.55833,29
25.56667,27
25.57500,25
25.58333,23
25.59167,21
25.60000,20
25.60833,18
25.61667,17
25.62500,16
25.63333,15
25.64167,14
25.65000,13
25.65833,12
25.66667,11
25.67500,11
25.68333,10
25.69167,9
25.70000,8
25.70833,8
25.71667,7
25.72500,7
25.73333,6
25.74167,6
25.75000,6
25.75833,5
25.76667,5
25.77500,5
25.78333,4
25.79167,4
25.80000,4
25.80833,4
25.81667,4
25.82500,4
25.83333,4
25.84167,4
25.85000,4
25.85833,3
25.86667,3
25.87500,3
25.88333,3
25.89167,3
25.90000,3
25.90833,3
25.91667,3
25.92500,3
25.93333,3
25.94167,3
25.95000,3
25.95833,3
25.96667,2
25.97500,2
25.98333,1
25.99167,1
26.00000,1
26.00833,1
26.01667,1
26.02500,2
26.03333,2
26.04167,2
26.05000,2
26.05833,2
26.06667,2
26.07500,2
26.08333,1
26.09167,2
26.10000,2
26.10833,2
26.11667,2
26.12500,1
26.13333,1
26.14167,1
26.15000,1
26.15833,1
26.16667,1
26.17500,1
26.18333,1
26.19167,1
26.20000,1
26.20833,1
26.21667,1
26.22500,1
26.23333,2
26.24167,2
26.25000,2
26.25833,2
26.26667,2
26.27500,1
26.28333,1
26.29167,1
26.30000,1
26.30833,1
26.31667,1
26.32500,1
26.33333,1
26.34167,1
26.35000,1
26.35833,1
26.36667,1
26.37500,1
26.38333,1
26.39167,2
26.40000,2
26.40833,2
26.41667,2
26.42500,2
26.43333,2
26.44167,2
26.45000,1
26.45833,1
26.46667,1
26.47500,1
26.48333,1
26.49167,1
26.50000,2
26.50833,2
26.51667,2
26.52500,2
26.53333,2
26.54167,1
26.55000,1
26.55833,1
26.56667,2
26.57500,2
26.58333,2
26.59167,2
26.60000,2
26.60833,2
26.61667,2
26.62500,3
26.63333,2
26.64167,2
26.65000,2
26.65833,2
26.66667,2
26.67500,2
26.68333,2
26.69167,2
26.70000,1
26.70833,1
26.71667,2
26.72500,2
26.73333,2
26.74167,2
26.75000,2
26.75833,3
26.76667,3
26.77500,2
26.78333,2
26.79167,2
26.80000,2
26.80833,2
26.81667,3
26.82500,3
26.83333,3
26.84167,3
26.85000,2
26.85833,2
26.86667,3
26.87500,3
26.88333,3
26.89167,2
26.90000,2
26.90833,2
26.91667,2
26.92500,2
26.93333,2
26.94167,2
26.95000,2
26.95833,2
26.96667,2
26.97500,2
26.98333,2
26.99167,3
27.00000,3
27.00833,3
27.01667,3
27.02500,3
27.03333,2
27.04167,2
27.05000,2
27.05833,2
27.06667,2
27.07500,2
27.08333,1
27.09167,1
27.10000,1
27.10833,2
27.11667,2
27.12500,2
27.13333,2
27.14167,2
27.15000,2
27.15833,2
27.16667,3
27.17500,3
27.18333,3
27.19167,2
27.20000,2
27.20833,2
27.21667,2
27.22500,2
27.23333,2
27.24167,3
27.25000,3
27.25833,3
27.26667,3
27.27500,3
27.28333,2
27.29167,2
27.30000,2
27.30833,1
27.31667,1
27.32500,1
27.33333,1
27.34167,1
27.35000,1
27.35833,1
27.36667,1
27.37500,1
27.38333,1
27.39167,2
27.40000,2
27.40833,2
27.41667,2
27.42500,2
27.43333,2
27.44167,2
27.45000,2
27.45833,2
27.46667,2
27.47500,2
27.48333,2
27.49167,2
27.50000,2
27.50833,2
27.51667,2
27.52500,2
27.53333,2
27.54167,2
27.55000,2
27.55833,2
27.56667,2
27.57500,2
27.58333,2
27.59167,2
27.60000,2
27.60833,2
27.61667,2
27.62500,1
27.63333,1
27.64167,1
27.65000,1
27.65833,1
27.66667,0
27.67500,0
27.68333,-0
27.69167,-1
27.70000,-0
27.70833,-0
27.71667,-0
27.72500,0
27.73333,0
27.74167,0
27.75000,0
27.75833,-0
27.76667,-0
27.77500,0
27.78333,0
27.79167,-0
27.80000,-1
27.80833,-2
27.81667,-2
27.82500,-3
27.83333,-4
27.84167,-5
27.85000,-5
27.85833,-6
27.86667,-6
27.87500,-6
27.88333,-7
27.89167,-8
27.90000,-9
27.90833,-9
27.91667,-11
27.92500,-12
27.93333,-13
27.94167,-14
27.95000,-15
27.95833,-16
27.96667,-17
27.97500,-19
27.98333,-20
27.99167,-22
28.00000,-24
28.00833,-26
28.01667,-27
28.02500,-29
28.03333,-31
28.04167,-33
28.05000,-35
28.05833,-37
28.06667,-39
28.07500,-41
28.08333,-44
28.09167,-46
28.10000,-49
28.10833,-52
28.11667,-54
28.12500,-57
28.13333,-59
28.14167,-62
28.15000,-65
28.15833,-68
28.16667,-71
28.17500,-74
28.18333,-76
28.19167,-79
28.20000,-82
28.20833,-85
28.21667,-88
28.22500,-92
28.23333,-95
28.24167,-99
28.25000,-101
28.25833,-104
28.26667,-107
28.27500,-109
28.28333,-112
28.29167,-114
28.30000,-117
28.30833,-120
28.31667,-122
28.32500,-125
28.33333,-127
28.34167,-129
28.35000,-131
28.35833,-133
28.36667,-134
28.37500,-135
28.38333,-137
28.39167,-138
28.40000,-139
28.40833,-140
28.41667,-141
28.42500,-141
28.43333,-142
28.44167,-142
28.45000,-142
28.45833,-142
28.46667,-142
28.47500,-141
28.48333,-141
28.49167,-140
28.50000,-140
28.50833,-139
28.51667,-137
28.52500,-136
28.53333,-134
28.54167,-133
28.55000,-131
28.55833,-130
28.56667,-128
28.57500,-126
28.58333,-124
28.59167,-121
28.60000,-119
28.60833,-116
28.61667,-114
28.62500,-111
28.63333,-108
28.64167,-105
28.65000,-103
28.65833,-100
28.66667,-98
28.67500,-96
28.68333,-94
28.69167,-91
28.70000,-89
28.70833,-86
28.71667,-84
28.72500,-81
28.73333,-78
28.74167,-76
28.75000,-73
28.75833,-71
28.76667,-68
28.77500,-66
28.78333,-64
28.79167,-61
28.80000,-59
28.80833,-57
28.81667,-55
28.82500,-53
28.83333,-51
28.84167,-50
28.85000,-48
28.85833,-46
28.86667,-45
28.87500,-43
28.88333,-41
28.89167,-39
28.90000,-37
28.90833,-36
28.91667,-35
28.92500,-33
28.93333,-32
28.94167,-31
28.95000,-30
28.95833,-29
28.96667,-27
28.97500,-26
28.98333,-26
28.99167,-25
29.00000,-24
29.00833,-23
29.01667,-22
29.02500,-21
29.03333,-20
29.04167,-20
29.05000,-19
29.05833,-19
29.06667,-19
29.07500,-18
29.08333,-18
29.09167,-18
29.10000,-17
29.10833,-16
29.11667,-16
29.12500,-15
29.13333,-15
29.14167,-14
29.15000,-14
29.15833,-13
29.16667,-13
29.17500,-12
29.18333,-12
29.19167,-12
29.20000,-11
29.20833,-11
29.21667,-11
29.22500,-11
29.23333,-11
29.24167,-11
29.25000,-11
29.25833,-11
29.26667,-11
29.27500,-11
29.28333,-11
29.29167,-11
29.30000,-10
29.30833,-10
29.31667,-10
29.32500,-11
29.33333,-11
29.34167,-11
29.35000,-10
29.35833,-10
29.36667,-10
29.37500,-9
29.38333,-9
29.39167,-9
29.40000,-9
29.40833,-9
29.41667,-9
29.42500,-9
29.43333,-9
29.44167,-10
29.45000,-10
29.45833,-10
29.46667,-10
29.47500,-10
29.48333,-10
29.49167,-10
29.50000,-10
29.50833,-10
29.51667,-10
29.52500,-10
29.53333,-10
29.54167,-11
29.55000,-11
29.55833,-11
29.56667,-11
29.57500,-11
29.58333,-11
29.59167,-12
29.60000,-12
29.60833,-13
29.61667,-13
29.62500,-14
29.63333,-14
29.64167,-14
29.65000,-15
29.65833,-15
29.66667,-15
29.67500,-15
29.68333,-16
29.69167,-16
29.70000,-17
29.70833,-17
29.71667,-18
29.72500,-19
29.73333,-19
29.74167,-20
29.75000,-20
29.75833,-21
29.76667,-21
29.77500,-22
29.78333,-23
29.79167,-24
29.80000,-25
29.80833,-26
29.81667,-26
29.82500,-27
29.83333,-28
29.84167,-29
29.85000,-30
29.85833,-31
29.86667,-32
29.87500,-32
29.88333,-33
29.89167,-34
29.90000,-35
29.90833,-36
29.91667,-38
29.92500,-39
29.93333,-40
29.94167,-41
29.95000,-42
29.95833,-44
29.96667,-44
29.97500,-45
29.98333,-46
29.99167,-47
30.00000,-48
30.00833,-48
30.01667,-49
30.02500,-50
30.03333,-51
30.04167,-52
30.05000,-53
30.05833,-54
30.06667,-55
30.07500,-55
30.08333,-56
30.09167,-56
30.10000,-57
30.10833,-57
30.11667,-58
30.12500,-58
30.13333,-59
30.14167,-59
30.15000,-59
30.15833,-60
30.16667,-60
30.17500,-60
30.18333,-60
30.19167,-60
30.20000,-60
30.20833,-59
30.21667,-59
30.22500,-60
30.23333,-60
30.24167,-59
30.25000,-59
30.25833,-59
30.26667,-58
30.27500,-58
30.28333,-57
30.29167,-57
30.30000,-56
30.30833,-56
30.31667,-55
30.32500,-55
30.33333,-54
30.34167,-53
30.35000,-52
30.35833,-52
30.36667,-51
30.37500,-51
30.38333,-50
30.39167,-49
30.40000,-48
30.40833,-47
30.41667,-46
30.42500,-45
30.43333,-44
30.44167,-43
30.45000,-42
30.45833,-41
30.46667,-41
30.47500,-40
30.48333,-39
30.49167,-38
30.50000,-37
30.50833,-37
30.51667,-36
30.52500,-35
30.53333,-34
30.54167,-34
30.55000,-33
30.55833,-32
30.56667,-31
30.57500,-30
30.58333,-29
30.59167,-29
30.60000,-28
30.60833,-27
30.61667,-26
30.62500,-26
30.63333,-26
30.64167,-25
30.65000,-25
30.65833,-25
30.66667,-24
30.67500,-24
30.68333,-23
30.69167,-23
30.70000,-22
30.70833,-21
30.71667,-21
30.72500,-20
30.73333,-20
30.74167,-19
30.75000,-19
30.75833,-19
30.76667,-19
30.77500,-18
30.78333,-18
30.79167,-18
30.80000,-18
30.80833,-18
30.81667,-17
30.82500,-17
30.83333,-17
30.84167,-17
30.85000,-17
30.85833,-17
30.86667,-16
30.87500,-16
30.88333,-16
30.89167,-15
30.90000,-15
30.90833,-15
30.91667,-15
30.92500,-15
30.93333,-15
30.94167,-15
30.95000,-15
30.95833,-15
30.96667,-15
30.97500,-15
30.98333,-15
30.99167,-15
31.00000,-15
31.00833,-14
31.01667,-14
31.02500,-14
31.03333,-14
31.04167,-14
31.05000,-14
31.05833,-14
31.06667,-14
31.07500,-14
31.08333,-14
31.09167,-14
31.10000,-14
31.10833,-14
31.11667,-14
31.12500,-14
31.13333,-14
31.14167,-13
31.15000,-13
31.15833,-13
31.16667,-13
31.17500,-13
31.18333,-13
31.19167,-13
31.20000,-13
31.20833,-13
31.21667,-13
31.22500,-14
31.23333,-14
31.24167,-13
31.25000,-13
31.25833,-13
31.26667,-13
31.27500,-12
31.28333,-13
31.29167,-12
31.30000,-12
31.30833,-12
31.31667,-12
31.32500,-12
31.33333,-12
31.34167,-13
31.35000,-13
31.35833,-13
31.36667,-13
31.37500,-13
31.38333,-13
31.39167,-13
31.40000,-13
31.40833,-13
31.41667,-13
31.42500,-13
31.43333,-13
31.44167,-12
31.45000,-12
31.45833,-12
31.46667,-12
31.47500,-12
31.48333,-13
31.49167,-13
31.50000,-13
31.50833,-12
31.51667,-12
31.52500,-12
31.53333,-12
31.54167,-11
31.55000,-11
31.55833,-11
31.56667,-11
31.57500,-11
31.58333,-11
31.59167,-11
31.60000,-11
31.60833,-10
31.61667,-10
31.62500,-10
31.63333,-10
31.64167,-11
31.65000,-11
31.65833,-11
31.66667,-10
31.67500,-10
31.68333,-10
31.69167,-11
31.70000,-11
31.70833,-11
31.71667,-11
31.72500,-11
31.73333,-11
31.74167,-11
31.75000,-11
31.75833,-11
31.76667,-11
31.77500,-11
31.78333,-11
31.79167,-10
31.80000,-11
31.80833,-11
31.81667,-10
31.82500,-10
31.83333,-10
31.84167,-10
31.85000,-10
31.85833,-10
31.86667,-10
31.87500,-10
31.88333,-11
31.89167,-11
31.90000,-11
31.90833,-11
31.91667,-12
31.92500,-12
31.93333,-12
31.94167,-12
31.95000,-12
31.95833,-11
31.96667,-10
31.97500,-10
31.98333,-10
31.99167,-11
32.00000,-11
32.00833,-11
32.01667,-11
32.02500,-11
32.03333,-11
32.04167,-11
32.05000,-11
32.05833,-11
32.06667,-11
32.07500,-11
32.08333,-11
32.09167,-11
32.10000,-11
32.10833,-11
32.11667,-11
32.12500,-11
32.13333,-11
32.14167,-11
32.15000,-11
32.15833,-11
32.16667,-11
32.17500,-11
32.18333,-11
32.19167,-11
32.20000,-11
32.20833,-11
32.21667,-11
32.22500,-11
32.23333,-11
32.24167,-11
32.25000,-11
32.25833,-11
32.26667,-11
32.27500,-11
32.28333,-11
32.29167,-11
32.30000,-11
32.30833,-11
32.31667,-10
32.32500,-11
32.33333,-11
32.34167,-11
32.35000,-10
32.35833,-10
32.36667,-10
32.37500,-10
32.38333,-10
32.39167,-10
32.40000,-10
32.40833,-10
32.41667,-11
32.42500,-11
32.43333,-11
32.44167,-11
32.45000,-11
32.45833,-11
32.46667,-11
32.47500,-10
32.48333,-10
32.49167,-10
32.50000,-11
32.50833,-11
32.51667,-11
32.52500,-11
32.53333,-11
32.54167,-11
32.55000,-11
32.55833,-11
32.56667,-12
32.57500,-11
32.58333,-11
32.59167,-11
32.60000,-11
32.60833,-11
32.61667,-11
32.62500,-11
32.63333,-11
32.64167,-11
32.65000,-11
32.65833,-11
32.66667,-11
32.67500,-11
32.68333,-11
32.69167,-11
32.70000,-11
32.70833,-11
32.71667,-11
32.72500,-12
32.73333,-12
32.74167,-12
32.75000,-11
32.75833,-11
32.76667,-11
32.77500,-11
32.78333,-11
32.79167,-11
32.80000,-11
32.80833,-11
32.81667,-11
32.82500,-11
32.83333,-11
32.84167,-11
32.85000,-11
32.85833,-11
32.86667,-11
32.87500,-11
32.88333,-11
32.89167,-11
32.90000,-11
32.90833,-11
32.91667,-11
32.92500,-11
32.93333,-11
32.94167,-11
32.95000,-11
32.95833,-11
32.96667,-11
32.97500,-11
32.98333,-11
32.99167,-12
33.00000,-12
33.00833,-12
33.01667,-12
33.02500,-12
33.03333,-12
33.04167,-12
33.05000,-12
33.05833,-12
33.06667,-12
33.07500,-12
33.08333,-12
33.09167,-12
33.10000,-12
33.10833,-11
33.11667,-12
33.12500,-12
33.13333,-11
33.14167,-11
33.15000,-12
33.15833,-12
33.16667,-12
33.17500,-12
33.18333,-12
33.19167,-12
33.20000,-12
33.20833,-11
33.21667,-11
33.22500,-12
33.23333,-12
33.24167,-12
33.25000,-12
33.25833,-12
33.26667,-12
33.27500,-12
33.28333,-12
33.29167,-12
33.30000,-12
33.30833,-12
33.31667,-12
33.32500,-12
33.33333,-12
33.34167,-12
33.35000,-12
33.35833,-12
33.36667,-12
33.37500,-12
33.38333,-12
33.39167,-12
33.40000,-12
33.40833,-12
33.41667,-12
33.42500,-12
33.43333,-12
33.44167,-12
33.45000,-13
33.45833,-13
33.46667,-13
33.47500,-12
33.48333,-12
33.49167,-13
33.50000,-13
33.50833,-12
33.51667,-12
33.52500,-12
33.53333,-12
33.54167,-12
33.55000,-12
33.55833,-12
33.56667,-12
33.57500,-12
33.58333,-12
33.59167,-12
33.60000,-12
33.60833,-12
33.61667,-12
33.62500,-12
33.63333,-12
33.64167,-12
33.65000,-12
33.65833,-12
33.66667,-12
33.67500,-12
33.68333,-13
33.69167,-13
33.70000,-13
33.70833,-13
33.71667,-13
33.72500,-13
33.73333,-13
33.74167,-12
33.75000,-12
33.75833,-12
33.76667,-12
33.77500,-13
33.78333,-13
33.79167,-12
33.80000,-12
33.80833,-13
33.81667,-13
33.82500,-13
33.83333,-13
33.84167,-13
33.85000,-13
33.85833,-13
33.86667,-12
33.87500,-12
33.88333,-12
33.89167,-12
33.90000,-13
33.90833,-13
33.91667,-13
33.92500,-13
33.93333,-13
33.94167,-13
33.95000,-13
33.95833,-13
33.96667,-12
33.97500,-12
33.98333,-13
33.99167,-13
34.00000,-13
34.00833,-13
34.01667,-13
34.02500,-13
34.03333,-13
34.04167,-13
34.05000,-13
34.05833,-13
34.06667,-13
34.07500,-13
34.08333,-13
34.09167,-13
34.10000,-13
34.10833,-13
34.11667,-13
34.12500,-13
34.13333,-13
34.14167,-13
34.15000,-13
34.15833,-13
34.16667,-13
34.17500,-13
34.18333,-13
34.19167,-13
34.20000,-13
34.20833,-13
34.21667,-13
34.22500,-13
34.23333,-13
34.24167,-13
34.25000,-13
34.25833,-13
34.26667,-13
34.27500,-13
34.28333,-13
34.29167,-13
34.30000,-12
34.30833,-11
34.31667,-11
34.32500,-12
34.33333,-12
34.34167,-12
34.35000,-12
34.35833,-12
34.36667,-12
34.37500,-12
34.38333,-13
34.39167,-13
34.40000,-12
34.40833,-12
34.41667,-12
34.42500,-12
34.43333,-12
34.44167,-12
34.45000,-12
34.45833,-13
34.46667,-13
34.47500,-13
34.48333,-13
34.49167,-13
34.50000,-12
34.50833,-12
34.51667,-12
34.52500,-12
34.53333,-12
34.54167,-12
34.55000,-12
34.55833,-12
34.56667,-13
34.57500,-13
34.58333,-13
34.59167,-13
34.60000,-12
34.60833,-12
34.61667,-12
34.62500,-12
34.63333,-12
34.64167,-12
34.65000,-12
34.65833,-12
34.66667,-12
34.67500,-11
34.68333,-12
34.69167,-12
34.70000,-12
34.70833,-12
34.71667,-12
34.72500,-12
34.73333,-12
34.74167,-12
34.75000,-12
34.75833,-12
34.76667,-12
34.77500,-12
34.78333,-12
34.79167,-11
34.80000,-11
34.80833,-11
34.81667,-12
34.82500,-12
34.83333,-12
34.84167,-12
34.85000,-12
34.85833,-12
34.86667,-12
34.87500,-12
34.88333,-12
34.89167,-12
34.90000,-12
34.90833,-12
34.91667,-12
34.92500,-13
34.93333,-13
34.94167,-13
34.95000,-12
34.95833,-12
34.96667,-12
34.97500,-12
34.98333,-12
34.99167,-12
35.00000,-12
35.00833,-12
35.01667,-12
35.02500,-12
35.03333,-12
35.04167,-12
35.05000,-12
35.05833,-12
35.06667,-12
35.07500,-12
35.08333,-12
35.09167,-12
35.10000,-13
35.10833,-13
35.11667,-13
35.12500,-13
35.13333,-13
35.14167,-13
35.15000,-13
35.15833,-13
35.16667,-13
35.17500,-13
35.18333,-13
35.19167,-13
35.20000,-13
35.20833,-13
35.21667,-12
35.22500,-12
35.23333,-12
35.24167,-12
35.25000,-12
35.25833,-12
35.26667,-12
35.27500,-12
35.28333,-13
35.29167,-13
35.30000,-13
35.30833,-13
35.31667,-12
35.32500,-12
35.33333,-13
35.34167,-13
35.35000,-13
35.35833,-14
35.36667,-14
35.37500,-14
35.38333,-13
35.39167,-13
35.40000,-13
35.40833,-13
35.41667,-13
35.42500,-12
35.43333,-12
35.44167,-13
35.45000,-13
35.45833,-13
35.46667,-13
35.47500,-13
35.48333,-13
35.49167,-14
35.50000,-13
35.50833,-13
35.51667,-13
35.52500,-13
35.53333,-13
35.54167,-13
35.55000,-13
35.55833,-13
35.56667,-13
35.57500,-13
35.58333,-12
35.59167,-12
35.60000,-12
35.60833,-12
35.61667,-12
35.62500,-13
35.63333,-13
35.64167,-13
35.65000,-13
35.65833,-13
35.66667,-13
35.67500,-13
35.68333,-13
35.69167,-13
35.70000,-13
35.70833,-13
35.71667,-13
35.72500,-13
35.73333,-13
35.74167,-14
35.75000,-14
35.75833,-14
35.76667,-14
35.77500,-14
35.78333,-14
35.79167,-14
35.80000,-14
35.80833,-14
35.81667,-13
35.82500,-13
35.83333,-13
35.84167,-13
35.85000,-13
35.85833,-14
35.86667,-14
35.87500,-14
35.88333,-14
35.89167,-14
35.90000,-15
35.90833,-15
35.91667,-14
35.92500,-14
35.93333,-14
35.94167,-14
35.95000,-14
35.95833,-14
35.96667,-15
35.97500,-15
35.98333,-14
35.99167,-14
36.00000,-15
36.00833,-15
36.01667,-15
36.02500,-15
36.03333,-15
36.04167,-16
36.05000,-15
36.05833,-15
36.06667,-15
36.07500,-15
36.08333,-15
36.09167,-15
36.10000,-15
36.10833,-15
36.11667,-15
36.12500,-15
36.13333,-15
36.14167,-15
36.15000,-15
36.15833,-15
36.16667,-15
36.17500,-15
36.18333,-15
36.19167,-15
36.20000,-15
36.20833,-15
36.21667,-15
36.22500,-15
36.23333,-15
36.24167,-15
36.25000,-15
36.25833,-16
36.26667,-16
36.27500,-16
36.28333,-16
36.29167,-15
36.30000,-15
36.30833,-15
36.31667,-15
36.32500,-15
36.33333,-15
36.34167,-15
36.35000,-15
36.35833,-15
36.36667,-15
36.37500,-15
36.38333,-15
36.39167,-15
36.40000,-15
36.40833,-15
36.41667,-15
36.42500,-15
36.43333,-15
36.44167,-15
36.45000,-15
36.45833,-16
36.46667,-16
36.47500,-16
36.48333,-16
36.49167,-16
36.50000,-16
36.50833,-16
36.51667,-15
36.52500,-15
36.53333,-15
36.54167,-15
36.55000,-15
36.55833,-14
36.56667,-14
36.57500,-14
36.58333,-14
36.59167,-14
36.60000,-14
36.60833,-14
36.61667,-14
36.62500,-14
36.63333,-14
36.64167,-14
36.65000,-14
36.65833,-14
36.66667,-14
36.67500,-15
36.68333,-15
36.69167,-15
36.70000,-15
36.70833,-14
36.71667,-14
36.72500,-14
36.73333,-14
36.74167,-14
36.75000,-14
36.75833,-13
36.76667,-13
36.77500,-13
36.78333,-13
36.79167,-13
36.80000,-13
36.80833,-13
36.81667,-13
36.82500,-13
36.83333,-13
36.84167,-13
36.85000,-13
36.85833,-13
36.86667,-13
36.87500,-13
36.88333,-13
36.89167,-13
36.90000,-14
36.90833,-14
36.91667,-14
36.92500,-13
36.93333,-13
36.94167,-13
36.95000,-14
36.95833,-14
36.96667,-13
36.97500,-13
36.98333,-13
36.99167,-13
37.00000,-13
37.00833,-13
37.01667,-13
37.02500,-13
37.03333,-13
37.04167,-13
37.05000,-13
37.05833,-13
37.06667,-13
37.07500,-12
37.08333,-12
37.09167,-12
37.10000,-12
37.10833,-13
37.11667,-13
37.12500,-14
37.13333,-14
37.14167,-14
37.15000,-14
37.15833,-14
37.16667,-14
37.17500,-14
37.18333,-14
37.19167,-14
37.20000,-14
37.20833,-14
37.21667,-14
37.22500,-14
37.23333,-14
37.24167,-14
37.25000,-14
37.25833,-14
37.26667,-14
37.27500,-14
37.28333,-14
37.29167,-15
37.30000,-15
37.30833,-15
37.31667,-15
37.32500,-15
37.33333,-15
37.34167,-15
37.35000,-15
37.35833,-14
37.36667,-14
37.37500,-15
37.38333,-15
37.39167,-15
37.40000,-15
37.40833,-15
37.41667,-16
37.42500,-16
37.43333,-16
37.44167,-16
37.45000,-15
37.45833,-15
37.46667,-15
37.47500,-15
37.48333,-14
37.49167,-15
37.50000,-15
37.50833,-15
37.51667,-15
37.52500,-15
37.53333,-15
37.54167,-15
37.55000,-15
37.55833,-15
37.56667,-15
37.57500,-15
37.58333,-15
37.59167,-15
37.60000,-15
37.60833,-16
37.61667,-16
37.62500,-16
37.63333,-16
37.64167,-16
37.65000,-16
37.65833,-16
37.66667,-16
37.67500,-16
37.68333,-16
37.69167,-16
37.70000,-16
37.70833,-16
37.71667,-16
37.72500,-16
37.73333,-16
37.74167,-16
37.75000,-16
37.75833,-16
37.76667,-16
37.77500,-15
37.78333,-15
37.79167,-15
37.80000,-16
37.80833,-16
37.81667,-15
37.82500,-15
37.83333,-15
37.84167,-15
37.85000,-15
37.85833,-15
37.86667,-15
37.87500,-15
37.88333,-16
37.89167,-16
37.90000,-16
37.90833,-16
37.91667,-16
37.92500,-16
37.93333,-16
37.94167,-16
37.95000,-16
37.95833,-16
37.96667,-16
37.97500,-16
37.98333,-16
37.99167,-16
38.00000,-16
38.00833,-16
38.01667,-16
38.02500,-17
38.03333,-17
38.04167,-17
38.05000,-17
38.05833,-17
38.06667,-17
38.07500,-17
38.08333,-16
38.09167,-17
38.10000,-17
38.10833,-17
38.11667,-17
38.12500,-17
38.13333,-17
38.14167,-16
38.15000,-16
38.15833,-16
38.16667,-16
38.17500,-16
38.18333,-16
38.19167,-16
38.20000,-16
38.20833,-16
38.21667,-17
38.22500,-17
38.23333,-17
38.24167,-17
38.25000,-17
38.25833,-17
38.26667,-17
38.27500,-17
38.28333,-17
38.29167,-17
38.30000,-17
38.30833,-17
38.31667,-17
38.32500,-16
38.33333,-16
38.34167,-17
38.35000,-16
38.35833,-16
38.36667,-16
38.37500,-16
38.38333,-16
38.39167,-16
38.40000,-17
38.40833,-17
38.41667,-17
38.42500,-17
38.43333,-17
38.44167,-17
38.45000,-17
38.45833,-17
38.46667,-17
38.47500,-17
38.48333,-17
38.49167,-16
38.50000,-16
38.50833,-16
38.51667,-16
38.52500,-16
38.53333,-16
38.54167,-16
38.55000,-17
38.55833,-17
38.56667,-17
38.57500,-17
38.58333,-16
38.59167,-16
38.60000,-16
38.60833,-16
38.61667,-16
38.62500,-17
38.63333,-17
38.64167,-17
38.65000,-17
38.65833,-17
38.66667,-17
38.67500,-18
38.68333,-17
38.69167,-17
38.70000,-17
38.70833,-16
38.71667,-16
38.72500,-17
38.73333,-17
38.74167,-17
38.75000,-17
38.75833,-17
38.76667,-17
38.77500,-17
38.78333,-17
38.79167,-17
38.80000,-18
38.80833,-18
38.81667,-18
38.82500,-18
38.83333,-18
38.84167,-18
38.85000,-18
38.85833,-18
38.86667,-18
38.87500,-18
38.88333,-18
38.89167,-18
38.90000,-18
38.90833,-18
38.91667,-18
38.92500,-18
38.93333,-18
38.94167,-18
38.95000,-17
38.95833,-17
38.96667,-17
38.97500,-17
38.98333,-18
38.99167,-18
39.00000,-18
39.00833,-18
39.01667,-17
39.02500,-17
39.03333,-17
39.04167,-17
39.05000,-18
39.05833,-18
39.06667,-18
39.07500,-18
39.08333,-18
39.09167,-18
39.10000,-18
39.10833,-18
39.11667,-18
39.12500,-18
39.13333,-17
39.14167,-17
39.15000,-18
39.15833,-17
39.16667,-17
39.17500,-17
39.18333,-17
39.19167,-18
39.20000,-19
39.20833,-19
39.21667,-19
39.22500,-19
39.23333,-18
39.24167,-18
39.25000,-18
39.25833,-18
39.26667,-18
39.27500,-18
39.28333,-18
39.29167,-18
39.30000,-18
39.30833,-18
39.31667,-18
39.32500,-18
39.33333,-18
39.34167,-18
39.35000,-18
39.35833,-18
39.36667,-18
39.37500,-18
39.38333,-19
39.39167,-18
39.40000,-18
39.40833,-18
39.41667,-18
39.42500,-18
39.43333,-18
39.44167,-18
39.45000,-18
39.45833,-18
39.46667,-18
39.47500,-18
39.48333,-19
39.49167,-19
39.50000,-19
39.50833,-19
39.51667,-19
39.52500,-19
39.53333,-19
39.54167,-18
39.55000,-18
39.55833,-18
39.56667,-18
39.57500,-18
39.58333,-19
39.59167,-19
39.60000,-18
39.60833,-18
39.61667,-18
39.62500,-18
39.63333,-18
39.64167,-18
39.65000,-18
39.65833,-17
39.66667,-17
39.67500,-17
39.68333,-17
39.69167,-18
39.70000,-18
39.70833,-18
39.71667,-18
39.72500,-18
39.73333,-18
39.74167,-18
39.75000,-19
39.75833,-19
39.76667,-19
39.77500,-19
39.78333,-19
39.79167,-18
39.80000,-17
39.80833,-17
39.81667,-17
39.82500,-17
39.83333,-17
39.84167,-18
39.85000,-18
39.85833,-18
39.86667,-18
39.87500,-18
39.88333,-18
39.89167,-18
39.90000,-18
39.90833,-19
39.91667,-19
39.92500,-19
39.93333,-19
39.94167,-19
39.95000,-19
39.95833,-19
39.96667,-19
39.97500,-19
39.98333,-19
39.99167,-19
40.00000,-19

