[Header]
Application Name,LabSolutions
Version,5.97 SP1
Data File Name,C:\Users\cremerlab\Desktop\griffin\2021-04-03_buffer_calibration\2021-04-03_buffer_calibration_432021_002_015.lcd
Output Date,4/4/2021
Output Time,12:48:17 AM

[File Information]
Type,Data File
Generated,4/4/2021 12:07:57 AM
Generated by,System Administrator
Modified,4/4/2021 12:48:17 AM
Modified by,System Administrator

[Sample Information]
Operator Name,System Administrator
Acquired,4/4/2021 12:08:16 AM
Sample Type,1:Standard
Level,2
Sample Name,2021-04-02_DM_glucose_glycerol_acetate_calibration_25mM
Sample ID,002
ISTD Amount1,1
ISTD Amount2,1
ISTD Amount3,1
ISTD Amount4,1
ISTD Amount5,1
ISTD Amount6,1
ISTD Amount7,1
ISTD Amount8,1
ISTD Amount9,1
ISTD Amount10,1
ISTD Amount11,1
ISTD Amount12,1
ISTD Amount13,1
ISTD Amount14,1
ISTD Amount15,1
ISTD Amount16,1
ISTD Amount17,1
ISTD Amount18,1
ISTD Amount19,1
ISTD Amount20,1
ISTD Amount21,1
ISTD Amount22,1
ISTD Amount23,1
ISTD Amount24,1
ISTD Amount25,1
ISTD Amount26,1
ISTD Amount27,1
ISTD Amount28,1
ISTD Amount29,1
ISTD Amount30,1
ISTD Amount31,1
ISTD Amount32,1
Sample Amount,1
Dilution Factor,1
Vial#,20
Injection Volume,20

[Original Files]
Data File,C:\Users\cremerlab\Desktop\griffin\2021-04-03_buffer_calibration\2021-04-03_buffer_calibration_432021_002_015.lcd
Method File,C:\LabSolutions\Data\Project1\organicacidsetc2.lcm
Batch File,C:\Users\cremerlab\Desktop\griffin\2021-04-03_buffer_calibration\2021-04-03_buffer_calibration.lcb
Report Format File,c:\LabSolutions\System\DEFAULT.lsr

[File Description]


[Configuration]
Instrument Name,HPLC-PC-Instrument1
Instrument #,1
Line #,1
# of Detectors,2
Detector ID,Detector A,Detector B
Detector Name,Detector A,Detector B
# of Channels,1,1

[Peak Table(Detector A)]
# of Peaks,0

[Peak Table(Detector B)]
# of Peaks,6
Peak#,R.Time,I.Time,F.Time,Area,Height,A/H,Conc.,Mark,ID#,Name,k',Plate #,Plate Ht.,Tailing,Resolution,Sep.Factor,Area Ratio,Height Ratio,Conc. %,Norm Conc.
1,10.750,10.533,10.975,48379,3350,14.443,0.000,   ,,,0.000,12364,12.132,0.984,0.000,0.000,0,0,0.000,0.000
2,11.297,11.008,11.492,51365,2471,20.783,0.000,   ,,,0.051,10117,14.826,0.849,1.309,0.000,0,0,0.000,0.000
3,14.915,14.092,15.258,1501648,60183,24.951,0.000,   ,,,0.387,7387,20.306,0.000,6.328,7.614,0,0,0.000,0.000
4,15.665,15.258,18.408,2385148,97895,24.364,0.000, V ,,,0.457,9782,15.334,1.104,1.129,1.180,0,0,0.000,0.000
5,22.077,21.317,23.650,700665,25833,27.123,0.000,   ,,,1.054,15394,9.744,1.093,9.534,2.305,0,0,0.000,0.000
6,25.077,24.308,26.167,296058,10069,29.404,0.000,   ,,,1.333,16677,8.994,1.069,4.030,1.265,0,0,0.000,0.000

[LC Chromatogram(Detector B-Ch1)]
Interval(msec),500
# of Points,4801
Start Time(min),0.000
End Time(min),40.000
Intensity Units,mV
Intensity Multiplier,0.001
R.Time (min),Intensity
0.00000,-0
0.00833,-0
0.01667,0
0.02500,0
0.03333,0
0.04167,0
0.05000,-0
0.05833,-0
0.06667,-0
0.07500,-0
0.08333,0
0.09167,0
0.10000,1
0.10833,1
0.11667,0
0.12500,0
0.13333,0
0.14167,0
0.15000,-0
0.15833,-0
0.16667,-0
0.17500,-0
0.18333,0
0.19167,1
0.20000,1
0.20833,1
0.21667,1
0.22500,1
0.23333,1
0.24167,1
0.25000,1
0.25833,1
0.26667,1
0.27500,1
0.28333,1
0.29167,1
0.30000,1
0.30833,1
0.31667,1
0.32500,1
0.33333,1
0.34167,1
0.35000,1
0.35833,1
0.36667,1
0.37500,1
0.38333,0
0.39167,0
0.40000,-0
0.40833,-0
0.41667,-0
0.42500,-0
0.43333,-0
0.44167,0
0.45000,0
0.45833,1
0.46667,1
0.47500,1
0.48333,1
0.49167,2
0.50000,2
0.50833,2
0.51667,2
0.52500,2
0.53333,2
0.54167,2
0.55000,2
0.55833,2
0.56667,2
0.57500,3
0.58333,3
0.59167,3
0.60000,3
0.60833,3
0.61667,3
0.62500,3
0.63333,3
0.64167,3
0.65000,3
0.65833,2
0.66667,2
0.67500,2
0.68333,1
0.69167,1
0.70000,1
0.70833,1
0.71667,1
0.72500,2
0.73333,2
0.74167,2
0.75000,2
0.75833,1
0.76667,1
0.77500,1
0.78333,1
0.79167,1
0.80000,1
0.80833,2
0.81667,2
0.82500,2
0.83333,2
0.84167,3
0.85000,3
0.85833,3
0.86667,3
0.87500,3
0.88333,3
0.89167,3
0.90000,3
0.90833,3
0.91667,3
0.92500,3
0.93333,3
0.94167,3
0.95000,4
0.95833,4
0.96667,3
0.97500,3
0.98333,4
0.99167,4
1.00000,4
1.00833,4
1.01667,3
1.02500,3
1.03333,4
1.04167,4
1.05000,4
1.05833,4
1.06667,4
1.07500,3
1.08333,3
1.09167,3
1.10000,3
1.10833,3
1.11667,3
1.12500,3
1.13333,4
1.14167,4
1.15000,4
1.15833,4
1.16667,5
1.17500,5
1.18333,5
1.19167,5
1.20000,4
1.20833,4
1.21667,4
1.22500,4
1.23333,4
1.24167,5
1.25000,5
1.25833,4
1.26667,4
1.27500,4
1.28333,4
1.29167,4
1.30000,4
1.30833,4
1.31667,4
1.32500,4
1.33333,4
1.34167,4
1.35000,4
1.35833,5
1.36667,4
1.37500,4
1.38333,4
1.39167,5
1.40000,5
1.40833,5
1.41667,5
1.42500,5
1.43333,5
1.44167,5
1.45000,5
1.45833,5
1.46667,5
1.47500,5
1.48333,5
1.49167,5
1.50000,5
1.50833,5
1.51667,5
1.52500,5
1.53333,5
1.54167,5
1.55000,5
1.55833,5
1.56667,6
1.57500,6
1.58333,5
1.59167,5
1.60000,5
1.60833,4
1.61667,4
1.62500,5
1.63333,4
1.64167,4
1.65000,5
1.65833,5
1.66667,5
1.67500,5
1.68333,5
1.69167,6
1.70000,6
1.70833,6
1.71667,6
1.72500,6
1.73333,6
1.74167,6
1.75000,6
1.75833,6
1.76667,6
1.77500,6
1.78333,6
1.79167,5
1.80000,5
1.80833,5
1.81667,5
1.82500,5
1.83333,5
1.84167,5
1.85000,5
1.85833,5
1.86667,5
1.87500,5
1.88333,5
1.89167,5
1.90000,5
1.90833,5
1.91667,5
1.92500,5
1.93333,5
1.94167,5
1.95000,5
1.95833,5
1.96667,6
1.97500,6
1.98333,6
1.99167,6
2.00000,6
2.00833,6
2.01667,6
2.02500,6
2.03333,6
2.04167,6
2.05000,6
2.05833,6
2.06667,6
2.07500,6
2.08333,6
2.09167,6
2.10000,6
2.10833,6
2.11667,6
2.12500,6
2.13333,6
2.14167,6
2.15000,6
2.15833,6
2.16667,6
2.17500,7
2.18333,7
2.19167,7
2.20000,7
2.20833,7
2.21667,7
2.22500,7
2.23333,6
2.24167,6
2.25000,6
2.25833,6
2.26667,6
2.27500,6
2.28333,6
2.29167,6
2.30000,6
2.30833,6
2.31667,7
2.32500,7
2.33333,7
2.34167,7
2.35000,7
2.35833,7
2.36667,7
2.37500,7
2.38333,7
2.39167,7
2.40000,7
2.40833,7
2.41667,6
2.42500,6
2.43333,6
2.44167,7
2.45000,7
2.45833,6
2.46667,6
2.47500,6
2.48333,6
2.49167,6
2.50000,6
2.50833,6
2.51667,6
2.52500,6
2.53333,6
2.54167,6
2.55000,7
2.55833,7
2.56667,7
2.57500,7
2.58333,7
2.59167,7
2.60000,7
2.60833,7
2.61667,7
2.62500,7
2.63333,6
2.64167,6
2.65000,6
2.65833,6
2.66667,7
2.67500,6
2.68333,6
2.69167,7
2.70000,7
2.70833,7
2.71667,7
2.72500,7
2.73333,7
2.74167,7
2.75000,7
2.75833,7
2.76667,7
2.77500,7
2.78333,7
2.79167,7
2.80000,7
2.80833,7
2.81667,7
2.82500,6
2.83333,6
2.84167,6
2.85000,6
2.85833,6
2.86667,7
2.87500,7
2.88333,7
2.89167,8
2.90000,8
2.90833,8
2.91667,8
2.92500,8
2.93333,8
2.94167,8
2.95000,8
2.95833,9
2.96667,9
2.97500,9
2.98333,9
2.99167,9
3.00000,9
3.00833,9
3.01667,9
3.02500,9
3.03333,8
3.04167,8
3.05000,8
3.05833,8
3.06667,8
3.07500,8
3.08333,8
3.09167,7
3.10000,8
3.10833,8
3.11667,8
3.12500,8
3.13333,8
3.14167,8
3.15000,8
3.15833,8
3.16667,8
3.17500,8
3.18333,8
3.19167,8
3.20000,8
3.20833,8
3.21667,8
3.22500,9
3.23333,9
3.24167,8
3.25000,8
3.25833,8
3.26667,9
3.27500,9
3.28333,8
3.29167,8
3.30000,9
3.30833,9
3.31667,9
3.32500,9
3.33333,9
3.34167,9
3.35000,9
3.35833,8
3.36667,8
3.37500,8
3.38333,8
3.39167,8
3.40000,8
3.40833,8
3.41667,9
3.42500,9
3.43333,9
3.44167,10
3.45000,10
3.45833,10
3.46667,10
3.47500,10
3.48333,10
3.49167,10
3.50000,10
3.50833,11
3.51667,11
3.52500,10
3.53333,10
3.54167,10
3.55000,10
3.55833,10
3.56667,9
3.57500,9
3.58333,9
3.59167,9
3.60000,10
3.60833,10
3.61667,10
3.62500,10
3.63333,10
3.64167,10
3.65000,10
3.65833,10
3.66667,10
3.67500,10
3.68333,10
3.69167,10
3.70000,10
3.70833,10
3.71667,10
3.72500,10
3.73333,10
3.74167,9
3.75000,9
3.75833,10
3.76667,10
3.77500,10
3.78333,11
3.79167,11
3.80000,11
3.80833,10
3.81667,10
3.82500,10
3.83333,10
3.84167,10
3.85000,10
3.85833,10
3.86667,10
3.87500,10
3.88333,10
3.89167,11
3.90000,11
3.90833,11
3.91667,10
3.92500,10
3.93333,10
3.94167,11
3.95000,11
3.95833,11
3.96667,11
3.97500,11
3.98333,11
3.99167,11
4.00000,11
4.00833,11
4.01667,11
4.02500,11
4.03333,11
4.04167,11
4.05000,11
4.05833,11
4.06667,11
4.07500,11
4.08333,11
4.09167,11
4.10000,12
4.10833,12
4.11667,12
4.12500,11
4.13333,11
4.14167,11
4.15000,11
4.15833,11
4.16667,11
4.17500,11
4.18333,11
4.19167,12
4.20000,11
4.20833,11
4.21667,11
4.22500,11
4.23333,11
4.24167,11
4.25000,11
4.25833,11
4.26667,12
4.27500,12
4.28333,12
4.29167,12
4.30000,12
4.30833,11
4.31667,11
4.32500,11
4.33333,11
4.34167,11
4.35000,12
4.35833,12
4.36667,12
4.37500,12
4.38333,11
4.39167,11
4.40000,11
4.40833,11
4.41667,12
4.42500,12
4.43333,12
4.44167,12
4.45000,12
4.45833,12
4.46667,12
4.47500,12
4.48333,12
4.49167,12
4.50000,12
4.50833,12
4.51667,12
4.52500,12
4.53333,12
4.54167,12
4.55000,12
4.55833,12
4.56667,12
4.57500,12
4.58333,12
4.59167,12
4.60000,12
4.60833,13
4.61667,13
4.62500,13
4.63333,12
4.64167,12
4.65000,12
4.65833,12
4.66667,12
4.67500,13
4.68333,13
4.69167,13
4.70000,13
4.70833,13
4.71667,13
4.72500,13
4.73333,13
4.74167,13
4.75000,13
4.75833,13
4.76667,13
4.77500,12
4.78333,12
4.79167,12
4.80000,12
4.80833,12
4.81667,12
4.82500,12
4.83333,12
4.84167,12
4.85000,12
4.85833,12
4.86667,12
4.87500,13
4.88333,13
4.89167,13
4.90000,13
4.90833,13
4.91667,13
4.92500,13
4.93333,12
4.94167,12
4.95000,13
4.95833,13
4.96667,13
4.97500,13
4.98333,13
4.99167,13
5.00000,13
5.00833,13
5.01667,13
5.02500,13
5.03333,13
5.04167,13
5.05000,13
5.05833,13
5.06667,13
5.07500,13
5.08333,13
5.09167,13
5.10000,13
5.10833,14
5.11667,14
5.12500,14
5.13333,14
5.14167,14
5.15000,14
5.15833,14
5.16667,14
5.17500,14
5.18333,14
5.19167,14
5.20000,14
5.20833,14
5.21667,14
5.22500,14
5.23333,14
5.24167,14
5.25000,14
5.25833,14
5.26667,14
5.27500,14
5.28333,14
5.29167,14
5.30000,14
5.30833,14
5.31667,14
5.32500,14
5.33333,14
5.34167,14
5.35000,14
5.35833,14
5.36667,15
5.37500,15
5.38333,15
5.39167,15
5.40000,15
5.40833,15
5.41667,15
5.42500,15
5.43333,15
5.44167,15
5.45000,15
5.45833,15
5.46667,15
5.47500,15
5.48333,15
5.49167,15
5.50000,15
5.50833,15
5.51667,15
5.52500,15
5.53333,16
5.54167,15
5.55000,15
5.55833,15
5.56667,15
5.57500,15
5.58333,15
5.59167,15
5.60000,15
5.60833,15
5.61667,14
5.62500,14
5.63333,14
5.64167,14
5.65000,14
5.65833,14
5.66667,15
5.67500,15
5.68333,15
5.69167,15
5.70000,15
5.70833,15
5.71667,16
5.72500,16
5.73333,16
5.74167,16
5.75000,16
5.75833,16
5.76667,16
5.77500,16
5.78333,15
5.79167,15
5.80000,15
5.80833,15
5.81667,15
5.82500,15
5.83333,16
5.84167,16
5.85000,16
5.85833,16
5.86667,16
5.87500,17
5.88333,17
5.89167,17
5.90000,17
5.90833,17
5.91667,17
5.92500,16
5.93333,16
5.94167,16
5.95000,16
5.95833,16
5.96667,16
5.97500,17
5.98333,17
5.99167,17
6.00000,17
6.00833,17
6.01667,17
6.02500,17
6.03333,17
6.04167,17
6.05000,17
6.05833,16
6.06667,16
6.07500,16
6.08333,16
6.09167,16
6.10000,16
6.10833,16
6.11667,16
6.12500,17
6.13333,17
6.14167,17
6.15000,17
6.15833,17
6.16667,17
6.17500,17
6.18333,17
6.19167,17
6.20000,17
6.20833,17
6.21667,17
6.22500,18
6.23333,18
6.24167,18
6.25000,18
6.25833,18
6.26667,18
6.27500,18
6.28333,18
6.29167,18
6.30000,18
6.30833,18
6.31667,18
6.32500,18
6.33333,18
6.34167,18
6.35000,18
6.35833,18
6.36667,18
6.37500,18
6.38333,18
6.39167,18
6.40000,18
6.40833,18
6.41667,18
6.42500,18
6.43333,18
6.44167,18
6.45000,18
6.45833,18
6.46667,18
6.47500,18
6.48333,18
6.49167,18
6.50000,18
6.50833,18
6.51667,18
6.52500,19
6.53333,19
6.54167,19
6.55000,19
6.55833,19
6.56667,19
6.57500,19
6.58333,19
6.59167,19
6.60000,19
6.60833,19
6.61667,19
6.62500,19
6.63333,19
6.64167,19
6.65000,19
6.65833,18
6.66667,18
6.67500,18
6.68333,18
6.69167,18
6.70000,18
6.70833,19
6.71667,19
6.72500,19
6.73333,19
6.74167,19
6.75000,19
6.75833,19
6.76667,19
6.77500,19
6.78333,19
6.79167,19
6.80000,19
6.80833,19
6.81667,19
6.82500,19
6.83333,19
6.84167,19
6.85000,18
6.85833,18
6.86667,18
6.87500,19
6.88333,19
6.89167,19
6.90000,19
6.90833,19
6.91667,19
6.92500,19
6.93333,19
6.94167,19
6.95000,19
6.95833,19
6.96667,19
6.97500,19
6.98333,19
6.99167,19
7.00000,19
7.00833,19
7.01667,19
7.02500,19
7.03333,19
7.04167,19
7.05000,19
7.05833,19
7.06667,19
7.07500,19
7.08333,19
7.09167,19
7.10000,19
7.10833,19
7.11667,19
7.12500,19
7.13333,19
7.14167,19
7.15000,19
7.15833,19
7.16667,19
7.17500,19
7.18333,19
7.19167,19
7.20000,19
7.20833,20
7.21667,20
7.22500,20
7.23333,20
7.24167,20
7.25000,20
7.25833,20
7.26667,20
7.27500,20
7.28333,20
7.29167,19
7.30000,19
7.30833,19
7.31667,20
7.32500,20
7.33333,20
7.34167,20
7.35000,20
7.35833,20
7.36667,20
7.37500,21
7.38333,21
7.39167,21
7.40000,21
7.40833,21
7.41667,21
7.42500,21
7.43333,21
7.44167,21
7.45000,21
7.45833,21
7.46667,21
7.47500,21
7.48333,21
7.49167,21
7.50000,21
7.50833,21
7.51667,22
7.52500,22
7.53333,22
7.54167,22
7.55000,22
7.55833,22
7.56667,22
7.57500,22
7.58333,22
7.59167,22
7.60000,22
7.60833,21
7.61667,21
7.62500,21
7.63333,22
7.64167,22
7.65000,22
7.65833,22
7.66667,22
7.67500,22
7.68333,22
7.69167,22
7.70000,22
7.70833,22
7.71667,21
7.72500,21
7.73333,21
7.74167,21
7.75000,21
7.75833,21
7.76667,21
7.77500,22
7.78333,22
7.79167,22
7.80000,23
7.80833,22
7.81667,22
7.82500,22
7.83333,22
7.84167,22
7.85000,22
7.85833,22
7.86667,22
7.87500,22
7.88333,22
7.89167,22
7.90000,22
7.90833,22
7.91667,22
7.92500,22
7.93333,22
7.94167,22
7.95000,22
7.95833,23
7.96667,23
7.97500,23
7.98333,23
7.99167,23
8.00000,23
8.00833,23
8.01667,23
8.02500,23
8.03333,23
8.04167,23
8.05000,23
8.05833,23
8.06667,23
8.07500,23
8.08333,23
8.09167,23
8.10000,23
8.10833,23
8.11667,23
8.12500,22
8.13333,22
8.14167,23
8.15000,23
8.15833,23
8.16667,23
8.17500,23
8.18333,23
8.19167,23
8.20000,23
8.20833,23
8.21667,23
8.22500,23
8.23333,23
8.24167,23
8.25000,23
8.25833,24
8.26667,24
8.27500,24
8.28333,24
8.29167,24
8.30000,24
8.30833,24
8.31667,23
8.32500,23
8.33333,23
8.34167,23
8.35000,23
8.35833,24
8.36667,24
8.37500,24
8.38333,24
8.39167,24
8.40000,24
8.40833,24
8.41667,24
8.42500,24
8.43333,24
8.44167,24
8.45000,24
8.45833,24
8.46667,24
8.47500,24
8.48333,24
8.49167,24
8.50000,24
8.50833,25
8.51667,25
8.52500,25
8.53333,24
8.54167,24
8.55000,24
8.55833,24
8.56667,24
8.57500,24
8.58333,24
8.59167,24
8.60000,24
8.60833,24
8.61667,24
8.62500,25
8.63333,25
8.64167,25
8.65000,25
8.65833,25
8.66667,25
8.67500,25
8.68333,25
8.69167,25
8.70000,25
8.70833,25
8.71667,26
8.72500,26
8.73333,26
8.74167,26
8.75000,26
8.75833,27
8.76667,26
8.77500,26
8.78333,26
8.79167,26
8.80000,26
8.80833,26
8.81667,26
8.82500,26
8.83333,25
8.84167,25
8.85000,25
8.85833,25
8.86667,26
8.87500,26
8.88333,26
8.89167,26
8.90000,26
8.90833,26
8.91667,26
8.92500,26
8.93333,26
8.94167,26
8.95000,26
8.95833,26
8.96667,26
8.97500,26
8.98333,26
8.99167,26
9.00000,26
9.00833,26
9.01667,26
9.02500,26
9.03333,26
9.04167,26
9.05000,26
9.05833,26
9.06667,26
9.07500,26
9.08333,26
9.09167,26
9.10000,26
9.10833,26
9.11667,26
9.12500,26
9.13333,26
9.14167,26
9.15000,26
9.15833,26
9.16667,26
9.17500,26
9.18333,26
9.19167,26
9.20000,26
9.20833,26
9.21667,26
9.22500,25
9.23333,25
9.24167,25
9.25000,25
9.25833,26
9.26667,26
9.27500,26
9.28333,26
9.29167,26
9.30000,26
9.30833,27
9.31667,27
9.32500,27
9.33333,27
9.34167,27
9.35000,27
9.35833,27
9.36667,27
9.37500,27
9.38333,27
9.39167,27
9.40000,27
9.40833,27
9.41667,28
9.42500,28
9.43333,28
9.44167,28
9.45000,28
9.45833,28
9.46667,28
9.47500,28
9.48333,28
9.49167,28
9.50000,29
9.50833,28
9.51667,28
9.52500,28
9.53333,28
9.54167,28
9.55000,28
9.55833,28
9.56667,28
9.57500,28
9.58333,28
9.59167,28
9.60000,28
9.60833,28
9.61667,28
9.62500,28
9.63333,28
9.64167,28
9.65000,28
9.65833,28
9.66667,28
9.67500,28
9.68333,28
9.69167,28
9.70000,28
9.70833,28
9.71667,27
9.72500,28
9.73333,28
9.74167,28
9.75000,28
9.75833,28
9.76667,28
9.77500,28
9.78333,28
9.79167,29
9.80000,29
9.80833,29
9.81667,29
9.82500,29
9.83333,29
9.84167,29
9.85000,29
9.85833,29
9.86667,29
9.87500,29
9.88333,29
9.89167,29
9.90000,29
9.90833,29
9.91667,29
9.92500,29
9.93333,29
9.94167,29
9.95000,29
9.95833,29
9.96667,29
9.97500,29
9.98333,29
9.99167,29
10.00000,29
10.00833,29
10.01667,29
10.02500,29
10.03333,29
10.04167,30
10.05000,30
10.05833,29
10.06667,29
10.07500,30
10.08333,30
10.09167,30
10.10000,30
10.10833,30
10.11667,30
10.12500,30
10.13333,30
10.14167,30
10.15000,30
10.15833,30
10.16667,30
10.17500,30
10.18333,30
10.19167,30
10.20000,30
10.20833,30
10.21667,30
10.22500,30
10.23333,30
10.24167,30
10.25000,30
10.25833,30
10.26667,30
10.27500,30
10.28333,30
10.29167,30
10.30000,30
10.30833,30
10.31667,30
10.32500,30
10.33333,30
10.34167,30
10.35000,30
10.35833,30
10.36667,30
10.37500,31
10.38333,31
10.39167,31
10.40000,32
10.40833,32
10.41667,32
10.42500,32
10.43333,32
10.44167,32
10.45000,32
10.45833,33
10.46667,33
10.47500,32
10.48333,32
10.49167,32
10.50000,32
10.50833,32
10.51667,32
10.52500,33
10.53333,33
10.54167,34
10.55000,35
10.55833,36
10.56667,37
10.57500,39
10.58333,42
10.59167,46
10.60000,51
10.60833,58
10.61667,66
10.62500,76
10.63333,89
10.64167,104
10.65000,123
10.65833,146
10.66667,172
10.67500,202
10.68333,235
10.69167,271
10.70000,308
10.70833,345
10.71667,382
10.72500,416
10.73333,445
10.74167,464
10.75000,473
10.75833,466
10.76667,441
10.77500,394
10.78333,321
10.79167,222
10.80000,92
10.80833,-69
10.81667,-263
10.82500,-489
10.83333,-746
10.84167,-1033
10.85000,-1346
10.85833,-1682
10.86667,-2037
10.87500,-2405
10.88333,-2782
10.89167,-3161
10.90000,-3537
10.90833,-3903
10.91667,-4255
10.92500,-4586
10.93333,-4891
10.94167,-5166
10.95000,-5406
10.95833,-5608
10.96667,-5770
10.97500,-5888
10.98333,-5962
10.99167,-5990
11.00000,-5973
11.00833,-5912
11.01667,-5809
11.02500,-5665
11.03333,-5485
11.04167,-5271
11.05000,-5028
11.05833,-4761
11.06667,-4473
11.07500,-4170
11.08333,-3857
11.09167,-3538
11.10000,-3219
11.10833,-2904
11.11667,-2595
11.12500,-2299
11.13333,-2015
11.14167,-1748
11.15000,-1499
11.15833,-1270
11.16667,-1060
11.17500,-872
11.18333,-704
11.19167,-556
11.20000,-428
11.20833,-317
11.21667,-224
11.22500,-146
11.23333,-83
11.24167,-32
11.25000,8
11.25833,38
11.26667,60
11.27500,75
11.28333,83
11.29167,88
11.30000,88
11.30833,86
11.31667,81
11.32500,75
11.33333,68
11.34167,60
11.35000,52
11.35833,44
11.36667,36
11.37500,29
11.38333,22
11.39167,16
11.40000,11
11.40833,6
11.41667,2
11.42500,-1
11.43333,-4
11.44167,-6
11.45000,-8
11.45833,-10
11.46667,-11
11.47500,-12
11.48333,-12
11.49167,-12
11.50000,-12
11.50833,-12
11.51667,-11
11.52500,-11
11.53333,-10
11.54167,-9
11.55000,-8
11.55833,-8
11.56667,-7
11.57500,-6
11.58333,-5
11.59167,-3
11.60000,-3
11.60833,-2
11.61667,-1
11.62500,-0
11.63333,1
11.64167,2
11.65000,2
11.65833,3
11.66667,4
11.67500,4
11.68333,5
11.69167,5
11.70000,6
11.70833,6
11.71667,7
11.72500,8
11.73333,9
11.74167,9
11.75000,10
11.75833,11
11.76667,12
11.77500,13
11.78333,14
11.79167,14
11.80000,15
11.80833,16
11.81667,17
11.82500,17
11.83333,18
11.84167,19
11.85000,19
11.85833,20
11.86667,21
11.87500,22
11.88333,23
11.89167,25
11.90000,26
11.90833,26
11.91667,27
11.92500,28
11.93333,29
11.94167,29
11.95000,30
11.95833,30
11.96667,31
11.97500,31
11.98333,31
11.99167,32
12.00000,32
12.00833,32
12.01667,33
12.02500,33
12.03333,33
12.04167,33
12.05000,33
12.05833,33
12.06667,33
12.07500,33
12.08333,33
12.09167,33
12.10000,33
12.10833,32
12.11667,32
12.12500,32
12.13333,31
12.14167,31
12.15000,31
12.15833,31
12.16667,30
12.17500,30
12.18333,29
12.19167,29
12.20000,28
12.20833,28
12.21667,28
12.22500,28
12.23333,28
12.24167,28
12.25000,29
12.25833,28
12.26667,28
12.27500,28
12.28333,28
12.29167,28
12.30000,28
12.30833,27
12.31667,27
12.32500,27
12.33333,27
12.34167,27
12.35000,28
12.35833,27
12.36667,27
12.37500,27
12.38333,28
12.39167,28
12.40000,28
12.40833,28
12.41667,28
12.42500,28
12.43333,28
12.44167,28
12.45000,28
12.45833,28
12.46667,28
12.47500,28
12.48333,29
12.49167,29
12.50000,29
12.50833,29
12.51667,29
12.52500,29
12.53333,29
12.54167,30
12.55000,30
12.55833,30
12.56667,30
12.57500,30
12.58333,30
12.59167,30
12.60000,30
12.60833,30
12.61667,30
12.62500,31
12.63333,31
12.64167,32
12.65000,32
12.65833,32
12.66667,32
12.67500,32
12.68333,32
12.69167,32
12.70000,32
12.70833,32
12.71667,32
12.72500,33
12.73333,33
12.74167,33
12.75000,34
12.75833,34
12.76667,35
12.77500,35
12.78333,36
12.79167,36
12.80000,37
12.80833,38
12.81667,39
12.82500,39
12.83333,40
12.84167,41
12.85000,43
12.85833,44
12.86667,45
12.87500,46
12.88333,47
12.89167,49
12.90000,50
12.90833,51
12.91667,53
12.92500,54
12.93333,56
12.94167,57
12.95000,59
12.95833,60
12.96667,62
12.97500,63
12.98333,65
12.99167,67
13.00000,68
13.00833,69
13.01667,70
13.02500,71
13.03333,72
13.04167,74
13.05000,75
13.05833,77
13.06667,78
13.07500,79
13.08333,80
13.09167,82
13.10000,83
13.10833,84
13.11667,85
13.12500,86
13.13333,87
13.14167,88
13.15000,89
13.15833,90
13.16667,91
13.17500,92
13.18333,93
13.19167,93
13.20000,94
13.20833,94
13.21667,94
13.22500,95
13.23333,95
13.24167,96
13.25000,96
13.25833,96
13.26667,96
13.27500,96
13.28333,96
13.29167,95
13.30000,95
13.30833,95
13.31667,94
13.32500,94
13.33333,93
13.34167,92
13.35000,91
13.35833,90
13.36667,89
13.37500,88
13.38333,87
13.39167,86
13.40000,85
13.40833,84
13.41667,82
13.42500,81
13.43333,79
13.44167,78
13.45000,76
13.45833,75
13.46667,73
13.47500,72
13.48333,71
13.49167,70
13.50000,69
13.50833,67
13.51667,66
13.52500,65
13.53333,64
13.54167,62
13.55000,61
13.55833,60
13.56667,59
13.57500,58
13.58333,57
13.59167,56
13.60000,56
13.60833,55
13.61667,54
13.62500,53
13.63333,53
13.64167,52
13.65000,51
13.65833,50
13.66667,50
13.67500,50
13.68333,49
13.69167,49
13.70000,49
13.70833,49
13.71667,48
13.72500,48
13.73333,48
13.74167,48
13.75000,47
13.75833,47
13.76667,47
13.77500,46
13.78333,46
13.79167,46
13.80000,46
13.80833,46
13.81667,46
13.82500,46
13.83333,46
13.84167,46
13.85000,46
13.85833,46
13.86667,46
13.87500,46
13.88333,46
13.89167,46
13.90000,46
13.90833,47
13.91667,47
13.92500,48
13.93333,47
13.94167,47
13.95000,47
13.95833,47
13.96667,47
13.97500,47
13.98333,47
13.99167,48
14.00000,48
14.00833,48
14.01667,48
14.02500,48
14.03333,49
14.04167,49
14.05000,50
14.05833,51
14.06667,51
14.07500,51
14.08333,51
14.09167,52
14.10000,53
14.10833,53
14.11667,54
14.12500,56
14.13333,58
14.14167,60
14.15000,62
14.15833,65
14.16667,68
14.17500,72
14.18333,77
14.19167,82
14.20000,90
14.20833,98
14.21667,108
14.22500,120
14.23333,135
14.24167,152
14.25000,174
14.25833,200
14.26667,231
14.27500,269
14.28333,314
14.29167,366
14.30000,429
14.30833,502
14.31667,588
14.32500,688
14.33333,804
14.34167,937
14.35000,1089
14.35833,1262
14.36667,1459
14.37500,1680
14.38333,1929
14.39167,2206
14.40000,2513
14.40833,2853
14.41667,3225
14.42500,3633
14.43333,4076
14.44167,4556
14.45000,5074
14.45833,5631
14.46667,6227
14.47500,6862
14.48333,7536
14.49167,8249
14.50000,9001
14.50833,9791
14.51667,10617
14.52500,11479
14.53333,12377
14.54167,13308
14.55000,14271
14.55833,15265
14.56667,16287
14.57500,17336
14.58333,18410
14.59167,19508
14.60000,20627
14.60833,21765
14.61667,22921
14.62500,24093
14.63333,25278
14.64167,26475
14.65000,27682
14.65833,28898
14.66667,30120
14.67500,31348
14.68333,32578
14.69167,33811
14.70000,35043
14.70833,36276
14.71667,37506
14.72500,38733
14.73333,39956
14.74167,41174
14.75000,42386
14.75833,43589
14.76667,44784
14.77500,45968
14.78333,47140
14.79167,48298
14.80000,49441
14.80833,50566
14.81667,51670
14.82500,52748
14.83333,53796
14.84167,54808
14.85000,55776
14.85833,56689
14.86667,57537
14.87500,58303
14.88333,58972
14.89167,59525
14.90000,59939
14.90833,60192
14.91667,60261
14.92500,60124
14.93333,59760
14.94167,59154
14.95000,58294
14.95833,57175
14.96667,55799
14.97500,54173
14.98333,52316
14.99167,50250
15.00000,48005
15.00833,45612
15.01667,43109
15.02500,40533
15.03333,37922
15.04167,35311
15.05000,32733
15.05833,30217
15.06667,27788
15.07500,25466
15.08333,23266
15.09167,21199
15.10000,19272
15.10833,17487
15.11667,15846
15.12500,14345
15.13333,12979
15.14167,11744
15.15000,10632
15.15833,9636
15.16667,8750
15.17500,7965
15.18333,7275
15.19167,6674
15.20000,6156
15.20833,5717
15.21667,5352
15.22500,5059
15.23333,4835
15.24167,4680
15.25000,4594
15.25833,4576
15.26667,4629
15.27500,4756
15.28333,4959
15.29167,5244
15.30000,5615
15.30833,6077
15.31667,6637
15.32500,7301
15.33333,8076
15.34167,8969
15.35000,9987
15.35833,11136
15.36667,12424
15.37500,13856
15.38333,15437
15.39167,17172
15.40000,19063
15.40833,21113
15.41667,23321
15.42500,25686
15.43333,28206
15.44167,30875
15.45000,33685
15.45833,36628
15.46667,39692
15.47500,42863
15.48333,46127
15.49167,49465
15.50000,52859
15.50833,56288
15.51667,59729
15.52500,63158
15.53333,66552
15.54167,69886
15.55000,73136
15.55833,76275
15.56667,79279
15.57500,82126
15.58333,84793
15.59167,87258
15.60000,89503
15.60833,91511
15.61667,93266
15.62500,94757
15.63333,95973
15.64167,96909
15.65000,97558
15.65833,97920
15.66667,97996
15.67500,97789
15.68333,97306
15.69167,96555
15.70000,95546
15.70833,94294
15.71667,92811
15.72500,91114
15.73333,89219
15.74167,87144
15.75000,84908
15.75833,82530
15.76667,80028
15.77500,77423
15.78333,74733
15.79167,71977
15.80000,69172
15.80833,66337
15.81667,63486
15.82500,60635
15.83333,57798
15.84167,54988
15.85000,52218
15.85833,49497
15.86667,46835
15.87500,44241
15.88333,41723
15.89167,39285
15.90000,36933
15.90833,34670
15.91667,32499
15.92500,30424
15.93333,28444
15.94167,26560
15.95000,24772
15.95833,23078
15.96667,21479
15.97500,19971
15.98333,18552
15.99167,17220
16.00000,15971
16.00833,14803
16.01667,13713
16.02500,12696
16.03333,11750
16.04167,10871
16.05000,10055
16.05833,9299
16.06667,8599
16.07500,7953
16.08333,7356
16.09167,6806
16.10000,6298
16.10833,5832
16.11667,5402
16.12500,5008
16.13333,4646
16.14167,4314
16.15000,4009
16.15833,3729
16.16667,3473
16.17500,3238
16.18333,3023
16.19167,2826
16.20000,2646
16.20833,2481
16.21667,2329
16.22500,2191
16.23333,2064
16.24167,1948
16.25000,1842
16.25833,1744
16.26667,1654
16.27500,1572
16.28333,1496
16.29167,1426
16.30000,1362
16.30833,1304
16.31667,1249
16.32500,1199
16.33333,1153
16.34167,1110
16.35000,1071
16.35833,1034
16.36667,1000
16.37500,968
16.38333,938
16.39167,911
16.40000,886
16.40833,862
16.41667,839
16.42500,819
16.43333,799
16.44167,781
16.45000,764
16.45833,748
16.46667,733
16.47500,719
16.48333,705
16.49167,692
16.50000,680
16.50833,668
16.51667,658
16.52500,647
16.53333,638
16.54167,629
16.55000,620
16.55833,612
16.56667,604
16.57500,596
16.58333,589
16.59167,582
16.60000,576
16.60833,569
16.61667,563
16.62500,557
16.63333,551
16.64167,546
16.65000,540
16.65833,535
16.66667,531
16.67500,526
16.68333,521
16.69167,516
16.70000,512
16.70833,508
16.71667,504
16.72500,500
16.73333,496
16.74167,492
16.75000,488
16.75833,484
16.76667,480
16.77500,476
16.78333,473
16.79167,469
16.80000,466
16.80833,462
16.81667,458
16.82500,455
16.83333,452
16.84167,449
16.85000,445
16.85833,442
16.86667,439
16.87500,436
16.88333,433
16.89167,430
16.90000,427
16.90833,424
16.91667,420
16.92500,417
16.93333,414
16.94167,412
16.95000,409
16.95833,406
16.96667,403
16.97500,400
16.98333,397
16.99167,394
17.00000,391
17.00833,389
17.01667,386
17.02500,383
17.03333,380
17.04167,378
17.05000,375
17.05833,373
17.06667,370
17.07500,368
17.08333,366
17.09167,363
17.10000,360
17.10833,358
17.11667,356
17.12500,353
17.13333,351
17.14167,348
17.15000,346
17.15833,344
17.16667,342
17.17500,340
17.18333,337
17.19167,335
17.20000,333
17.20833,330
17.21667,328
17.22500,326
17.23333,324
17.24167,322
17.25000,320
17.25833,318
17.26667,316
17.27500,315
17.28333,313
17.29167,311
17.30000,310
17.30833,308
17.31667,306
17.32500,304
17.33333,302
17.34167,301
17.35000,299
17.35833,298
17.36667,296
17.37500,295
17.38333,293
17.39167,292
17.40000,290
17.40833,289
17.41667,287
17.42500,286
17.43333,285
17.44167,284
17.45000,283
17.45833,282
17.46667,280
17.47500,279
17.48333,278
17.49167,277
17.50000,276
17.50833,274
17.51667,273
17.52500,271
17.53333,270
17.54167,269
17.55000,268
17.55833,267
17.56667,266
17.57500,265
17.58333,264
17.59167,264
17.60000,263
17.60833,262
17.61667,261
17.62500,260
17.63333,259
17.64167,258
17.65000,257
17.65833,255
17.66667,254
17.67500,254
17.68333,253
17.69167,252
17.70000,252
17.70833,251
17.71667,250
17.72500,250
17.73333,249
17.74167,247
17.75000,246
17.75833,246
17.76667,245
17.77500,244
17.78333,243
17.79167,242
17.80000,241
17.80833,240
17.81667,239
17.82500,238
17.83333,237
17.84167,237
17.85000,236
17.85833,235
17.86667,235
17.87500,234
17.88333,234
17.89167,234
17.90000,233
17.90833,232
17.91667,231
17.92500,230
17.93333,229
17.94167,228
17.95000,227
17.95833,226
17.96667,226
17.97500,225
17.98333,224
17.99167,224
18.00000,223
18.00833,222
18.01667,221
18.02500,220
18.03333,219
18.04167,219
18.05000,218
18.05833,217
18.06667,216
18.07500,216
18.08333,215
18.09167,214
18.10000,213
18.10833,212
18.11667,211
18.12500,210
18.13333,209
18.14167,209
18.15000,209
18.15833,208
18.16667,207
18.17500,206
18.18333,205
18.19167,204
18.20000,203
18.20833,203
18.21667,202
18.22500,201
18.23333,201
18.24167,200
18.25000,200
18.25833,199
18.26667,199
18.27500,198
18.28333,197
18.29167,196
18.30000,196
18.30833,195
18.31667,194
18.32500,194
18.33333,193
18.34167,192
18.35000,191
18.35833,190
18.36667,190
18.37500,189
18.38333,188
18.39167,188
18.40000,188
18.40833,187
18.41667,187
18.42500,187
18.43333,186
18.44167,185
18.45000,185
18.45833,185
18.46667,184
18.47500,183
18.48333,182
18.49167,182
18.50000,181
18.50833,181
18.51667,180
18.52500,180
18.53333,179
18.54167,179
18.55000,179
18.55833,178
18.56667,177
18.57500,177
18.58333,176
18.59167,176
18.60000,175
18.60833,175
18.61667,175
18.62500,174
18.63333,174
18.64167,174
18.65000,173
18.65833,173
18.66667,173
18.67500,172
18.68333,171
18.69167,171
18.70000,171
18.70833,171
18.71667,171
18.72500,171
18.73333,171
18.74167,171
18.75000,170
18.75833,170
18.76667,171
18.77500,171
18.78333,172
18.79167,172
18.80000,173
18.80833,173
18.81667,173
18.82500,174
18.83333,174
18.84167,175
18.85000,175
18.85833,176
18.86667,177
18.87500,178
18.88333,179
18.89167,179
18.90000,180
18.90833,181
18.91667,182
18.92500,182
18.93333,183
18.94167,184
18.95000,185
18.95833,185
18.96667,186
18.97500,186
18.98333,186
18.99167,186
19.00000,186
19.00833,186
19.01667,186
19.02500,186
19.03333,186
19.04167,185
19.05000,185
19.05833,184
19.06667,183
19.07500,182
19.08333,181
19.09167,180
19.10000,179
19.10833,178
19.11667,177
19.12500,176
19.13333,175
19.14167,174
19.15000,173
19.15833,171
19.16667,169
19.17500,167
19.18333,166
19.19167,164
19.20000,163
19.20833,161
19.21667,160
19.22500,158
19.23333,156
19.24167,155
19.25000,154
19.25833,153
19.26667,152
19.27500,151
19.28333,150
19.29167,148
19.30000,147
19.30833,145
19.31667,144
19.32500,143
19.33333,142
19.34167,141
19.35000,140
19.35833,139
19.36667,138
19.37500,137
19.38333,136
19.39167,135
19.40000,134
19.40833,134
19.41667,133
19.42500,133
19.43333,132
19.44167,131
19.45000,131
19.45833,130
19.46667,129
19.47500,129
19.48333,128
19.49167,128
19.50000,127
19.50833,126
19.51667,126
19.52500,125
19.53333,125
19.54167,125
19.55000,125
19.55833,124
19.56667,124
19.57500,124
19.58333,123
19.59167,122
19.60000,122
19.60833,121
19.61667,121
19.62500,120
19.63333,120
19.64167,120
19.65000,121
19.65833,121
19.66667,121
19.67500,121
19.68333,120
19.69167,120
19.70000,119
19.70833,119
19.71667,119
19.72500,118
19.73333,117
19.74167,117
19.75000,117
19.75833,116
19.76667,116
19.77500,116
19.78333,116
19.79167,115
19.80000,115
19.80833,115
19.81667,115
19.82500,115
19.83333,114
19.84167,114
19.85000,114
19.85833,114
19.86667,114
19.87500,114
19.88333,113
19.89167,113
19.90000,113
19.90833,113
19.91667,112
19.92500,112
19.93333,112
19.94167,111
19.95000,111
19.95833,111
19.96667,111
19.97500,111
19.98333,111
19.99167,110
20.00000,110
20.00833,110
20.01667,110
20.02500,109
20.03333,109
20.04167,109
20.05000,109
20.05833,109
20.06667,109
20.07500,109
20.08333,109
20.09167,109
20.10000,109
20.10833,109
20.11667,109
20.12500,109
20.13333,108
20.14167,108
20.15000,108
20.15833,108
20.16667,108
20.17500,107
20.18333,107
20.19167,107
20.20000,106
20.20833,106
20.21667,106
20.22500,105
20.23333,105
20.24167,105
20.25000,105
20.25833,105
20.26667,105
20.27500,105
20.28333,105
20.29167,105
20.30000,105
20.30833,105
20.31667,105
20.32500,105
20.33333,104
20.34167,104
20.35000,104
20.35833,104
20.36667,103
20.37500,103
20.38333,103
20.39167,102
20.40000,102
20.40833,102
20.41667,101
20.42500,101
20.43333,101
20.44167,101
20.45000,101
20.45833,101
20.46667,101
20.47500,101
20.48333,101
20.49167,100
20.50000,100
20.50833,100
20.51667,100
20.52500,100
20.53333,100
20.54167,100
20.55000,100
20.55833,99
20.56667,99
20.57500,99
20.58333,100
20.59167,99
20.60000,99
20.60833,99
20.61667,99
20.62500,99
20.63333,100
20.64167,100
20.65000,99
20.65833,99
20.66667,99
20.67500,99
20.68333,99
20.69167,98
20.70000,98
20.70833,98
20.71667,98
20.72500,98
20.73333,98
20.74167,98
20.75000,98
20.75833,97
20.76667,97
20.77500,96
20.78333,96
20.79167,96
20.80000,96
20.80833,96
20.81667,96
20.82500,96
20.83333,96
20.84167,96
20.85000,96
20.85833,95
20.86667,95
20.87500,95
20.88333,95
20.89167,95
20.90000,96
20.90833,96
20.91667,96
20.92500,95
20.93333,95
20.94167,95
20.95000,95
20.95833,95
20.96667,94
20.97500,94
20.98333,94
20.99167,94
21.00000,94
21.00833,94
21.01667,94
21.02500,94
21.03333,94
21.04167,95
21.05000,94
21.05833,94
21.06667,94
21.07500,94
21.08333,94
21.09167,94
21.10000,94
21.10833,94
21.11667,94
21.12500,94
21.13333,94
21.14167,94
21.15000,93
21.15833,93
21.16667,93
21.17500,93
21.18333,93
21.19167,94
21.20000,94
21.20833,94
21.21667,94
21.22500,94
21.23333,94
21.24167,94
21.25000,94
21.25833,95
21.26667,95
21.27500,95
21.28333,96
21.29167,97
21.30000,97
21.30833,98
21.31667,99
21.32500,99
21.33333,101
21.34167,102
21.35000,104
21.35833,105
21.36667,107
21.37500,109
21.38333,112
21.39167,115
21.40000,118
21.40833,122
21.41667,126
21.42500,130
21.43333,135
21.44167,141
21.45000,148
21.45833,155
21.46667,164
21.47500,173
21.48333,184
21.49167,197
21.50000,212
21.50833,228
21.51667,247
21.52500,268
21.53333,292
21.54167,318
21.55000,349
21.55833,383
21.56667,422
21.57500,465
21.58333,514
21.59167,570
21.60000,632
21.60833,701
21.61667,780
21.62500,867
21.63333,965
21.64167,1075
21.65000,1197
21.65833,1332
21.66667,1482
21.67500,1648
21.68333,1830
21.69167,2031
21.70000,2252
21.70833,2494
21.71667,2758
21.72500,3045
21.73333,3357
21.74167,3695
21.75000,4059
21.75833,4451
21.76667,4871
21.77500,5319
21.78333,5797
21.79167,6304
21.80000,6840
21.80833,7405
21.81667,7998
21.82500,8618
21.83333,9265
21.84167,9936
21.85000,10630
21.85833,11346
21.86667,12079
21.87500,12828
21.88333,13590
21.89167,14363
21.90000,15141
21.90833,15921
21.91667,16700
21.92500,17472
21.93333,18235
21.94167,18984
21.95000,19715
21.95833,20423
21.96667,21104
21.97500,21754
21.98333,22370
21.99167,22947
22.00000,23481
22.00833,23969
22.01667,24409
22.02500,24798
22.03333,25133
22.04167,25412
22.05000,25634
22.05833,25797
22.06667,25902
22.07500,25949
22.08333,25936
22.09167,25865
22.10000,25737
22.10833,25552
22.11667,25314
22.12500,25024
22.13333,24684
22.14167,24297
22.15000,23866
22.15833,23394
22.16667,22885
22.17500,22342
22.18333,21768
22.19167,21167
22.20000,20543
22.20833,19899
22.21667,19239
22.22500,18566
22.23333,17885
22.24167,17197
22.25000,16506
22.25833,15816
22.26667,15129
22.27500,14447
22.28333,13773
22.29167,13111
22.30000,12460
22.30833,11824
22.31667,11204
22.32500,10601
22.33333,10016
22.34167,9451
22.35000,8906
22.35833,8382
22.36667,7879
22.37500,7397
22.38333,6937
22.39167,6498
22.40000,6081
22.40833,5685
22.41667,5310
22.42500,4956
22.43333,4623
22.44167,4308
22.45000,4012
22.45833,3735
22.46667,3475
22.47500,3232
22.48333,3005
22.49167,2793
22.50000,2596
22.50833,2413
22.51667,2242
22.52500,2084
22.53333,1938
22.54167,1803
22.55000,1677
22.55833,1561
22.56667,1454
22.57500,1356
22.58333,1265
22.59167,1181
22.60000,1104
22.60833,1033
22.61667,968
22.62500,908
22.63333,853
22.64167,803
22.65000,757
22.65833,714
22.66667,675
22.67500,640
22.68333,607
22.69167,576
22.70000,549
22.70833,524
22.71667,501
22.72500,479
22.73333,460
22.74167,442
22.75000,425
22.75833,410
22.76667,395
22.77500,382
22.78333,370
22.79167,359
22.80000,349
22.80833,339
22.81667,330
22.82500,321
22.83333,313
22.84167,306
22.85000,300
22.85833,293
22.86667,288
22.87500,282
22.88333,277
22.89167,272
22.90000,267
22.90833,263
22.91667,259
22.92500,256
22.93333,252
22.94167,249
22.95000,246
22.95833,243
22.96667,240
22.97500,237
22.98333,234
22.99167,232
23.00000,230
23.00833,227
23.01667,225
23.02500,223
23.03333,221
23.04167,219
23.05000,218
23.05833,216
23.06667,215
23.07500,213
23.08333,211
23.09167,209
23.10000,207
23.10833,206
23.11667,205
23.12500,203
23.13333,202
23.14167,201
23.15000,199
23.15833,198
23.16667,197
23.17500,195
23.18333,194
23.19167,194
23.20000,193
23.20833,192
23.21667,191
23.22500,190
23.23333,188
23.24167,187
23.25000,186
23.25833,185
23.26667,184
23.27500,183
23.28333,182
23.29167,182
23.30000,181
23.30833,180
23.31667,179
23.32500,178
23.33333,177
23.34167,176
23.35000,176
23.35833,175
23.36667,174
23.37500,173
23.38333,172
23.39167,171
23.40000,171
23.40833,170
23.41667,169
23.42500,168
23.43333,167
23.44167,167
23.45000,166
23.45833,165
23.46667,165
23.47500,164
23.48333,163
23.49167,162
23.50000,162
23.50833,161
23.51667,160
23.52500,160
23.53333,159
23.54167,159
23.55000,158
23.55833,158
23.56667,157
23.57500,156
23.58333,156
23.59167,156
23.60000,155
23.60833,154
23.61667,153
23.62500,153
23.63333,152
23.64167,152
23.65000,151
23.65833,151
23.66667,151
23.67500,151
23.68333,150
23.69167,150
23.70000,149
23.70833,149
23.71667,149
23.72500,148
23.73333,147
23.74167,147
23.75000,146
23.75833,146
23.76667,145
23.77500,145
23.78333,145
23.79167,145
23.80000,145
23.80833,144
23.81667,144
23.82500,143
23.83333,143
23.84167,143
23.85000,143
23.85833,143
23.86667,143
23.87500,142
23.88333,142
23.89167,142
23.90000,142
23.90833,141
23.91667,141
23.92500,141
23.93333,141
23.94167,141
23.95000,140
23.95833,140
23.96667,140
23.97500,140
23.98333,139
23.99167,139
24.00000,139
24.00833,138
24.01667,138
24.02500,138
24.03333,138
24.04167,138
24.05000,138
24.05833,138
24.06667,137
24.07500,137
24.08333,136
24.09167,136
24.10000,136
24.10833,136
24.11667,135
24.12500,135
24.13333,135
24.14167,135
24.15000,135
24.15833,136
24.16667,136
24.17500,135
24.18333,135
24.19167,135
24.20000,134
24.20833,134
24.21667,134
24.22500,134
24.23333,134
24.24167,134
24.25000,134
24.25833,134
24.26667,135
24.27500,135
24.28333,136
24.29167,137
24.30000,138
24.30833,139
24.31667,139
24.32500,140
24.33333,141
24.34167,142
24.35000,144
24.35833,146
24.36667,148
24.37500,150
24.38333,152
24.39167,154
24.40000,157
24.40833,160
24.41667,164
24.42500,169
24.43333,174
24.44167,179
24.45000,185
24.45833,192
24.46667,199
24.47500,208
24.48333,217
24.49167,228
24.50000,239
24.50833,252
24.51667,267
24.52500,283
24.53333,302
24.54167,322
24.55000,344
24.55833,369
24.56667,397
24.57500,427
24.58333,461
24.59167,497
24.60000,538
24.60833,583
24.61667,633
24.62500,686
24.63333,745
24.64167,809
24.65000,879
24.65833,955
24.66667,1038
24.67500,1128
24.68333,1225
24.69167,1329
24.70000,1442
24.70833,1563
24.71667,1692
24.72500,1830
24.73333,1977
24.74167,2133
24.75000,2299
24.75833,2473
24.76667,2657
24.77500,2851
24.78333,3053
24.79167,3264
24.80000,3484
24.80833,3713
24.81667,3949
24.82500,4193
24.83333,4445
24.84167,4702
24.85000,4964
24.85833,5232
24.86667,5503
24.87500,5777
24.88333,6052
24.89167,6328
24.90000,6604
24.90833,6878
24.91667,7149
24.92500,7416
24.93333,7678
24.94167,7932
24.95000,8179
24.95833,8416
24.96667,8643
24.97500,8858
24.98333,9061
24.99167,9249
25.00000,9424
25.00833,9582
25.01667,9725
25.02500,9850
25.03333,9957
25.04167,10046
25.05000,10116
25.05833,10167
25.06667,10200
25.07500,10213
25.08333,10207
25.09167,10182
25.10000,10138
25.10833,10076
25.11667,9997
25.12500,9900
25.13333,9787
25.14167,9658
25.15000,9514
25.15833,9356
25.16667,9184
25.17500,9000
25.18333,8805
25.19167,8600
25.20000,8386
25.20833,8164
25.21667,7935
25.22500,7700
25.23333,7461
25.24167,7218
25.25000,6972
25.25833,6724
25.26667,6475
25.27500,6226
25.28333,5978
25.29167,5732
25.30000,5488
25.30833,5248
25.31667,5010
25.32500,4778
25.33333,4550
25.34167,4328
25.35000,4112
25.35833,3902
25.36667,3698
25.37500,3501
25.38333,3311
25.39167,3128
25.40000,2952
25.40833,2783
25.41667,2622
25.42500,2468
25.43333,2320
25.44167,2180
25.45000,2047
25.45833,1921
25.46667,1801
25.47500,1689
25.48333,1582
25.49167,1482
25.50000,1388
25.50833,1300
25.51667,1217
25.52500,1139
25.53333,1066
25.54167,998
25.55000,935
25.55833,877
25.56667,822
25.57500,771
25.58333,724
25.59167,680
25.60000,639
25.60833,601
25.61667,567
25.62500,535
25.63333,505
25.64167,478
25.65000,453
25.65833,429
25.66667,408
25.67500,388
25.68333,371
25.69167,354
25.70000,338
25.70833,324
25.71667,312
25.72500,300
25.73333,289
25.74167,279
25.75000,270
25.75833,262
25.76667,254
25.77500,246
25.78333,240
25.79167,234
25.80000,228
25.80833,223
25.81667,218
25.82500,214
25.83333,210
25.84167,207
25.85000,203
25.85833,200
25.86667,197
25.87500,194
25.88333,191
25.89167,188
25.90000,186
25.90833,184
25.91667,182
25.92500,180
25.93333,178
25.94167,177
25.95000,175
25.95833,174
25.96667,172
25.97500,170
25.98333,169
25.99167,168
26.00000,166
26.00833,165
26.01667,164
26.02500,163
26.03333,163
26.04167,162
26.05000,162
26.05833,161
26.06667,160
26.07500,159
26.08333,158
26.09167,157
26.10000,156
26.10833,156
26.11667,155
26.12500,154
26.13333,153
26.14167,153
26.15000,153
26.15833,152
26.16667,152
26.17500,151
26.18333,151
26.19167,150
26.20000,149
26.20833,148
26.21667,147
26.22500,147
26.23333,146
26.24167,145
26.25000,145
26.25833,144
26.26667,144
26.27500,144
26.28333,143
26.29167,143
26.30000,142
26.30833,142
26.31667,142
26.32500,142
26.33333,142
26.34167,142
26.35000,142
26.35833,141
26.36667,141
26.37500,141
26.38333,141
26.39167,140
26.40000,140
26.40833,140
26.41667,139
26.42500,139
26.43333,139
26.44167,138
26.45000,138
26.45833,138
26.46667,138
26.47500,137
26.48333,137
26.49167,137
26.50000,137
26.50833,137
26.51667,138
26.52500,138
26.53333,137
26.54167,137
26.55000,137
26.55833,137
26.56667,137
26.57500,137
26.58333,137
26.59167,137
26.60000,137
26.60833,137
26.61667,137
26.62500,137
26.63333,137
26.64167,137
26.65000,137
26.65833,137
26.66667,137
26.67500,137
26.68333,137
26.69167,137
26.70000,136
26.70833,136
26.71667,136
26.72500,136
26.73333,136
26.74167,136
26.75000,135
26.75833,135
26.76667,135
26.77500,135
26.78333,135
26.79167,135
26.80000,135
26.80833,135
26.81667,135
26.82500,135
26.83333,135
26.84167,134
26.85000,134
26.85833,134
26.86667,134
26.87500,133
26.88333,133
26.89167,132
26.90000,132
26.90833,132
26.91667,131
26.92500,131
26.93333,131
26.94167,130
26.95000,130
26.95833,130
26.96667,130
26.97500,130
26.98333,130
26.99167,130
27.00000,130
27.00833,129
27.01667,129
27.02500,129
27.03333,129
27.04167,129
27.05000,128
27.05833,128
27.06667,128
27.07500,127
27.08333,127
27.09167,127
27.10000,127
27.10833,127
27.11667,126
27.12500,126
27.13333,126
27.14167,126
27.15000,126
27.15833,125
27.16667,125
27.17500,125
27.18333,125
27.19167,125
27.20000,125
27.20833,125
27.21667,124
27.22500,124
27.23333,123
27.24167,123
27.25000,123
27.25833,123
27.26667,124
27.27500,124
27.28333,124
27.29167,123
27.30000,123
27.30833,123
27.31667,123
27.32500,123
27.33333,122
27.34167,122
27.35000,122
27.35833,122
27.36667,122
27.37500,122
27.38333,122
27.39167,122
27.40000,122
27.40833,122
27.41667,122
27.42500,122
27.43333,122
27.44167,122
27.45000,122
27.45833,121
27.46667,121
27.47500,121
27.48333,121
27.49167,122
27.50000,122
27.50833,121
27.51667,121
27.52500,121
27.53333,121
27.54167,121
27.55000,120
27.55833,120
27.56667,120
27.57500,120
27.58333,120
27.59167,120
27.60000,120
27.60833,120
27.61667,120
27.62500,120
27.63333,120
27.64167,120
27.65000,120
27.65833,119
27.66667,119
27.67500,119
27.68333,120
27.69167,120
27.70000,120
27.70833,120
27.71667,119
27.72500,120
27.73333,120
27.74167,120
27.75000,120
27.75833,119
27.76667,119
27.77500,119
27.78333,118
27.79167,117
27.80000,117
27.80833,117
27.81667,117
27.82500,116
27.83333,116
27.84167,115
27.85000,114
27.85833,114
27.86667,113
27.87500,112
27.88333,111
27.89167,111
27.90000,110
27.90833,109
27.91667,108
27.92500,106
27.93333,105
27.94167,104
27.95000,103
27.95833,101
27.96667,100
27.97500,98
27.98333,97
27.99167,95
28.00000,93
28.00833,92
28.01667,90
28.02500,88
28.03333,85
28.04167,83
28.05000,81
28.05833,79
28.06667,77
28.07500,74
28.08333,71
28.09167,69
28.10000,67
28.10833,64
28.11667,61
28.12500,58
28.13333,55
28.14167,52
28.15000,49
28.15833,46
28.16667,43
28.17500,40
28.18333,37
28.19167,34
28.20000,30
28.20833,27
28.21667,23
28.22500,20
28.23333,17
28.24167,14
28.25000,11
28.25833,8
28.26667,4
28.27500,1
28.28333,-1
28.29167,-4
28.30000,-7
28.30833,-9
28.31667,-11
28.32500,-14
28.33333,-16
28.34167,-18
28.35000,-20
28.35833,-22
28.36667,-24
28.37500,-25
28.38333,-27
28.39167,-28
28.40000,-29
28.40833,-30
28.41667,-30
28.42500,-31
28.43333,-31
28.44167,-31
28.45000,-31
28.45833,-31
28.46667,-31
28.47500,-31
28.48333,-31
28.49167,-30
28.50000,-29
28.50833,-28
28.51667,-27
28.52500,-26
28.53333,-24
28.54167,-22
28.55000,-21
28.55833,-20
28.56667,-18
28.57500,-16
28.58333,-14
28.59167,-11
28.60000,-9
28.60833,-6
28.61667,-3
28.62500,-1
28.63333,2
28.64167,4
28.65000,7
28.65833,9
28.66667,12
28.67500,15
28.68333,18
28.69167,21
28.70000,24
28.70833,27
28.71667,29
28.72500,32
28.73333,34
28.74167,37
28.75000,39
28.75833,42
28.76667,44
28.77500,47
28.78333,49
28.79167,51
28.80000,54
28.80833,56
28.81667,58
28.82500,61
28.83333,63
28.84167,65
28.85000,67
28.85833,69
28.86667,70
28.87500,72
28.88333,74
28.89167,75
28.90000,77
28.90833,79
28.91667,80
28.92500,81
28.93333,83
28.94167,84
28.95000,85
28.95833,87
28.96667,88
28.97500,90
28.98333,91
28.99167,92
29.00000,93
29.00833,93
29.01667,94
29.02500,95
29.03333,96
29.04167,97
29.05000,97
29.05833,98
29.06667,99
29.07500,100
29.08333,101
29.09167,101
29.10000,102
29.10833,102
29.11667,102
29.12500,102
29.13333,102
29.14167,102
29.15000,102
29.15833,103
29.16667,104
29.17500,104
29.18333,105
29.19167,105
29.20000,105
29.20833,105
29.21667,106
29.22500,106
29.23333,106
29.24167,107
29.25000,107
29.25833,107
29.26667,108
29.27500,108
29.28333,108
29.29167,109
29.30000,109
29.30833,109
29.31667,109
29.32500,109
29.33333,109
29.34167,109
29.35000,109
29.35833,109
29.36667,109
29.37500,109
29.38333,108
29.39167,109
29.40000,109
29.40833,109
29.41667,108
29.42500,108
29.43333,109
29.44167,109
29.45000,109
29.45833,109
29.46667,109
29.47500,109
29.48333,108
29.49167,108
29.50000,108
29.50833,108
29.51667,108
29.52500,108
29.53333,108
29.54167,108
29.55000,107
29.55833,107
29.56667,107
29.57500,106
29.58333,105
29.59167,105
29.60000,105
29.60833,105
29.61667,105
29.62500,105
29.63333,104
29.64167,104
29.65000,104
29.65833,104
29.66667,103
29.67500,102
29.68333,102
29.69167,101
29.70000,101
29.70833,100
29.71667,100
29.72500,99
29.73333,98
29.74167,98
29.75000,97
29.75833,96
29.76667,96
29.77500,95
29.78333,94
29.79167,93
29.80000,92
29.80833,91
29.81667,90
29.82500,89
29.83333,88
29.84167,87
29.85000,87
29.85833,86
29.86667,85
29.87500,84
29.88333,83
29.89167,82
29.90000,81
29.90833,79
29.91667,78
29.92500,76
29.93333,75
29.94167,74
29.95000,73
29.95833,72
29.96667,71
29.97500,70
29.98333,69
29.99167,68
30.00000,67
30.00833,66
30.01667,66
30.02500,65
30.03333,65
30.04167,64
30.05000,63
30.05833,62
30.06667,61
30.07500,60
30.08333,59
30.09167,59
30.10000,59
30.10833,59
30.11667,58
30.12500,58
30.13333,57
30.14167,57
30.15000,56
30.15833,56
30.16667,55
30.17500,55
30.18333,55
30.19167,56
30.20000,56
30.20833,56
30.21667,56
30.22500,56
30.23333,56
30.24167,56
30.25000,56
30.25833,57
30.26667,57
30.27500,57
30.28333,58
30.29167,59
30.30000,60
30.30833,61
30.31667,61
30.32500,62
30.33333,62
30.34167,63
30.35000,64
30.35833,64
30.36667,65
30.37500,66
30.38333,66
30.39167,67
30.40000,68
30.40833,69
30.41667,70
30.42500,71
30.43333,73
30.44167,74
30.45000,75
30.45833,76
30.46667,77
30.47500,78
30.48333,79
30.49167,80
30.50000,81
30.50833,81
30.51667,82
30.52500,83
30.53333,84
30.54167,85
30.55000,86
30.55833,87
30.56667,88
30.57500,89
30.58333,89
30.59167,90
30.60000,91
30.60833,92
30.61667,92
30.62500,93
30.63333,93
30.64167,94
30.65000,94
30.65833,94
30.66667,95
30.67500,95
30.68333,96
30.69167,97
30.70000,97
30.70833,98
30.71667,98
30.72500,99
30.73333,99
30.74167,99
30.75000,99
30.75833,100
30.76667,101
30.77500,101
30.78333,102
30.79167,102
30.80000,103
30.80833,104
30.81667,104
30.82500,104
30.83333,104
30.84167,104
30.85000,104
30.85833,104
30.86667,104
30.87500,104
30.88333,104
30.89167,104
30.90000,104
30.90833,104
30.91667,104
30.92500,104
30.93333,104
30.94167,104
30.95000,104
30.95833,104
30.96667,104
30.97500,104
30.98333,104
30.99167,105
31.00000,105
31.00833,105
31.01667,105
31.02500,105
31.03333,105
31.04167,105
31.05000,106
31.05833,106
31.06667,107
31.07500,107
31.08333,107
31.09167,107
31.10000,107
31.10833,107
31.11667,107
31.12500,107
31.13333,107
31.14167,107
31.15000,107
31.15833,107
31.16667,107
31.17500,107
31.18333,107
31.19167,107
31.20000,107
31.20833,108
31.21667,108
31.22500,108
31.23333,108
31.24167,108
31.25000,109
31.25833,108
31.26667,108
31.27500,108
31.28333,108
31.29167,108
31.30000,108
31.30833,108
31.31667,108
31.32500,108
31.33333,108
31.34167,108
31.35000,109
31.35833,109
31.36667,109
31.37500,109
31.38333,109
31.39167,109
31.40000,109
31.40833,109
31.41667,110
31.42500,110
31.43333,109
31.44167,109
31.45000,109
31.45833,109
31.46667,109
31.47500,109
31.48333,110
31.49167,110
31.50000,110
31.50833,110
31.51667,110
31.52500,110
31.53333,110
31.54167,110
31.55000,110
31.55833,110
31.56667,110
31.57500,110
31.58333,110
31.59167,110
31.60000,110
31.60833,111
31.61667,111
31.62500,111
31.63333,111
31.64167,111
31.65000,111
31.65833,111
31.66667,111
31.67500,111
31.68333,111
31.69167,111
31.70000,111
31.70833,111
31.71667,111
31.72500,111
31.73333,112
31.74167,112
31.75000,112
31.75833,111
31.76667,111
31.77500,111
31.78333,111
31.79167,111
31.80000,111
31.80833,111
31.81667,111
31.82500,111
31.83333,111
31.84167,111
31.85000,111
31.85833,111
31.86667,111
31.87500,111
31.88333,111
31.89167,110
31.90000,111
31.90833,111
31.91667,110
31.92500,110
31.93333,111
31.94167,111
31.95000,111
31.95833,111
31.96667,111
31.97500,112
31.98333,112
31.99167,112
32.00000,112
32.00833,112
32.01667,112
32.02500,112
32.03333,112
32.04167,112
32.05000,112
32.05833,112
32.06667,112
32.07500,113
32.08333,113
32.09167,113
32.10000,113
32.10833,113
32.11667,113
32.12500,113
32.13333,113
32.14167,113
32.15000,112
32.15833,112
32.16667,112
32.17500,112
32.18333,112
32.19167,112
32.20000,112
32.20833,112
32.21667,112
32.22500,112
32.23333,112
32.24167,112
32.25000,112
32.25833,112
32.26667,112
32.27500,113
32.28333,113
32.29167,112
32.30000,112
32.30833,112
32.31667,112
32.32500,112
32.33333,112
32.34167,112
32.35000,112
32.35833,112
32.36667,112
32.37500,112
32.38333,112
32.39167,112
32.40000,112
32.40833,112
32.41667,112
32.42500,112
32.43333,112
32.44167,112
32.45000,112
32.45833,112
32.46667,113
32.47500,113
32.48333,113
32.49167,113
32.50000,113
32.50833,113
32.51667,113
32.52500,112
32.53333,112
32.54167,113
32.55000,113
32.55833,113
32.56667,113
32.57500,113
32.58333,113
32.59167,113
32.60000,113
32.60833,113
32.61667,113
32.62500,113
32.63333,113
32.64167,113
32.65000,113
32.65833,113
32.66667,113
32.67500,113
32.68333,113
32.69167,113
32.70000,113
32.70833,113
32.71667,113
32.72500,113
32.73333,113
32.74167,113
32.75000,113
32.75833,113
32.76667,113
32.77500,113
32.78333,113
32.79167,113
32.80000,113
32.80833,113
32.81667,113
32.82500,113
32.83333,114
32.84167,114
32.85000,114
32.85833,114
32.86667,114
32.87500,114
32.88333,114
32.89167,114
32.90000,114
32.90833,114
32.91667,114
32.92500,114
32.93333,114
32.94167,114
32.95000,114
32.95833,114
32.96667,114
32.97500,115
32.98333,115
32.99167,115
33.00000,115
33.00833,115
33.01667,115
33.02500,115
33.03333,115
33.04167,115
33.05000,115
33.05833,114
33.06667,114
33.07500,114
33.08333,114
33.09167,115
33.10000,115
33.10833,115
33.11667,115
33.12500,115
33.13333,115
33.14167,115
33.15000,115
33.15833,115
33.16667,115
33.17500,115
33.18333,115
33.19167,115
33.20000,115
33.20833,115
33.21667,115
33.22500,115
33.23333,115
33.24167,116
33.25000,115
33.25833,115
33.26667,115
33.27500,115
33.28333,116
33.29167,116
33.30000,116
33.30833,115
33.31667,115
33.32500,115
33.33333,115
33.34167,115
33.35000,115
33.35833,115
33.36667,115
33.37500,116
33.38333,116
33.39167,116
33.40000,116
33.40833,116
33.41667,116
33.42500,116
33.43333,116
33.44167,116
33.45000,116
33.45833,116
33.46667,116
33.47500,116
33.48333,116
33.49167,116
33.50000,116
33.50833,116
33.51667,116
33.52500,116
33.53333,116
33.54167,115
33.55000,115
33.55833,115
33.56667,115
33.57500,115
33.58333,115
33.59167,116
33.60000,116
33.60833,115
33.61667,115
33.62500,115
33.63333,115
33.64167,115
33.65000,115
33.65833,114
33.66667,114
33.67500,114
33.68333,114
33.69167,114
33.70000,114
33.70833,115
33.71667,115
33.72500,115
33.73333,115
33.74167,115
33.75000,115
33.75833,116
33.76667,116
33.77500,117
33.78333,117
33.79167,116
33.80000,116
33.80833,116
33.81667,116
33.82500,116
33.83333,116
33.84167,116
33.85000,116
33.85833,116
33.86667,116
33.87500,116
33.88333,116
33.89167,116
33.90000,116
33.90833,116
33.91667,116
33.92500,116
33.93333,116
33.94167,116
33.95000,116
33.95833,116
33.96667,116
33.97500,116
33.98333,116
33.99167,115
34.00000,115
34.00833,115
34.01667,116
34.02500,116
34.03333,116
34.04167,116
34.05000,116
34.05833,116
34.06667,117
34.07500,117
34.08333,117
34.09167,117
34.10000,117
34.10833,117
34.11667,117
34.12500,117
34.13333,116
34.14167,116
34.15000,116
34.15833,116
34.16667,116
34.17500,116
34.18333,116
34.19167,116
34.20000,116
34.20833,116
34.21667,116
34.22500,116
34.23333,116
34.24167,117
34.25000,117
34.25833,117
34.26667,117
34.27500,117
34.28333,117
34.29167,117
34.30000,118
34.30833,118
34.31667,117
34.32500,117
34.33333,117
34.34167,117
34.35000,117
34.35833,117
34.36667,117
34.37500,117
34.38333,117
34.39167,117
34.40000,117
34.40833,117
34.41667,117
34.42500,117
34.43333,117
34.44167,118
34.45000,118
34.45833,117
34.46667,117
34.47500,117
34.48333,117
34.49167,117
34.50000,117
34.50833,118
34.51667,118
34.52500,118
34.53333,118
34.54167,118
34.55000,118
34.55833,118
34.56667,118
34.57500,118
34.58333,118
34.59167,117
34.60000,117
34.60833,118
34.61667,118
34.62500,118
34.63333,118
34.64167,118
34.65000,118
34.65833,118
34.66667,118
34.67500,118
34.68333,118
34.69167,118
34.70000,118
34.70833,118
34.71667,118
34.72500,118
34.73333,118
34.74167,118
34.75000,118
34.75833,118
34.76667,118
34.77500,117
34.78333,117
34.79167,117
34.80000,117
34.80833,117
34.81667,117
34.82500,117
34.83333,118
34.84167,118
34.85000,118
34.85833,118
34.86667,118
34.87500,118
34.88333,118
34.89167,118
34.90000,118
34.90833,118
34.91667,118
34.92500,118
34.93333,119
34.94167,119
34.95000,119
34.95833,119
34.96667,118
34.97500,118
34.98333,118
34.99167,118
35.00000,119
35.00833,119
35.01667,119
35.02500,119
35.03333,119
35.04167,118
35.05000,118
35.05833,118
35.06667,118
35.07500,118
35.08333,118
35.09167,119
35.10000,118
35.10833,119
35.11667,119
35.12500,119
35.13333,119
35.14167,119
35.15000,118
35.15833,118
35.16667,118
35.17500,118
35.18333,117
35.19167,117
35.20000,117
35.20833,117
35.21667,117
35.22500,117
35.23333,118
35.24167,118
35.25000,118
35.25833,118
35.26667,118
35.27500,118
35.28333,119
35.29167,119
35.30000,119
35.30833,119
35.31667,119
35.32500,119
35.33333,120
35.34167,120
35.35000,120
35.35833,120
35.36667,120
35.37500,120
35.38333,120
35.39167,120
35.40000,119
35.40833,119
35.41667,119
35.42500,119
35.43333,119
35.44167,119
35.45000,120
35.45833,120
35.46667,121
35.47500,121
35.48333,120
35.49167,120
35.50000,120
35.50833,120
35.51667,120
35.52500,120
35.53333,120
35.54167,121
35.55000,121
35.55833,121
35.56667,122
35.57500,122
35.58333,122
35.59167,122
35.60000,122
35.60833,122
35.61667,121
35.62500,121
35.63333,121
35.64167,121
35.65000,121
35.65833,121
35.66667,121
35.67500,121
35.68333,121
35.69167,122
35.70000,121
35.70833,121
35.71667,121
35.72500,121
35.73333,121
35.74167,121
35.75000,121
35.75833,121
35.76667,121
35.77500,121
35.78333,121
35.79167,121
35.80000,121
35.80833,121
35.81667,121
35.82500,121
35.83333,121
35.84167,121
35.85000,121
35.85833,121
35.86667,121
35.87500,121
35.88333,121
35.89167,121
35.90000,121
35.90833,121
35.91667,121
35.92500,120
35.93333,120
35.94167,120
35.95000,120
35.95833,121
35.96667,121
35.97500,121
35.98333,121
35.99167,121
36.00000,121
36.00833,121
36.01667,121
36.02500,121
36.03333,121
36.04167,121
36.05000,121
36.05833,121
36.06667,121
36.07500,121
36.08333,121
36.09167,121
36.10000,120
36.10833,120
36.11667,120
36.12500,121
36.13333,121
36.14167,120
36.15000,120
36.15833,120
36.16667,120
36.17500,120
36.18333,120
36.19167,120
36.20000,120
36.20833,120
36.21667,120
36.22500,120
36.23333,120
36.24167,120
36.25000,120
36.25833,120
36.26667,120
36.27500,120
36.28333,120
36.29167,120
36.30000,120
36.30833,120
36.31667,120
36.32500,120
36.33333,120
36.34167,121
36.35000,121
36.35833,121
36.36667,121
36.37500,121
36.38333,121
36.39167,121
36.40000,121
36.40833,121
36.41667,121
36.42500,121
36.43333,121
36.44167,121
36.45000,121
36.45833,121
36.46667,122
36.47500,122
36.48333,121
36.49167,121
36.50000,121
36.50833,121
36.51667,121
36.52500,121
36.53333,121
36.54167,121
36.55000,121
36.55833,121
36.56667,121
36.57500,121
36.58333,121
36.59167,122
36.60000,121
36.60833,122
36.61667,122
36.62500,122
36.63333,122
36.64167,122
36.65000,122
36.65833,122
36.66667,122
36.67500,122
36.68333,121
36.69167,121
36.70000,122
36.70833,122
36.71667,122
36.72500,122
36.73333,122
36.74167,123
36.75000,123
36.75833,123
36.76667,123
36.77500,123
36.78333,123
36.79167,123
36.80000,123
36.80833,123
36.81667,123
36.82500,123
36.83333,123
36.84167,123
36.85000,123
36.85833,124
36.86667,124
36.87500,124
36.88333,124
36.89167,123
36.90000,123
36.90833,123
36.91667,122
36.92500,122
36.93333,123
36.94167,123
36.95000,123
36.95833,123
36.96667,123
36.97500,123
36.98333,124
36.99167,124
37.00000,124
37.00833,124
37.01667,124
37.02500,124
37.03333,124
37.04167,124
37.05000,124
37.05833,124
37.06667,124
37.07500,124
37.08333,124
37.09167,124
37.10000,124
37.10833,124
37.11667,124
37.12500,123
37.13333,123
37.14167,123
37.15000,123
37.15833,123
37.16667,123
37.17500,123
37.18333,123
37.19167,123
37.20000,123
37.20833,124
37.21667,124
37.22500,124
37.23333,124
37.24167,124
37.25000,124
37.25833,124
37.26667,124
37.27500,124
37.28333,124
37.29167,124
37.30000,124
37.30833,124
37.31667,124
37.32500,124
37.33333,124
37.34167,124
37.35000,123
37.35833,123
37.36667,124
37.37500,123
37.38333,124
37.39167,124
37.40000,124
37.40833,124
37.41667,125
37.42500,125
37.43333,125
37.44167,124
37.45000,124
37.45833,125
37.46667,125
37.47500,125
37.48333,125
37.49167,125
37.50000,125
37.50833,124
37.51667,124
37.52500,124
37.53333,124
37.54167,124
37.55000,124
37.55833,125
37.56667,125
37.57500,125
37.58333,125
37.59167,125
37.60000,125
37.60833,125
37.61667,125
37.62500,124
37.63333,124
37.64167,124
37.65000,124
37.65833,124
37.66667,124
37.67500,124
37.68333,124
37.69167,124
37.70000,124
37.70833,124
37.71667,123
37.72500,123
37.73333,124
37.74167,124
37.75000,124
37.75833,123
37.76667,123
37.77500,123
37.78333,123
37.79167,123
37.80000,124
37.80833,124
37.81667,124
37.82500,125
37.83333,125
37.84167,125
37.85000,125
37.85833,125
37.86667,125
37.87500,125
37.88333,125
37.89167,124
37.90000,124
37.90833,124
37.91667,124
37.92500,124
37.93333,124
37.94167,124
37.95000,124
37.95833,124
37.96667,124
37.97500,124
37.98333,125
37.99167,125
38.00000,125
38.00833,125
38.01667,125
38.02500,125
38.03333,125
38.04167,125
38.05000,125
38.05833,125
38.06667,126
38.07500,126
38.08333,126
38.09167,125
38.10000,125
38.10833,125
38.11667,125
38.12500,125
38.13333,125
38.14167,125
38.15000,125
38.15833,125
38.16667,125
38.17500,125
38.18333,124
38.19167,124
38.20000,124
38.20833,124
38.21667,124
38.22500,125
38.23333,125
38.24167,125
38.25000,125
38.25833,125
38.26667,125
38.27500,126
38.28333,126
38.29167,126
38.30000,126
38.30833,125
38.31667,125
38.32500,126
38.33333,125
38.34167,125
38.35000,125
38.35833,125
38.36667,125
38.37500,125
38.38333,126
38.39167,126
38.40000,126
38.40833,126
38.41667,126
38.42500,126
38.43333,126
38.44167,127
38.45000,127
38.45833,127
38.46667,127
38.47500,127
38.48333,127
38.49167,127
38.50000,127
38.50833,127
38.51667,127
38.52500,126
38.53333,126
38.54167,126
38.55000,126
38.55833,126
38.56667,126
38.57500,126
38.58333,126
38.59167,126
38.60000,127
38.60833,127
38.61667,127
38.62500,127
38.63333,127
38.64167,127
38.65000,127
38.65833,127
38.66667,127
38.67500,127
38.68333,127
38.69167,127
38.70000,127
38.70833,127
38.71667,127
38.72500,127
38.73333,127
38.74167,127
38.75000,127
38.75833,127
38.76667,127
38.77500,127
38.78333,127
38.79167,128
38.80000,128
38.80833,128
38.81667,128
38.82500,128
38.83333,128
38.84167,127
38.85000,127
38.85833,127
38.86667,127
38.87500,127
38.88333,127
38.89167,127
38.90000,127
38.90833,127
38.91667,127
38.92500,127
38.93333,126
38.94167,126
38.95000,127
38.95833,127
38.96667,127
38.97500,128
38.98333,128
38.99167,128
39.00000,128
39.00833,128
39.01667,128
39.02500,128
39.03333,128
39.04167,128
39.05000,128
39.05833,128
39.06667,128
39.07500,127
39.08333,127
39.09167,127
39.10000,127
39.10833,127
39.11667,127
39.12500,127
39.13333,127
39.14167,127
39.15000,127
39.15833,127
39.16667,127
39.17500,127
39.18333,128
39.19167,128
39.20000,128
39.20833,128
39.21667,128
39.22500,128
39.23333,128
39.24167,128
39.25000,128
39.25833,128
39.26667,128
39.27500,128
39.28333,128
39.29167,128
39.30000,128
39.30833,127
39.31667,127
39.32500,127
39.33333,127
39.34167,127
39.35000,127
39.35833,127
39.36667,127
39.37500,128
39.38333,128
39.39167,127
39.40000,127
39.40833,127
39.41667,127
39.42500,127
39.43333,127
39.44167,127
39.45000,128
39.45833,128
39.46667,128
39.47500,129
39.48333,129
39.49167,129
39.50000,129
39.50833,128
39.51667,128
39.52500,128
39.53333,128
39.54167,128
39.55000,129
39.55833,129
39.56667,128
39.57500,128
39.58333,128
39.59167,128
39.60000,128
39.60833,128
39.61667,128
39.62500,128
39.63333,128
39.64167,128
39.65000,128
39.65833,128
39.66667,128
39.67500,128
39.68333,129
39.69167,128
39.70000,128
39.70833,128
39.71667,127
39.72500,127
39.73333,127
39.74167,126
39.75000,127
39.75833,127
39.76667,127
39.77500,127
39.78333,128
39.79167,128
39.80000,128
39.80833,128
39.81667,128
39.82500,128
39.83333,128
39.84167,128
39.85000,128
39.85833,128
39.86667,128
39.87500,128
39.88333,128
39.89167,128
39.90000,128
39.90833,128
39.91667,127
39.92500,127
39.93333,127
39.94167,127
39.95000,128
39.95833,128
39.96667,128
39.97500,128
39.98333,128
39.99167,127
40.00000,127

