[Header]
Application Name,LabSolutions
Version,5.97 SP1
Data File Name,C:\Users\cremerlab\Desktop\griffin\2021-04-03_buffer_calibration\2021-04-03_buffer_calibration_432021_005_018.lcd
Output Date,4/4/2021
Output Time,2:49:17 AM

[File Information]
Type,Data File
Generated,4/4/2021 2:08:58 AM
Generated by,System Administrator
Modified,4/4/2021 2:49:16 AM
Modified by,System Administrator

[Sample Information]
Operator Name,System Administrator
Acquired,4/4/2021 2:09:16 AM
Sample Type,1:Standard
Level,5
Sample Name,2021-04-02_DM_glucose_glycerol_acetate_calibration_10mM
Sample ID,005
ISTD Amount1,1
ISTD Amount2,1
ISTD Amount3,1
ISTD Amount4,1
ISTD Amount5,1
ISTD Amount6,1
ISTD Amount7,1
ISTD Amount8,1
ISTD Amount9,1
ISTD Amount10,1
ISTD Amount11,1
ISTD Amount12,1
ISTD Amount13,1
ISTD Amount14,1
ISTD Amount15,1
ISTD Amount16,1
ISTD Amount17,1
ISTD Amount18,1
ISTD Amount19,1
ISTD Amount20,1
ISTD Amount21,1
ISTD Amount22,1
ISTD Amount23,1
ISTD Amount24,1
ISTD Amount25,1
ISTD Amount26,1
ISTD Amount27,1
ISTD Amount28,1
ISTD Amount29,1
ISTD Amount30,1
ISTD Amount31,1
ISTD Amount32,1
Sample Amount,1
Dilution Factor,1
Vial#,23
Injection Volume,20

[Original Files]
Data File,C:\Users\cremerlab\Desktop\griffin\2021-04-03_buffer_calibration\2021-04-03_buffer_calibration_432021_005_018.lcd
Method File,C:\LabSolutions\Data\Project1\organicacidsetc2.lcm
Batch File,C:\Users\cremerlab\Desktop\griffin\2021-04-03_buffer_calibration\2021-04-03_buffer_calibration.lcb
Report Format File,c:\LabSolutions\System\DEFAULT.lsr

[File Description]


[Configuration]
Instrument Name,HPLC-PC-Instrument1
Instrument #,1
Line #,1
# of Detectors,2
Detector ID,Detector A,Detector B
Detector Name,Detector A,Detector B
# of Channels,1,1

[Peak Table(Detector A)]
# of Peaks,0

[Peak Table(Detector B)]
# of Peaks,6
Peak#,R.Time,I.Time,F.Time,Area,Height,A/H,Conc.,Mark,ID#,Name,k',Plate #,Plate Ht.,Tailing,Resolution,Sep.Factor,Area Ratio,Height Ratio,Conc. %,Norm Conc.
1,10.746,10.542,10.967,44594,3085,14.453,0.000,   ,,,0.000,12685,11.825,1.016,0.000,0.000,0,0,0.000,0.000
2,11.313,11.008,11.433,39577,1636,24.188,0.000,   ,,,0.053,12806,11.713,0.699,1.451,0.000,0,0,0.000,0.000
3,14.915,14.100,15.283,1502394,60616,24.786,0.000,   ,,,0.388,7487,20.034,0.000,6.613,7.350,0,0,0.000,0.000
4,15.663,15.283,17.508,958814,39175,24.475,0.000, V ,,,0.458,9680,15.496,0.000,1.127,1.179,0,0,0.000,0.000
5,22.077,21.375,23.125,277843,10300,26.976,0.000,   ,,,1.054,15417,9.730,1.090,9.518,2.305,0,0,0.000,0.000
6,25.081,24.392,26.025,117522,4014,29.278,0.000,   ,,,1.334,16768,8.946,1.063,4.042,1.265,0,0,0.000,0.000

[LC Chromatogram(Detector B-Ch1)]
Interval(msec),500
# of Points,4801
Start Time(min),0.000
End Time(min),40.000
Intensity Units,mV
Intensity Multiplier,0.001
R.Time (min),Intensity
0.00000,1
0.00833,1
0.01667,0
0.02500,-0
0.03333,-0
0.04167,-1
0.05000,-1
0.05833,-1
0.06667,-0
0.07500,0
0.08333,0
0.09167,0
0.10000,0
0.10833,-0
0.11667,-0
0.12500,0
0.13333,0
0.14167,0
0.15000,0
0.15833,0
0.16667,0
0.17500,-0
0.18333,-0
0.19167,0
0.20000,0
0.20833,0
0.21667,1
0.22500,1
0.23333,1
0.24167,1
0.25000,1
0.25833,1
0.26667,1
0.27500,1
0.28333,1
0.29167,1
0.30000,1
0.30833,1
0.31667,1
0.32500,1
0.33333,1
0.34167,1
0.35000,1
0.35833,1
0.36667,1
0.37500,1
0.38333,1
0.39167,1
0.40000,1
0.40833,1
0.41667,1
0.42500,1
0.43333,2
0.44167,2
0.45000,2
0.45833,2
0.46667,1
0.47500,1
0.48333,1
0.49167,1
0.50000,1
0.50833,2
0.51667,2
0.52500,1
0.53333,1
0.54167,1
0.55000,1
0.55833,2
0.56667,2
0.57500,2
0.58333,2
0.59167,2
0.60000,2
0.60833,2
0.61667,2
0.62500,2
0.63333,1
0.64167,1
0.65000,2
0.65833,1
0.66667,1
0.67500,1
0.68333,0
0.69167,0
0.70000,0
0.70833,0
0.71667,0
0.72500,0
0.73333,-0
0.74167,-0
0.75000,-0
0.75833,-0
0.76667,-0
0.77500,0
0.78333,0
0.79167,0
0.80000,1
0.80833,1
0.81667,1
0.82500,1
0.83333,1
0.84167,1
0.85000,1
0.85833,1
0.86667,1
0.87500,1
0.88333,0
0.89167,0
0.90000,1
0.90833,1
0.91667,1
0.92500,1
0.93333,1
0.94167,1
0.95000,1
0.95833,1
0.96667,1
0.97500,0
0.98333,0
0.99167,1
1.00000,1
1.00833,1
1.01667,1
1.02500,1
1.03333,1
1.04167,1
1.05000,1
1.05833,1
1.06667,1
1.07500,1
1.08333,1
1.09167,2
1.10000,2
1.10833,2
1.11667,2
1.12500,2
1.13333,1
1.14167,1
1.15000,1
1.15833,1
1.16667,1
1.17500,1
1.18333,1
1.19167,2
1.20000,2
1.20833,2
1.21667,2
1.22500,2
1.23333,2
1.24167,1
1.25000,2
1.25833,2
1.26667,2
1.27500,2
1.28333,2
1.29167,2
1.30000,2
1.30833,2
1.31667,2
1.32500,2
1.33333,2
1.34167,2
1.35000,1
1.35833,1
1.36667,1
1.37500,1
1.38333,1
1.39167,2
1.40000,2
1.40833,2
1.41667,2
1.42500,2
1.43333,2
1.44167,1
1.45000,1
1.45833,1
1.46667,1
1.47500,2
1.48333,2
1.49167,2
1.50000,2
1.50833,2
1.51667,2
1.52500,2
1.53333,2
1.54167,2
1.55000,2
1.55833,2
1.56667,2
1.57500,2
1.58333,2
1.59167,3
1.60000,3
1.60833,3
1.61667,3
1.62500,2
1.63333,3
1.64167,3
1.65000,3
1.65833,3
1.66667,3
1.67500,3
1.68333,3
1.69167,2
1.70000,2
1.70833,2
1.71667,2
1.72500,2
1.73333,2
1.74167,3
1.75000,3
1.75833,2
1.76667,2
1.77500,3
1.78333,3
1.79167,3
1.80000,3
1.80833,3
1.81667,4
1.82500,4
1.83333,4
1.84167,3
1.85000,4
1.85833,4
1.86667,4
1.87500,4
1.88333,4
1.89167,3
1.90000,3
1.90833,3
1.91667,2
1.92500,3
1.93333,3
1.94167,3
1.95000,3
1.95833,3
1.96667,3
1.97500,3
1.98333,3
1.99167,3
2.00000,3
2.00833,3
2.01667,3
2.02500,3
2.03333,3
2.04167,3
2.05000,3
2.05833,3
2.06667,3
2.07500,3
2.08333,3
2.09167,3
2.10000,3
2.10833,3
2.11667,3
2.12500,3
2.13333,3
2.14167,3
2.15000,3
2.15833,3
2.16667,3
2.17500,4
2.18333,4
2.19167,4
2.20000,5
2.20833,5
2.21667,5
2.22500,5
2.23333,6
2.24167,5
2.25000,5
2.25833,5
2.26667,5
2.27500,5
2.28333,5
2.29167,4
2.30000,4
2.30833,5
2.31667,4
2.32500,4
2.33333,4
2.34167,4
2.35000,5
2.35833,5
2.36667,5
2.37500,5
2.38333,5
2.39167,5
2.40000,5
2.40833,5
2.41667,5
2.42500,5
2.43333,4
2.44167,4
2.45000,4
2.45833,4
2.46667,4
2.47500,4
2.48333,4
2.49167,5
2.50000,5
2.50833,5
2.51667,6
2.52500,6
2.53333,6
2.54167,5
2.55000,5
2.55833,5
2.56667,5
2.57500,5
2.58333,5
2.59167,5
2.60000,5
2.60833,4
2.61667,4
2.62500,4
2.63333,5
2.64167,4
2.65000,5
2.65833,5
2.66667,6
2.67500,6
2.68333,6
2.69167,5
2.70000,5
2.70833,5
2.71667,5
2.72500,5
2.73333,5
2.74167,5
2.75000,5
2.75833,5
2.76667,5
2.77500,5
2.78333,5
2.79167,6
2.80000,6
2.80833,5
2.81667,5
2.82500,5
2.83333,6
2.84167,6
2.85000,6
2.85833,6
2.86667,6
2.87500,5
2.88333,5
2.89167,5
2.90000,5
2.90833,5
2.91667,6
2.92500,6
2.93333,6
2.94167,6
2.95000,7
2.95833,7
2.96667,7
2.97500,7
2.98333,7
2.99167,7
3.00000,7
3.00833,6
3.01667,6
3.02500,6
3.03333,6
3.04167,6
3.05000,6
3.05833,6
3.06667,6
3.07500,6
3.08333,6
3.09167,6
3.10000,6
3.10833,6
3.11667,6
3.12500,7
3.13333,7
3.14167,7
3.15000,7
3.15833,7
3.16667,7
3.17500,7
3.18333,7
3.19167,7
3.20000,7
3.20833,7
3.21667,7
3.22500,7
3.23333,7
3.24167,7
3.25000,7
3.25833,7
3.26667,7
3.27500,7
3.28333,7
3.29167,8
3.30000,8
3.30833,8
3.31667,7
3.32500,7
3.33333,7
3.34167,7
3.35000,7
3.35833,7
3.36667,7
3.37500,7
3.38333,7
3.39167,7
3.40000,6
3.40833,6
3.41667,6
3.42500,6
3.43333,7
3.44167,7
3.45000,7
3.45833,7
3.46667,7
3.47500,7
3.48333,7
3.49167,7
3.50000,8
3.50833,8
3.51667,8
3.52500,8
3.53333,8
3.54167,8
3.55000,8
3.55833,8
3.56667,8
3.57500,8
3.58333,8
3.59167,8
3.60000,8
3.60833,8
3.61667,8
3.62500,8
3.63333,8
3.64167,8
3.65000,8
3.65833,8
3.66667,8
3.67500,8
3.68333,8
3.69167,8
3.70000,8
3.70833,8
3.71667,9
3.72500,9
3.73333,9
3.74167,9
3.75000,9
3.75833,9
3.76667,9
3.77500,9
3.78333,9
3.79167,9
3.80000,9
3.80833,9
3.81667,9
3.82500,9
3.83333,9
3.84167,9
3.85000,8
3.85833,8
3.86667,8
3.87500,8
3.88333,8
3.89167,8
3.90000,9
3.90833,9
3.91667,9
3.92500,8
3.93333,8
3.94167,8
3.95000,8
3.95833,8
3.96667,9
3.97500,9
3.98333,9
3.99167,9
4.00000,9
4.00833,9
4.01667,9
4.02500,9
4.03333,9
4.04167,9
4.05000,9
4.05833,9
4.06667,9
4.07500,9
4.08333,8
4.09167,9
4.10000,9
4.10833,10
4.11667,10
4.12500,10
4.13333,9
4.14167,9
4.15000,9
4.15833,8
4.16667,8
4.17500,9
4.18333,9
4.19167,9
4.20000,9
4.20833,10
4.21667,10
4.22500,10
4.23333,11
4.24167,11
4.25000,10
4.25833,10
4.26667,10
4.27500,10
4.28333,10
4.29167,10
4.30000,10
4.30833,10
4.31667,10
4.32500,10
4.33333,10
4.34167,10
4.35000,10
4.35833,10
4.36667,10
4.37500,10
4.38333,10
4.39167,10
4.40000,10
4.40833,10
4.41667,10
4.42500,10
4.43333,10
4.44167,10
4.45000,10
4.45833,10
4.46667,10
4.47500,9
4.48333,10
4.49167,10
4.50000,10
4.50833,10
4.51667,10
4.52500,10
4.53333,10
4.54167,10
4.55000,10
4.55833,10
4.56667,10
4.57500,10
4.58333,10
4.59167,10
4.60000,10
4.60833,10
4.61667,10
4.62500,10
4.63333,10
4.64167,11
4.65000,11
4.65833,11
4.66667,11
4.67500,11
4.68333,11
4.69167,11
4.70000,11
4.70833,10
4.71667,10
4.72500,10
4.73333,10
4.74167,10
4.75000,9
4.75833,9
4.76667,9
4.77500,9
4.78333,10
4.79167,10
4.80000,10
4.80833,10
4.81667,10
4.82500,11
4.83333,11
4.84167,11
4.85000,10
4.85833,10
4.86667,10
4.87500,10
4.88333,11
4.89167,11
4.90000,11
4.90833,11
4.91667,11
4.92500,10
4.93333,10
4.94167,10
4.95000,10
4.95833,10
4.96667,10
4.97500,10
4.98333,11
4.99167,11
5.00000,11
5.00833,11
5.01667,11
5.02500,10
5.03333,10
5.04167,10
5.05000,11
5.05833,11
5.06667,11
5.07500,10
5.08333,10
5.09167,10
5.10000,10
5.10833,10
5.11667,11
5.12500,11
5.13333,11
5.14167,11
5.15000,11
5.15833,11
5.16667,11
5.17500,11
5.18333,11
5.19167,11
5.20000,11
5.20833,11
5.21667,11
5.22500,11
5.23333,11
5.24167,11
5.25000,11
5.25833,12
5.26667,12
5.27500,12
5.28333,12
5.29167,11
5.30000,11
5.30833,11
5.31667,11
5.32500,12
5.33333,12
5.34167,11
5.35000,11
5.35833,11
5.36667,11
5.37500,11
5.38333,11
5.39167,11
5.40000,11
5.40833,11
5.41667,11
5.42500,12
5.43333,12
5.44167,12
5.45000,12
5.45833,12
5.46667,12
5.47500,12
5.48333,12
5.49167,12
5.50000,12
5.50833,12
5.51667,13
5.52500,13
5.53333,12
5.54167,12
5.55000,12
5.55833,13
5.56667,13
5.57500,13
5.58333,13
5.59167,13
5.60000,13
5.60833,13
5.61667,13
5.62500,13
5.63333,13
5.64167,13
5.65000,13
5.65833,13
5.66667,13
5.67500,13
5.68333,13
5.69167,13
5.70000,13
5.70833,13
5.71667,13
5.72500,14
5.73333,14
5.74167,14
5.75000,13
5.75833,13
5.76667,13
5.77500,13
5.78333,13
5.79167,13
5.80000,13
5.80833,13
5.81667,13
5.82500,14
5.83333,14
5.84167,14
5.85000,14
5.85833,14
5.86667,14
5.87500,14
5.88333,14
5.89167,14
5.90000,14
5.90833,14
5.91667,14
5.92500,14
5.93333,15
5.94167,15
5.95000,15
5.95833,14
5.96667,14
5.97500,14
5.98333,13
5.99167,13
6.00000,13
6.00833,14
6.01667,14
6.02500,15
6.03333,14
6.04167,14
6.05000,14
6.05833,14
6.06667,14
6.07500,15
6.08333,15
6.09167,15
6.10000,14
6.10833,14
6.11667,14
6.12500,15
6.13333,15
6.14167,15
6.15000,15
6.15833,15
6.16667,15
6.17500,15
6.18333,14
6.19167,14
6.20000,15
6.20833,15
6.21667,15
6.22500,15
6.23333,15
6.24167,15
6.25000,15
6.25833,15
6.26667,15
6.27500,15
6.28333,15
6.29167,15
6.30000,15
6.30833,15
6.31667,15
6.32500,15
6.33333,15
6.34167,15
6.35000,15
6.35833,15
6.36667,15
6.37500,15
6.38333,15
6.39167,15
6.40000,15
6.40833,15
6.41667,15
6.42500,15
6.43333,15
6.44167,16
6.45000,16
6.45833,16
6.46667,16
6.47500,16
6.48333,16
6.49167,16
6.50000,16
6.50833,16
6.51667,16
6.52500,16
6.53333,16
6.54167,16
6.55000,16
6.55833,16
6.56667,16
6.57500,16
6.58333,16
6.59167,15
6.60000,15
6.60833,15
6.61667,15
6.62500,15
6.63333,15
6.64167,15
6.65000,16
6.65833,16
6.66667,16
6.67500,16
6.68333,16
6.69167,16
6.70000,16
6.70833,16
6.71667,16
6.72500,15
6.73333,15
6.74167,16
6.75000,16
6.75833,16
6.76667,16
6.77500,16
6.78333,16
6.79167,16
6.80000,17
6.80833,17
6.81667,17
6.82500,17
6.83333,17
6.84167,16
6.85000,15
6.85833,15
6.86667,15
6.87500,15
6.88333,15
6.89167,15
6.90000,15
6.90833,16
6.91667,15
6.92500,16
6.93333,16
6.94167,16
6.95000,16
6.95833,16
6.96667,16
6.97500,16
6.98333,16
6.99167,16
7.00000,16
7.00833,16
7.01667,16
7.02500,16
7.03333,17
7.04167,17
7.05000,17
7.05833,17
7.06667,17
7.07500,17
7.08333,17
7.09167,17
7.10000,17
7.10833,17
7.11667,17
7.12500,17
7.13333,17
7.14167,17
7.15000,17
7.15833,17
7.16667,17
7.17500,17
7.18333,17
7.19167,17
7.20000,17
7.20833,17
7.21667,17
7.22500,17
7.23333,17
7.24167,17
7.25000,18
7.25833,18
7.26667,18
7.27500,18
7.28333,18
7.29167,18
7.30000,18
7.30833,18
7.31667,18
7.32500,18
7.33333,18
7.34167,18
7.35000,18
7.35833,18
7.36667,18
7.37500,18
7.38333,18
7.39167,18
7.40000,18
7.40833,18
7.41667,18
7.42500,18
7.43333,18
7.44167,18
7.45000,19
7.45833,19
7.46667,19
7.47500,19
7.48333,20
7.49167,20
7.50000,19
7.50833,19
7.51667,19
7.52500,20
7.53333,20
7.54167,19
7.55000,19
7.55833,19
7.56667,19
7.57500,19
7.58333,19
7.59167,19
7.60000,19
7.60833,19
7.61667,19
7.62500,19
7.63333,19
7.64167,19
7.65000,19
7.65833,19
7.66667,19
7.67500,19
7.68333,20
7.69167,20
7.70000,20
7.70833,20
7.71667,20
7.72500,20
7.73333,20
7.74167,20
7.75000,20
7.75833,20
7.76667,20
7.77500,21
7.78333,21
7.79167,21
7.80000,21
7.80833,21
7.81667,21
7.82500,20
7.83333,20
7.84167,20
7.85000,20
7.85833,21
7.86667,21
7.87500,21
7.88333,21
7.89167,21
7.90000,21
7.90833,21
7.91667,21
7.92500,21
7.93333,21
7.94167,21
7.95000,21
7.95833,21
7.96667,21
7.97500,21
7.98333,21
7.99167,21
8.00000,20
8.00833,20
8.01667,20
8.02500,20
8.03333,20
8.04167,20
8.05000,20
8.05833,21
8.06667,21
8.07500,21
8.08333,20
8.09167,20
8.10000,20
8.10833,20
8.11667,20
8.12500,21
8.13333,21
8.14167,21
8.15000,21
8.15833,20
8.16667,20
8.17500,20
8.18333,20
8.19167,21
8.20000,21
8.20833,21
8.21667,21
8.22500,21
8.23333,21
8.24167,21
8.25000,21
8.25833,21
8.26667,21
8.27500,21
8.28333,21
8.29167,20
8.30000,20
8.30833,20
8.31667,20
8.32500,21
8.33333,21
8.34167,21
8.35000,21
8.35833,21
8.36667,21
8.37500,21
8.38333,21
8.39167,21
8.40000,21
8.40833,21
8.41667,21
8.42500,21
8.43333,21
8.44167,21
8.45000,21
8.45833,21
8.46667,21
8.47500,21
8.48333,20
8.49167,20
8.50000,20
8.50833,21
8.51667,21
8.52500,21
8.53333,21
8.54167,21
8.55000,21
8.55833,21
8.56667,21
8.57500,21
8.58333,21
8.59167,21
8.60000,21
8.60833,22
8.61667,22
8.62500,22
8.63333,22
8.64167,22
8.65000,21
8.65833,21
8.66667,21
8.67500,21
8.68333,21
8.69167,21
8.70000,21
8.70833,22
8.71667,22
8.72500,22
8.73333,22
8.74167,22
8.75000,22
8.75833,21
8.76667,21
8.77500,21
8.78333,21
8.79167,21
8.80000,21
8.80833,21
8.81667,22
8.82500,22
8.83333,22
8.84167,22
8.85000,22
8.85833,22
8.86667,22
8.87500,22
8.88333,22
8.89167,22
8.90000,22
8.90833,22
8.91667,22
8.92500,22
8.93333,23
8.94167,23
8.95000,23
8.95833,23
8.96667,23
8.97500,23
8.98333,23
8.99167,23
9.00000,23
9.00833,23
9.01667,24
9.02500,24
9.03333,24
9.04167,24
9.05000,24
9.05833,24
9.06667,24
9.07500,24
9.08333,24
9.09167,24
9.10000,24
9.10833,24
9.11667,24
9.12500,24
9.13333,23
9.14167,23
9.15000,23
9.15833,23
9.16667,23
9.17500,23
9.18333,23
9.19167,23
9.20000,23
9.20833,24
9.21667,24
9.22500,24
9.23333,24
9.24167,24
9.25000,24
9.25833,24
9.26667,24
9.27500,24
9.28333,24
9.29167,23
9.30000,23
9.30833,23
9.31667,24
9.32500,24
9.33333,23
9.34167,23
9.35000,23
9.35833,23
9.36667,24
9.37500,24
9.38333,24
9.39167,24
9.40000,24
9.40833,24
9.41667,24
9.42500,24
9.43333,24
9.44167,24
9.45000,24
9.45833,24
9.46667,24
9.47500,24
9.48333,24
9.49167,25
9.50000,24
9.50833,24
9.51667,24
9.52500,24
9.53333,24
9.54167,25
9.55000,25
9.55833,25
9.56667,25
9.57500,24
9.58333,24
9.59167,24
9.60000,24
9.60833,24
9.61667,25
9.62500,25
9.63333,25
9.64167,25
9.65000,26
9.65833,25
9.66667,25
9.67500,25
9.68333,25
9.69167,25
9.70000,25
9.70833,25
9.71667,25
9.72500,25
9.73333,24
9.74167,24
9.75000,24
9.75833,24
9.76667,24
9.77500,24
9.78333,25
9.79167,25
9.80000,25
9.80833,25
9.81667,25
9.82500,25
9.83333,25
9.84167,25
9.85000,25
9.85833,25
9.86667,25
9.87500,25
9.88333,25
9.89167,25
9.90000,25
9.90833,26
9.91667,26
9.92500,26
9.93333,26
9.94167,26
9.95000,26
9.95833,27
9.96667,27
9.97500,26
9.98333,26
9.99167,26
10.00000,26
10.00833,26
10.01667,26
10.02500,26
10.03333,26
10.04167,26
10.05000,26
10.05833,26
10.06667,26
10.07500,26
10.08333,26
10.09167,26
10.10000,26
10.10833,26
10.11667,26
10.12500,26
10.13333,26
10.14167,26
10.15000,26
10.15833,26
10.16667,26
10.17500,26
10.18333,26
10.19167,26
10.20000,27
10.20833,27
10.21667,27
10.22500,27
10.23333,27
10.24167,26
10.25000,26
10.25833,26
10.26667,26
10.27500,26
10.28333,26
10.29167,26
10.30000,26
10.30833,26
10.31667,26
10.32500,27
10.33333,27
10.34167,28
10.35000,28
10.35833,28
10.36667,28
10.37500,27
10.38333,27
10.39167,27
10.40000,27
10.40833,27
10.41667,27
10.42500,27
10.43333,27
10.44167,27
10.45000,27
10.45833,27
10.46667,27
10.47500,27
10.48333,27
10.49167,27
10.50000,27
10.50833,28
10.51667,28
10.52500,29
10.53333,29
10.54167,30
10.55000,30
10.55833,31
10.56667,32
10.57500,33
10.58333,35
10.59167,38
10.60000,43
10.60833,48
10.61667,55
10.62500,63
10.63333,73
10.64167,86
10.65000,101
10.65833,118
10.66667,139
10.67500,163
10.68333,188
10.69167,216
10.70000,245
10.70833,274
10.71667,302
10.72500,327
10.73333,347
10.74167,358
10.75000,358
10.75833,345
10.76667,314
10.77500,263
10.78333,188
10.79167,88
10.80000,-41
10.80833,-200
10.81667,-390
10.82500,-612
10.83333,-864
10.84167,-1145
10.85000,-1453
10.85833,-1783
10.86667,-2131
10.87500,-2493
10.88333,-2863
10.89167,-3235
10.90000,-3603
10.90833,-3961
10.91667,-4301
10.92500,-4619
10.93333,-4909
10.94167,-5167
10.95000,-5387
10.95833,-5568
10.96667,-5705
10.97500,-5797
10.98333,-5845
10.99167,-5847
11.00000,-5804
11.00833,-5719
11.01667,-5593
11.02500,-5430
11.03333,-5233
11.04167,-5007
11.05000,-4756
11.05833,-4485
11.06667,-4200
11.07500,-3904
11.08333,-3602
11.09167,-3299
11.10000,-2998
11.10833,-2704
11.11667,-2419
11.12500,-2147
11.13333,-1890
11.14167,-1649
11.15000,-1427
11.15833,-1223
11.16667,-1038
11.17500,-872
11.18333,-724
11.19167,-594
11.20000,-481
11.20833,-384
11.21667,-301
11.22500,-232
11.23333,-175
11.24167,-129
11.25000,-93
11.25833,-64
11.26667,-42
11.27500,-27
11.28333,-15
11.29167,-8
11.30000,-3
11.30833,-1
11.31667,-1
11.32500,-2
11.33333,-4
11.34167,-7
11.35000,-10
11.35833,-13
11.36667,-16
11.37500,-19
11.38333,-21
11.39167,-23
11.40000,-25
11.40833,-26
11.41667,-27
11.42500,-28
11.43333,-28
11.44167,-28
11.45000,-28
11.45833,-27
11.46667,-27
11.47500,-26
11.48333,-25
11.49167,-24
11.50000,-23
11.50833,-22
11.51667,-20
11.52500,-19
11.53333,-18
11.54167,-17
11.55000,-16
11.55833,-14
11.56667,-13
11.57500,-11
11.58333,-10
11.59167,-9
11.60000,-8
11.60833,-7
11.61667,-6
11.62500,-5
11.63333,-4
11.64167,-3
11.65000,-3
11.65833,-2
11.66667,-1
11.67500,-0
11.68333,1
11.69167,2
11.70000,2
11.70833,3
11.71667,4
11.72500,5
11.73333,5
11.74167,6
11.75000,6
11.75833,6
11.76667,7
11.77500,7
11.78333,8
11.79167,8
11.80000,8
11.80833,9
11.81667,9
11.82500,10
11.83333,11
11.84167,11
11.85000,11
11.85833,12
11.86667,12
11.87500,13
11.88333,14
11.89167,15
11.90000,15
11.90833,15
11.91667,16
11.92500,17
11.93333,17
11.94167,18
11.95000,18
11.95833,19
11.96667,19
11.97500,20
11.98333,20
11.99167,20
12.00000,20
12.00833,20
12.01667,21
12.02500,21
12.03333,21
12.04167,21
12.05000,22
12.05833,22
12.06667,22
12.07500,22
12.08333,22
12.09167,22
12.10000,21
12.10833,21
12.11667,21
12.12500,21
12.13333,22
12.14167,22
12.15000,21
12.15833,21
12.16667,21
12.17500,21
12.18333,21
12.19167,21
12.20000,21
12.20833,21
12.21667,21
12.22500,21
12.23333,21
12.24167,21
12.25000,21
12.25833,21
12.26667,20
12.27500,20
12.28333,21
12.29167,21
12.30000,21
12.30833,21
12.31667,21
12.32500,22
12.33333,21
12.34167,21
12.35000,21
12.35833,21
12.36667,21
12.37500,21
12.38333,21
12.39167,22
12.40000,22
12.40833,22
12.41667,22
12.42500,22
12.43333,23
12.44167,23
12.45000,22
12.45833,22
12.46667,23
12.47500,23
12.48333,23
12.49167,23
12.50000,24
12.50833,24
12.51667,24
12.52500,24
12.53333,24
12.54167,24
12.55000,24
12.55833,24
12.56667,24
12.57500,24
12.58333,24
12.59167,24
12.60000,25
12.60833,24
12.61667,25
12.62500,25
12.63333,25
12.64167,25
12.65000,25
12.65833,25
12.66667,26
12.67500,26
12.68333,26
12.69167,26
12.70000,26
12.70833,27
12.71667,27
12.72500,27
12.73333,28
12.74167,28
12.75000,28
12.75833,28
12.76667,28
12.77500,29
12.78333,29
12.79167,29
12.80000,29
12.80833,30
12.81667,29
12.82500,29
12.83333,29
12.84167,29
12.85000,30
12.85833,30
12.86667,31
12.87500,32
12.88333,33
12.89167,34
12.90000,34
12.90833,34
12.91667,35
12.92500,35
12.93333,36
12.94167,37
12.95000,37
12.95833,38
12.96667,38
12.97500,39
12.98333,40
12.99167,40
13.00000,41
13.00833,42
13.01667,43
13.02500,43
13.03333,44
13.04167,45
13.05000,45
13.05833,46
13.06667,46
13.07500,46
13.08333,47
13.09167,47
13.10000,47
13.10833,48
13.11667,48
13.12500,49
13.13333,49
13.14167,50
13.15000,50
13.15833,51
13.16667,51
13.17500,51
13.18333,52
13.19167,52
13.20000,52
13.20833,52
13.21667,53
13.22500,53
13.23333,53
13.24167,53
13.25000,53
13.25833,53
13.26667,53
13.27500,53
13.28333,54
13.29167,54
13.30000,53
13.30833,53
13.31667,53
13.32500,53
13.33333,53
13.34167,52
13.35000,52
13.35833,52
13.36667,52
13.37500,52
13.38333,51
13.39167,51
13.40000,50
13.40833,50
13.41667,50
13.42500,49
13.43333,48
13.44167,48
13.45000,47
13.45833,47
13.46667,46
13.47500,46
13.48333,45
13.49167,44
13.50000,43
13.50833,43
13.51667,42
13.52500,42
13.53333,41
13.54167,41
13.55000,41
13.55833,40
13.56667,40
13.57500,40
13.58333,39
13.59167,39
13.60000,39
13.60833,38
13.61667,38
13.62500,38
13.63333,38
13.64167,38
13.65000,38
13.65833,38
13.66667,37
13.67500,37
13.68333,37
13.69167,37
13.70000,37
13.70833,37
13.71667,37
13.72500,37
13.73333,37
13.74167,36
13.75000,36
13.75833,36
13.76667,36
13.77500,36
13.78333,36
13.79167,36
13.80000,37
13.80833,37
13.81667,37
13.82500,37
13.83333,37
13.84167,37
13.85000,37
13.85833,37
13.86667,37
13.87500,37
13.88333,37
13.89167,37
13.90000,37
13.90833,37
13.91667,37
13.92500,38
13.93333,38
13.94167,38
13.95000,38
13.95833,39
13.96667,39
13.97500,39
13.98333,40
13.99167,40
14.00000,40
14.00833,40
14.01667,41
14.02500,41
14.03333,41
14.04167,42
14.05000,42
14.05833,42
14.06667,42
14.07500,43
14.08333,44
14.09167,44
14.10000,45
14.10833,46
14.11667,47
14.12500,48
14.13333,50
14.14167,52
14.15000,54
14.15833,56
14.16667,59
14.17500,63
14.18333,68
14.19167,74
14.20000,81
14.20833,89
14.21667,100
14.22500,112
14.23333,127
14.24167,144
14.25000,166
14.25833,192
14.26667,223
14.27500,260
14.28333,304
14.29167,356
14.30000,418
14.30833,492
14.31667,577
14.32500,677
14.33333,793
14.34167,925
14.35000,1077
14.35833,1251
14.36667,1447
14.37500,1669
14.38333,1917
14.39167,2193
14.40000,2500
14.40833,2839
14.41667,3212
14.42500,3620
14.43333,4063
14.44167,4544
14.45000,5063
14.45833,5620
14.46667,6216
14.47500,6851
14.48333,7526
14.49167,8240
14.50000,8993
14.50833,9784
14.51667,10612
14.52500,11477
14.53333,12376
14.54167,13309
14.55000,14275
14.55833,15271
14.56667,16296
14.57500,17348
14.58333,18426
14.59167,19527
14.60000,20650
14.60833,21793
14.61667,22953
14.62500,24130
14.63333,25320
14.64167,26521
14.65000,27733
14.65833,28954
14.66667,30182
14.67500,31415
14.68333,32652
14.69167,33891
14.70000,35131
14.70833,36370
14.71667,37608
14.72500,38844
14.73333,40075
14.74167,41303
14.75000,42523
14.75833,43738
14.76667,44944
14.77500,46141
14.78333,47326
14.79167,48500
14.80000,49658
14.80833,50800
14.81667,51921
14.82500,53019
14.83333,54087
14.84167,55119
14.85000,56109
14.85833,57044
14.86667,57912
14.87500,58698
14.88333,59383
14.89167,59948
14.90000,60370
14.90833,60624
14.91667,60688
14.92500,60536
14.93333,60150
14.94167,59512
14.95000,58610
14.95833,57439
14.96667,56004
14.97500,54313
14.98333,52386
14.99167,50247
15.00000,47927
15.00833,45462
15.01667,42889
15.02500,40247
15.03333,37576
15.04167,34912
15.05000,32288
15.05833,29734
15.06667,27275
15.07500,24929
15.08333,22712
15.09167,20634
15.10000,18701
15.10833,16916
15.11667,15276
15.12500,13779
15.13333,12419
15.14167,11189
15.15000,10081
15.15833,9088
15.16667,8200
15.17500,7409
15.18333,6708
15.19167,6090
15.20000,5546
15.20833,5071
15.21667,4659
15.22500,4305
15.23333,4006
15.24167,3758
15.25000,3559
15.25833,3406
15.26667,3297
15.27500,3233
15.28333,3212
15.29167,3235
15.30000,3303
15.30833,3417
15.31667,3579
15.32500,3790
15.33333,4053
15.34167,4369
15.35000,4740
15.35833,5170
15.36667,5659
15.37500,6210
15.38333,6824
15.39167,7503
15.40000,8248
15.40833,9059
15.41667,9935
15.42500,10877
15.43333,11882
15.44167,12947
15.45000,14070
15.45833,15246
15.46667,16471
15.47500,17738
15.48333,19041
15.49167,20372
15.50000,21723
15.50833,23087
15.51667,24453
15.52500,25813
15.53333,27156
15.54167,28472
15.55000,29752
15.55833,30985
15.56667,32162
15.57500,33274
15.58333,34312
15.59167,35268
15.60000,36134
15.60833,36905
15.61667,37574
15.62500,38137
15.63333,38590
15.64167,38931
15.65000,39159
15.65833,39272
15.66667,39272
15.67500,39161
15.68333,38942
15.69167,38617
15.70000,38192
15.70833,37670
15.71667,37059
15.72500,36365
15.73333,35594
15.74167,34752
15.75000,33849
15.75833,32892
15.76667,31886
15.77500,30841
15.78333,29764
15.79167,28661
15.80000,27541
15.80833,26409
15.81667,25272
15.82500,24137
15.83333,23008
15.84167,21891
15.85000,20791
15.85833,19711
15.86667,18656
15.87500,17628
15.88333,16629
15.89167,15662
15.90000,14731
15.90833,13835
15.91667,12976
15.92500,12154
15.93333,11371
15.94167,10625
15.95000,9918
15.95833,9248
15.96667,8616
15.97500,8020
15.98333,7458
15.99167,6932
16.00000,6438
16.00833,5977
16.01667,5545
16.02500,5143
16.03333,4769
16.04167,4421
16.05000,4098
16.05833,3799
16.06667,3523
16.07500,3267
16.08333,3031
16.09167,2813
16.10000,2612
16.10833,2427
16.11667,2256
16.12500,2100
16.13333,1956
16.14167,1824
16.15000,1703
16.15833,1591
16.16667,1489
16.17500,1395
16.18333,1309
16.19167,1230
16.20000,1158
16.20833,1092
16.21667,1031
16.22500,976
16.23333,925
16.24167,879
16.25000,836
16.25833,796
16.26667,760
16.27500,726
16.28333,696
16.29167,667
16.30000,641
16.30833,617
16.31667,595
16.32500,575
16.33333,556
16.34167,538
16.35000,521
16.35833,506
16.36667,491
16.37500,478
16.38333,466
16.39167,455
16.40000,444
16.40833,434
16.41667,425
16.42500,416
16.43333,408
16.44167,400
16.45000,393
16.45833,386
16.46667,379
16.47500,373
16.48333,367
16.49167,361
16.50000,356
16.50833,351
16.51667,346
16.52500,341
16.53333,337
16.54167,332
16.55000,328
16.55833,324
16.56667,321
16.57500,317
16.58333,314
16.59167,311
16.60000,308
16.60833,305
16.61667,302
16.62500,299
16.63333,296
16.64167,294
16.65000,291
16.65833,289
16.66667,287
16.67500,284
16.68333,282
16.69167,280
16.70000,278
16.70833,276
16.71667,274
16.72500,273
16.73333,271
16.74167,269
16.75000,266
16.75833,265
16.76667,263
16.77500,262
16.78333,260
16.79167,258
16.80000,256
16.80833,254
16.81667,252
16.82500,251
16.83333,249
16.84167,248
16.85000,246
16.85833,245
16.86667,244
16.87500,242
16.88333,241
16.89167,239
16.90000,237
16.90833,236
16.91667,234
16.92500,233
16.93333,231
16.94167,230
16.95000,228
16.95833,227
16.96667,225
16.97500,224
16.98333,223
16.99167,222
17.00000,220
17.00833,219
17.01667,218
17.02500,216
17.03333,215
17.04167,214
17.05000,213
17.05833,212
17.06667,210
17.07500,209
17.08333,207
17.09167,206
17.10000,205
17.10833,204
17.11667,203
17.12500,202
17.13333,201
17.14167,200
17.15000,199
17.15833,198
17.16667,197
17.17500,195
17.18333,194
17.19167,193
17.20000,192
17.20833,191
17.21667,191
17.22500,190
17.23333,189
17.24167,187
17.25000,186
17.25833,185
17.26667,184
17.27500,183
17.28333,182
17.29167,181
17.30000,180
17.30833,179
17.31667,179
17.32500,178
17.33333,177
17.34167,176
17.35000,175
17.35833,174
17.36667,173
17.37500,172
17.38333,171
17.39167,170
17.40000,169
17.40833,168
17.41667,167
17.42500,166
17.43333,165
17.44167,165
17.45000,164
17.45833,163
17.46667,162
17.47500,161
17.48333,160
17.49167,160
17.50000,159
17.50833,159
17.51667,159
17.52500,158
17.53333,158
17.54167,157
17.55000,156
17.55833,155
17.56667,155
17.57500,154
17.58333,154
17.59167,153
17.60000,152
17.60833,152
17.61667,151
17.62500,151
17.63333,150
17.64167,150
17.65000,149
17.65833,148
17.66667,148
17.67500,147
17.68333,147
17.69167,146
17.70000,146
17.70833,145
17.71667,145
17.72500,144
17.73333,144
17.74167,143
17.75000,142
17.75833,141
17.76667,141
17.77500,140
17.78333,140
17.79167,139
17.80000,139
17.80833,138
17.81667,138
17.82500,138
17.83333,137
17.84167,137
17.85000,137
17.85833,136
17.86667,136
17.87500,136
17.88333,135
17.89167,135
17.90000,135
17.90833,134
17.91667,134
17.92500,133
17.93333,133
17.94167,132
17.95000,132
17.95833,131
17.96667,130
17.97500,130
17.98333,129
17.99167,128
18.00000,127
18.00833,126
18.01667,126
18.02500,126
18.03333,125
18.04167,125
18.05000,125
18.05833,125
18.06667,124
18.07500,123
18.08333,123
18.09167,123
18.10000,122
18.10833,121
18.11667,121
18.12500,121
18.13333,120
18.14167,120
18.15000,119
18.15833,119
18.16667,118
18.17500,118
18.18333,118
18.19167,118
18.20000,118
18.20833,117
18.21667,117
18.22500,117
18.23333,116
18.24167,115
18.25000,115
18.25833,114
18.26667,114
18.27500,113
18.28333,113
18.29167,113
18.30000,113
18.30833,113
18.31667,112
18.32500,112
18.33333,111
18.34167,111
18.35000,110
18.35833,110
18.36667,110
18.37500,110
18.38333,109
18.39167,109
18.40000,108
18.40833,108
18.41667,108
18.42500,107
18.43333,107
18.44167,107
18.45000,106
18.45833,106
18.46667,106
18.47500,106
18.48333,105
18.49167,105
18.50000,104
18.50833,104
18.51667,104
18.52500,104
18.53333,104
18.54167,104
18.55000,104
18.55833,104
18.56667,104
18.57500,104
18.58333,103
18.59167,103
18.60000,103
18.60833,103
18.61667,103
18.62500,102
18.63333,102
18.64167,101
18.65000,101
18.65833,101
18.66667,101
18.67500,100
18.68333,101
18.69167,101
18.70000,101
18.70833,101
18.71667,101
18.72500,101
18.73333,102
18.74167,102
18.75000,102
18.75833,103
18.76667,103
18.77500,103
18.78333,104
18.79167,104
18.80000,104
18.80833,105
18.81667,106
18.82500,107
18.83333,108
18.84167,109
18.85000,110
18.85833,111
18.86667,112
18.87500,112
18.88333,113
18.89167,114
18.90000,115
18.90833,116
18.91667,117
18.92500,118
18.93333,119
18.94167,119
18.95000,120
18.95833,121
18.96667,122
18.97500,123
18.98333,124
18.99167,124
19.00000,124
19.00833,124
19.01667,124
19.02500,124
19.03333,124
19.04167,124
19.05000,124
19.05833,123
19.06667,123
19.07500,122
19.08333,121
19.09167,120
19.10000,120
19.10833,119
19.11667,118
19.12500,116
19.13333,115
19.14167,114
19.15000,113
19.15833,112
19.16667,110
19.17500,109
19.18333,108
19.19167,106
19.20000,104
19.20833,102
19.21667,100
19.22500,99
19.23333,98
19.24167,97
19.25000,95
19.25833,94
19.26667,93
19.27500,92
19.28333,91
19.29167,89
19.30000,88
19.30833,87
19.31667,86
19.32500,85
19.33333,84
19.34167,83
19.35000,82
19.35833,81
19.36667,80
19.37500,79
19.38333,79
19.39167,78
19.40000,77
19.40833,76
19.41667,76
19.42500,75
19.43333,75
19.44167,75
19.45000,75
19.45833,75
19.46667,75
19.47500,74
19.48333,74
19.49167,74
19.50000,73
19.50833,72
19.51667,72
19.52500,71
19.53333,71
19.54167,71
19.55000,70
19.55833,70
19.56667,70
19.57500,69
19.58333,69
19.59167,69
19.60000,69
19.60833,69
19.61667,68
19.62500,68
19.63333,69
19.64167,68
19.65000,68
19.65833,68
19.66667,67
19.67500,67
19.68333,67
19.69167,67
19.70000,67
19.70833,66
19.71667,66
19.72500,66
19.73333,66
19.74167,66
19.75000,65
19.75833,65
19.76667,65
19.77500,65
19.78333,65
19.79167,65
19.80000,65
19.80833,65
19.81667,65
19.82500,65
19.83333,65
19.84167,65
19.85000,65
19.85833,65
19.86667,64
19.87500,64
19.88333,64
19.89167,64
19.90000,64
19.90833,63
19.91667,63
19.92500,63
19.93333,63
19.94167,62
19.95000,62
19.95833,62
19.96667,63
19.97500,63
19.98333,62
19.99167,62
20.00000,62
20.00833,62
20.01667,62
20.02500,62
20.03333,62
20.04167,62
20.05000,61
20.05833,61
20.06667,61
20.07500,61
20.08333,61
20.09167,60
20.10000,60
20.10833,60
20.11667,60
20.12500,59
20.13333,59
20.14167,59
20.15000,58
20.15833,58
20.16667,58
20.17500,58
20.18333,58
20.19167,59
20.20000,58
20.20833,58
20.21667,58
20.22500,58
20.23333,58
20.24167,58
20.25000,58
20.25833,58
20.26667,57
20.27500,57
20.28333,57
20.29167,57
20.30000,57
20.30833,57
20.31667,57
20.32500,57
20.33333,57
20.34167,57
20.35000,57
20.35833,57
20.36667,57
20.37500,57
20.38333,56
20.39167,56
20.40000,56
20.40833,56
20.41667,55
20.42500,55
20.43333,55
20.44167,55
20.45000,54
20.45833,54
20.46667,54
20.47500,54
20.48333,54
20.49167,55
20.50000,55
20.50833,55
20.51667,55
20.52500,55
20.53333,55
20.54167,55
20.55000,55
20.55833,54
20.56667,54
20.57500,54
20.58333,53
20.59167,53
20.60000,52
20.60833,52
20.61667,52
20.62500,52
20.63333,52
20.64167,53
20.65000,53
20.65833,53
20.66667,53
20.67500,53
20.68333,54
20.69167,54
20.70000,54
20.70833,54
20.71667,53
20.72500,53
20.73333,53
20.74167,53
20.75000,53
20.75833,53
20.76667,53
20.77500,53
20.78333,54
20.79167,53
20.80000,53
20.80833,53
20.81667,53
20.82500,53
20.83333,53
20.84167,53
20.85000,52
20.85833,52
20.86667,52
20.87500,52
20.88333,53
20.89167,53
20.90000,53
20.90833,53
20.91667,53
20.92500,52
20.93333,52
20.94167,52
20.95000,51
20.95833,51
20.96667,51
20.97500,51
20.98333,51
20.99167,51
21.00000,50
21.00833,51
21.01667,51
21.02500,51
21.03333,50
21.04167,50
21.05000,50
21.05833,50
21.06667,50
21.07500,50
21.08333,50
21.09167,50
21.10000,51
21.10833,51
21.11667,51
21.12500,51
21.13333,50
21.14167,50
21.15000,49
21.15833,49
21.16667,49
21.17500,49
21.18333,49
21.19167,50
21.20000,50
21.20833,49
21.21667,50
21.22500,50
21.23333,50
21.24167,50
21.25000,50
21.25833,50
21.26667,50
21.27500,50
21.28333,50
21.29167,50
21.30000,50
21.30833,51
21.31667,51
21.32500,52
21.33333,52
21.34167,53
21.35000,53
21.35833,54
21.36667,54
21.37500,55
21.38333,55
21.39167,56
21.40000,57
21.40833,58
21.41667,60
21.42500,62
21.43333,65
21.44167,67
21.45000,70
21.45833,73
21.46667,76
21.47500,80
21.48333,84
21.49167,89
21.50000,95
21.50833,102
21.51667,109
21.52500,117
21.53333,126
21.54167,137
21.55000,149
21.55833,163
21.56667,179
21.57500,196
21.58333,215
21.59167,237
21.60000,262
21.60833,290
21.61667,320
21.62500,355
21.63333,393
21.64167,436
21.65000,484
21.65833,538
21.66667,598
21.67500,664
21.68333,737
21.69167,817
21.70000,905
21.70833,1002
21.71667,1107
21.72500,1222
21.73333,1346
21.74167,1480
21.75000,1626
21.75833,1782
21.76667,1950
21.77500,2129
21.78333,2320
21.79167,2522
21.80000,2737
21.80833,2962
21.81667,3199
21.82500,3447
21.83333,3705
21.84167,3973
21.85000,4251
21.85833,4536
21.86667,4829
21.87500,5128
21.88333,5433
21.89167,5741
21.90000,6051
21.90833,6363
21.91667,6674
21.92500,6982
21.93333,7287
21.94167,7586
21.95000,7878
21.95833,8161
21.96667,8433
21.97500,8693
21.98333,8938
21.99167,9169
22.00000,9382
22.00833,9577
22.01667,9753
22.02500,9908
22.03333,10042
22.04167,10154
22.05000,10243
22.05833,10308
22.06667,10350
22.07500,10369
22.08333,10364
22.09167,10336
22.10000,10286
22.10833,10213
22.11667,10118
22.12500,10003
22.13333,9868
22.14167,9714
22.15000,9542
22.15833,9355
22.16667,9152
22.17500,8936
22.18333,8707
22.19167,8468
22.20000,8219
22.20833,7962
22.21667,7699
22.22500,7430
22.23333,7158
22.24167,6884
22.25000,6608
22.25833,6333
22.26667,6058
22.27500,5786
22.28333,5517
22.29167,5253
22.30000,4993
22.30833,4739
22.31667,4491
22.32500,4250
22.33333,4016
22.34167,3791
22.35000,3573
22.35833,3363
22.36667,3162
22.37500,2969
22.38333,2786
22.39167,2611
22.40000,2444
22.40833,2286
22.41667,2136
22.42500,1995
22.43333,1861
22.44167,1736
22.45000,1618
22.45833,1506
22.46667,1402
22.47500,1304
22.48333,1213
22.49167,1128
22.50000,1049
22.50833,975
22.51667,907
22.52500,844
22.53333,785
22.54167,731
22.55000,681
22.55833,634
22.56667,592
22.57500,552
22.58333,516
22.59167,483
22.60000,452
22.60833,424
22.61667,397
22.62500,373
22.63333,351
22.64167,331
22.65000,312
22.65833,296
22.66667,280
22.67500,266
22.68333,252
22.69167,240
22.70000,229
22.70833,219
22.71667,210
22.72500,201
22.73333,193
22.74167,186
22.75000,179
22.75833,173
22.76667,167
22.77500,161
22.78333,157
22.79167,152
22.80000,148
22.80833,144
22.81667,141
22.82500,138
22.83333,135
22.84167,132
22.85000,130
22.85833,127
22.86667,125
22.87500,122
22.88333,119
22.89167,117
22.90000,116
22.90833,114
22.91667,112
22.92500,111
22.93333,109
22.94167,108
22.95000,106
22.95833,105
22.96667,104
22.97500,102
22.98333,101
22.99167,100
23.00000,99
23.00833,98
23.01667,98
23.02500,97
23.03333,96
23.04167,96
23.05000,95
23.05833,94
23.06667,94
23.07500,94
23.08333,93
23.09167,93
23.10000,92
23.10833,91
23.11667,91
23.12500,91
23.13333,91
23.14167,90
23.15000,89
23.15833,89
23.16667,88
23.17500,88
23.18333,88
23.19167,87
23.20000,87
23.20833,86
23.21667,85
23.22500,84
23.23333,84
23.24167,83
23.25000,83
23.25833,82
23.26667,82
23.27500,82
23.28333,81
23.29167,81
23.30000,81
23.30833,80
23.31667,80
23.32500,80
23.33333,79
23.34167,79
23.35000,78
23.35833,78
23.36667,78
23.37500,78
23.38333,77
23.39167,77
23.40000,77
23.40833,76
23.41667,76
23.42500,76
23.43333,76
23.44167,76
23.45000,75
23.45833,74
23.46667,74
23.47500,73
23.48333,73
23.49167,73
23.50000,73
23.50833,73
23.51667,72
23.52500,72
23.53333,71
23.54167,71
23.55000,71
23.55833,71
23.56667,71
23.57500,70
23.58333,70
23.59167,70
23.60000,70
23.60833,70
23.61667,69
23.62500,69
23.63333,69
23.64167,68
23.65000,68
23.65833,68
23.66667,68
23.67500,68
23.68333,68
23.69167,68
23.70000,68
23.70833,67
23.71667,67
23.72500,66
23.73333,66
23.74167,66
23.75000,66
23.75833,66
23.76667,65
23.77500,65
23.78333,65
23.79167,65
23.80000,65
23.80833,65
23.81667,65
23.82500,66
23.83333,65
23.84167,66
23.85000,66
23.85833,65
23.86667,65
23.87500,65
23.88333,65
23.89167,65
23.90000,65
23.90833,65
23.91667,65
23.92500,65
23.93333,64
23.94167,64
23.95000,65
23.95833,65
23.96667,64
23.97500,64
23.98333,64
23.99167,64
24.00000,64
24.00833,64
24.01667,64
24.02500,64
24.03333,64
24.04167,64
24.05000,63
24.05833,63
24.06667,63
24.07500,63
24.08333,63
24.09167,63
24.10000,63
24.10833,63
24.11667,63
24.12500,63
24.13333,63
24.14167,63
24.15000,63
24.15833,63
24.16667,63
24.17500,63
24.18333,63
24.19167,63
24.20000,63
24.20833,63
24.21667,63
24.22500,63
24.23333,63
24.24167,63
24.25000,63
24.25833,63
24.26667,63
24.27500,63
24.28333,64
24.29167,64
24.30000,65
24.30833,65
24.31667,65
24.32500,65
24.33333,65
24.34167,66
24.35000,66
24.35833,67
24.36667,68
24.37500,69
24.38333,70
24.39167,71
24.40000,73
24.40833,74
24.41667,75
24.42500,77
24.43333,78
24.44167,81
24.45000,83
24.45833,86
24.46667,88
24.47500,92
24.48333,95
24.49167,99
24.50000,104
24.50833,109
24.51667,114
24.52500,121
24.53333,128
24.54167,135
24.55000,144
24.55833,154
24.56667,164
24.57500,176
24.58333,189
24.59167,203
24.60000,219
24.60833,237
24.61667,256
24.62500,277
24.63333,300
24.64167,325
24.65000,352
24.65833,382
24.66667,414
24.67500,448
24.68333,485
24.69167,526
24.70000,569
24.70833,616
24.71667,666
24.72500,719
24.73333,777
24.74167,837
24.75000,901
24.75833,969
24.76667,1040
24.77500,1115
24.78333,1194
24.79167,1277
24.80000,1363
24.80833,1452
24.81667,1545
24.82500,1641
24.83333,1739
24.84167,1840
24.85000,1944
24.85833,2049
24.86667,2156
24.87500,2264
24.88333,2373
24.89167,2482
24.90000,2592
24.90833,2701
24.91667,2810
24.92500,2917
24.93333,3022
24.94167,3125
24.95000,3224
24.95833,3321
24.96667,3413
24.97500,3501
24.98333,3585
24.99167,3663
25.00000,3735
25.00833,3802
25.01667,3862
25.02500,3916
25.03333,3962
25.04167,4002
25.05000,4034
25.05833,4059
25.06667,4076
25.07500,4086
25.08333,4087
25.09167,4081
25.10000,4068
25.10833,4047
25.11667,4019
25.12500,3984
25.13333,3943
25.14167,3895
25.15000,3840
25.15833,3780
25.16667,3714
25.17500,3643
25.18333,3567
25.19167,3487
25.20000,3403
25.20833,3316
25.21667,3225
25.22500,3132
25.23333,3036
25.24167,2940
25.25000,2841
25.25833,2742
25.26667,2642
25.27500,2542
25.28333,2442
25.29167,2342
25.30000,2244
25.30833,2146
25.31667,2051
25.32500,1956
25.33333,1864
25.34167,1774
25.35000,1686
25.35833,1600
25.36667,1517
25.37500,1437
25.38333,1360
25.39167,1285
25.40000,1214
25.40833,1145
25.41667,1079
25.42500,1016
25.43333,956
25.44167,898
25.45000,844
25.45833,793
25.46667,744
25.47500,698
25.48333,654
25.49167,613
25.50000,575
25.50833,539
25.51667,505
25.52500,474
25.53333,444
25.54167,416
25.55000,390
25.55833,366
25.56667,344
25.57500,323
25.58333,304
25.59167,285
25.60000,269
25.60833,253
25.61667,239
25.62500,226
25.63333,214
25.64167,203
25.65000,193
25.65833,183
25.66667,175
25.67500,167
25.68333,159
25.69167,153
25.70000,146
25.70833,140
25.71667,135
25.72500,130
25.73333,126
25.74167,122
25.75000,118
25.75833,115
25.76667,112
25.77500,109
25.78333,106
25.79167,104
25.80000,101
25.80833,99
25.81667,97
25.82500,95
25.83333,94
25.84167,92
25.85000,91
25.85833,89
25.86667,88
25.87500,87
25.88333,87
25.89167,86
25.90000,85
25.90833,84
25.91667,83
25.92500,82
25.93333,81
25.94167,81
25.95000,80
25.95833,80
25.96667,79
25.97500,78
25.98333,78
25.99167,77
26.00000,77
26.00833,77
26.01667,76
26.02500,76
26.03333,75
26.04167,75
26.05000,75
26.05833,75
26.06667,75
26.07500,74
26.08333,74
26.09167,74
26.10000,73
26.10833,73
26.11667,72
26.12500,72
26.13333,71
26.14167,71
26.15000,71
26.15833,70
26.16667,71
26.17500,70
26.18333,70
26.19167,70
26.20000,70
26.20833,70
26.21667,70
26.22500,69
26.23333,69
26.24167,69
26.25000,69
26.25833,69
26.26667,69
26.27500,69
26.28333,69
26.29167,69
26.30000,69
26.30833,68
26.31667,68
26.32500,68
26.33333,68
26.34167,68
26.35000,68
26.35833,68
26.36667,68
26.37500,68
26.38333,68
26.39167,68
26.40000,67
26.40833,66
26.41667,66
26.42500,66
26.43333,66
26.44167,66
26.45000,66
26.45833,66
26.46667,66
26.47500,66
26.48333,66
26.49167,66
26.50000,67
26.50833,67
26.51667,67
26.52500,67
26.53333,67
26.54167,67
26.55000,67
26.55833,68
26.56667,68
26.57500,68
26.58333,67
26.59167,67
26.60000,67
26.60833,67
26.61667,67
26.62500,67
26.63333,67
26.64167,66
26.65000,66
26.65833,66
26.66667,67
26.67500,67
26.68333,67
26.69167,67
26.70000,67
26.70833,67
26.71667,67
26.72500,67
26.73333,67
26.74167,67
26.75000,66
26.75833,66
26.76667,66
26.77500,65
26.78333,65
26.79167,65
26.80000,65
26.80833,65
26.81667,65
26.82500,65
26.83333,65
26.84167,65
26.85000,65
26.85833,65
26.86667,65
26.87500,65
26.88333,65
26.89167,65
26.90000,65
26.90833,65
26.91667,65
26.92500,65
26.93333,65
26.94167,65
26.95000,65
26.95833,65
26.96667,65
26.97500,65
26.98333,65
26.99167,64
27.00000,64
27.00833,64
27.01667,64
27.02500,64
27.03333,64
27.04167,64
27.05000,64
27.05833,64
27.06667,64
27.07500,64
27.08333,64
27.09167,63
27.10000,63
27.10833,63
27.11667,64
27.12500,64
27.13333,64
27.14167,64
27.15000,64
27.15833,64
27.16667,64
27.17500,64
27.18333,63
27.19167,63
27.20000,62
27.20833,63
27.21667,63
27.22500,63
27.23333,63
27.24167,63
27.25000,63
27.25833,63
27.26667,62
27.27500,62
27.28333,62
27.29167,62
27.30000,62
27.30833,62
27.31667,62
27.32500,62
27.33333,62
27.34167,62
27.35000,62
27.35833,63
27.36667,62
27.37500,62
27.38333,62
27.39167,62
27.40000,62
27.40833,62
27.41667,61
27.42500,61
27.43333,61
27.44167,61
27.45000,61
27.45833,61
27.46667,61
27.47500,61
27.48333,61
27.49167,61
27.50000,61
27.50833,61
27.51667,62
27.52500,62
27.53333,62
27.54167,61
27.55000,61
27.55833,61
27.56667,61
27.57500,61
27.58333,61
27.59167,61
27.60000,61
27.60833,61
27.61667,61
27.62500,61
27.63333,61
27.64167,61
27.65000,61
27.65833,61
27.66667,61
27.67500,61
27.68333,61
27.69167,61
27.70000,61
27.70833,61
27.71667,60
27.72500,60
27.73333,60
27.74167,59
27.75000,59
27.75833,59
27.76667,59
27.77500,59
27.78333,58
27.79167,58
27.80000,58
27.80833,58
27.81667,57
27.82500,56
27.83333,55
27.84167,55
27.85000,54
27.85833,53
27.86667,52
27.87500,51
27.88333,50
27.89167,50
27.90000,49
27.90833,48
27.91667,47
27.92500,46
27.93333,45
27.94167,43
27.95000,42
27.95833,41
27.96667,40
27.97500,38
27.98333,37
27.99167,35
28.00000,34
28.00833,32
28.01667,30
28.02500,28
28.03333,26
28.04167,24
28.05000,22
28.05833,19
28.06667,17
28.07500,14
28.08333,12
28.09167,9
28.10000,6
28.10833,3
28.11667,-0
28.12500,-3
28.13333,-7
28.14167,-10
28.15000,-12
28.15833,-16
28.16667,-19
28.17500,-22
28.18333,-26
28.19167,-29
28.20000,-33
28.20833,-36
28.21667,-39
28.22500,-42
28.23333,-45
28.24167,-48
28.25000,-51
28.25833,-54
28.26667,-57
28.27500,-60
28.28333,-63
28.29167,-66
28.30000,-69
28.30833,-72
28.31667,-75
28.32500,-77
28.33333,-79
28.34167,-81
28.35000,-83
28.35833,-85
28.36667,-86
28.37500,-88
28.38333,-90
28.39167,-91
28.40000,-92
28.40833,-94
28.41667,-94
28.42500,-95
28.43333,-95
28.44167,-95
28.45000,-95
28.45833,-95
28.46667,-95
28.47500,-94
28.48333,-93
28.49167,-93
28.50000,-92
28.50833,-91
28.51667,-89
28.52500,-88
28.53333,-86
28.54167,-84
28.55000,-82
28.55833,-80
28.56667,-78
28.57500,-75
28.58333,-73
28.59167,-71
28.60000,-68
28.60833,-66
28.61667,-63
28.62500,-60
28.63333,-58
28.64167,-55
28.65000,-53
28.65833,-50
28.66667,-47
28.67500,-44
28.68333,-42
28.69167,-39
28.70000,-36
28.70833,-34
28.71667,-31
28.72500,-28
28.73333,-25
28.74167,-23
28.75000,-20
28.75833,-17
28.76667,-15
28.77500,-12
28.78333,-10
28.79167,-7
28.80000,-5
28.80833,-2
28.81667,-0
28.82500,2
28.83333,4
28.84167,6
28.85000,8
28.85833,10
28.86667,12
28.87500,14
28.88333,16
28.89167,18
28.90000,19
28.90833,21
28.91667,22
28.92500,24
28.93333,25
28.94167,27
28.95000,28
28.95833,30
28.96667,31
28.97500,32
28.98333,33
28.99167,34
29.00000,34
29.00833,35
29.01667,36
29.02500,37
29.03333,38
29.04167,38
29.05000,39
29.05833,40
29.06667,41
29.07500,41
29.08333,42
29.09167,42
29.10000,43
29.10833,44
29.11667,45
29.12500,45
29.13333,45
29.14167,46
29.15000,46
29.15833,46
29.16667,47
29.17500,47
29.18333,48
29.19167,48
29.20000,49
29.20833,49
29.21667,49
29.22500,50
29.23333,50
29.24167,50
29.25000,51
29.25833,51
29.26667,51
29.27500,51
29.28333,51
29.29167,51
29.30000,51
29.30833,51
29.31667,51
29.32500,51
29.33333,51
29.34167,51
29.35000,51
29.35833,51
29.36667,51
29.37500,51
29.38333,51
29.39167,51
29.40000,52
29.40833,52
29.41667,51
29.42500,52
29.43333,51
29.44167,51
29.45000,51
29.45833,51
29.46667,51
29.47500,51
29.48333,50
29.49167,50
29.50000,50
29.50833,50
29.51667,50
29.52500,50
29.53333,51
29.54167,51
29.55000,50
29.55833,50
29.56667,50
29.57500,50
29.58333,50
29.59167,49
29.60000,49
29.60833,49
29.61667,48
29.62500,48
29.63333,48
29.64167,47
29.65000,47
29.65833,47
29.66667,46
29.67500,46
29.68333,45
29.69167,44
29.70000,43
29.70833,43
29.71667,42
29.72500,42
29.73333,41
29.74167,41
29.75000,40
29.75833,39
29.76667,38
29.77500,37
29.78333,37
29.79167,36
29.80000,35
29.80833,34
29.81667,33
29.82500,32
29.83333,31
29.84167,30
29.85000,30
29.85833,29
29.86667,28
29.87500,27
29.88333,25
29.89167,24
29.90000,23
29.90833,22
29.91667,21
29.92500,20
29.93333,19
29.94167,18
29.95000,16
29.95833,15
29.96667,14
29.97500,13
29.98333,12
29.99167,11
30.00000,10
30.00833,9
30.01667,8
30.02500,7
30.03333,7
30.04167,6
30.05000,5
30.05833,4
30.06667,4
30.07500,3
30.08333,2
30.09167,1
30.10000,0
30.10833,-0
30.11667,-1
30.12500,-1
30.13333,-2
30.14167,-2
30.15000,-2
30.15833,-2
30.16667,-3
30.17500,-3
30.18333,-3
30.19167,-3
30.20000,-3
30.20833,-3
30.21667,-2
30.22500,-2
30.23333,-2
30.24167,-1
30.25000,-1
30.25833,-1
30.26667,-1
30.27500,0
30.28333,1
30.29167,2
30.30000,3
30.30833,3
30.31667,4
30.32500,4
30.33333,5
30.34167,6
30.35000,7
30.35833,8
30.36667,9
30.37500,10
30.38333,11
30.39167,12
30.40000,13
30.40833,13
30.41667,14
30.42500,15
30.43333,16
30.44167,17
30.45000,18
30.45833,19
30.46667,20
30.47500,21
30.48333,22
30.49167,22
30.50000,23
30.50833,24
30.51667,25
30.52500,26
30.53333,27
30.54167,28
30.55000,29
30.55833,30
30.56667,31
30.57500,32
30.58333,32
30.59167,33
30.60000,34
30.60833,35
30.61667,35
30.62500,36
30.63333,37
30.64167,38
30.65000,38
30.65833,39
30.66667,39
30.67500,40
30.68333,41
30.69167,42
30.70000,42
30.70833,43
30.71667,44
30.72500,44
30.73333,44
30.74167,44
30.75000,45
30.75833,45
30.76667,46
30.77500,46
30.78333,46
30.79167,46
30.80000,47
30.80833,47
30.81667,47
30.82500,47
30.83333,48
30.84167,48
30.85000,48
30.85833,48
30.86667,49
30.87500,49
30.88333,49
30.89167,49
30.90000,49
30.90833,49
30.91667,49
30.92500,50
30.93333,50
30.94167,50
30.95000,50
30.95833,50
30.96667,50
30.97500,51
30.98333,51
30.99167,51
31.00000,51
31.00833,52
31.01667,52
31.02500,52
31.03333,52
31.04167,52
31.05000,52
31.05833,52
31.06667,52
31.07500,52
31.08333,52
31.09167,53
31.10000,53
31.10833,52
31.11667,52
31.12500,52
31.13333,52
31.14167,53
31.15000,53
31.15833,53
31.16667,53
31.17500,53
31.18333,53
31.19167,53
31.20000,53
31.20833,53
31.21667,53
31.22500,54
31.23333,54
31.24167,54
31.25000,54
31.25833,54
31.26667,54
31.27500,54
31.28333,55
31.29167,55
31.30000,55
31.30833,55
31.31667,54
31.32500,54
31.33333,54
31.34167,54
31.35000,54
31.35833,55
31.36667,55
31.37500,55
31.38333,55
31.39167,55
31.40000,55
31.40833,55
31.41667,55
31.42500,55
31.43333,55
31.44167,55
31.45000,55
31.45833,56
31.46667,56
31.47500,56
31.48333,56
31.49167,57
31.50000,57
31.50833,58
31.51667,58
31.52500,58
31.53333,58
31.54167,58
31.55000,57
31.55833,57
31.56667,57
31.57500,57
31.58333,57
31.59167,57
31.60000,57
31.60833,58
31.61667,58
31.62500,58
31.63333,58
31.64167,58
31.65000,58
31.65833,58
31.66667,58
31.67500,58
31.68333,58
31.69167,59
31.70000,59
31.70833,59
31.71667,59
31.72500,59
31.73333,59
31.74167,59
31.75000,59
31.75833,59
31.76667,59
31.77500,59
31.78333,59
31.79167,59
31.80000,59
31.80833,59
31.81667,59
31.82500,59
31.83333,59
31.84167,59
31.85000,59
31.85833,59
31.86667,59
31.87500,59
31.88333,59
31.89167,59
31.90000,59
31.90833,59
31.91667,59
31.92500,59
31.93333,60
31.94167,60
31.95000,59
31.95833,59
31.96667,59
31.97500,59
31.98333,59
31.99167,59
32.00000,59
32.00833,59
32.01667,59
32.02500,59
32.03333,59
32.04167,59
32.05000,59
32.05833,59
32.06667,59
32.07500,59
32.08333,59
32.09167,59
32.10000,59
32.10833,59
32.11667,59
32.12500,59
32.13333,60
32.14167,60
32.15000,60
32.15833,60
32.16667,59
32.17500,59
32.18333,59
32.19167,59
32.20000,59
32.20833,59
32.21667,59
32.22500,59
32.23333,59
32.24167,59
32.25000,59
32.25833,59
32.26667,59
32.27500,59
32.28333,60
32.29167,60
32.30000,59
32.30833,59
32.31667,59
32.32500,59
32.33333,59
32.34167,59
32.35000,59
32.35833,59
32.36667,59
32.37500,59
32.38333,60
32.39167,60
32.40000,60
32.40833,60
32.41667,60
32.42500,60
32.43333,60
32.44167,60
32.45000,60
32.45833,60
32.46667,60
32.47500,61
32.48333,61
32.49167,61
32.50000,62
32.50833,62
32.51667,62
32.52500,62
32.53333,62
32.54167,61
32.55000,61
32.55833,61
32.56667,61
32.57500,61
32.58333,61
32.59167,61
32.60000,61
32.60833,61
32.61667,61
32.62500,60
32.63333,60
32.64167,61
32.65000,61
32.65833,61
32.66667,61
32.67500,60
32.68333,60
32.69167,60
32.70000,61
32.70833,61
32.71667,61
32.72500,61
32.73333,61
32.74167,61
32.75000,61
32.75833,61
32.76667,60
32.77500,60
32.78333,60
32.79167,60
32.80000,60
32.80833,60
32.81667,61
32.82500,60
32.83333,60
32.84167,60
32.85000,60
32.85833,61
32.86667,61
32.87500,61
32.88333,61
32.89167,61
32.90000,61
32.90833,61
32.91667,61
32.92500,61
32.93333,61
32.94167,61
32.95000,61
32.95833,61
32.96667,61
32.97500,61
32.98333,61
32.99167,61
33.00000,61
33.00833,61
33.01667,61
33.02500,61
33.03333,61
33.04167,61
33.05000,61
33.05833,61
33.06667,61
33.07500,61
33.08333,62
33.09167,62
33.10000,62
33.10833,62
33.11667,62
33.12500,62
33.13333,62
33.14167,62
33.15000,62
33.15833,63
33.16667,63
33.17500,62
33.18333,63
33.19167,63
33.20000,63
33.20833,63
33.21667,62
33.22500,62
33.23333,62
33.24167,62
33.25000,62
33.25833,62
33.26667,63
33.27500,63
33.28333,63
33.29167,63
33.30000,63
33.30833,62
33.31667,62
33.32500,62
33.33333,62
33.34167,62
33.35000,63
33.35833,63
33.36667,63
33.37500,63
33.38333,63
33.39167,63
33.40000,63
33.40833,63
33.41667,63
33.42500,62
33.43333,62
33.44167,63
33.45000,63
33.45833,63
33.46667,63
33.47500,63
33.48333,63
33.49167,63
33.50000,63
33.50833,63
33.51667,62
33.52500,62
33.53333,62
33.54167,63
33.55000,63
33.55833,63
33.56667,63
33.57500,63
33.58333,63
33.59167,63
33.60000,63
33.60833,63
33.61667,63
33.62500,63
33.63333,63
33.64167,63
33.65000,63
33.65833,63
33.66667,63
33.67500,63
33.68333,63
33.69167,63
33.70000,64
33.70833,64
33.71667,64
33.72500,64
33.73333,64
33.74167,64
33.75000,64
33.75833,64
33.76667,64
33.77500,63
33.78333,63
33.79167,63
33.80000,63
33.80833,63
33.81667,64
33.82500,64
33.83333,64
33.84167,64
33.85000,64
33.85833,64
33.86667,63
33.87500,63
33.88333,63
33.89167,63
33.90000,63
33.90833,63
33.91667,63
33.92500,63
33.93333,63
33.94167,64
33.95000,64
33.95833,64
33.96667,64
33.97500,63
33.98333,63
33.99167,64
34.00000,64
34.00833,64
34.01667,63
34.02500,63
34.03333,63
34.04167,63
34.05000,63
34.05833,63
34.06667,63
34.07500,64
34.08333,64
34.09167,64
34.10000,65
34.10833,64
34.11667,64
34.12500,64
34.13333,65
34.14167,65
34.15000,65
34.15833,65
34.16667,65
34.17500,64
34.18333,64
34.19167,64
34.20000,64
34.20833,63
34.21667,63
34.22500,63
34.23333,63
34.24167,63
34.25000,63
34.25833,63
34.26667,63
34.27500,63
34.28333,64
34.29167,64
34.30000,64
34.30833,65
34.31667,65
34.32500,64
34.33333,64
34.34167,64
34.35000,64
34.35833,64
34.36667,64
34.37500,64
34.38333,64
34.39167,64
34.40000,63
34.40833,63
34.41667,63
34.42500,63
34.43333,64
34.44167,64
34.45000,64
34.45833,64
34.46667,64
34.47500,64
34.48333,64
34.49167,64
34.50000,64
34.50833,64
34.51667,64
34.52500,64
34.53333,63
34.54167,63
34.55000,63
34.55833,63
34.56667,63
34.57500,64
34.58333,64
34.59167,64
34.60000,64
34.60833,64
34.61667,64
34.62500,64
34.63333,64
34.64167,65
34.65000,65
34.65833,65
34.66667,65
34.67500,65
34.68333,65
34.69167,65
34.70000,65
34.70833,65
34.71667,65
34.72500,65
34.73333,65
34.74167,65
34.75000,66
34.75833,65
34.76667,65
34.77500,66
34.78333,66
34.79167,66
34.80000,66
34.80833,66
34.81667,66
34.82500,65
34.83333,65
34.84167,65
34.85000,65
34.85833,65
34.86667,65
34.87500,65
34.88333,65
34.89167,66
34.90000,66
34.90833,66
34.91667,65
34.92500,65
34.93333,65
34.94167,65
34.95000,65
34.95833,66
34.96667,66
34.97500,66
34.98333,66
34.99167,66
35.00000,66
35.00833,66
35.01667,66
35.02500,66
35.03333,66
35.04167,66
35.05000,66
35.05833,66
35.06667,66
35.07500,66
35.08333,66
35.09167,66
35.10000,66
35.10833,65
35.11667,65
35.12500,65
35.13333,65
35.14167,65
35.15000,66
35.15833,66
35.16667,66
35.17500,66
35.18333,65
35.19167,65
35.20000,65
35.20833,65
35.21667,65
35.22500,65
35.23333,65
35.24167,65
35.25000,66
35.25833,66
35.26667,66
35.27500,66
35.28333,66
35.29167,66
35.30000,66
35.30833,66
35.31667,66
35.32500,66
35.33333,66
35.34167,66
35.35000,66
35.35833,66
35.36667,66
35.37500,66
35.38333,66
35.39167,66
35.40000,66
35.40833,66
35.41667,66
35.42500,66
35.43333,66
35.44167,66
35.45000,66
35.45833,66
35.46667,67
35.47500,67
35.48333,67
35.49167,67
35.50000,67
35.50833,67
35.51667,67
35.52500,67
35.53333,67
35.54167,67
35.55000,67
35.55833,67
35.56667,67
35.57500,67
35.58333,67
35.59167,66
35.60000,66
35.60833,66
35.61667,66
35.62500,66
35.63333,66
35.64167,67
35.65000,67
35.65833,67
35.66667,67
35.67500,67
35.68333,67
35.69167,68
35.70000,68
35.70833,67
35.71667,67
35.72500,67
35.73333,68
35.74167,68
35.75000,67
35.75833,67
35.76667,67
35.77500,67
35.78333,67
35.79167,67
35.80000,67
35.80833,67
35.81667,67
35.82500,67
35.83333,67
35.84167,67
35.85000,67
35.85833,67
35.86667,67
35.87500,67
35.88333,67
35.89167,67
35.90000,67
35.90833,67
35.91667,67
35.92500,67
35.93333,67
35.94167,67
35.95000,67
35.95833,67
35.96667,67
35.97500,67
35.98333,67
35.99167,67
36.00000,67
36.00833,67
36.01667,66
36.02500,67
36.03333,67
36.04167,67
36.05000,67
36.05833,67
36.06667,67
36.07500,67
36.08333,66
36.09167,66
36.10000,66
36.10833,66
36.11667,66
36.12500,66
36.13333,66
36.14167,66
36.15000,67
36.15833,67
36.16667,67
36.17500,67
36.18333,67
36.19167,67
36.20000,67
36.20833,67
36.21667,67
36.22500,67
36.23333,67
36.24167,67
36.25000,67
36.25833,67
36.26667,67
36.27500,66
36.28333,66
36.29167,66
36.30000,66
36.30833,67
36.31667,67
36.32500,67
36.33333,67
36.34167,67
36.35000,67
36.35833,67
36.36667,67
36.37500,67
36.38333,67
36.39167,67
36.40000,67
36.40833,67
36.41667,67
36.42500,67
36.43333,67
36.44167,67
36.45000,67
36.45833,67
36.46667,67
36.47500,67
36.48333,67
36.49167,67
36.50000,68
36.50833,68
36.51667,68
36.52500,68
36.53333,67
36.54167,68
36.55000,68
36.55833,68
36.56667,68
36.57500,68
36.58333,68
36.59167,68
36.60000,68
36.60833,69
36.61667,69
36.62500,69
36.63333,69
36.64167,69
36.65000,69
36.65833,69
36.66667,69
36.67500,69
36.68333,69
36.69167,69
36.70000,69
36.70833,69
36.71667,69
36.72500,69
36.73333,69
36.74167,69
36.75000,70
36.75833,69
36.76667,69
36.77500,69
36.78333,69
36.79167,69
36.80000,70
36.80833,70
36.81667,70
36.82500,70
36.83333,70
36.84167,70
36.85000,70
36.85833,70
36.86667,70
36.87500,70
36.88333,70
36.89167,70
36.90000,70
36.90833,70
36.91667,71
36.92500,71
36.93333,71
36.94167,71
36.95000,71
36.95833,71
36.96667,71
36.97500,71
36.98333,71
36.99167,71
37.00000,71
37.00833,71
37.01667,71
37.02500,71
37.03333,71
37.04167,70
37.05000,70
37.05833,70
37.06667,70
37.07500,70
37.08333,70
37.09167,70
37.10000,71
37.10833,71
37.11667,71
37.12500,71
37.13333,71
37.14167,71
37.15000,71
37.15833,71
37.16667,71
37.17500,71
37.18333,71
37.19167,71
37.20000,71
37.20833,71
37.21667,70
37.22500,70
37.23333,71
37.24167,71
37.25000,71
37.25833,71
37.26667,72
37.27500,72
37.28333,72
37.29167,72
37.30000,72
37.30833,71
37.31667,71
37.32500,71
37.33333,71
37.34167,71
37.35000,71
37.35833,71
37.36667,71
37.37500,70
37.38333,71
37.39167,71
37.40000,71
37.40833,71
37.41667,71
37.42500,71
37.43333,71
37.44167,71
37.45000,71
37.45833,71
37.46667,71
37.47500,72
37.48333,72
37.49167,72
37.50000,72
37.50833,72
37.51667,72
37.52500,72
37.53333,72
37.54167,71
37.55000,71
37.55833,71
37.56667,71
37.57500,71
37.58333,71
37.59167,71
37.60000,71
37.60833,71
37.61667,71
37.62500,71
37.63333,71
37.64167,71
37.65000,71
37.65833,71
37.66667,71
37.67500,71
37.68333,71
37.69167,71
37.70000,71
37.70833,71
37.71667,71
37.72500,71
37.73333,72
37.74167,72
37.75000,71
37.75833,72
37.76667,72
37.77500,71
37.78333,71
37.79167,71
37.80000,72
37.80833,72
37.81667,72
37.82500,72
37.83333,72
37.84167,72
37.85000,72
37.85833,72
37.86667,72
37.87500,72
37.88333,72
37.89167,72
37.90000,72
37.90833,72
37.91667,72
37.92500,72
37.93333,72
37.94167,72
37.95000,72
37.95833,73
37.96667,73
37.97500,73
37.98333,73
37.99167,73
38.00000,73
38.00833,73
38.01667,74
38.02500,74
38.03333,74
38.04167,73
38.05000,73
38.05833,73
38.06667,73
38.07500,72
38.08333,72
38.09167,72
38.10000,72
38.10833,72
38.11667,72
38.12500,72
38.13333,72
38.14167,72
38.15000,73
38.15833,73
38.16667,73
38.17500,74
38.18333,74
38.19167,74
38.20000,74
38.20833,73
38.21667,73
38.22500,73
38.23333,73
38.24167,73
38.25000,73
38.25833,73
38.26667,73
38.27500,73
38.28333,73
38.29167,72
38.30000,73
38.30833,73
38.31667,73
38.32500,73
38.33333,73
38.34167,73
38.35000,74
38.35833,74
38.36667,74
38.37500,74
38.38333,74
38.39167,74
38.40000,74
38.40833,73
38.41667,73
38.42500,74
38.43333,74
38.44167,74
38.45000,74
38.45833,74
38.46667,74
38.47500,75
38.48333,75
38.49167,75
38.50000,75
38.50833,75
38.51667,75
38.52500,75
38.53333,75
38.54167,74
38.55000,74
38.55833,75
38.56667,75
38.57500,75
38.58333,75
38.59167,74
38.60000,74
38.60833,74
38.61667,74
38.62500,75
38.63333,75
38.64167,75
38.65000,75
38.65833,75
38.66667,75
38.67500,75
38.68333,75
38.69167,75
38.70000,74
38.70833,74
38.71667,74
38.72500,74
38.73333,74
38.74167,74
38.75000,74
38.75833,74
38.76667,74
38.77500,74
38.78333,75
38.79167,75
38.80000,75
38.80833,75
38.81667,75
38.82500,75
38.83333,75
38.84167,75
38.85000,75
38.85833,75
38.86667,75
38.87500,75
38.88333,75
38.89167,75
38.90000,75
38.90833,75
38.91667,75
38.92500,75
38.93333,75
38.94167,75
38.95000,75
38.95833,75
38.96667,75
38.97500,75
38.98333,75
38.99167,76
39.00000,75
39.00833,75
39.01667,75
39.02500,75
39.03333,75
39.04167,75
39.05000,75
39.05833,75
39.06667,75
39.07500,75
39.08333,75
39.09167,75
39.10000,75
39.10833,74
39.11667,74
39.12500,75
39.13333,75
39.14167,75
39.15000,75
39.15833,75
39.16667,75
39.17500,75
39.18333,75
39.19167,75
39.20000,76
39.20833,76
39.21667,76
39.22500,76
39.23333,76
39.24167,76
39.25000,76
39.25833,76
39.26667,77
39.27500,76
39.28333,76
39.29167,76
39.30000,76
39.30833,77
39.31667,77
39.32500,77
39.33333,77
39.34167,76
39.35000,76
39.35833,76
39.36667,76
39.37500,76
39.38333,76
39.39167,76
39.40000,76
39.40833,77
39.41667,77
39.42500,77
39.43333,77
39.44167,77
39.45000,77
39.45833,76
39.46667,77
39.47500,77
39.48333,77
39.49167,77
39.50000,77
39.50833,77
39.51667,77
39.52500,77
39.53333,77
39.54167,77
39.55000,77
39.55833,77
39.56667,77
39.57500,77
39.58333,77
39.59167,77
39.60000,77
39.60833,78
39.61667,78
39.62500,77
39.63333,77
39.64167,77
39.65000,77
39.65833,77
39.66667,77
39.67500,77
39.68333,77
39.69167,77
39.70000,77
39.70833,77
39.71667,78
39.72500,77
39.73333,77
39.74167,77
39.75000,77
39.75833,77
39.76667,77
39.77500,77
39.78333,77
39.79167,77
39.80000,77
39.80833,77
39.81667,77
39.82500,77
39.83333,77
39.84167,77
39.85000,77
39.85833,77
39.86667,77
39.87500,77
39.88333,77
39.89167,77
39.90000,77
39.90833,77
39.91667,77
39.92500,77
39.93333,77
39.94167,77
39.95000,77
39.95833,77
39.96667,76
39.97500,76
39.98333,76
39.99167,77
40.00000,77

