[Header]
Application Name,LabSolutions
Version,5.97 SP1
Data File Name,C:\Users\cremerlab\Desktop\griffin\2021-04-03_buffer_calibration\2021-04-03_buffer_calibration_432021_003_016.lcd
Output Date,4/4/2021
Output Time,1:28:37 AM

[File Information]
Type,Data File
Generated,4/4/2021 12:48:17 AM
Generated by,System Administrator
Modified,4/4/2021 1:28:37 AM
Modified by,System Administrator

[Sample Information]
Operator Name,System Administrator
Acquired,4/4/2021 12:48:36 AM
Sample Type,1:Standard
Level,3
Sample Name,2021-04-02_DM_glucose_glycerol_acetate_calibration_20mM
Sample ID,003
ISTD Amount1,1
ISTD Amount2,1
ISTD Amount3,1
ISTD Amount4,1
ISTD Amount5,1
ISTD Amount6,1
ISTD Amount7,1
ISTD Amount8,1
ISTD Amount9,1
ISTD Amount10,1
ISTD Amount11,1
ISTD Amount12,1
ISTD Amount13,1
ISTD Amount14,1
ISTD Amount15,1
ISTD Amount16,1
ISTD Amount17,1
ISTD Amount18,1
ISTD Amount19,1
ISTD Amount20,1
ISTD Amount21,1
ISTD Amount22,1
ISTD Amount23,1
ISTD Amount24,1
ISTD Amount25,1
ISTD Amount26,1
ISTD Amount27,1
ISTD Amount28,1
ISTD Amount29,1
ISTD Amount30,1
ISTD Amount31,1
ISTD Amount32,1
Sample Amount,1
Dilution Factor,1
Vial#,21
Injection Volume,20

[Original Files]
Data File,C:\Users\cremerlab\Desktop\griffin\2021-04-03_buffer_calibration\2021-04-03_buffer_calibration_432021_003_016.lcd
Method File,C:\LabSolutions\Data\Project1\organicacidsetc2.lcm
Batch File,C:\Users\cremerlab\Desktop\griffin\2021-04-03_buffer_calibration\2021-04-03_buffer_calibration.lcb
Report Format File,c:\LabSolutions\System\DEFAULT.lsr

[File Description]


[Configuration]
Instrument Name,HPLC-PC-Instrument1
Instrument #,1
Line #,1
# of Detectors,2
Detector ID,Detector A,Detector B
Detector Name,Detector A,Detector B
# of Channels,1,1

[Peak Table(Detector A)]
# of Peaks,0

[Peak Table(Detector B)]
# of Peaks,6
Peak#,R.Time,I.Time,F.Time,Area,Height,A/H,Conc.,Mark,ID#,Name,k',Plate #,Plate Ht.,Tailing,Resolution,Sep.Factor,Area Ratio,Height Ratio,Conc. %,Norm Conc.
1,10.749,10.533,10.967,47703,3289,14.505,0.000,   ,,,0.000,12334,12.161,0.987,0.000,0.000,0,0,0.000,0.000
2,11.301,11.008,11.467,46488,2188,21.250,0.000,   ,,,0.051,11143,13.461,0.792,1.353,0.000,0,0,0.000,0.000
3,14.915,14.108,15.258,1500635,60374,24.856,0.000,   ,,,0.388,7422,20.211,0.000,6.450,7.553,0,0,0.000,0.000
4,15.664,15.258,18.150,1911563,78385,24.387,0.000, V ,,,0.457,9768,15.357,0.000,1.129,1.180,0,0,0.000,0.000
5,22.077,21.333,23.633,560532,20675,27.112,0.000,   ,,,1.054,15410,9.734,1.093,9.534,2.305,0,0,0.000,0.000
6,25.077,24.333,26.108,236573,8057,29.361,0.000,   ,,,1.333,16693,8.986,1.067,4.033,1.265,0,0,0.000,0.000

[LC Chromatogram(Detector B-Ch1)]
Interval(msec),500
# of Points,4801
Start Time(min),0.000
End Time(min),40.000
Intensity Units,mV
Intensity Multiplier,0.001
R.Time (min),Intensity
0.00000,1
0.00833,1
0.01667,0
0.02500,0
0.03333,-0
0.04167,-0
0.05000,-0
0.05833,-0
0.06667,0
0.07500,0
0.08333,1
0.09167,1
0.10000,1
0.10833,1
0.11667,1
0.12500,0
0.13333,0
0.14167,0
0.15000,0
0.15833,0
0.16667,0
0.17500,-0
0.18333,-0
0.19167,-0
0.20000,-0
0.20833,-0
0.21667,-0
0.22500,-0
0.23333,-0
0.24167,-0
0.25000,0
0.25833,0
0.26667,1
0.27500,1
0.28333,1
0.29167,1
0.30000,1
0.30833,1
0.31667,1
0.32500,0
0.33333,0
0.34167,-0
0.35000,-0
0.35833,-0
0.36667,-0
0.37500,0
0.38333,0
0.39167,0
0.40000,1
0.40833,1
0.41667,1
0.42500,1
0.43333,1
0.44167,0
0.45000,0
0.45833,0
0.46667,0
0.47500,1
0.48333,1
0.49167,1
0.50000,1
0.50833,1
0.51667,1
0.52500,1
0.53333,1
0.54167,2
0.55000,2
0.55833,2
0.56667,2
0.57500,2
0.58333,2
0.59167,2
0.60000,2
0.60833,2
0.61667,2
0.62500,2
0.63333,1
0.64167,1
0.65000,1
0.65833,1
0.66667,1
0.67500,1
0.68333,1
0.69167,1
0.70000,1
0.70833,1
0.71667,1
0.72500,1
0.73333,0
0.74167,0
0.75000,0
0.75833,1
0.76667,1
0.77500,1
0.78333,1
0.79167,2
0.80000,2
0.80833,2
0.81667,2
0.82500,2
0.83333,2
0.84167,2
0.85000,2
0.85833,2
0.86667,2
0.87500,2
0.88333,2
0.89167,2
0.90000,2
0.90833,3
0.91667,3
0.92500,2
0.93333,2
0.94167,2
0.95000,2
0.95833,3
0.96667,3
0.97500,3
0.98333,2
0.99167,2
1.00000,2
1.00833,2
1.01667,2
1.02500,2
1.03333,2
1.04167,2
1.05000,3
1.05833,3
1.06667,3
1.07500,3
1.08333,3
1.09167,3
1.10000,3
1.10833,3
1.11667,3
1.12500,3
1.13333,3
1.14167,3
1.15000,3
1.15833,3
1.16667,3
1.17500,3
1.18333,3
1.19167,3
1.20000,3
1.20833,3
1.21667,3
1.22500,3
1.23333,2
1.24167,2
1.25000,2
1.25833,3
1.26667,3
1.27500,3
1.28333,3
1.29167,3
1.30000,4
1.30833,4
1.31667,4
1.32500,4
1.33333,4
1.34167,3
1.35000,4
1.35833,4
1.36667,4
1.37500,4
1.38333,3
1.39167,3
1.40000,3
1.40833,3
1.41667,3
1.42500,3
1.43333,3
1.44167,3
1.45000,3
1.45833,3
1.46667,3
1.47500,3
1.48333,3
1.49167,3
1.50000,3
1.50833,3
1.51667,3
1.52500,4
1.53333,4
1.54167,4
1.55000,4
1.55833,4
1.56667,4
1.57500,4
1.58333,4
1.59167,4
1.60000,3
1.60833,3
1.61667,3
1.62500,3
1.63333,4
1.64167,4
1.65000,4
1.65833,4
1.66667,4
1.67500,4
1.68333,4
1.69167,4
1.70000,4
1.70833,4
1.71667,4
1.72500,3
1.73333,4
1.74167,4
1.75000,4
1.75833,4
1.76667,4
1.77500,4
1.78333,4
1.79167,4
1.80000,4
1.80833,4
1.81667,4
1.82500,3
1.83333,3
1.84167,3
1.85000,3
1.85833,3
1.86667,4
1.87500,4
1.88333,4
1.89167,4
1.90000,5
1.90833,5
1.91667,5
1.92500,5
1.93333,4
1.94167,4
1.95000,4
1.95833,4
1.96667,5
1.97500,5
1.98333,5
1.99167,5
2.00000,5
2.00833,5
2.01667,5
2.02500,5
2.03333,5
2.04167,5
2.05000,5
2.05833,5
2.06667,5
2.07500,5
2.08333,5
2.09167,5
2.10000,5
2.10833,5
2.11667,5
2.12500,5
2.13333,5
2.14167,5
2.15000,5
2.15833,5
2.16667,5
2.17500,5
2.18333,5
2.19167,5
2.20000,5
2.20833,6
2.21667,5
2.22500,5
2.23333,5
2.24167,5
2.25000,5
2.25833,5
2.26667,5
2.27500,5
2.28333,5
2.29167,6
2.30000,6
2.30833,6
2.31667,7
2.32500,7
2.33333,7
2.34167,7
2.35000,7
2.35833,7
2.36667,7
2.37500,7
2.38333,7
2.39167,7
2.40000,7
2.40833,6
2.41667,6
2.42500,6
2.43333,6
2.44167,6
2.45000,6
2.45833,6
2.46667,6
2.47500,6
2.48333,6
2.49167,6
2.50000,6
2.50833,6
2.51667,6
2.52500,7
2.53333,7
2.54167,7
2.55000,7
2.55833,7
2.56667,7
2.57500,7
2.58333,7
2.59167,7
2.60000,7
2.60833,7
2.61667,6
2.62500,7
2.63333,7
2.64167,7
2.65000,7
2.65833,7
2.66667,7
2.67500,7
2.68333,7
2.69167,7
2.70000,7
2.70833,8
2.71667,8
2.72500,8
2.73333,8
2.74167,8
2.75000,8
2.75833,8
2.76667,8
2.77500,8
2.78333,8
2.79167,8
2.80000,8
2.80833,8
2.81667,8
2.82500,8
2.83333,9
2.84167,8
2.85000,8
2.85833,8
2.86667,7
2.87500,7
2.88333,7
2.89167,8
2.90000,8
2.90833,8
2.91667,9
2.92500,9
2.93333,9
2.94167,9
2.95000,9
2.95833,9
2.96667,9
2.97500,9
2.98333,9
2.99167,8
3.00000,8
3.00833,8
3.01667,8
3.02500,9
3.03333,9
3.04167,9
3.05000,9
3.05833,9
3.06667,9
3.07500,9
3.08333,9
3.09167,10
3.10000,10
3.10833,10
3.11667,9
3.12500,9
3.13333,9
3.14167,9
3.15000,9
3.15833,9
3.16667,10
3.17500,10
3.18333,10
3.19167,10
3.20000,9
3.20833,10
3.21667,9
3.22500,10
3.23333,10
3.24167,11
3.25000,11
3.25833,11
3.26667,10
3.27500,10
3.28333,10
3.29167,10
3.30000,10
3.30833,10
3.31667,10
3.32500,10
3.33333,10
3.34167,10
3.35000,10
3.35833,9
3.36667,9
3.37500,9
3.38333,9
3.39167,9
3.40000,9
3.40833,9
3.41667,9
3.42500,10
3.43333,10
3.44167,11
3.45000,11
3.45833,11
3.46667,11
3.47500,11
3.48333,11
3.49167,11
3.50000,10
3.50833,10
3.51667,10
3.52500,10
3.53333,10
3.54167,10
3.55000,11
3.55833,10
3.56667,10
3.57500,10
3.58333,10
3.59167,10
3.60000,10
3.60833,11
3.61667,11
3.62500,11
3.63333,11
3.64167,11
3.65000,11
3.65833,11
3.66667,10
3.67500,10
3.68333,10
3.69167,10
3.70000,10
3.70833,10
3.71667,10
3.72500,10
3.73333,10
3.74167,10
3.75000,11
3.75833,11
3.76667,10
3.77500,10
3.78333,10
3.79167,10
3.80000,10
3.80833,10
3.81667,10
3.82500,10
3.83333,10
3.84167,11
3.85000,11
3.85833,11
3.86667,11
3.87500,11
3.88333,11
3.89167,11
3.90000,11
3.90833,11
3.91667,12
3.92500,12
3.93333,12
3.94167,12
3.95000,12
3.95833,12
3.96667,12
3.97500,12
3.98333,12
3.99167,12
4.00000,12
4.00833,12
4.01667,12
4.02500,12
4.03333,12
4.04167,12
4.05000,12
4.05833,12
4.06667,12
4.07500,12
4.08333,11
4.09167,11
4.10000,11
4.10833,11
4.11667,11
4.12500,12
4.13333,12
4.14167,12
4.15000,11
4.15833,12
4.16667,12
4.17500,12
4.18333,12
4.19167,11
4.20000,11
4.20833,11
4.21667,11
4.22500,11
4.23333,11
4.24167,12
4.25000,12
4.25833,12
4.26667,12
4.27500,12
4.28333,12
4.29167,12
4.30000,13
4.30833,13
4.31667,12
4.32500,12
4.33333,12
4.34167,12
4.35000,12
4.35833,12
4.36667,12
4.37500,12
4.38333,12
4.39167,12
4.40000,12
4.40833,12
4.41667,13
4.42500,13
4.43333,13
4.44167,12
4.45000,12
4.45833,12
4.46667,12
4.47500,13
4.48333,13
4.49167,12
4.50000,12
4.50833,12
4.51667,13
4.52500,13
4.53333,13
4.54167,12
4.55000,12
4.55833,12
4.56667,13
4.57500,13
4.58333,14
4.59167,14
4.60000,13
4.60833,13
4.61667,13
4.62500,14
4.63333,14
4.64167,14
4.65000,14
4.65833,14
4.66667,14
4.67500,13
4.68333,13
4.69167,13
4.70000,13
4.70833,13
4.71667,13
4.72500,13
4.73333,13
4.74167,13
4.75000,13
4.75833,13
4.76667,13
4.77500,13
4.78333,13
4.79167,12
4.80000,12
4.80833,13
4.81667,13
4.82500,13
4.83333,13
4.84167,13
4.85000,13
4.85833,13
4.86667,13
4.87500,14
4.88333,14
4.89167,14
4.90000,14
4.90833,14
4.91667,14
4.92500,14
4.93333,14
4.94167,13
4.95000,13
4.95833,13
4.96667,13
4.97500,13
4.98333,13
4.99167,13
5.00000,13
5.00833,13
5.01667,13
5.02500,13
5.03333,13
5.04167,13
5.05000,13
5.05833,14
5.06667,14
5.07500,14
5.08333,14
5.09167,14
5.10000,14
5.10833,14
5.11667,14
5.12500,15
5.13333,15
5.14167,15
5.15000,15
5.15833,15
5.16667,15
5.17500,15
5.18333,15
5.19167,14
5.20000,14
5.20833,14
5.21667,14
5.22500,14
5.23333,14
5.24167,15
5.25000,15
5.25833,15
5.26667,15
5.27500,15
5.28333,15
5.29167,15
5.30000,15
5.30833,15
5.31667,15
5.32500,15
5.33333,15
5.34167,15
5.35000,15
5.35833,15
5.36667,15
5.37500,15
5.38333,15
5.39167,15
5.40000,15
5.40833,15
5.41667,15
5.42500,15
5.43333,15
5.44167,15
5.45000,15
5.45833,15
5.46667,15
5.47500,15
5.48333,16
5.49167,16
5.50000,15
5.50833,15
5.51667,15
5.52500,14
5.53333,14
5.54167,14
5.55000,15
5.55833,15
5.56667,15
5.57500,15
5.58333,16
5.59167,16
5.60000,16
5.60833,16
5.61667,16
5.62500,16
5.63333,16
5.64167,16
5.65000,16
5.65833,16
5.66667,16
5.67500,15
5.68333,15
5.69167,16
5.70000,16
5.70833,16
5.71667,16
5.72500,17
5.73333,17
5.74167,17
5.75000,17
5.75833,17
5.76667,17
5.77500,17
5.78333,17
5.79167,17
5.80000,17
5.80833,17
5.81667,17
5.82500,17
5.83333,17
5.84167,18
5.85000,18
5.85833,18
5.86667,18
5.87500,18
5.88333,18
5.89167,18
5.90000,18
5.90833,17
5.91667,17
5.92500,17
5.93333,17
5.94167,17
5.95000,18
5.95833,18
5.96667,18
5.97500,18
5.98333,18
5.99167,18
6.00000,18
6.00833,18
6.01667,18
6.02500,19
6.03333,19
6.04167,18
6.05000,18
6.05833,18
6.06667,18
6.07500,18
6.08333,18
6.09167,18
6.10000,18
6.10833,18
6.11667,18
6.12500,18
6.13333,18
6.14167,18
6.15000,18
6.15833,18
6.16667,18
6.17500,18
6.18333,17
6.19167,17
6.20000,18
6.20833,18
6.21667,18
6.22500,18
6.23333,18
6.24167,18
6.25000,18
6.25833,18
6.26667,18
6.27500,18
6.28333,18
6.29167,17
6.30000,17
6.30833,18
6.31667,18
6.32500,18
6.33333,18
6.34167,18
6.35000,18
6.35833,18
6.36667,19
6.37500,19
6.38333,19
6.39167,19
6.40000,19
6.40833,19
6.41667,19
6.42500,19
6.43333,19
6.44167,19
6.45000,19
6.45833,20
6.46667,20
6.47500,20
6.48333,19
6.49167,19
6.50000,19
6.50833,19
6.51667,19
6.52500,20
6.53333,20
6.54167,20
6.55000,20
6.55833,20
6.56667,20
6.57500,20
6.58333,20
6.59167,20
6.60000,20
6.60833,20
6.61667,20
6.62500,20
6.63333,20
6.64167,20
6.65000,21
6.65833,21
6.66667,21
6.67500,21
6.68333,21
6.69167,21
6.70000,21
6.70833,21
6.71667,21
6.72500,20
6.73333,21
6.74167,21
6.75000,21
6.75833,21
6.76667,22
6.77500,22
6.78333,21
6.79167,21
6.80000,21
6.80833,21
6.81667,22
6.82500,22
6.83333,22
6.84167,22
6.85000,22
6.85833,21
6.86667,21
6.87500,21
6.88333,22
6.89167,22
6.90000,22
6.90833,22
6.91667,22
6.92500,22
6.93333,22
6.94167,22
6.95000,22
6.95833,22
6.96667,22
6.97500,23
6.98333,23
6.99167,23
7.00000,23
7.00833,23
7.01667,24
7.02500,23
7.03333,23
7.04167,23
7.05000,23
7.05833,23
7.06667,23
7.07500,23
7.08333,22
7.09167,22
7.10000,22
7.10833,22
7.11667,22
7.12500,22
7.13333,22
7.14167,22
7.15000,22
7.15833,22
7.16667,22
7.17500,22
7.18333,22
7.19167,22
7.20000,22
7.20833,22
7.21667,22
7.22500,22
7.23333,22
7.24167,22
7.25000,22
7.25833,23
7.26667,23
7.27500,22
7.28333,22
7.29167,22
7.30000,22
7.30833,22
7.31667,22
7.32500,23
7.33333,23
7.34167,23
7.35000,23
7.35833,22
7.36667,22
7.37500,22
7.38333,22
7.39167,22
7.40000,22
7.40833,22
7.41667,22
7.42500,22
7.43333,23
7.44167,23
7.45000,23
7.45833,23
7.46667,23
7.47500,22
7.48333,22
7.49167,22
7.50000,22
7.50833,22
7.51667,22
7.52500,22
7.53333,22
7.54167,22
7.55000,22
7.55833,22
7.56667,22
7.57500,22
7.58333,23
7.59167,23
7.60000,23
7.60833,23
7.61667,23
7.62500,23
7.63333,23
7.64167,23
7.65000,22
7.65833,22
7.66667,22
7.67500,22
7.68333,23
7.69167,23
7.70000,23
7.70833,23
7.71667,23
7.72500,23
7.73333,23
7.74167,23
7.75000,23
7.75833,23
7.76667,23
7.77500,23
7.78333,23
7.79167,23
7.80000,23
7.80833,23
7.81667,23
7.82500,23
7.83333,23
7.84167,23
7.85000,23
7.85833,23
7.86667,23
7.87500,23
7.88333,23
7.89167,23
7.90000,23
7.90833,23
7.91667,23
7.92500,23
7.93333,23
7.94167,23
7.95000,23
7.95833,23
7.96667,23
7.97500,23
7.98333,23
7.99167,23
8.00000,24
8.00833,24
8.01667,24
8.02500,24
8.03333,24
8.04167,23
8.05000,23
8.05833,23
8.06667,24
8.07500,25
8.08333,25
8.09167,25
8.10000,25
8.10833,25
8.11667,25
8.12500,25
8.13333,25
8.14167,25
8.15000,24
8.15833,24
8.16667,24
8.17500,24
8.18333,24
8.19167,24
8.20000,24
8.20833,24
8.21667,25
8.22500,25
8.23333,25
8.24167,25
8.25000,25
8.25833,25
8.26667,25
8.27500,25
8.28333,25
8.29167,25
8.30000,25
8.30833,25
8.31667,25
8.32500,25
8.33333,25
8.34167,25
8.35000,25
8.35833,25
8.36667,25
8.37500,25
8.38333,25
8.39167,25
8.40000,25
8.40833,25
8.41667,25
8.42500,25
8.43333,25
8.44167,25
8.45000,25
8.45833,25
8.46667,25
8.47500,26
8.48333,26
8.49167,26
8.50000,25
8.50833,25
8.51667,25
8.52500,25
8.53333,25
8.54167,25
8.55000,25
8.55833,25
8.56667,25
8.57500,26
8.58333,26
8.59167,26
8.60000,25
8.60833,25
8.61667,25
8.62500,25
8.63333,25
8.64167,25
8.65000,26
8.65833,26
8.66667,26
8.67500,26
8.68333,26
8.69167,26
8.70000,26
8.70833,26
8.71667,26
8.72500,26
8.73333,26
8.74167,26
8.75000,26
8.75833,26
8.76667,26
8.77500,26
8.78333,26
8.79167,26
8.80000,26
8.80833,26
8.81667,26
8.82500,26
8.83333,26
8.84167,26
8.85000,26
8.85833,26
8.86667,27
8.87500,27
8.88333,26
8.89167,26
8.90000,26
8.90833,26
8.91667,26
8.92500,26
8.93333,26
8.94167,26
8.95000,26
8.95833,26
8.96667,26
8.97500,27
8.98333,27
8.99167,27
9.00000,27
9.00833,27
9.01667,27
9.02500,27
9.03333,27
9.04167,27
9.05000,27
9.05833,27
9.06667,26
9.07500,26
9.08333,27
9.09167,27
9.10000,28
9.10833,28
9.11667,28
9.12500,28
9.13333,28
9.14167,28
9.15000,28
9.15833,28
9.16667,28
9.17500,28
9.18333,28
9.19167,28
9.20000,28
9.20833,28
9.21667,29
9.22500,29
9.23333,29
9.24167,29
9.25000,29
9.25833,29
9.26667,29
9.27500,29
9.28333,29
9.29167,29
9.30000,29
9.30833,29
9.31667,29
9.32500,30
9.33333,30
9.34167,30
9.35000,30
9.35833,30
9.36667,30
9.37500,30
9.38333,30
9.39167,30
9.40000,30
9.40833,30
9.41667,30
9.42500,30
9.43333,30
9.44167,30
9.45000,30
9.45833,30
9.46667,29
9.47500,29
9.48333,29
9.49167,29
9.50000,29
9.50833,30
9.51667,30
9.52500,30
9.53333,30
9.54167,30
9.55000,30
9.55833,30
9.56667,30
9.57500,30
9.58333,31
9.59167,30
9.60000,30
9.60833,30
9.61667,30
9.62500,30
9.63333,30
9.64167,30
9.65000,30
9.65833,29
9.66667,30
9.67500,30
9.68333,30
9.69167,30
9.70000,31
9.70833,31
9.71667,31
9.72500,31
9.73333,31
9.74167,31
9.75000,30
9.75833,30
9.76667,30
9.77500,30
9.78333,29
9.79167,30
9.80000,30
9.80833,30
9.81667,30
9.82500,31
9.83333,31
9.84167,30
9.85000,30
9.85833,30
9.86667,30
9.87500,30
9.88333,30
9.89167,30
9.90000,30
9.90833,30
9.91667,30
9.92500,30
9.93333,30
9.94167,30
9.95000,30
9.95833,30
9.96667,30
9.97500,30
9.98333,30
9.99167,30
10.00000,30
10.00833,30
10.01667,30
10.02500,31
10.03333,31
10.04167,31
10.05000,31
10.05833,31
10.06667,31
10.07500,31
10.08333,31
10.09167,31
10.10000,31
10.10833,30
10.11667,30
10.12500,30
10.13333,30
10.14167,30
10.15000,31
10.15833,30
10.16667,30
10.17500,30
10.18333,30
10.19167,30
10.20000,30
10.20833,31
10.21667,31
10.22500,31
10.23333,30
10.24167,30
10.25000,30
10.25833,30
10.26667,30
10.27500,30
10.28333,31
10.29167,31
10.30000,31
10.30833,31
10.31667,31
10.32500,31
10.33333,31
10.34167,31
10.35000,31
10.35833,32
10.36667,32
10.37500,33
10.38333,33
10.39167,33
10.40000,33
10.40833,33
10.41667,32
10.42500,32
10.43333,32
10.44167,32
10.45000,32
10.45833,33
10.46667,33
10.47500,33
10.48333,33
10.49167,33
10.50000,33
10.50833,34
10.51667,34
10.52500,34
10.53333,34
10.54167,35
10.55000,36
10.55833,36
10.56667,38
10.57500,39
10.58333,42
10.59167,46
10.60000,51
10.60833,57
10.61667,64
10.62500,74
10.63333,86
10.64167,100
10.65000,118
10.65833,138
10.66667,163
10.67500,191
10.68333,221
10.69167,255
10.70000,290
10.70833,325
10.71667,360
10.72500,391
10.73333,417
10.74167,434
10.75000,440
10.75833,431
10.76667,405
10.77500,357
10.78333,286
10.79167,187
10.80000,58
10.80833,-102
10.81667,-293
10.82500,-517
10.83333,-773
10.84167,-1057
10.85000,-1369
10.85833,-1703
10.86667,-2056
10.87500,-2423
10.88333,-2798
10.89167,-3175
10.90000,-3549
10.90833,-3914
10.91667,-4264
10.92500,-4592
10.93333,-4894
10.94167,-5164
10.95000,-5400
10.95833,-5596
10.96667,-5751
10.97500,-5861
10.98333,-5927
10.99167,-5947
11.00000,-5922
11.00833,-5853
11.01667,-5742
11.02500,-5592
11.03333,-5406
11.04167,-5187
11.05000,-4941
11.05833,-4672
11.06667,-4384
11.07500,-4082
11.08333,-3771
11.09167,-3457
11.10000,-3144
11.10833,-2835
11.11667,-2534
11.12500,-2244
11.13333,-1969
11.14167,-1710
11.15000,-1470
11.15833,-1249
11.16667,-1047
11.17500,-866
11.18333,-705
11.19167,-563
11.20000,-440
11.20833,-334
11.21667,-245
11.22500,-170
11.23333,-109
11.24167,-60
11.25000,-21
11.25833,8
11.26667,29
11.27500,44
11.28333,54
11.29167,59
11.30000,61
11.30833,60
11.31667,56
11.32500,52
11.33333,46
11.34167,40
11.35000,33
11.35833,27
11.36667,21
11.37500,16
11.38333,11
11.39167,6
11.40000,2
11.40833,-2
11.41667,-5
11.42500,-8
11.43333,-10
11.44167,-12
11.45000,-13
11.45833,-15
11.46667,-15
11.47500,-15
11.48333,-14
11.49167,-14
11.50000,-13
11.50833,-12
11.51667,-11
11.52500,-10
11.53333,-9
11.54167,-9
11.55000,-8
11.55833,-7
11.56667,-6
11.57500,-5
11.58333,-4
11.59167,-3
11.60000,-2
11.60833,-1
11.61667,-0
11.62500,1
11.63333,2
11.64167,3
11.65000,3
11.65833,4
11.66667,5
11.67500,5
11.68333,6
11.69167,7
11.70000,7
11.70833,8
11.71667,9
11.72500,9
11.73333,10
11.74167,10
11.75000,11
11.75833,11
11.76667,12
11.77500,13
11.78333,14
11.79167,15
11.80000,15
11.80833,16
11.81667,17
11.82500,17
11.83333,18
11.84167,19
11.85000,19
11.85833,20
11.86667,21
11.87500,22
11.88333,22
11.89167,23
11.90000,23
11.90833,24
11.91667,24
11.92500,25
11.93333,26
11.94167,27
11.95000,27
11.95833,27
11.96667,27
11.97500,28
11.98333,29
11.99167,29
12.00000,30
12.00833,31
12.01667,31
12.02500,31
12.03333,31
12.04167,31
12.05000,31
12.05833,31
12.06667,31
12.07500,31
12.08333,31
12.09167,31
12.10000,31
12.10833,31
12.11667,31
12.12500,30
12.13333,30
12.14167,30
12.15000,29
12.15833,29
12.16667,29
12.17500,29
12.18333,29
12.19167,29
12.20000,29
12.20833,29
12.21667,28
12.22500,28
12.23333,28
12.24167,28
12.25000,28
12.25833,28
12.26667,27
12.27500,27
12.28333,27
12.29167,27
12.30000,27
12.30833,28
12.31667,28
12.32500,28
12.33333,28
12.34167,28
12.35000,28
12.35833,28
12.36667,28
12.37500,28
12.38333,28
12.39167,27
12.40000,27
12.40833,28
12.41667,28
12.42500,28
12.43333,28
12.44167,28
12.45000,28
12.45833,28
12.46667,28
12.47500,29
12.48333,29
12.49167,29
12.50000,29
12.50833,29
12.51667,29
12.52500,29
12.53333,29
12.54167,29
12.55000,29
12.55833,29
12.56667,30
12.57500,30
12.58333,30
12.59167,30
12.60000,30
12.60833,31
12.61667,31
12.62500,31
12.63333,31
12.64167,31
12.65000,31
12.65833,31
12.66667,31
12.67500,31
12.68333,32
12.69167,32
12.70000,32
12.70833,33
12.71667,33
12.72500,33
12.73333,33
12.74167,33
12.75000,33
12.75833,33
12.76667,34
12.77500,34
12.78333,35
12.79167,35
12.80000,36
12.80833,36
12.81667,37
12.82500,37
12.83333,38
12.84167,39
12.85000,40
12.85833,41
12.86667,42
12.87500,43
12.88333,44
12.89167,46
12.90000,47
12.90833,48
12.91667,49
12.92500,49
12.93333,50
12.94167,52
12.95000,53
12.95833,54
12.96667,55
12.97500,56
12.98333,57
12.99167,58
13.00000,59
13.00833,60
13.01667,61
13.02500,63
13.03333,64
13.04167,65
13.05000,66
13.05833,67
13.06667,68
13.07500,69
13.08333,70
13.09167,71
13.10000,72
13.10833,73
13.11667,75
13.12500,76
13.13333,77
13.14167,77
13.15000,78
13.15833,78
13.16667,79
13.17500,79
13.18333,80
13.19167,80
13.20000,81
13.20833,81
13.21667,82
13.22500,82
13.23333,83
13.24167,83
13.25000,83
13.25833,84
13.26667,84
13.27500,84
13.28333,83
13.29167,83
13.30000,83
13.30833,83
13.31667,82
13.32500,82
13.33333,81
13.34167,80
13.35000,80
13.35833,79
13.36667,79
13.37500,78
13.38333,77
13.39167,76
13.40000,75
13.40833,74
13.41667,73
13.42500,72
13.43333,71
13.44167,70
13.45000,69
13.45833,68
13.46667,67
13.47500,66
13.48333,65
13.49167,63
13.50000,62
13.50833,61
13.51667,60
13.52500,59
13.53333,58
13.54167,57
13.55000,57
13.55833,56
13.56667,55
13.57500,54
13.58333,53
13.59167,53
13.60000,52
13.60833,51
13.61667,51
13.62500,50
13.63333,50
13.64167,49
13.65000,48
13.65833,48
13.66667,47
13.67500,47
13.68333,46
13.69167,46
13.70000,46
13.70833,46
13.71667,46
13.72500,46
13.73333,46
13.74167,46
13.75000,46
13.75833,46
13.76667,46
13.77500,45
13.78333,45
13.79167,45
13.80000,45
13.80833,45
13.81667,45
13.82500,45
13.83333,45
13.84167,45
13.85000,45
13.85833,44
13.86667,45
13.87500,45
13.88333,45
13.89167,45
13.90000,45
13.90833,45
13.91667,46
13.92500,46
13.93333,46
13.94167,45
13.95000,45
13.95833,46
13.96667,46
13.97500,46
13.98333,47
13.99167,47
14.00000,47
14.00833,47
14.01667,48
14.02500,48
14.03333,48
14.04167,48
14.05000,49
14.05833,49
14.06667,50
14.07500,51
14.08333,52
14.09167,52
14.10000,53
14.10833,54
14.11667,55
14.12500,56
14.13333,57
14.14167,59
14.15000,61
14.15833,64
14.16667,67
14.17500,71
14.18333,76
14.19167,82
14.20000,89
14.20833,97
14.21667,107
14.22500,119
14.23333,134
14.24167,152
14.25000,174
14.25833,200
14.26667,232
14.27500,269
14.28333,313
14.29167,366
14.30000,429
14.30833,502
14.31667,588
14.32500,688
14.33333,804
14.34167,937
14.35000,1090
14.35833,1264
14.36667,1461
14.37500,1683
14.38333,1931
14.39167,2209
14.40000,2516
14.40833,2856
14.41667,3229
14.42500,3637
14.43333,4081
14.44167,4562
14.45000,5081
14.45833,5638
14.46667,6235
14.47500,6871
14.48333,7547
14.49167,8261
14.50000,9014
14.50833,9805
14.51667,10633
14.52500,11497
14.53333,12396
14.54167,13329
14.55000,14294
14.55833,15289
14.56667,16313
14.57500,17364
14.58333,18440
14.59167,19540
14.60000,20662
14.60833,21803
14.61667,22961
14.62500,24135
14.63333,25322
14.64167,26522
14.65000,27732
14.65833,28950
14.66667,30174
14.67500,31403
14.68333,32636
14.69167,33871
14.70000,35107
14.70833,36343
14.71667,37577
14.72500,38808
14.73333,40034
14.74167,41256
14.75000,42471
14.75833,43679
14.76667,44878
14.77500,46067
14.78333,47244
14.79167,48409
14.80000,49558
14.80833,50690
14.81667,51800
14.82500,52886
14.83333,53942
14.84167,54961
14.85000,55937
14.85833,56859
14.86667,57714
14.87500,58488
14.88333,59163
14.89167,59719
14.90000,60135
14.90833,60388
14.91667,60454
14.92500,60310
14.93333,59936
14.94167,59315
14.95000,58437
14.95833,57296
14.96667,55894
14.97500,54241
14.98333,52353
14.99167,50255
15.00000,47977
15.00833,45552
15.01667,43019
15.02500,40415
15.03333,37777
15.04167,35143
15.05000,32545
15.05833,30012
15.06667,27570
15.07500,25237
15.08333,23030
15.09167,20959
15.10000,19029
15.10833,17245
15.11667,15604
15.12500,14105
15.13333,12742
15.14167,11510
15.15000,10402
15.15833,9409
15.16667,8524
15.17500,7740
15.18333,7049
15.19167,6445
15.20000,5921
15.20833,5473
15.21667,5095
15.22500,4784
15.23333,4539
15.24167,4356
15.25000,4234
15.25833,4174
15.26667,4176
15.27500,4242
15.28333,4374
15.29167,4575
15.30000,4849
15.30833,5200
15.31667,5631
15.32500,6149
15.33333,6758
15.34167,7464
15.35000,8272
15.35833,9188
15.36667,10216
15.37500,11362
15.38333,12629
15.39167,14020
15.40000,15537
15.40833,17183
15.41667,18956
15.42500,20857
15.43333,22882
15.44167,25026
15.45000,27284
15.45833,29647
15.46667,32107
15.47500,34653
15.48333,37272
15.49167,39949
15.50000,42669
15.50833,45415
15.51667,48169
15.52500,50912
15.53333,53624
15.54167,56286
15.55000,58878
15.55833,61379
15.56667,63771
15.57500,66034
15.58333,68151
15.59167,70105
15.60000,71881
15.60833,73467
15.61667,74849
15.62500,76019
15.63333,76968
15.64167,77692
15.65000,78187
15.65833,78453
15.66667,78489
15.67500,78300
15.68333,77891
15.69167,77269
15.70000,76442
15.70833,75420
15.71667,74215
15.72500,72841
15.73333,71310
15.74167,69636
15.75000,67835
15.75833,65922
15.76667,63912
15.77500,61821
15.78333,59663
15.79167,57453
15.80000,55206
15.80833,52935
15.81667,50653
15.82500,48373
15.83333,46104
15.84167,43858
15.85000,41644
15.85833,39470
15.86667,37345
15.87500,35275
15.88333,33264
15.89167,31319
15.90000,29443
15.90833,27638
15.91667,25908
15.92500,24253
15.93333,22675
15.94167,21174
15.95000,19749
15.95833,18400
15.96667,17126
15.97500,15925
15.98333,14796
15.99167,13735
16.00000,12742
16.00833,11813
16.01667,10946
16.02500,10137
16.03333,9384
16.04167,8685
16.05000,8037
16.05833,7436
16.06667,6879
16.07500,6365
16.08333,5891
16.09167,5453
16.10000,5050
16.10833,4679
16.11667,4338
16.12500,4024
16.13333,3736
16.14167,3472
16.15000,3229
16.15833,3007
16.16667,2803
16.17500,2617
16.18333,2446
16.19167,2289
16.20000,2146
16.20833,2014
16.21667,1894
16.22500,1784
16.23333,1683
16.24167,1590
16.25000,1505
16.25833,1428
16.26667,1356
16.27500,1290
16.28333,1230
16.29167,1175
16.30000,1124
16.30833,1076
16.31667,1033
16.32500,993
16.33333,956
16.34167,921
16.35000,889
16.35833,860
16.36667,833
16.37500,808
16.38333,785
16.39167,763
16.40000,742
16.40833,723
16.41667,705
16.42500,688
16.43333,673
16.44167,658
16.45000,644
16.45833,631
16.46667,619
16.47500,607
16.48333,596
16.49167,586
16.50000,576
16.50833,567
16.51667,559
16.52500,551
16.53333,543
16.54167,536
16.55000,528
16.55833,521
16.56667,515
16.57500,509
16.58333,503
16.59167,498
16.60000,492
16.60833,487
16.61667,482
16.62500,477
16.63333,472
16.64167,467
16.65000,463
16.65833,458
16.66667,454
16.67500,450
16.68333,446
16.69167,442
16.70000,438
16.70833,434
16.71667,430
16.72500,427
16.73333,424
16.74167,420
16.75000,417
16.75833,414
16.76667,411
16.77500,409
16.78333,406
16.79167,403
16.80000,400
16.80833,397
16.81667,394
16.82500,391
16.83333,388
16.84167,386
16.85000,383
16.85833,381
16.86667,378
16.87500,375
16.88333,373
16.89167,370
16.90000,368
16.90833,365
16.91667,363
16.92500,361
16.93333,359
16.94167,357
16.95000,354
16.95833,352
16.96667,350
16.97500,347
16.98333,345
16.99167,342
17.00000,340
17.00833,337
17.01667,335
17.02500,332
17.03333,330
17.04167,328
17.05000,325
17.05833,323
17.06667,321
17.07500,319
17.08333,317
17.09167,315
17.10000,313
17.10833,311
17.11667,309
17.12500,307
17.13333,305
17.14167,303
17.15000,301
17.15833,300
17.16667,298
17.17500,296
17.18333,294
17.19167,292
17.20000,290
17.20833,288
17.21667,286
17.22500,284
17.23333,283
17.24167,281
17.25000,280
17.25833,278
17.26667,277
17.27500,275
17.28333,274
17.29167,272
17.30000,270
17.30833,269
17.31667,268
17.32500,266
17.33333,265
17.34167,263
17.35000,262
17.35833,260
17.36667,259
17.37500,257
17.38333,256
17.39167,255
17.40000,254
17.40833,252
17.41667,252
17.42500,251
17.43333,250
17.44167,248
17.45000,247
17.45833,246
17.46667,245
17.47500,244
17.48333,243
17.49167,242
17.50000,241
17.50833,240
17.51667,239
17.52500,239
17.53333,238
17.54167,237
17.55000,236
17.55833,235
17.56667,234
17.57500,233
17.58333,232
17.59167,231
17.60000,230
17.60833,229
17.61667,229
17.62500,228
17.63333,227
17.64167,226
17.65000,226
17.65833,225
17.66667,224
17.67500,223
17.68333,222
17.69167,221
17.70000,221
17.70833,220
17.71667,219
17.72500,219
17.73333,218
17.74167,217
17.75000,216
17.75833,215
17.76667,214
17.77500,214
17.78333,213
17.79167,213
17.80000,212
17.80833,212
17.81667,211
17.82500,210
17.83333,210
17.84167,209
17.85000,208
17.85833,207
17.86667,206
17.87500,205
17.88333,204
17.89167,204
17.90000,203
17.90833,203
17.91667,202
17.92500,202
17.93333,201
17.94167,200
17.95000,200
17.95833,199
17.96667,198
17.97500,198
17.98333,197
17.99167,196
18.00000,196
18.00833,195
18.01667,194
18.02500,194
18.03333,193
18.04167,193
18.05000,192
18.05833,191
18.06667,191
18.07500,190
18.08333,190
18.09167,189
18.10000,189
18.10833,188
18.11667,187
18.12500,186
18.13333,186
18.14167,186
18.15000,185
18.15833,185
18.16667,184
18.17500,183
18.18333,183
18.19167,182
18.20000,181
18.20833,180
18.21667,179
18.22500,178
18.23333,178
18.24167,177
18.25000,177
18.25833,176
18.26667,175
18.27500,175
18.28333,174
18.29167,174
18.30000,173
18.30833,173
18.31667,172
18.32500,172
18.33333,171
18.34167,171
18.35000,170
18.35833,170
18.36667,169
18.37500,169
18.38333,168
18.39167,168
18.40000,167
18.40833,167
18.41667,167
18.42500,166
18.43333,166
18.44167,166
18.45000,165
18.45833,164
18.46667,163
18.47500,163
18.48333,162
18.49167,162
18.50000,162
18.50833,162
18.51667,161
18.52500,161
18.53333,161
18.54167,160
18.55000,160
18.55833,159
18.56667,159
18.57500,159
18.58333,158
18.59167,158
18.60000,157
18.60833,157
18.61667,156
18.62500,156
18.63333,156
18.64167,156
18.65000,156
18.65833,156
18.66667,155
18.67500,155
18.68333,154
18.69167,154
18.70000,154
18.70833,154
18.71667,153
18.72500,153
18.73333,153
18.74167,153
18.75000,153
18.75833,153
18.76667,153
18.77500,154
18.78333,154
18.79167,155
18.80000,155
18.80833,155
18.81667,156
18.82500,157
18.83333,157
18.84167,158
18.85000,159
18.85833,160
18.86667,160
18.87500,161
18.88333,162
18.89167,163
18.90000,164
18.90833,164
18.91667,165
18.92500,166
18.93333,166
18.94167,167
18.95000,168
18.95833,169
18.96667,170
18.97500,170
18.98333,171
18.99167,171
19.00000,172
19.00833,172
19.01667,172
19.02500,172
19.03333,172
19.04167,171
19.05000,171
19.05833,170
19.06667,169
19.07500,168
19.08333,167
19.09167,166
19.10000,165
19.10833,164
19.11667,163
19.12500,162
19.13333,161
19.14167,160
19.15000,158
19.15833,157
19.16667,155
19.17500,154
19.18333,153
19.19167,151
19.20000,150
19.20833,148
19.21667,147
19.22500,146
19.23333,144
19.24167,143
19.25000,141
19.25833,139
19.26667,137
19.27500,136
19.28333,135
19.29167,134
19.30000,133
19.30833,132
19.31667,131
19.32500,130
19.33333,129
19.34167,128
19.35000,128
19.35833,127
19.36667,126
19.37500,125
19.38333,124
19.39167,123
19.40000,122
19.40833,121
19.41667,121
19.42500,120
19.43333,120
19.44167,120
19.45000,119
19.45833,119
19.46667,118
19.47500,117
19.48333,117
19.49167,116
19.50000,116
19.50833,115
19.51667,114
19.52500,113
19.53333,113
19.54167,113
19.55000,113
19.55833,113
19.56667,113
19.57500,112
19.58333,112
19.59167,112
19.60000,111
19.60833,111
19.61667,111
19.62500,111
19.63333,111
19.64167,110
19.65000,110
19.65833,110
19.66667,109
19.67500,109
19.68333,109
19.69167,109
19.70000,109
19.70833,108
19.71667,108
19.72500,108
19.73333,108
19.74167,107
19.75000,107
19.75833,106
19.76667,106
19.77500,106
19.78333,106
19.79167,105
19.80000,105
19.80833,105
19.81667,105
19.82500,105
19.83333,105
19.84167,105
19.85000,105
19.85833,105
19.86667,104
19.87500,104
19.88333,104
19.89167,104
19.90000,104
19.90833,104
19.91667,104
19.92500,104
19.93333,104
19.94167,103
19.95000,103
19.95833,103
19.96667,102
19.97500,102
19.98333,102
19.99167,102
20.00000,102
20.00833,102
20.01667,102
20.02500,101
20.03333,101
20.04167,101
20.05000,101
20.05833,101
20.06667,100
20.07500,100
20.08333,100
20.09167,100
20.10000,100
20.10833,100
20.11667,100
20.12500,100
20.13333,100
20.14167,100
20.15000,100
20.15833,100
20.16667,99
20.17500,99
20.18333,99
20.19167,98
20.20000,98
20.20833,98
20.21667,97
20.22500,97
20.23333,97
20.24167,97
20.25000,97
20.25833,97
20.26667,97
20.27500,97
20.28333,97
20.29167,97
20.30000,97
20.30833,97
20.31667,97
20.32500,97
20.33333,97
20.34167,96
20.35000,96
20.35833,96
20.36667,96
20.37500,96
20.38333,95
20.39167,95
20.40000,95
20.40833,95
20.41667,95
20.42500,94
20.43333,94
20.44167,94
20.45000,94
20.45833,94
20.46667,93
20.47500,93
20.48333,94
20.49167,94
20.50000,94
20.50833,94
20.51667,94
20.52500,93
20.53333,93
20.54167,93
20.55000,93
20.55833,93
20.56667,93
20.57500,93
20.58333,93
20.59167,93
20.60000,93
20.60833,93
20.61667,93
20.62500,92
20.63333,92
20.64167,92
20.65000,92
20.65833,91
20.66667,91
20.67500,91
20.68333,91
20.69167,91
20.70000,91
20.70833,91
20.71667,90
20.72500,90
20.73333,90
20.74167,90
20.75000,90
20.75833,90
20.76667,90
20.77500,90
20.78333,90
20.79167,89
20.80000,89
20.80833,89
20.81667,89
20.82500,89
20.83333,89
20.84167,89
20.85000,89
20.85833,89
20.86667,89
20.87500,89
20.88333,89
20.89167,89
20.90000,89
20.90833,89
20.91667,89
20.92500,88
20.93333,88
20.94167,88
20.95000,88
20.95833,88
20.96667,88
20.97500,88
20.98333,88
20.99167,88
21.00000,88
21.00833,88
21.01667,88
21.02500,88
21.03333,87
21.04167,87
21.05000,87
21.05833,87
21.06667,87
21.07500,87
21.08333,87
21.09167,87
21.10000,87
21.10833,87
21.11667,87
21.12500,86
21.13333,86
21.14167,86
21.15000,86
21.15833,86
21.16667,86
21.17500,86
21.18333,86
21.19167,86
21.20000,86
21.20833,86
21.21667,86
21.22500,86
21.23333,87
21.24167,87
21.25000,87
21.25833,87
21.26667,87
21.27500,87
21.28333,87
21.29167,88
21.30000,89
21.30833,89
21.31667,89
21.32500,90
21.33333,91
21.34167,92
21.35000,93
21.35833,95
21.36667,96
21.37500,98
21.38333,100
21.39167,102
21.40000,104
21.40833,107
21.41667,110
21.42500,114
21.43333,118
21.44167,123
21.45000,129
21.45833,135
21.46667,141
21.47500,149
21.48333,158
21.49167,168
21.50000,180
21.50833,193
21.51667,208
21.52500,225
21.53333,244
21.54167,266
21.55000,290
21.55833,317
21.56667,348
21.57500,382
21.58333,422
21.59167,467
21.60000,516
21.60833,573
21.61667,636
21.62500,706
21.63333,785
21.64167,873
21.65000,970
21.65833,1079
21.66667,1200
21.67500,1333
21.68333,1479
21.69167,1641
21.70000,1818
21.70833,2012
21.71667,2225
21.72500,2456
21.73333,2707
21.74167,2978
21.75000,3270
21.75833,3584
21.76667,3921
21.77500,4281
21.78333,4664
21.79167,5071
21.80000,5501
21.80833,5954
21.81667,6430
21.82500,6927
21.83333,7446
21.84167,7984
21.85000,8541
21.85833,9114
21.86667,9702
21.87500,10303
21.88333,10913
21.89167,11531
21.90000,12154
21.90833,12779
21.91667,13403
21.92500,14021
21.93333,14632
21.94167,15231
21.95000,15815
21.95833,16381
21.96667,16925
21.97500,17444
21.98333,17935
21.99167,18396
22.00000,18821
22.00833,19210
22.01667,19561
22.02500,19869
22.03333,20135
22.04167,20357
22.05000,20532
22.05833,20661
22.06667,20743
22.07500,20778
22.08333,20766
22.09167,20707
22.10000,20602
22.10833,20453
22.11667,20261
22.12500,20027
22.13333,19752
22.14167,19441
22.15000,19095
22.15833,18716
22.16667,18307
22.17500,17871
22.18333,17410
22.19167,16928
22.20000,16427
22.20833,15911
22.21667,15382
22.22500,14844
22.23333,14298
22.24167,13747
22.25000,13195
22.25833,12642
22.26667,12093
22.27500,11548
22.28333,11010
22.29167,10479
22.30000,9959
22.30833,9450
22.31667,8954
22.32500,8471
22.33333,8004
22.34167,7552
22.35000,7116
22.35833,6697
22.36667,6296
22.37500,5911
22.38333,5543
22.39167,5193
22.40000,4861
22.40833,4545
22.41667,4246
22.42500,3963
22.43333,3696
22.44167,3445
22.45000,3209
22.45833,2987
22.46667,2780
22.47500,2586
22.48333,2405
22.49167,2236
22.50000,2079
22.50833,1932
22.51667,1796
22.52500,1670
22.53333,1553
22.54167,1446
22.55000,1346
22.55833,1254
22.56667,1168
22.57500,1090
22.58333,1017
22.59167,950
22.60000,889
22.60833,833
22.61667,780
22.62500,733
22.63333,689
22.64167,649
22.65000,612
22.65833,578
22.66667,547
22.67500,519
22.68333,493
22.69167,469
22.70000,447
22.70833,426
22.71667,408
22.72500,391
22.73333,375
22.74167,361
22.75000,348
22.75833,336
22.76667,324
22.77500,314
22.78333,304
22.79167,295
22.80000,287
22.80833,279
22.81667,272
22.82500,265
22.83333,259
22.84167,253
22.85000,248
22.85833,244
22.86667,239
22.87500,235
22.88333,231
22.89167,227
22.90000,223
22.90833,220
22.91667,217
22.92500,214
22.93333,211
22.94167,208
22.95000,206
22.95833,203
22.96667,201
22.97500,199
22.98333,197
22.99167,195
23.00000,193
23.00833,191
23.01667,189
23.02500,187
23.03333,186
23.04167,184
23.05000,183
23.05833,182
23.06667,180
23.07500,179
23.08333,178
23.09167,177
23.10000,176
23.10833,175
23.11667,174
23.12500,173
23.13333,172
23.14167,171
23.15000,170
23.15833,168
23.16667,167
23.17500,166
23.18333,166
23.19167,165
23.20000,164
23.20833,163
23.21667,162
23.22500,161
23.23333,160
23.24167,159
23.25000,158
23.25833,157
23.26667,157
23.27500,156
23.28333,155
23.29167,154
23.30000,153
23.30833,153
23.31667,153
23.32500,152
23.33333,151
23.34167,150
23.35000,149
23.35833,149
23.36667,149
23.37500,148
23.38333,148
23.39167,147
23.40000,146
23.40833,145
23.41667,145
23.42500,144
23.43333,144
23.44167,144
23.45000,143
23.45833,143
23.46667,142
23.47500,141
23.48333,141
23.49167,140
23.50000,140
23.50833,139
23.51667,138
23.52500,137
23.53333,136
23.54167,136
23.55000,135
23.55833,134
23.56667,134
23.57500,134
23.58333,133
23.59167,133
23.60000,132
23.60833,132
23.61667,131
23.62500,131
23.63333,131
23.64167,130
23.65000,130
23.65833,130
23.66667,130
23.67500,129
23.68333,129
23.69167,129
23.70000,128
23.70833,128
23.71667,128
23.72500,127
23.73333,127
23.74167,126
23.75000,126
23.75833,126
23.76667,126
23.77500,126
23.78333,126
23.79167,125
23.80000,125
23.80833,124
23.81667,124
23.82500,124
23.83333,124
23.84167,124
23.85000,124
23.85833,123
23.86667,123
23.87500,123
23.88333,122
23.89167,122
23.90000,122
23.90833,122
23.91667,122
23.92500,121
23.93333,121
23.94167,121
23.95000,121
23.95833,120
23.96667,120
23.97500,120
23.98333,121
23.99167,121
24.00000,121
24.00833,120
24.01667,120
24.02500,120
24.03333,120
24.04167,119
24.05000,119
24.05833,119
24.06667,119
24.07500,119
24.08333,119
24.09167,119
24.10000,118
24.10833,118
24.11667,118
24.12500,118
24.13333,118
24.14167,118
24.15000,118
24.15833,117
24.16667,117
24.17500,117
24.18333,117
24.19167,117
24.20000,118
24.20833,118
24.21667,118
24.22500,118
24.23333,118
24.24167,117
24.25000,117
24.25833,118
24.26667,118
24.27500,118
24.28333,118
24.29167,118
24.30000,119
24.30833,119
24.31667,120
24.32500,121
24.33333,122
24.34167,123
24.35000,124
24.35833,125
24.36667,127
24.37500,129
24.38333,130
24.39167,132
24.40000,134
24.40833,137
24.41667,140
24.42500,143
24.43333,148
24.44167,152
24.45000,156
24.45833,162
24.46667,168
24.47500,175
24.48333,182
24.49167,190
24.50000,199
24.50833,209
24.51667,221
24.52500,234
24.53333,249
24.54167,265
24.55000,283
24.55833,303
24.56667,325
24.57500,349
24.58333,376
24.59167,405
24.60000,438
24.60833,473
24.61667,512
24.62500,555
24.63333,602
24.64167,653
24.65000,710
24.65833,771
24.66667,837
24.67500,909
24.68333,986
24.69167,1070
24.70000,1159
24.70833,1255
24.71667,1358
24.72500,1468
24.73333,1585
24.74167,1709
24.75000,1840
24.75833,1979
24.76667,2126
24.77500,2280
24.78333,2441
24.79167,2610
24.80000,2785
24.80833,2967
24.81667,3155
24.82500,3350
24.83333,3550
24.84167,3755
24.85000,3965
24.85833,4178
24.86667,4395
24.87500,4614
24.88333,4834
24.89167,5054
24.90000,5274
24.90833,5493
24.91667,5710
24.92500,5924
24.93333,6133
24.94167,6337
24.95000,6535
24.95833,6726
24.96667,6909
24.97500,7082
24.98333,7245
24.99167,7397
25.00000,7538
25.00833,7666
25.01667,7782
25.02500,7884
25.03333,7971
25.04167,8044
25.05000,8102
25.05833,8144
25.06667,8172
25.07500,8184
25.08333,8180
25.09167,8162
25.10000,8129
25.10833,8081
25.11667,8019
25.12500,7942
25.13333,7853
25.14167,7750
25.15000,7636
25.15833,7510
25.16667,7374
25.17500,7228
25.18333,7073
25.19167,6909
25.20000,6738
25.20833,6560
25.21667,6376
25.22500,6189
25.23333,5997
25.24167,5802
25.25000,5605
25.25833,5406
25.26667,5207
25.27500,5007
25.28333,4808
25.29167,4611
25.30000,4415
25.30833,4222
25.31667,4032
25.32500,3845
25.33333,3662
25.34167,3483
25.35000,3309
25.35833,3140
25.36667,2976
25.37500,2818
25.38333,2665
25.39167,2518
25.40000,2376
25.40833,2240
25.41667,2110
25.42500,1986
25.43333,1868
25.44167,1755
25.45000,1649
25.45833,1547
25.46667,1452
25.47500,1361
25.48333,1276
25.49167,1196
25.50000,1121
25.50833,1050
25.51667,984
25.52500,921
25.53333,862
25.54167,808
25.55000,757
25.55833,710
25.56667,665
25.57500,624
25.58333,586
25.59167,552
25.60000,520
25.60833,490
25.61667,462
25.62500,436
25.63333,412
25.64167,390
25.65000,369
25.65833,351
25.66667,334
25.67500,319
25.68333,305
25.69167,291
25.70000,279
25.70833,268
25.71667,258
25.72500,249
25.73333,240
25.74167,232
25.75000,225
25.75833,218
25.76667,212
25.77500,206
25.78333,201
25.79167,196
25.80000,191
25.80833,187
25.81667,183
25.82500,180
25.83333,177
25.84167,174
25.85000,171
25.85833,168
25.86667,165
25.87500,163
25.88333,162
25.89167,160
25.90000,158
25.90833,156
25.91667,155
25.92500,153
25.93333,152
25.94167,150
25.95000,149
25.95833,148
25.96667,147
25.97500,146
25.98333,145
25.99167,144
26.00000,143
26.00833,142
26.01667,142
26.02500,141
26.03333,140
26.04167,138
26.05000,137
26.05833,136
26.06667,136
26.07500,135
26.08333,134
26.09167,134
26.10000,134
26.10833,133
26.11667,133
26.12500,132
26.13333,132
26.14167,132
26.15000,132
26.15833,132
26.16667,131
26.17500,131
26.18333,130
26.19167,129
26.20000,129
26.20833,128
26.21667,128
26.22500,127
26.23333,127
26.24167,126
26.25000,126
26.25833,125
26.26667,125
26.27500,124
26.28333,124
26.29167,123
26.30000,123
26.30833,123
26.31667,123
26.32500,123
26.33333,123
26.34167,123
26.35000,122
26.35833,122
26.36667,122
26.37500,121
26.38333,121
26.39167,121
26.40000,121
26.40833,121
26.41667,121
26.42500,121
26.43333,121
26.44167,121
26.45000,120
26.45833,120
26.46667,120
26.47500,120
26.48333,120
26.49167,120
26.50000,120
26.50833,119
26.51667,119
26.52500,119
26.53333,119
26.54167,118
26.55000,118
26.55833,118
26.56667,118
26.57500,118
26.58333,118
26.59167,118
26.60000,119
26.60833,118
26.61667,118
26.62500,118
26.63333,118
26.64167,118
26.65000,118
26.65833,118
26.66667,118
26.67500,118
26.68333,118
26.69167,118
26.70000,118
26.70833,118
26.71667,118
26.72500,118
26.73333,118
26.74167,118
26.75000,117
26.75833,117
26.76667,117
26.77500,117
26.78333,117
26.79167,117
26.80000,117
26.80833,117
26.81667,117
26.82500,117
26.83333,117
26.84167,117
26.85000,117
26.85833,117
26.86667,116
26.87500,116
26.88333,116
26.89167,116
26.90000,116
26.90833,116
26.91667,115
26.92500,115
26.93333,114
26.94167,114
26.95000,114
26.95833,114
26.96667,114
26.97500,114
26.98333,113
26.99167,113
27.00000,113
27.00833,113
27.01667,113
27.02500,112
27.03333,112
27.04167,112
27.05000,112
27.05833,112
27.06667,112
27.07500,111
27.08333,111
27.09167,112
27.10000,112
27.10833,111
27.11667,111
27.12500,111
27.13333,111
27.14167,110
27.15000,110
27.15833,110
27.16667,110
27.17500,110
27.18333,110
27.19167,110
27.20000,109
27.20833,109
27.21667,109
27.22500,109
27.23333,109
27.24167,109
27.25000,108
27.25833,109
27.26667,109
27.27500,109
27.28333,109
27.29167,108
27.30000,108
27.30833,108
27.31667,109
27.32500,109
27.33333,109
27.34167,108
27.35000,108
27.35833,108
27.36667,107
27.37500,107
27.38333,108
27.39167,108
27.40000,108
27.40833,108
27.41667,108
27.42500,107
27.43333,107
27.44167,107
27.45000,107
27.45833,107
27.46667,106
27.47500,106
27.48333,107
27.49167,107
27.50000,107
27.50833,107
27.51667,107
27.52500,107
27.53333,107
27.54167,107
27.55000,107
27.55833,107
27.56667,107
27.57500,107
27.58333,106
27.59167,106
27.60000,106
27.60833,106
27.61667,106
27.62500,105
27.63333,105
27.64167,105
27.65000,105
27.65833,105
27.66667,105
27.67500,105
27.68333,105
27.69167,105
27.70000,105
27.70833,105
27.71667,105
27.72500,105
27.73333,105
27.74167,105
27.75000,105
27.75833,104
27.76667,104
27.77500,104
27.78333,103
27.79167,102
27.80000,102
27.80833,101
27.81667,101
27.82500,101
27.83333,100
27.84167,100
27.85000,99
27.85833,99
27.86667,98
27.87500,98
27.88333,97
27.89167,96
27.90000,95
27.90833,94
27.91667,92
27.92500,91
27.93333,90
27.94167,89
27.95000,88
27.95833,87
27.96667,85
27.97500,84
27.98333,82
27.99167,80
28.00000,78
28.00833,76
28.01667,74
28.02500,72
28.03333,70
28.04167,68
28.05000,66
28.05833,63
28.06667,61
28.07500,59
28.08333,56
28.09167,54
28.10000,51
28.10833,48
28.11667,46
28.12500,43
28.13333,40
28.14167,37
28.15000,33
28.15833,30
28.16667,27
28.17500,24
28.18333,20
28.19167,17
28.20000,14
28.20833,11
28.21667,8
28.22500,5
28.23333,1
28.24167,-2
28.25000,-5
28.25833,-8
28.26667,-11
28.27500,-14
28.28333,-17
28.29167,-20
28.30000,-22
28.30833,-25
28.31667,-28
28.32500,-31
28.33333,-33
28.34167,-35
28.35000,-37
28.35833,-39
28.36667,-40
28.37500,-41
28.38333,-43
28.39167,-44
28.40000,-44
28.40833,-45
28.41667,-46
28.42500,-47
28.43333,-47
28.44167,-48
28.45000,-48
28.45833,-48
28.46667,-48
28.47500,-47
28.48333,-46
28.49167,-45
28.50000,-44
28.50833,-43
28.51667,-41
28.52500,-40
28.53333,-39
28.54167,-37
28.55000,-35
28.55833,-33
28.56667,-32
28.57500,-29
28.58333,-27
28.59167,-25
28.60000,-22
28.60833,-20
28.61667,-17
28.62500,-15
28.63333,-13
28.64167,-10
28.65000,-7
28.65833,-4
28.66667,-2
28.67500,1
28.68333,4
28.69167,7
28.70000,10
28.70833,13
28.71667,15
28.72500,18
28.73333,20
28.74167,23
28.75000,26
28.75833,28
28.76667,31
28.77500,33
28.78333,36
28.79167,38
28.80000,41
28.80833,43
28.81667,46
28.82500,48
28.83333,50
28.84167,52
28.85000,54
28.85833,56
28.86667,57
28.87500,59
28.88333,61
28.89167,62
28.90000,64
28.90833,65
28.91667,67
28.92500,68
28.93333,69
28.94167,70
28.95000,72
28.95833,73
28.96667,75
28.97500,76
28.98333,77
28.99167,78
29.00000,79
29.00833,80
29.01667,81
29.02500,82
29.03333,82
29.04167,83
29.05000,84
29.05833,85
29.06667,85
29.07500,86
29.08333,86
29.09167,87
29.10000,87
29.10833,88
29.11667,88
29.12500,89
29.13333,89
29.14167,89
29.15000,89
29.15833,90
29.16667,90
29.17500,91
29.18333,91
29.19167,92
29.20000,92
29.20833,92
29.21667,93
29.22500,93
29.23333,93
29.24167,93
29.25000,93
29.25833,93
29.26667,94
29.27500,94
29.28333,94
29.29167,94
29.30000,94
29.30833,94
29.31667,94
29.32500,94
29.33333,94
29.34167,94
29.35000,94
29.35833,94
29.36667,94
29.37500,94
29.38333,94
29.39167,94
29.40000,94
29.40833,94
29.41667,94
29.42500,94
29.43333,94
29.44167,95
29.45000,95
29.45833,95
29.46667,95
29.47500,95
29.48333,95
29.49167,95
29.50000,94
29.50833,94
29.51667,94
29.52500,94
29.53333,94
29.54167,94
29.55000,94
29.55833,94
29.56667,94
29.57500,94
29.58333,93
29.59167,93
29.60000,92
29.60833,92
29.61667,91
29.62500,91
29.63333,90
29.64167,90
29.65000,90
29.65833,89
29.66667,89
29.67500,88
29.68333,88
29.69167,87
29.70000,86
29.70833,86
29.71667,85
29.72500,84
29.73333,84
29.74167,83
29.75000,82
29.75833,82
29.76667,82
29.77500,81
29.78333,80
29.79167,79
29.80000,78
29.80833,78
29.81667,77
29.82500,76
29.83333,75
29.84167,74
29.85000,73
29.85833,72
29.86667,71
29.87500,70
29.88333,69
29.89167,68
29.90000,67
29.90833,66
29.91667,65
29.92500,63
29.93333,62
29.94167,61
29.95000,60
29.95833,59
29.96667,58
29.97500,58
29.98333,57
29.99167,55
30.00000,54
30.00833,53
30.01667,52
30.02500,51
30.03333,50
30.04167,50
30.05000,49
30.05833,48
30.06667,47
30.07500,46
30.08333,46
30.09167,45
30.10000,45
30.10833,44
30.11667,44
30.12500,43
30.13333,43
30.14167,42
30.15000,42
30.15833,42
30.16667,41
30.17500,41
30.18333,41
30.19167,42
30.20000,42
30.20833,43
30.21667,43
30.22500,43
30.23333,43
30.24167,43
30.25000,43
30.25833,44
30.26667,44
30.27500,45
30.28333,45
30.29167,46
30.30000,46
30.30833,47
30.31667,47
30.32500,48
30.33333,49
30.34167,49
30.35000,50
30.35833,51
30.36667,51
30.37500,52
30.38333,53
30.39167,54
30.40000,55
30.40833,55
30.41667,56
30.42500,57
30.43333,58
30.44167,59
30.45000,60
30.45833,61
30.46667,62
30.47500,63
30.48333,65
30.49167,66
30.50000,67
30.50833,68
30.51667,69
30.52500,70
30.53333,71
30.54167,72
30.55000,72
30.55833,73
30.56667,74
30.57500,75
30.58333,76
30.59167,77
30.60000,77
30.60833,78
30.61667,79
30.62500,80
30.63333,80
30.64167,81
30.65000,81
30.65833,81
30.66667,82
30.67500,83
30.68333,84
30.69167,84
30.70000,84
30.70833,84
30.71667,85
30.72500,85
30.73333,85
30.74167,85
30.75000,86
30.75833,87
30.76667,87
30.77500,88
30.78333,88
30.79167,88
30.80000,89
30.80833,89
30.81667,89
30.82500,89
30.83333,89
30.84167,89
30.85000,89
30.85833,89
30.86667,89
30.87500,89
30.88333,90
30.89167,90
30.90000,90
30.90833,90
30.91667,90
30.92500,90
30.93333,90
30.94167,91
30.95000,91
30.95833,91
30.96667,91
30.97500,91
30.98333,91
30.99167,92
31.00000,92
31.00833,92
31.01667,92
31.02500,92
31.03333,92
31.04167,92
31.05000,93
31.05833,93
31.06667,93
31.07500,93
31.08333,93
31.09167,93
31.10000,93
31.10833,93
31.11667,93
31.12500,93
31.13333,93
31.14167,94
31.15000,94
31.15833,94
31.16667,94
31.17500,94
31.18333,94
31.19167,93
31.20000,93
31.20833,93
31.21667,94
31.22500,94
31.23333,94
31.24167,94
31.25000,94
31.25833,95
31.26667,96
31.27500,96
31.28333,96
31.29167,96
31.30000,96
31.30833,97
31.31667,97
31.32500,97
31.33333,96
31.34167,96
31.35000,96
31.35833,96
31.36667,96
31.37500,97
31.38333,97
31.39167,97
31.40000,97
31.40833,97
31.41667,98
31.42500,98
31.43333,98
31.44167,98
31.45000,97
31.45833,97
31.46667,97
31.47500,98
31.48333,98
31.49167,98
31.50000,99
31.50833,99
31.51667,99
31.52500,99
31.53333,98
31.54167,98
31.55000,98
31.55833,98
31.56667,98
31.57500,97
31.58333,97
31.59167,98
31.60000,98
31.60833,98
31.61667,98
31.62500,98
31.63333,98
31.64167,98
31.65000,99
31.65833,99
31.66667,99
31.67500,99
31.68333,99
31.69167,99
31.70000,99
31.70833,99
31.71667,99
31.72500,99
31.73333,99
31.74167,99
31.75000,100
31.75833,100
31.76667,100
31.77500,100
31.78333,100
31.79167,100
31.80000,100
31.80833,100
31.81667,100
31.82500,100
31.83333,100
31.84167,100
31.85000,100
31.85833,100
31.86667,100
31.87500,100
31.88333,101
31.89167,100
31.90000,100
31.90833,100
31.91667,100
31.92500,100
31.93333,100
31.94167,100
31.95000,100
31.95833,100
31.96667,100
31.97500,100
31.98333,100
31.99167,100
32.00000,100
32.00833,100
32.01667,100
32.02500,100
32.03333,100
32.04167,100
32.05000,100
32.05833,100
32.06667,100
32.07500,100
32.08333,99
32.09167,99
32.10000,99
32.10833,100
32.11667,100
32.12500,100
32.13333,100
32.14167,100
32.15000,100
32.15833,100
32.16667,100
32.17500,101
32.18333,101
32.19167,101
32.20000,101
32.20833,101
32.21667,101
32.22500,101
32.23333,101
32.24167,100
32.25000,100
32.25833,100
32.26667,99
32.27500,99
32.28333,99
32.29167,99
32.30000,99
32.30833,99
32.31667,99
32.32500,99
32.33333,100
32.34167,100
32.35000,100
32.35833,100
32.36667,100
32.37500,100
32.38333,100
32.39167,100
32.40000,100
32.40833,101
32.41667,101
32.42500,101
32.43333,101
32.44167,101
32.45000,101
32.45833,101
32.46667,101
32.47500,100
32.48333,100
32.49167,101
32.50000,100
32.50833,100
32.51667,100
32.52500,100
32.53333,100
32.54167,100
32.55000,101
32.55833,101
32.56667,101
32.57500,100
32.58333,100
32.59167,101
32.60000,101
32.60833,101
32.61667,101
32.62500,100
32.63333,101
32.64167,101
32.65000,101
32.65833,101
32.66667,101
32.67500,101
32.68333,101
32.69167,101
32.70000,102
32.70833,102
32.71667,102
32.72500,102
32.73333,102
32.74167,102
32.75000,102
32.75833,102
32.76667,101
32.77500,101
32.78333,101
32.79167,101
32.80000,101
32.80833,102
32.81667,102
32.82500,102
32.83333,102
32.84167,102
32.85000,101
32.85833,101
32.86667,101
32.87500,101
32.88333,101
32.89167,101
32.90000,101
32.90833,102
32.91667,102
32.92500,102
32.93333,102
32.94167,103
32.95000,103
32.95833,102
32.96667,102
32.97500,102
32.98333,102
32.99167,102
33.00000,102
33.00833,102
33.01667,102
33.02500,102
33.03333,102
33.04167,102
33.05000,102
33.05833,102
33.06667,102
33.07500,102
33.08333,102
33.09167,101
33.10000,102
33.10833,102
33.11667,103
33.12500,103
33.13333,103
33.14167,103
33.15000,103
33.15833,103
33.16667,103
33.17500,103
33.18333,103
33.19167,103
33.20000,103
33.20833,103
33.21667,103
33.22500,103
33.23333,103
33.24167,103
33.25000,103
33.25833,103
33.26667,102
33.27500,102
33.28333,102
33.29167,102
33.30000,102
33.30833,102
33.31667,102
33.32500,102
33.33333,103
33.34167,103
33.35000,103
33.35833,103
33.36667,103
33.37500,103
33.38333,103
33.39167,103
33.40000,103
33.40833,103
33.41667,103
33.42500,103
33.43333,103
33.44167,103
33.45000,103
33.45833,103
33.46667,102
33.47500,102
33.48333,103
33.49167,103
33.50000,102
33.50833,102
33.51667,102
33.52500,102
33.53333,102
33.54167,102
33.55000,103
33.55833,103
33.56667,103
33.57500,103
33.58333,102
33.59167,102
33.60000,102
33.60833,102
33.61667,102
33.62500,102
33.63333,102
33.64167,102
33.65000,102
33.65833,103
33.66667,103
33.67500,103
33.68333,104
33.69167,104
33.70000,104
33.70833,104
33.71667,104
33.72500,104
33.73333,104
33.74167,103
33.75000,103
33.75833,103
33.76667,103
33.77500,103
33.78333,103
33.79167,103
33.80000,103
33.80833,103
33.81667,103
33.82500,103
33.83333,103
33.84167,103
33.85000,103
33.85833,103
33.86667,103
33.87500,103
33.88333,103
33.89167,103
33.90000,103
33.90833,103
33.91667,103
33.92500,103
33.93333,103
33.94167,103
33.95000,103
33.95833,103
33.96667,103
33.97500,103
33.98333,103
33.99167,103
34.00000,103
34.00833,104
34.01667,104
34.02500,104
34.03333,104
34.04167,104
34.05000,104
34.05833,104
34.06667,104
34.07500,104
34.08333,103
34.09167,103
34.10000,103
34.10833,103
34.11667,103
34.12500,104
34.13333,104
34.14167,104
34.15000,104
34.15833,104
34.16667,104
34.17500,105
34.18333,105
34.19167,104
34.20000,104
34.20833,104
34.21667,104
34.22500,104
34.23333,104
34.24167,104
34.25000,104
34.25833,104
34.26667,105
34.27500,105
34.28333,105
34.29167,105
34.30000,105
34.30833,104
34.31667,104
34.32500,104
34.33333,104
34.34167,104
34.35000,104
34.35833,105
34.36667,105
34.37500,105
34.38333,105
34.39167,105
34.40000,105
34.40833,105
34.41667,105
34.42500,104
34.43333,104
34.44167,104
34.45000,105
34.45833,105
34.46667,105
34.47500,105
34.48333,105
34.49167,105
34.50000,105
34.50833,105
34.51667,105
34.52500,105
34.53333,105
34.54167,105
34.55000,105
34.55833,105
34.56667,105
34.57500,105
34.58333,105
34.59167,105
34.60000,105
34.60833,104
34.61667,105
34.62500,105
34.63333,105
34.64167,105
34.65000,105
34.65833,105
34.66667,105
34.67500,105
34.68333,105
34.69167,105
34.70000,105
34.70833,105
34.71667,105
34.72500,105
34.73333,106
34.74167,106
34.75000,106
34.75833,106
34.76667,106
34.77500,105
34.78333,105
34.79167,105
34.80000,105
34.80833,105
34.81667,105
34.82500,105
34.83333,105
34.84167,105
34.85000,105
34.85833,105
34.86667,105
34.87500,105
34.88333,105
34.89167,105
34.90000,105
34.90833,105
34.91667,105
34.92500,105
34.93333,105
34.94167,105
34.95000,105
34.95833,105
34.96667,105
34.97500,105
34.98333,105
34.99167,105
35.00000,105
35.00833,105
35.01667,105
35.02500,106
35.03333,106
35.04167,106
35.05000,106
35.05833,106
35.06667,106
35.07500,106
35.08333,106
35.09167,106
35.10000,106
35.10833,106
35.11667,106
35.12500,106
35.13333,106
35.14167,107
35.15000,107
35.15833,107
35.16667,107
35.17500,107
35.18333,107
35.19167,107
35.20000,107
35.20833,107
35.21667,107
35.22500,107
35.23333,107
35.24167,107
35.25000,107
35.25833,107
35.26667,107
35.27500,107
35.28333,107
35.29167,107
35.30000,107
35.30833,107
35.31667,107
35.32500,106
35.33333,106
35.34167,107
35.35000,107
35.35833,106
35.36667,106
35.37500,106
35.38333,107
35.39167,107
35.40000,107
35.40833,107
35.41667,107
35.42500,107
35.43333,107
35.44167,107
35.45000,107
35.45833,107
35.46667,107
35.47500,107
35.48333,108
35.49167,108
35.50000,108
35.50833,107
35.51667,107
35.52500,107
35.53333,107
35.54167,107
35.55000,108
35.55833,108
35.56667,108
35.57500,108
35.58333,108
35.59167,108
35.60000,108
35.60833,108
35.61667,108
35.62500,108
35.63333,108
35.64167,108
35.65000,108
35.65833,108
35.66667,108
35.67500,108
35.68333,108
35.69167,108
35.70000,108
35.70833,108
35.71667,108
35.72500,108
35.73333,107
35.74167,107
35.75000,107
35.75833,108
35.76667,108
35.77500,108
35.78333,108
35.79167,108
35.80000,108
35.80833,108
35.81667,107
35.82500,107
35.83333,108
35.84167,108
35.85000,108
35.85833,108
35.86667,108
35.87500,108
35.88333,108
35.89167,109
35.90000,109
35.90833,109
35.91667,109
35.92500,109
35.93333,109
35.94167,109
35.95000,109
35.95833,109
35.96667,109
35.97500,109
35.98333,109
35.99167,108
36.00000,108
36.00833,108
36.01667,109
36.02500,109
36.03333,109
36.04167,109
36.05000,108
36.05833,108
36.06667,108
36.07500,108
36.08333,108
36.09167,108
36.10000,107
36.10833,107
36.11667,107
36.12500,107
36.13333,107
36.14167,107
36.15000,107
36.15833,107
36.16667,107
36.17500,107
36.18333,107
36.19167,107
36.20000,107
36.20833,107
36.21667,107
36.22500,107
36.23333,107
36.24167,107
36.25000,107
36.25833,107
36.26667,107
36.27500,107
36.28333,107
36.29167,107
36.30000,108
36.30833,108
36.31667,108
36.32500,108
36.33333,108
36.34167,108
36.35000,108
36.35833,108
36.36667,108
36.37500,108
36.38333,108
36.39167,108
36.40000,107
36.40833,108
36.41667,108
36.42500,108
36.43333,109
36.44167,109
36.45000,109
36.45833,109
36.46667,109
36.47500,109
36.48333,109
36.49167,109
36.50000,109
36.50833,109
36.51667,109
36.52500,108
36.53333,109
36.54167,109
36.55000,109
36.55833,109
36.56667,109
36.57500,109
36.58333,109
36.59167,109
36.60000,109
36.60833,109
36.61667,109
36.62500,109
36.63333,109
36.64167,109
36.65000,109
36.65833,109
36.66667,109
36.67500,109
36.68333,109
36.69167,109
36.70000,109
36.70833,109
36.71667,109
36.72500,108
36.73333,108
36.74167,109
36.75000,109
36.75833,109
36.76667,109
36.77500,109
36.78333,110
36.79167,109
36.80000,109
36.80833,109
36.81667,109
36.82500,110
36.83333,110
36.84167,111
36.85000,111
36.85833,111
36.86667,111
36.87500,111
36.88333,111
36.89167,111
36.90000,110
36.90833,110
36.91667,110
36.92500,110
36.93333,110
36.94167,110
36.95000,110
36.95833,111
36.96667,111
36.97500,110
36.98333,110
36.99167,110
37.00000,110
37.00833,110
37.01667,110
37.02500,110
37.03333,110
37.04167,110
37.05000,110
37.05833,110
37.06667,110
37.07500,110
37.08333,110
37.09167,110
37.10000,110
37.10833,111
37.11667,111
37.12500,111
37.13333,111
37.14167,111
37.15000,111
37.15833,111
37.16667,110
37.17500,110
37.18333,110
37.19167,110
37.20000,110
37.20833,110
37.21667,110
37.22500,110
37.23333,110
37.24167,110
37.25000,110
37.25833,110
37.26667,110
37.27500,111
37.28333,111
37.29167,111
37.30000,111
37.30833,111
37.31667,111
37.32500,111
37.33333,111
37.34167,111
37.35000,111
37.35833,111
37.36667,111
37.37500,111
37.38333,111
37.39167,111
37.40000,111
37.40833,111
37.41667,111
37.42500,111
37.43333,111
37.44167,111
37.45000,111
37.45833,112
37.46667,111
37.47500,111
37.48333,111
37.49167,111
37.50000,112
37.50833,112
37.51667,112
37.52500,111
37.53333,111
37.54167,111
37.55000,111
37.55833,111
37.56667,111
37.57500,111
37.58333,111
37.59167,111
37.60000,111
37.60833,111
37.61667,111
37.62500,111
37.63333,111
37.64167,111
37.65000,111
37.65833,111
37.66667,111
37.67500,111
37.68333,111
37.69167,111
37.70000,111
37.70833,111
37.71667,111
37.72500,111
37.73333,111
37.74167,111
37.75000,112
37.75833,112
37.76667,112
37.77500,112
37.78333,112
37.79167,112
37.80000,112
37.80833,112
37.81667,112
37.82500,112
37.83333,112
37.84167,112
37.85000,112
37.85833,112
37.86667,112
37.87500,112
37.88333,112
37.89167,112
37.90000,112
37.90833,112
37.91667,112
37.92500,112
37.93333,112
37.94167,112
37.95000,112
37.95833,112
37.96667,112
37.97500,112
37.98333,112
37.99167,112
38.00000,113
38.00833,113
38.01667,113
38.02500,113
38.03333,114
38.04167,113
38.05000,113
38.05833,113
38.06667,113
38.07500,113
38.08333,113
38.09167,113
38.10000,113
38.10833,112
38.11667,112
38.12500,112
38.13333,112
38.14167,112
38.15000,112
38.15833,113
38.16667,113
38.17500,113
38.18333,113
38.19167,113
38.20000,113
38.20833,113
38.21667,113
38.22500,113
38.23333,113
38.24167,113
38.25000,112
38.25833,112
38.26667,113
38.27500,113
38.28333,113
38.29167,113
38.30000,113
38.30833,113
38.31667,113
38.32500,113
38.33333,113
38.34167,113
38.35000,113
38.35833,113
38.36667,113
38.37500,113
38.38333,113
38.39167,114
38.40000,114
38.40833,114
38.41667,114
38.42500,114
38.43333,114
38.44167,114
38.45000,113
38.45833,113
38.46667,113
38.47500,113
38.48333,113
38.49167,113
38.50000,114
38.50833,113
38.51667,113
38.52500,113
38.53333,113
38.54167,113
38.55000,113
38.55833,113
38.56667,113
38.57500,113
38.58333,113
38.59167,114
38.60000,114
38.60833,114
38.61667,114
38.62500,114
38.63333,114
38.64167,114
38.65000,114
38.65833,114
38.66667,114
38.67500,114
38.68333,114
38.69167,114
38.70000,114
38.70833,114
38.71667,114
38.72500,114
38.73333,114
38.74167,114
38.75000,114
38.75833,114
38.76667,114
38.77500,114
38.78333,114
38.79167,114
38.80000,114
38.80833,114
38.81667,114
38.82500,114
38.83333,114
38.84167,114
38.85000,114
38.85833,114
38.86667,114
38.87500,114
38.88333,114
38.89167,113
38.90000,113
38.90833,113
38.91667,113
38.92500,114
38.93333,114
38.94167,114
38.95000,114
38.95833,114
38.96667,114
38.97500,114
38.98333,114
38.99167,114
39.00000,114
39.00833,114
39.01667,114
39.02500,114
39.03333,114
39.04167,114
39.05000,114
39.05833,113
39.06667,113
39.07500,113
39.08333,113
39.09167,113
39.10000,113
39.10833,113
39.11667,114
39.12500,114
39.13333,114
39.14167,114
39.15000,114
39.15833,114
39.16667,115
39.17500,115
39.18333,115
39.19167,115
39.20000,115
39.20833,115
39.21667,114
39.22500,114
39.23333,114
39.24167,114
39.25000,114
39.25833,114
39.26667,114
39.27500,114
39.28333,114
39.29167,114
39.30000,114
39.30833,114
39.31667,115
39.32500,115
39.33333,115
39.34167,115
39.35000,115
39.35833,116
39.36667,116
39.37500,115
39.38333,115
39.39167,115
39.40000,115
39.40833,115
39.41667,115
39.42500,115
39.43333,114
39.44167,114
39.45000,115
39.45833,115
39.46667,115
39.47500,115
39.48333,115
39.49167,115
39.50000,116
39.50833,116
39.51667,116
39.52500,116
39.53333,116
39.54167,115
39.55000,115
39.55833,115
39.56667,115
39.57500,115
39.58333,115
39.59167,115
39.60000,115
39.60833,115
39.61667,116
39.62500,116
39.63333,116
39.64167,116
39.65000,115
39.65833,116
39.66667,116
39.67500,116
39.68333,116
39.69167,116
39.70000,116
39.70833,116
39.71667,116
39.72500,116
39.73333,116
39.74167,116
39.75000,116
39.75833,116
39.76667,116
39.77500,116
39.78333,116
39.79167,116
39.80000,117
39.80833,117
39.81667,117
39.82500,117
39.83333,116
39.84167,116
39.85000,116
39.85833,116
39.86667,116
39.87500,116
39.88333,116
39.89167,116
39.90000,116
39.90833,116
39.91667,116
39.92500,116
39.93333,116
39.94167,116
39.95000,116
39.95833,116
39.96667,116
39.97500,116
39.98333,116
39.99167,116
40.00000,116

