[Header]
Application Name,LabSolutions
Version,5.97 SP1
Data File Name,C:\Users\cremerlab\Desktop\griffin\2021-04-03_buffer_calibration\2021-04-03_buffer_calibration_432021_012_025.lcd
Output Date,4/4/2021
Output Time,7:31:40 AM

[File Information]
Type,Data File
Generated,4/4/2021 6:51:21 AM
Generated by,System Administrator
Modified,4/4/2021 7:31:40 AM
Modified by,System Administrator

[Sample Information]
Operator Name,System Administrator
Acquired,4/4/2021 6:51:40 AM
Sample Type,1:Standard
Level,3
Sample Name,2021-04-02_DM_glucose_glycerol_acetate_calibration_0.1mM
Sample ID,012
ISTD Amount1,1
ISTD Amount2,1
ISTD Amount3,1
ISTD Amount4,1
ISTD Amount5,1
ISTD Amount6,1
ISTD Amount7,1
ISTD Amount8,1
ISTD Amount9,1
ISTD Amount10,1
ISTD Amount11,1
ISTD Amount12,1
ISTD Amount13,1
ISTD Amount14,1
ISTD Amount15,1
ISTD Amount16,1
ISTD Amount17,1
ISTD Amount18,1
ISTD Amount19,1
ISTD Amount20,1
ISTD Amount21,1
ISTD Amount22,1
ISTD Amount23,1
ISTD Amount24,1
ISTD Amount25,1
ISTD Amount26,1
ISTD Amount27,1
ISTD Amount28,1
ISTD Amount29,1
ISTD Amount30,1
ISTD Amount31,1
ISTD Amount32,1
Sample Amount,1
Dilution Factor,1
Vial#,30
Injection Volume,20

[Original Files]
Data File,C:\Users\cremerlab\Desktop\griffin\2021-04-03_buffer_calibration\2021-04-03_buffer_calibration_432021_012_025.lcd
Method File,C:\LabSolutions\Data\Project1\organicacidsetc2.lcm
Batch File,C:\Users\cremerlab\Desktop\griffin\2021-04-03_buffer_calibration\2021-04-03_buffer_calibration.lcb
Report Format File,c:\LabSolutions\System\DEFAULT.lsr

[File Description]


[Configuration]
Instrument Name,HPLC-PC-Instrument1
Instrument #,1
Line #,1
# of Detectors,2
Detector ID,Detector A,Detector B
Detector Name,Detector A,Detector B
# of Channels,1,1

[Peak Table(Detector A)]
# of Peaks,0

[Peak Table(Detector B)]
# of Peaks,5
Peak#,R.Time,I.Time,F.Time,Area,Height,A/H,Conc.,Mark,ID#,Name,k',Plate #,Plate Ht.,Tailing,Resolution,Sep.Factor,Area Ratio,Height Ratio,Conc. %,Norm Conc.
1,10.748,10.550,10.975,42399,2877,14.739,0.000,   ,,,0.000,12585,11.919,1.040,0.000,0.000,0,0,0.000,0.000
2,11.342,11.017,11.467,42172,1522,27.716,0.000,   ,,,0.055,11167,13.432,0.691,1.460,0.000,0,0,0.000,0.000
3,14.925,14.108,16.708,1525963,60862,25.072,0.000,S  ,,,0.389,7551,19.865,0.829,6.420,7.039,0,0,0.000,0.000
4,15.626,15.517,15.992,2274,131,17.422,0.000,T  ,,,0.454,24396,6.149,2.032,1.290,1.168,0,0,0.000,0.000
5,22.090,21.733,22.600,2460,102,24.177,0.000,   ,,,1.055,17970,8.347,1.157,12.203,2.325,0,0,0.000,0.000

[LC Chromatogram(Detector B-Ch1)]
Interval(msec),500
# of Points,4801
Start Time(min),0.000
End Time(min),40.000
Intensity Units,mV
Intensity Multiplier,0.001
R.Time (min),Intensity
0.00000,-1
0.00833,-1
0.01667,-0
0.02500,-0
0.03333,-0
0.04167,-1
0.05000,-1
0.05833,-1
0.06667,-1
0.07500,-1
0.08333,-0
0.09167,-0
0.10000,0
0.10833,0
0.11667,1
0.12500,1
0.13333,1
0.14167,2
0.15000,2
0.15833,2
0.16667,1
0.17500,1
0.18333,1
0.19167,1
0.20000,1
0.20833,1
0.21667,1
0.22500,1
0.23333,0
0.24167,0
0.25000,0
0.25833,0
0.26667,0
0.27500,1
0.28333,1
0.29167,1
0.30000,1
0.30833,1
0.31667,1
0.32500,1
0.33333,0
0.34167,0
0.35000,0
0.35833,0
0.36667,1
0.37500,1
0.38333,1
0.39167,1
0.40000,1
0.40833,1
0.41667,1
0.42500,1
0.43333,2
0.44167,2
0.45000,2
0.45833,2
0.46667,2
0.47500,2
0.48333,2
0.49167,2
0.50000,2
0.50833,2
0.51667,1
0.52500,1
0.53333,1
0.54167,1
0.55000,2
0.55833,2
0.56667,2
0.57500,2
0.58333,2
0.59167,1
0.60000,1
0.60833,2
0.61667,2
0.62500,2
0.63333,2
0.64167,2
0.65000,2
0.65833,1
0.66667,1
0.67500,1
0.68333,1
0.69167,1
0.70000,1
0.70833,1
0.71667,1
0.72500,1
0.73333,1
0.74167,1
0.75000,1
0.75833,1
0.76667,1
0.77500,1
0.78333,1
0.79167,1
0.80000,1
0.80833,1
0.81667,1
0.82500,1
0.83333,1
0.84167,1
0.85000,1
0.85833,1
0.86667,2
0.87500,2
0.88333,2
0.89167,2
0.90000,2
0.90833,2
0.91667,2
0.92500,2
0.93333,2
0.94167,2
0.95000,2
0.95833,2
0.96667,1
0.97500,1
0.98333,1
0.99167,1
1.00000,1
1.00833,1
1.01667,2
1.02500,2
1.03333,2
1.04167,2
1.05000,2
1.05833,2
1.06667,2
1.07500,2
1.08333,2
1.09167,2
1.10000,2
1.10833,2
1.11667,2
1.12500,3
1.13333,3
1.14167,3
1.15000,3
1.15833,3
1.16667,3
1.17500,3
1.18333,4
1.19167,3
1.20000,3
1.20833,3
1.21667,3
1.22500,2
1.23333,2
1.24167,2
1.25000,2
1.25833,2
1.26667,2
1.27500,2
1.28333,3
1.29167,3
1.30000,3
1.30833,3
1.31667,4
1.32500,3
1.33333,3
1.34167,3
1.35000,3
1.35833,4
1.36667,4
1.37500,4
1.38333,4
1.39167,4
1.40000,4
1.40833,4
1.41667,4
1.42500,4
1.43333,4
1.44167,4
1.45000,4
1.45833,3
1.46667,3
1.47500,3
1.48333,3
1.49167,3
1.50000,3
1.50833,3
1.51667,3
1.52500,3
1.53333,2
1.54167,2
1.55000,2
1.55833,2
1.56667,2
1.57500,3
1.58333,3
1.59167,3
1.60000,2
1.60833,2
1.61667,2
1.62500,2
1.63333,3
1.64167,3
1.65000,3
1.65833,3
1.66667,3
1.67500,3
1.68333,3
1.69167,3
1.70000,3
1.70833,4
1.71667,4
1.72500,4
1.73333,4
1.74167,4
1.75000,3
1.75833,3
1.76667,4
1.77500,4
1.78333,4
1.79167,4
1.80000,4
1.80833,4
1.81667,4
1.82500,4
1.83333,3
1.84167,3
1.85000,3
1.85833,3
1.86667,3
1.87500,3
1.88333,4
1.89167,4
1.90000,4
1.90833,4
1.91667,4
1.92500,3
1.93333,3
1.94167,3
1.95000,3
1.95833,3
1.96667,3
1.97500,3
1.98333,3
1.99167,3
2.00000,3
2.00833,3
2.01667,4
2.02500,4
2.03333,4
2.04167,4
2.05000,4
2.05833,4
2.06667,4
2.07500,4
2.08333,4
2.09167,4
2.10000,4
2.10833,4
2.11667,4
2.12500,4
2.13333,4
2.14167,4
2.15000,4
2.15833,4
2.16667,4
2.17500,4
2.18333,4
2.19167,4
2.20000,5
2.20833,5
2.21667,5
2.22500,4
2.23333,4
2.24167,4
2.25000,4
2.25833,4
2.26667,4
2.27500,4
2.28333,4
2.29167,4
2.30000,4
2.30833,4
2.31667,4
2.32500,4
2.33333,4
2.34167,4
2.35000,4
2.35833,4
2.36667,4
2.37500,4
2.38333,4
2.39167,4
2.40000,4
2.40833,4
2.41667,4
2.42500,5
2.43333,5
2.44167,5
2.45000,5
2.45833,5
2.46667,5
2.47500,5
2.48333,5
2.49167,5
2.50000,5
2.50833,5
2.51667,5
2.52500,5
2.53333,4
2.54167,4
2.55000,4
2.55833,4
2.56667,4
2.57500,4
2.58333,4
2.59167,4
2.60000,5
2.60833,5
2.61667,5
2.62500,5
2.63333,5
2.64167,5
2.65000,4
2.65833,4
2.66667,4
2.67500,5
2.68333,4
2.69167,4
2.70000,4
2.70833,5
2.71667,5
2.72500,5
2.73333,5
2.74167,5
2.75000,5
2.75833,5
2.76667,5
2.77500,5
2.78333,5
2.79167,5
2.80000,5
2.80833,5
2.81667,4
2.82500,4
2.83333,4
2.84167,4
2.85000,4
2.85833,4
2.86667,4
2.87500,4
2.88333,5
2.89167,5
2.90000,5
2.90833,5
2.91667,5
2.92500,5
2.93333,5
2.94167,5
2.95000,5
2.95833,5
2.96667,6
2.97500,6
2.98333,6
2.99167,6
3.00000,5
3.00833,5
3.01667,5
3.02500,5
3.03333,4
3.04167,4
3.05000,4
3.05833,4
3.06667,4
3.07500,5
3.08333,5
3.09167,4
3.10000,4
3.10833,5
3.11667,5
3.12500,5
3.13333,5
3.14167,4
3.15000,4
3.15833,4
3.16667,4
3.17500,4
3.18333,4
3.19167,4
3.20000,4
3.20833,4
3.21667,4
3.22500,5
3.23333,5
3.24167,5
3.25000,5
3.25833,5
3.26667,5
3.27500,5
3.28333,5
3.29167,5
3.30000,5
3.30833,5
3.31667,5
3.32500,5
3.33333,5
3.34167,4
3.35000,4
3.35833,4
3.36667,4
3.37500,4
3.38333,5
3.39167,5
3.40000,5
3.40833,5
3.41667,6
3.42500,6
3.43333,6
3.44167,6
3.45000,5
3.45833,5
3.46667,5
3.47500,5
3.48333,5
3.49167,5
3.50000,5
3.50833,5
3.51667,5
3.52500,5
3.53333,5
3.54167,5
3.55000,5
3.55833,5
3.56667,5
3.57500,5
3.58333,5
3.59167,5
3.60000,5
3.60833,5
3.61667,5
3.62500,5
3.63333,5
3.64167,5
3.65000,5
3.65833,5
3.66667,5
3.67500,5
3.68333,5
3.69167,5
3.70000,5
3.70833,5
3.71667,5
3.72500,5
3.73333,5
3.74167,4
3.75000,4
3.75833,4
3.76667,4
3.77500,4
3.78333,4
3.79167,4
3.80000,4
3.80833,4
3.81667,4
3.82500,4
3.83333,5
3.84167,5
3.85000,5
3.85833,5
3.86667,5
3.87500,5
3.88333,5
3.89167,5
3.90000,5
3.90833,5
3.91667,5
3.92500,5
3.93333,6
3.94167,6
3.95000,6
3.95833,6
3.96667,5
3.97500,5
3.98333,5
3.99167,5
4.00000,6
4.00833,6
4.01667,6
4.02500,5
4.03333,5
4.04167,5
4.05000,5
4.05833,5
4.06667,5
4.07500,5
4.08333,6
4.09167,6
4.10000,6
4.10833,6
4.11667,5
4.12500,5
4.13333,5
4.14167,4
4.15000,4
4.15833,4
4.16667,4
4.17500,5
4.18333,5
4.19167,5
4.20000,4
4.20833,4
4.21667,5
4.22500,5
4.23333,5
4.24167,5
4.25000,6
4.25833,6
4.26667,6
4.27500,6
4.28333,6
4.29167,6
4.30000,6
4.30833,6
4.31667,6
4.32500,6
4.33333,6
4.34167,6
4.35000,6
4.35833,6
4.36667,6
4.37500,6
4.38333,6
4.39167,6
4.40000,6
4.40833,5
4.41667,5
4.42500,5
4.43333,5
4.44167,5
4.45000,5
4.45833,5
4.46667,5
4.47500,5
4.48333,5
4.49167,5
4.50000,5
4.50833,5
4.51667,5
4.52500,5
4.53333,5
4.54167,5
4.55000,5
4.55833,5
4.56667,5
4.57500,5
4.58333,5
4.59167,5
4.60000,5
4.60833,6
4.61667,6
4.62500,6
4.63333,6
4.64167,6
4.65000,6
4.65833,6
4.66667,6
4.67500,6
4.68333,6
4.69167,6
4.70000,6
4.70833,6
4.71667,6
4.72500,6
4.73333,6
4.74167,6
4.75000,6
4.75833,6
4.76667,6
4.77500,6
4.78333,6
4.79167,6
4.80000,6
4.80833,6
4.81667,6
4.82500,6
4.83333,6
4.84167,6
4.85000,6
4.85833,5
4.86667,5
4.87500,5
4.88333,5
4.89167,5
4.90000,6
4.90833,6
4.91667,6
4.92500,6
4.93333,6
4.94167,6
4.95000,6
4.95833,6
4.96667,6
4.97500,6
4.98333,6
4.99167,6
5.00000,6
5.00833,6
5.01667,6
5.02500,6
5.03333,6
5.04167,7
5.05000,7
5.05833,6
5.06667,6
5.07500,6
5.08333,6
5.09167,6
5.10000,6
5.10833,6
5.11667,6
5.12500,6
5.13333,6
5.14167,6
5.15000,6
5.15833,6
5.16667,6
5.17500,6
5.18333,6
5.19167,6
5.20000,6
5.20833,6
5.21667,6
5.22500,6
5.23333,6
5.24167,7
5.25000,7
5.25833,7
5.26667,7
5.27500,7
5.28333,7
5.29167,7
5.30000,6
5.30833,6
5.31667,6
5.32500,7
5.33333,7
5.34167,6
5.35000,6
5.35833,6
5.36667,6
5.37500,6
5.38333,6
5.39167,6
5.40000,6
5.40833,6
5.41667,6
5.42500,6
5.43333,7
5.44167,7
5.45000,7
5.45833,7
5.46667,7
5.47500,7
5.48333,7
5.49167,7
5.50000,7
5.50833,7
5.51667,7
5.52500,6
5.53333,6
5.54167,6
5.55000,6
5.55833,6
5.56667,6
5.57500,6
5.58333,6
5.59167,5
5.60000,5
5.60833,5
5.61667,5
5.62500,5
5.63333,5
5.64167,6
5.65000,6
5.65833,5
5.66667,5
5.67500,5
5.68333,6
5.69167,6
5.70000,7
5.70833,7
5.71667,7
5.72500,7
5.73333,6
5.74167,6
5.75000,6
5.75833,6
5.76667,7
5.77500,7
5.78333,7
5.79167,6
5.80000,6
5.80833,6
5.81667,6
5.82500,6
5.83333,5
5.84167,5
5.85000,5
5.85833,5
5.86667,5
5.87500,5
5.88333,6
5.89167,6
5.90000,6
5.90833,6
5.91667,6
5.92500,6
5.93333,6
5.94167,6
5.95000,6
5.95833,6
5.96667,6
5.97500,6
5.98333,6
5.99167,6
6.00000,6
6.00833,6
6.01667,6
6.02500,6
6.03333,6
6.04167,6
6.05000,6
6.05833,6
6.06667,5
6.07500,6
6.08333,6
6.09167,6
6.10000,6
6.10833,6
6.11667,6
6.12500,6
6.13333,6
6.14167,5
6.15000,6
6.15833,6
6.16667,6
6.17500,6
6.18333,5
6.19167,5
6.20000,5
6.20833,6
6.21667,6
6.22500,6
6.23333,6
6.24167,5
6.25000,5
6.25833,5
6.26667,5
6.27500,5
6.28333,5
6.29167,5
6.30000,5
6.30833,5
6.31667,5
6.32500,5
6.33333,5
6.34167,5
6.35000,5
6.35833,5
6.36667,5
6.37500,5
6.38333,5
6.39167,5
6.40000,5
6.40833,5
6.41667,6
6.42500,6
6.43333,6
6.44167,6
6.45000,6
6.45833,6
6.46667,6
6.47500,6
6.48333,5
6.49167,6
6.50000,6
6.50833,6
6.51667,6
6.52500,6
6.53333,6
6.54167,6
6.55000,6
6.55833,6
6.56667,6
6.57500,5
6.58333,5
6.59167,5
6.60000,6
6.60833,6
6.61667,6
6.62500,6
6.63333,6
6.64167,6
6.65000,6
6.65833,6
6.66667,6
6.67500,6
6.68333,7
6.69167,7
6.70000,6
6.70833,6
6.71667,6
6.72500,6
6.73333,6
6.74167,6
6.75000,6
6.75833,6
6.76667,7
6.77500,7
6.78333,7
6.79167,7
6.80000,7
6.80833,7
6.81667,7
6.82500,7
6.83333,7
6.84167,6
6.85000,6
6.85833,6
6.86667,6
6.87500,5
6.88333,5
6.89167,5
6.90000,5
6.90833,6
6.91667,6
6.92500,6
6.93333,6
6.94167,7
6.95000,7
6.95833,7
6.96667,7
6.97500,7
6.98333,7
6.99167,7
7.00000,7
7.00833,6
7.01667,6
7.02500,6
7.03333,6
7.04167,6
7.05000,6
7.05833,6
7.06667,6
7.07500,6
7.08333,6
7.09167,6
7.10000,6
7.10833,6
7.11667,6
7.12500,6
7.13333,7
7.14167,7
7.15000,7
7.15833,7
7.16667,7
7.17500,7
7.18333,7
7.19167,7
7.20000,7
7.20833,7
7.21667,6
7.22500,6
7.23333,6
7.24167,6
7.25000,6
7.25833,5
7.26667,5
7.27500,5
7.28333,5
7.29167,6
7.30000,6
7.30833,6
7.31667,6
7.32500,6
7.33333,6
7.34167,6
7.35000,6
7.35833,6
7.36667,6
7.37500,6
7.38333,6
7.39167,6
7.40000,6
7.40833,6
7.41667,6
7.42500,5
7.43333,5
7.44167,6
7.45000,6
7.45833,6
7.46667,6
7.47500,6
7.48333,6
7.49167,7
7.50000,7
7.50833,7
7.51667,7
7.52500,7
7.53333,7
7.54167,7
7.55000,7
7.55833,7
7.56667,7
7.57500,7
7.58333,6
7.59167,6
7.60000,7
7.60833,7
7.61667,7
7.62500,6
7.63333,6
7.64167,6
7.65000,6
7.65833,6
7.66667,6
7.67500,6
7.68333,6
7.69167,6
7.70000,6
7.70833,6
7.71667,5
7.72500,6
7.73333,6
7.74167,6
7.75000,6
7.75833,7
7.76667,6
7.77500,7
7.78333,7
7.79167,6
7.80000,6
7.80833,6
7.81667,6
7.82500,6
7.83333,6
7.84167,6
7.85000,6
7.85833,6
7.86667,6
7.87500,6
7.88333,6
7.89167,6
7.90000,6
7.90833,6
7.91667,6
7.92500,6
7.93333,6
7.94167,6
7.95000,6
7.95833,5
7.96667,6
7.97500,6
7.98333,6
7.99167,6
8.00000,6
8.00833,7
8.01667,7
8.02500,7
8.03333,7
8.04167,6
8.05000,6
8.05833,6
8.06667,7
8.07500,7
8.08333,7
8.09167,7
8.10000,7
8.10833,7
8.11667,7
8.12500,7
8.13333,7
8.14167,7
8.15000,7
8.15833,7
8.16667,7
8.17500,7
8.18333,7
8.19167,7
8.20000,7
8.20833,7
8.21667,6
8.22500,6
8.23333,6
8.24167,6
8.25000,7
8.25833,6
8.26667,6
8.27500,6
8.28333,6
8.29167,6
8.30000,6
8.30833,6
8.31667,6
8.32500,6
8.33333,6
8.34167,6
8.35000,6
8.35833,7
8.36667,7
8.37500,7
8.38333,7
8.39167,7
8.40000,7
8.40833,6
8.41667,6
8.42500,6
8.43333,7
8.44167,7
8.45000,7
8.45833,6
8.46667,6
8.47500,6
8.48333,6
8.49167,6
8.50000,6
8.50833,6
8.51667,6
8.52500,6
8.53333,6
8.54167,6
8.55000,6
8.55833,6
8.56667,7
8.57500,7
8.58333,7
8.59167,7
8.60000,7
8.60833,7
8.61667,7
8.62500,7
8.63333,6
8.64167,6
8.65000,6
8.65833,6
8.66667,6
8.67500,6
8.68333,6
8.69167,6
8.70000,6
8.70833,6
8.71667,6
8.72500,6
8.73333,6
8.74167,6
8.75000,6
8.75833,6
8.76667,6
8.77500,6
8.78333,6
8.79167,7
8.80000,7
8.80833,7
8.81667,6
8.82500,6
8.83333,6
8.84167,6
8.85000,6
8.85833,6
8.86667,6
8.87500,7
8.88333,7
8.89167,7
8.90000,7
8.90833,7
8.91667,7
8.92500,7
8.93333,7
8.94167,7
8.95000,7
8.95833,7
8.96667,7
8.97500,7
8.98333,7
8.99167,7
9.00000,7
9.00833,7
9.01667,7
9.02500,6
9.03333,6
9.04167,6
9.05000,6
9.05833,6
9.06667,6
9.07500,6
9.08333,6
9.09167,6
9.10000,6
9.10833,6
9.11667,6
9.12500,6
9.13333,6
9.14167,6
9.15000,6
9.15833,7
9.16667,7
9.17500,8
9.18333,7
9.19167,7
9.20000,7
9.20833,7
9.21667,7
9.22500,7
9.23333,6
9.24167,6
9.25000,6
9.25833,6
9.26667,6
9.27500,7
9.28333,7
9.29167,7
9.30000,7
9.30833,7
9.31667,7
9.32500,7
9.33333,6
9.34167,6
9.35000,6
9.35833,6
9.36667,6
9.37500,6
9.38333,7
9.39167,7
9.40000,7
9.40833,7
9.41667,7
9.42500,7
9.43333,7
9.44167,7
9.45000,7
9.45833,7
9.46667,7
9.47500,7
9.48333,7
9.49167,7
9.50000,7
9.50833,7
9.51667,7
9.52500,6
9.53333,6
9.54167,6
9.55000,6
9.55833,6
9.56667,7
9.57500,7
9.58333,7
9.59167,7
9.60000,7
9.60833,6
9.61667,6
9.62500,6
9.63333,7
9.64167,7
9.65000,7
9.65833,7
9.66667,7
9.67500,7
9.68333,7
9.69167,7
9.70000,7
9.70833,7
9.71667,7
9.72500,7
9.73333,7
9.74167,7
9.75000,7
9.75833,7
9.76667,7
9.77500,7
9.78333,7
9.79167,7
9.80000,8
9.80833,8
9.81667,8
9.82500,7
9.83333,7
9.84167,7
9.85000,7
9.85833,7
9.86667,7
9.87500,7
9.88333,7
9.89167,7
9.90000,7
9.90833,7
9.91667,7
9.92500,7
9.93333,7
9.94167,7
9.95000,8
9.95833,8
9.96667,8
9.97500,8
9.98333,8
9.99167,8
10.00000,8
10.00833,8
10.01667,8
10.02500,8
10.03333,8
10.04167,8
10.05000,8
10.05833,8
10.06667,8
10.07500,8
10.08333,8
10.09167,8
10.10000,8
10.10833,8
10.11667,8
10.12500,8
10.13333,8
10.14167,8
10.15000,7
10.15833,7
10.16667,7
10.17500,7
10.18333,7
10.19167,7
10.20000,7
10.20833,8
10.21667,8
10.22500,7
10.23333,7
10.24167,8
10.25000,7
10.25833,7
10.26667,7
10.27500,7
10.28333,8
10.29167,8
10.30000,8
10.30833,8
10.31667,8
10.32500,8
10.33333,8
10.34167,8
10.35000,8
10.35833,8
10.36667,8
10.37500,8
10.38333,8
10.39167,8
10.40000,8
10.40833,8
10.41667,8
10.42500,8
10.43333,9
10.44167,8
10.45000,8
10.45833,8
10.46667,8
10.47500,8
10.48333,8
10.49167,8
10.50000,9
10.50833,9
10.51667,9
10.52500,9
10.53333,9
10.54167,10
10.55000,10
10.55833,10
10.56667,11
10.57500,12
10.58333,13
10.59167,15
10.60000,17
10.60833,20
10.61667,24
10.62500,29
10.63333,35
10.64167,44
10.65000,54
10.65833,66
10.66667,80
10.67500,96
10.68333,114
10.69167,134
10.70000,156
10.70833,178
10.71667,199
10.72500,219
10.73333,236
10.74167,247
10.75000,250
10.75833,243
10.76667,222
10.77500,186
10.78333,130
10.79167,52
10.80000,-50
10.80833,-180
10.81667,-338
10.82500,-526
10.83333,-745
10.84167,-993
10.85000,-1269
10.85833,-1569
10.86667,-1892
10.87500,-2232
10.88333,-2584
10.89167,-2945
10.90000,-3306
10.90833,-3662
10.91667,-4007
10.92500,-4334
10.93333,-4637
10.94167,-4912
10.95000,-5153
10.95833,-5357
10.96667,-5520
10.97500,-5640
10.98333,-5715
10.99167,-5746
11.00000,-5733
11.00833,-5676
11.01667,-5578
11.02500,-5443
11.03333,-5272
11.04167,-5071
11.05000,-4844
11.05833,-4595
11.06667,-4329
11.07500,-4050
11.08333,-3763
11.09167,-3472
11.10000,-3183
11.10833,-2897
11.11667,-2619
11.12500,-2352
11.13333,-2097
11.14167,-1856
11.15000,-1632
11.15833,-1425
11.16667,-1236
11.17500,-1065
11.18333,-911
11.19167,-775
11.20000,-655
11.20833,-551
11.21667,-460
11.22500,-383
11.23333,-318
11.24167,-264
11.25000,-219
11.25833,-183
11.26667,-154
11.27500,-131
11.28333,-113
11.29167,-99
11.30000,-89
11.30833,-82
11.31667,-77
11.32500,-74
11.33333,-72
11.34167,-71
11.35000,-71
11.35833,-70
11.36667,-70
11.37500,-70
11.38333,-70
11.39167,-69
11.40000,-68
11.40833,-68
11.41667,-67
11.42500,-66
11.43333,-65
11.44167,-64
11.45000,-63
11.45833,-61
11.46667,-60
11.47500,-58
11.48333,-56
11.49167,-55
11.50000,-52
11.50833,-50
11.51667,-48
11.52500,-46
11.53333,-44
11.54167,-42
11.55000,-41
11.55833,-39
11.56667,-38
11.57500,-36
11.58333,-35
11.59167,-34
11.60000,-32
11.60833,-31
11.61667,-30
11.62500,-29
11.63333,-28
11.64167,-27
11.65000,-26
11.65833,-26
11.66667,-25
11.67500,-24
11.68333,-23
11.69167,-23
11.70000,-23
11.70833,-22
11.71667,-21
11.72500,-21
11.73333,-20
11.74167,-20
11.75000,-19
11.75833,-19
11.76667,-19
11.77500,-18
11.78333,-18
11.79167,-17
11.80000,-17
11.80833,-16
11.81667,-15
11.82500,-15
11.83333,-14
11.84167,-14
11.85000,-14
11.85833,-13
11.86667,-13
11.87500,-13
11.88333,-13
11.89167,-12
11.90000,-12
11.90833,-11
11.91667,-11
11.92500,-11
11.93333,-11
11.94167,-10
11.95000,-10
11.95833,-10
11.96667,-9
11.97500,-9
11.98333,-9
11.99167,-8
12.00000,-8
12.00833,-8
12.01667,-7
12.02500,-7
12.03333,-7
12.04167,-7
12.05000,-8
12.05833,-8
12.06667,-8
12.07500,-8
12.08333,-7
12.09167,-7
12.10000,-7
12.10833,-7
12.11667,-7
12.12500,-6
12.13333,-6
12.14167,-6
12.15000,-6
12.15833,-6
12.16667,-6
12.17500,-6
12.18333,-6
12.19167,-5
12.20000,-5
12.20833,-5
12.21667,-5
12.22500,-5
12.23333,-4
12.24167,-5
12.25000,-5
12.25833,-4
12.26667,-4
12.27500,-4
12.28333,-4
12.29167,-4
12.30000,-4
12.30833,-5
12.31667,-5
12.32500,-5
12.33333,-4
12.34167,-4
12.35000,-3
12.35833,-3
12.36667,-3
12.37500,-2
12.38333,-2
12.39167,-1
12.40000,-1
12.40833,-1
12.41667,-1
12.42500,-1
12.43333,-1
12.44167,-1
12.45000,-1
12.45833,-1
12.46667,-1
12.47500,-1
12.48333,-0
12.49167,0
12.50000,0
12.50833,0
12.51667,0
12.52500,0
12.53333,0
12.54167,0
12.55000,0
12.55833,0
12.56667,0
12.57500,0
12.58333,0
12.59167,0
12.60000,1
12.60833,1
12.61667,2
12.62500,2
12.63333,2
12.64167,3
12.65000,3
12.65833,3
12.66667,2
12.67500,2
12.68333,2
12.69167,1
12.70000,1
12.70833,1
12.71667,1
12.72500,1
12.73333,2
12.74167,2
12.75000,2
12.75833,2
12.76667,3
12.77500,3
12.78333,4
12.79167,4
12.80000,4
12.80833,4
12.81667,4
12.82500,4
12.83333,4
12.84167,4
12.85000,4
12.85833,4
12.86667,4
12.87500,4
12.88333,4
12.89167,4
12.90000,4
12.90833,4
12.91667,4
12.92500,4
12.93333,4
12.94167,4
12.95000,4
12.95833,4
12.96667,4
12.97500,4
12.98333,5
12.99167,5
13.00000,5
13.00833,5
13.01667,5
13.02500,5
13.03333,6
13.04167,6
13.05000,6
13.05833,6
13.06667,6
13.07500,6
13.08333,6
13.09167,6
13.10000,6
13.10833,6
13.11667,6
13.12500,7
13.13333,7
13.14167,7
13.15000,7
13.15833,8
13.16667,8
13.17500,7
13.18333,7
13.19167,7
13.20000,7
13.20833,7
13.21667,7
13.22500,8
13.23333,8
13.24167,8
13.25000,8
13.25833,8
13.26667,8
13.27500,8
13.28333,8
13.29167,8
13.30000,8
13.30833,9
13.31667,9
13.32500,9
13.33333,9
13.34167,9
13.35000,9
13.35833,9
13.36667,9
13.37500,9
13.38333,9
13.39167,9
13.40000,9
13.40833,9
13.41667,9
13.42500,9
13.43333,10
13.44167,10
13.45000,10
13.45833,10
13.46667,10
13.47500,10
13.48333,10
13.49167,10
13.50000,10
13.50833,10
13.51667,10
13.52500,10
13.53333,10
13.54167,10
13.55000,10
13.55833,11
13.56667,11
13.57500,11
13.58333,11
13.59167,11
13.60000,11
13.60833,11
13.61667,11
13.62500,11
13.63333,12
13.64167,12
13.65000,12
13.65833,12
13.66667,12
13.67500,12
13.68333,12
13.69167,11
13.70000,11
13.70833,11
13.71667,11
13.72500,12
13.73333,11
13.74167,12
13.75000,12
13.75833,12
13.76667,12
13.77500,13
13.78333,13
13.79167,12
13.80000,12
13.80833,12
13.81667,13
13.82500,13
13.83333,13
13.84167,13
13.85000,13
13.85833,13
13.86667,14
13.87500,14
13.88333,14
13.89167,14
13.90000,14
13.90833,14
13.91667,14
13.92500,14
13.93333,15
13.94167,15
13.95000,15
13.95833,16
13.96667,16
13.97500,16
13.98333,16
13.99167,16
14.00000,16
14.00833,17
14.01667,17
14.02500,17
14.03333,17
14.04167,18
14.05000,18
14.05833,18
14.06667,18
14.07500,19
14.08333,19
14.09167,20
14.10000,20
14.10833,21
14.11667,23
14.12500,24
14.13333,26
14.14167,27
14.15000,29
14.15833,31
14.16667,33
14.17500,36
14.18333,40
14.19167,44
14.20000,49
14.20833,56
14.21667,64
14.22500,74
14.23333,85
14.24167,99
14.25000,116
14.25833,137
14.26667,161
14.27500,191
14.28333,226
14.29167,268
14.30000,318
14.30833,378
14.31667,447
14.32500,529
14.33333,624
14.34167,736
14.35000,864
14.35833,1011
14.36667,1179
14.37500,1369
14.38333,1584
14.39167,1824
14.40000,2094
14.40833,2393
14.41667,2724
14.42500,3088
14.43333,3486
14.44167,3921
14.45000,4392
14.45833,4901
14.46667,5449
14.47500,6036
14.48333,6663
14.49167,7328
14.50000,8033
14.50833,8777
14.51667,9559
14.52500,10379
14.53333,11236
14.54167,12128
14.55000,13055
14.55833,14014
14.56667,15004
14.57500,16024
14.58333,17073
14.59167,18147
14.60000,19245
14.60833,20366
14.61667,21507
14.62500,22666
14.63333,23842
14.64167,25032
14.65000,26235
14.65833,27449
14.66667,28672
14.67500,29902
14.68333,31138
14.69167,32378
14.70000,33622
14.70833,34867
14.71667,36112
14.72500,37356
14.73333,38598
14.74167,39837
14.75000,41072
14.75833,42302
14.76667,43525
14.77500,44741
14.78333,45949
14.79167,47146
14.80000,48332
14.80833,49504
14.81667,50659
14.82500,51796
14.83333,52910
14.84167,53997
14.85000,55050
14.85833,56061
14.86667,57021
14.87500,57917
14.88333,58733
14.89167,59452
14.90000,60053
14.90833,60514
14.91667,60809
14.92500,60914
14.93333,60805
14.94167,60460
14.95000,59861
14.95833,58995
14.96667,57856
14.97500,56446
14.98333,54775
14.99167,52858
15.00000,50722
15.00833,48397
15.01667,45919
15.02500,43325
15.03333,40657
15.04167,37953
15.05000,35253
15.05833,32591
15.06667,29997
15.07500,27498
15.08333,25112
15.09167,22857
15.10000,20743
15.10833,18776
15.11667,16957
15.12500,15288
15.13333,13763
15.14167,12376
15.15000,11122
15.15833,9990
15.16667,8973
15.17500,8062
15.18333,7247
15.19167,6519
15.20000,5870
15.20833,5293
15.21667,4779
15.22500,4322
15.23333,3917
15.24167,3555
15.25000,3235
15.25833,2949
15.26667,2695
15.27500,2469
15.28333,2267
15.29167,2088
15.30000,1928
15.30833,1786
15.31667,1658
15.32500,1544
15.33333,1443
15.34167,1352
15.35000,1270
15.35833,1198
15.36667,1134
15.37500,1076
15.38333,1025
15.39167,980
15.40000,940
15.40833,905
15.41667,874
15.42500,847
15.43333,825
15.44167,805
15.45000,789
15.45833,775
15.46667,764
15.47500,755
15.48333,749
15.49167,745
15.50000,742
15.50833,740
15.51667,739
15.52500,740
15.53333,742
15.54167,744
15.55000,747
15.55833,750
15.56667,753
15.57500,756
15.58333,759
15.59167,761
15.60000,763
15.60833,765
15.61667,766
15.62500,767
15.63333,766
15.64167,765
15.65000,763
15.65833,760
15.66667,756
15.67500,751
15.68333,745
15.69167,738
15.70000,730
15.70833,721
15.71667,712
15.72500,701
15.73333,690
15.74167,678
15.75000,665
15.75833,651
15.76667,638
15.77500,623
15.78333,609
15.79167,594
15.80000,579
15.80833,564
15.81667,548
15.82500,533
15.83333,518
15.84167,503
15.85000,488
15.85833,474
15.86667,459
15.87500,446
15.88333,432
15.89167,418
15.90000,405
15.90833,393
15.91667,381
15.92500,369
15.93333,358
15.94167,347
15.95000,336
15.95833,327
15.96667,318
15.97500,309
15.98333,301
15.99167,293
16.00000,285
16.00833,278
16.01667,271
16.02500,265
16.03333,259
16.04167,253
16.05000,248
16.05833,243
16.06667,238
16.07500,233
16.08333,229
16.09167,225
16.10000,221
16.10833,216
16.11667,213
16.12500,210
16.13333,206
16.14167,203
16.15000,200
16.15833,197
16.16667,194
16.17500,192
16.18333,190
16.19167,188
16.20000,186
16.20833,184
16.21667,182
16.22500,180
16.23333,178
16.24167,176
16.25000,174
16.25833,172
16.26667,171
16.27500,169
16.28333,167
16.29167,165
16.30000,164
16.30833,162
16.31667,161
16.32500,159
16.33333,158
16.34167,157
16.35000,155
16.35833,154
16.36667,153
16.37500,151
16.38333,150
16.39167,148
16.40000,147
16.40833,146
16.41667,145
16.42500,144
16.43333,143
16.44167,143
16.45000,142
16.45833,141
16.46667,140
16.47500,139
16.48333,138
16.49167,137
16.50000,136
16.50833,135
16.51667,134
16.52500,134
16.53333,133
16.54167,132
16.55000,131
16.55833,131
16.56667,130
16.57500,129
16.58333,128
16.59167,127
16.60000,127
16.60833,126
16.61667,125
16.62500,124
16.63333,124
16.64167,123
16.65000,123
16.65833,122
16.66667,121
16.67500,120
16.68333,119
16.69167,119
16.70000,118
16.70833,118
16.71667,118
16.72500,118
16.73333,117
16.74167,116
16.75000,116
16.75833,115
16.76667,114
16.77500,113
16.78333,113
16.79167,112
16.80000,112
16.80833,112
16.81667,111
16.82500,111
16.83333,110
16.84167,110
16.85000,109
16.85833,109
16.86667,108
16.87500,108
16.88333,108
16.89167,107
16.90000,107
16.90833,107
16.91667,106
16.92500,106
16.93333,105
16.94167,105
16.95000,104
16.95833,104
16.96667,104
16.97500,103
16.98333,103
16.99167,103
17.00000,103
17.00833,102
17.01667,102
17.02500,101
17.03333,101
17.04167,101
17.05000,100
17.05833,100
17.06667,99
17.07500,99
17.08333,98
17.09167,98
17.10000,98
17.10833,98
17.11667,97
17.12500,97
17.13333,97
17.14167,96
17.15000,96
17.15833,95
17.16667,95
17.17500,95
17.18333,95
17.19167,94
17.20000,94
17.20833,93
17.21667,93
17.22500,92
17.23333,91
17.24167,91
17.25000,91
17.25833,90
17.26667,90
17.27500,89
17.28333,89
17.29167,89
17.30000,89
17.30833,88
17.31667,88
17.32500,88
17.33333,87
17.34167,87
17.35000,86
17.35833,86
17.36667,86
17.37500,85
17.38333,85
17.39167,84
17.40000,84
17.40833,83
17.41667,83
17.42500,82
17.43333,82
17.44167,81
17.45000,81
17.45833,81
17.46667,81
17.47500,80
17.48333,80
17.49167,79
17.50000,79
17.50833,78
17.51667,78
17.52500,78
17.53333,78
17.54167,78
17.55000,77
17.55833,77
17.56667,77
17.57500,77
17.58333,77
17.59167,76
17.60000,75
17.60833,75
17.61667,74
17.62500,74
17.63333,74
17.64167,73
17.65000,73
17.65833,72
17.66667,72
17.67500,71
17.68333,71
17.69167,71
17.70000,71
17.70833,71
17.71667,71
17.72500,70
17.73333,70
17.74167,70
17.75000,70
17.75833,70
17.76667,70
17.77500,70
17.78333,69
17.79167,69
17.80000,69
17.80833,69
17.81667,68
17.82500,68
17.83333,68
17.84167,67
17.85000,67
17.85833,67
17.86667,66
17.87500,66
17.88333,65
17.89167,65
17.90000,65
17.90833,64
17.91667,64
17.92500,64
17.93333,64
17.94167,63
17.95000,63
17.95833,63
17.96667,62
17.97500,62
17.98333,62
17.99167,62
18.00000,61
18.00833,61
18.01667,61
18.02500,61
18.03333,61
18.04167,60
18.05000,60
18.05833,60
18.06667,60
18.07500,60
18.08333,59
18.09167,59
18.10000,59
18.10833,59
18.11667,59
18.12500,59
18.13333,58
18.14167,58
18.15000,58
18.15833,58
18.16667,58
18.17500,57
18.18333,57
18.19167,57
18.20000,57
18.20833,57
18.21667,57
18.22500,57
18.23333,57
18.24167,56
18.25000,56
18.25833,56
18.26667,56
18.27500,57
18.28333,57
18.29167,57
18.30000,56
18.30833,56
18.31667,55
18.32500,55
18.33333,55
18.34167,55
18.35000,55
18.35833,55
18.36667,55
18.37500,55
18.38333,55
18.39167,55
18.40000,55
18.40833,55
18.41667,55
18.42500,54
18.43333,54
18.44167,54
18.45000,54
18.45833,53
18.46667,53
18.47500,53
18.48333,53
18.49167,53
18.50000,53
18.50833,54
18.51667,54
18.52500,54
18.53333,54
18.54167,54
18.55000,54
18.55833,54
18.56667,54
18.57500,55
18.58333,55
18.59167,55
18.60000,55
18.60833,55
18.61667,54
18.62500,54
18.63333,54
18.64167,54
18.65000,54
18.65833,54
18.66667,54
18.67500,54
18.68333,54
18.69167,55
18.70000,55
18.70833,55
18.71667,55
18.72500,56
18.73333,56
18.74167,56
18.75000,57
18.75833,57
18.76667,57
18.77500,58
18.78333,59
18.79167,60
18.80000,61
18.80833,63
18.81667,64
18.82500,65
18.83333,67
18.84167,68
18.85000,69
18.85833,71
18.86667,72
18.87500,73
18.88333,75
18.89167,76
18.90000,77
18.90833,79
18.91667,81
18.92500,82
18.93333,84
18.94167,85
18.95000,87
18.95833,88
18.96667,89
18.97500,91
18.98333,92
18.99167,93
19.00000,94
19.00833,94
19.01667,95
19.02500,95
19.03333,96
19.04167,96
19.05000,95
19.05833,95
19.06667,94
19.07500,94
19.08333,93
19.09167,92
19.10000,91
19.10833,91
19.11667,90
19.12500,89
19.13333,88
19.14167,87
19.15000,85
19.15833,84
19.16667,82
19.17500,81
19.18333,79
19.19167,77
19.20000,75
19.20833,73
19.21667,72
19.22500,70
19.23333,69
19.24167,67
19.25000,66
19.25833,64
19.26667,62
19.27500,61
19.28333,59
19.29167,58
19.30000,57
19.30833,56
19.31667,55
19.32500,54
19.33333,52
19.34167,51
19.35000,50
19.35833,49
19.36667,48
19.37500,47
19.38333,46
19.39167,46
19.40000,45
19.40833,45
19.41667,44
19.42500,43
19.43333,42
19.44167,41
19.45000,41
19.45833,41
19.46667,40
19.47500,40
19.48333,40
19.49167,39
19.50000,39
19.50833,39
19.51667,38
19.52500,38
19.53333,37
19.54167,37
19.55000,37
19.55833,37
19.56667,36
19.57500,36
19.58333,35
19.59167,35
19.60000,35
19.60833,34
19.61667,35
19.62500,35
19.63333,34
19.64167,34
19.65000,34
19.65833,34
19.66667,34
19.67500,33
19.68333,33
19.69167,33
19.70000,33
19.70833,33
19.71667,34
19.72500,34
19.73333,34
19.74167,34
19.75000,33
19.75833,33
19.76667,33
19.77500,33
19.78333,32
19.79167,32
19.80000,32
19.80833,32
19.81667,32
19.82500,32
19.83333,32
19.84167,32
19.85000,32
19.85833,31
19.86667,31
19.87500,31
19.88333,31
19.89167,31
19.90000,31
19.90833,31
19.91667,31
19.92500,31
19.93333,31
19.94167,31
19.95000,31
19.95833,31
19.96667,31
19.97500,30
19.98333,30
19.99167,30
20.00000,30
20.00833,31
20.01667,31
20.02500,31
20.03333,31
20.04167,31
20.05000,30
20.05833,30
20.06667,30
20.07500,30
20.08333,30
20.09167,29
20.10000,29
20.10833,29
20.11667,29
20.12500,29
20.13333,29
20.14167,29
20.15000,29
20.15833,29
20.16667,29
20.17500,29
20.18333,28
20.19167,28
20.20000,29
20.20833,29
20.21667,29
20.22500,29
20.23333,29
20.24167,29
20.25000,29
20.25833,29
20.26667,29
20.27500,29
20.28333,29
20.29167,29
20.30000,29
20.30833,28
20.31667,28
20.32500,28
20.33333,28
20.34167,28
20.35000,28
20.35833,28
20.36667,28
20.37500,28
20.38333,27
20.39167,27
20.40000,27
20.40833,26
20.41667,26
20.42500,26
20.43333,27
20.44167,27
20.45000,27
20.45833,27
20.46667,27
20.47500,27
20.48333,26
20.49167,26
20.50000,26
20.50833,26
20.51667,26
20.52500,26
20.53333,26
20.54167,26
20.55000,26
20.55833,26
20.56667,26
20.57500,26
20.58333,25
20.59167,25
20.60000,25
20.60833,25
20.61667,25
20.62500,25
20.63333,25
20.64167,25
20.65000,25
20.65833,25
20.66667,25
20.67500,25
20.68333,25
20.69167,25
20.70000,25
20.70833,25
20.71667,25
20.72500,24
20.73333,24
20.74167,24
20.75000,24
20.75833,24
20.76667,24
20.77500,24
20.78333,24
20.79167,25
20.80000,25
20.80833,25
20.81667,25
20.82500,25
20.83333,25
20.84167,25
20.85000,24
20.85833,24
20.86667,24
20.87500,24
20.88333,24
20.89167,24
20.90000,24
20.90833,24
20.91667,24
20.92500,23
20.93333,23
20.94167,23
20.95000,23
20.95833,23
20.96667,23
20.97500,23
20.98333,22
20.99167,22
21.00000,22
21.00833,22
21.01667,22
21.02500,22
21.03333,22
21.04167,22
21.05000,22
21.05833,23
21.06667,23
21.07500,23
21.08333,22
21.09167,22
21.10000,22
21.10833,22
21.11667,22
21.12500,22
21.13333,22
21.14167,22
21.15000,21
21.15833,21
21.16667,21
21.17500,21
21.18333,21
21.19167,21
21.20000,22
21.20833,21
21.21667,21
21.22500,21
21.23333,21
21.24167,20
21.25000,20
21.25833,21
21.26667,21
21.27500,20
21.28333,20
21.29167,20
21.30000,20
21.30833,20
21.31667,20
21.32500,20
21.33333,20
21.34167,20
21.35000,20
21.35833,20
21.36667,20
21.37500,20
21.38333,20
21.39167,21
21.40000,21
21.40833,21
21.41667,21
21.42500,21
21.43333,21
21.44167,21
21.45000,21
21.45833,21
21.46667,21
21.47500,21
21.48333,21
21.49167,21
21.50000,21
21.50833,21
21.51667,21
21.52500,21
21.53333,21
21.54167,21
21.55000,21
21.55833,22
21.56667,22
21.57500,22
21.58333,22
21.59167,22
21.60000,21
21.60833,21
21.61667,21
21.62500,22
21.63333,22
21.64167,23
21.65000,24
21.65833,25
21.66667,26
21.67500,26
21.68333,27
21.69167,28
21.70000,28
21.70833,29
21.71667,30
21.72500,32
21.73333,33
21.74167,34
21.75000,35
21.75833,37
21.76667,38
21.77500,40
21.78333,42
21.79167,44
21.80000,45
21.80833,48
21.81667,50
21.82500,53
21.83333,56
21.84167,58
21.85000,61
21.85833,64
21.86667,67
21.87500,71
21.88333,74
21.89167,77
21.90000,80
21.90833,84
21.91667,87
21.92500,90
21.93333,93
21.94167,96
21.95000,99
21.95833,103
21.96667,106
21.97500,109
21.98333,112
21.99167,115
22.00000,117
22.00833,119
22.01667,121
22.02500,123
22.03333,125
22.04167,126
22.05000,127
22.05833,128
22.06667,129
22.07500,129
22.08333,130
22.09167,130
22.10000,130
22.10833,129
22.11667,128
22.12500,127
22.13333,126
22.14167,124
22.15000,122
22.15833,120
22.16667,118
22.17500,116
22.18333,114
22.19167,111
22.20000,109
22.20833,106
22.21667,103
22.22500,100
22.23333,98
22.24167,95
22.25000,92
22.25833,89
22.26667,86
22.27500,82
22.28333,79
22.29167,76
22.30000,74
22.30833,71
22.31667,68
22.32500,66
22.33333,63
22.34167,60
22.35000,58
22.35833,56
22.36667,54
22.37500,52
22.38333,49
22.39167,47
22.40000,45
22.40833,44
22.41667,42
22.42500,40
22.43333,39
22.44167,37
22.45000,36
22.45833,35
22.46667,34
22.47500,33
22.48333,31
22.49167,30
22.50000,29
22.50833,29
22.51667,28
22.52500,27
22.53333,27
22.54167,26
22.55000,25
22.55833,24
22.56667,23
22.57500,22
22.58333,22
22.59167,22
22.60000,22
22.60833,22
22.61667,21
22.62500,21
22.63333,21
22.64167,21
22.65000,21
22.65833,20
22.66667,20
22.67500,20
22.68333,20
22.69167,19
22.70000,19
22.70833,19
22.71667,19
22.72500,19
22.73333,19
22.74167,19
22.75000,19
22.75833,19
22.76667,18
22.77500,18
22.78333,18
22.79167,18
22.80000,18
22.80833,18
22.81667,18
22.82500,18
22.83333,18
22.84167,18
22.85000,18
22.85833,18
22.86667,18
22.87500,18
22.88333,18
22.89167,18
22.90000,18
22.90833,18
22.91667,18
22.92500,18
22.93333,18
22.94167,18
22.95000,18
22.95833,18
22.96667,18
22.97500,18
22.98333,18
22.99167,18
23.00000,18
23.00833,18
23.01667,17
23.02500,17
23.03333,17
23.04167,17
23.05000,17
23.05833,17
23.06667,18
23.07500,18
23.08333,18
23.09167,18
23.10000,18
23.10833,18
23.11667,18
23.12500,17
23.13333,17
23.14167,18
23.15000,18
23.15833,18
23.16667,18
23.17500,18
23.18333,18
23.19167,18
23.20000,18
23.20833,18
23.21667,18
23.22500,18
23.23333,17
23.24167,17
23.25000,18
23.25833,18
23.26667,18
23.27500,18
23.28333,18
23.29167,17
23.30000,17
23.30833,17
23.31667,17
23.32500,17
23.33333,17
23.34167,17
23.35000,17
23.35833,17
23.36667,18
23.37500,18
23.38333,18
23.39167,18
23.40000,18
23.40833,18
23.41667,18
23.42500,18
23.43333,17
23.44167,17
23.45000,17
23.45833,17
23.46667,17
23.47500,17
23.48333,16
23.49167,16
23.50000,16
23.50833,16
23.51667,16
23.52500,16
23.53333,15
23.54167,15
23.55000,15
23.55833,15
23.56667,15
23.57500,15
23.58333,15
23.59167,15
23.60000,15
23.60833,15
23.61667,15
23.62500,15
23.63333,15
23.64167,16
23.65000,16
23.65833,16
23.66667,15
23.67500,15
23.68333,16
23.69167,16
23.70000,15
23.70833,15
23.71667,15
23.72500,16
23.73333,16
23.74167,16
23.75000,16
23.75833,16
23.76667,16
23.77500,16
23.78333,16
23.79167,16
23.80000,16
23.80833,16
23.81667,16
23.82500,16
23.83333,16
23.84167,16
23.85000,16
23.85833,16
23.86667,16
23.87500,15
23.88333,15
23.89167,15
23.90000,15
23.90833,15
23.91667,16
23.92500,16
23.93333,16
23.94167,15
23.95000,15
23.95833,15
23.96667,15
23.97500,15
23.98333,15
23.99167,15
24.00000,15
24.00833,15
24.01667,15
24.02500,15
24.03333,15
24.04167,15
24.05000,16
24.05833,16
24.06667,16
24.07500,16
24.08333,16
24.09167,16
24.10000,16
24.10833,16
24.11667,16
24.12500,16
24.13333,16
24.14167,16
24.15000,16
24.15833,16
24.16667,16
24.17500,16
24.18333,16
24.19167,16
24.20000,16
24.20833,16
24.21667,16
24.22500,16
24.23333,16
24.24167,16
24.25000,16
24.25833,16
24.26667,16
24.27500,17
24.28333,17
24.29167,17
24.30000,17
24.30833,17
24.31667,17
24.32500,17
24.33333,17
24.34167,18
24.35000,18
24.35833,18
24.36667,18
24.37500,18
24.38333,18
24.39167,18
24.40000,18
24.40833,18
24.41667,18
24.42500,18
24.43333,18
24.44167,18
24.45000,18
24.45833,18
24.46667,19
24.47500,19
24.48333,19
24.49167,19
24.50000,19
24.50833,19
24.51667,19
24.52500,19
24.53333,19
24.54167,20
24.55000,20
24.55833,20
24.56667,20
24.57500,20
24.58333,20
24.59167,20
24.60000,20
24.60833,20
24.61667,21
24.62500,21
24.63333,21
24.64167,21
24.65000,21
24.65833,22
24.66667,22
24.67500,22
24.68333,22
24.69167,22
24.70000,23
24.70833,23
24.71667,24
24.72500,25
24.73333,26
24.74167,26
24.75000,27
24.75833,28
24.76667,28
24.77500,29
24.78333,30
24.79167,30
24.80000,31
24.80833,31
24.81667,32
24.82500,33
24.83333,34
24.84167,35
24.85000,36
24.85833,37
24.86667,38
24.87500,39
24.88333,40
24.89167,41
24.90000,42
24.90833,43
24.91667,44
24.92500,45
24.93333,47
24.94167,48
24.95000,49
24.95833,50
24.96667,51
24.97500,52
24.98333,53
24.99167,54
25.00000,54
25.00833,55
25.01667,56
25.02500,56
25.03333,57
25.04167,57
25.05000,58
25.05833,58
25.06667,58
25.07500,58
25.08333,58
25.09167,59
25.10000,58
25.10833,58
25.11667,58
25.12500,58
25.13333,57
25.14167,57
25.15000,56
25.15833,56
25.16667,55
25.17500,54
25.18333,54
25.19167,53
25.20000,52
25.20833,51
25.21667,50
25.22500,50
25.23333,49
25.24167,48
25.25000,46
25.25833,45
25.26667,44
25.27500,43
25.28333,42
25.29167,41
25.30000,40
25.30833,39
25.31667,37
25.32500,36
25.33333,35
25.34167,34
25.35000,33
25.35833,32
25.36667,32
25.37500,31
25.38333,30
25.39167,30
25.40000,29
25.40833,28
25.41667,27
25.42500,26
25.43333,25
25.44167,25
25.45000,24
25.45833,24
25.46667,23
25.47500,22
25.48333,22
25.49167,21
25.50000,20
25.50833,20
25.51667,20
25.52500,20
25.53333,20
25.54167,20
25.55000,20
25.55833,20
25.56667,20
25.57500,19
25.58333,19
25.59167,19
25.60000,18
25.60833,18
25.61667,18
25.62500,17
25.63333,17
25.64167,17
25.65000,17
25.65833,17
25.66667,17
25.67500,17
25.68333,17
25.69167,17
25.70000,17
25.70833,17
25.71667,17
25.72500,17
25.73333,17
25.74167,17
25.75000,17
25.75833,17
25.76667,17
25.77500,17
25.78333,17
25.79167,17
25.80000,17
25.80833,17
25.81667,16
25.82500,17
25.83333,17
25.84167,17
25.85000,17
25.85833,17
25.86667,17
25.87500,17
25.88333,17
25.89167,17
25.90000,17
25.90833,17
25.91667,17
25.92500,17
25.93333,17
25.94167,17
25.95000,17
25.95833,17
25.96667,17
25.97500,17
25.98333,17
25.99167,17
26.00000,17
26.00833,17
26.01667,17
26.02500,17
26.03333,17
26.04167,17
26.05000,17
26.05833,17
26.06667,17
26.07500,17
26.08333,16
26.09167,16
26.10000,16
26.10833,16
26.11667,17
26.12500,17
26.13333,17
26.14167,18
26.15000,18
26.15833,18
26.16667,18
26.17500,17
26.18333,17
26.19167,18
26.20000,18
26.20833,18
26.21667,18
26.22500,18
26.23333,18
26.24167,18
26.25000,18
26.25833,17
26.26667,17
26.27500,17
26.28333,17
26.29167,17
26.30000,17
26.30833,17
26.31667,17
26.32500,17
26.33333,17
26.34167,17
26.35000,17
26.35833,17
26.36667,17
26.37500,17
26.38333,17
26.39167,17
26.40000,18
26.40833,18
26.41667,18
26.42500,18
26.43333,18
26.44167,18
26.45000,18
26.45833,18
26.46667,17
26.47500,17
26.48333,17
26.49167,17
26.50000,17
26.50833,17
26.51667,17
26.52500,18
26.53333,18
26.54167,18
26.55000,19
26.55833,19
26.56667,19
26.57500,19
26.58333,18
26.59167,18
26.60000,18
26.60833,18
26.61667,18
26.62500,18
26.63333,18
26.64167,18
26.65000,18
26.65833,18
26.66667,17
26.67500,18
26.68333,18
26.69167,18
26.70000,18
26.70833,18
26.71667,18
26.72500,18
26.73333,18
26.74167,18
26.75000,18
26.75833,18
26.76667,18
26.77500,17
26.78333,17
26.79167,17
26.80000,17
26.80833,17
26.81667,17
26.82500,17
26.83333,17
26.84167,18
26.85000,18
26.85833,18
26.86667,18
26.87500,18
26.88333,18
26.89167,18
26.90000,17
26.90833,17
26.91667,17
26.92500,18
26.93333,18
26.94167,18
26.95000,18
26.95833,18
26.96667,18
26.97500,18
26.98333,18
26.99167,18
27.00000,18
27.00833,18
27.01667,18
27.02500,18
27.03333,18
27.04167,18
27.05000,18
27.05833,18
27.06667,18
27.07500,18
27.08333,18
27.09167,18
27.10000,17
27.10833,17
27.11667,17
27.12500,18
27.13333,18
27.14167,18
27.15000,19
27.15833,19
27.16667,19
27.17500,19
27.18333,19
27.19167,18
27.20000,19
27.20833,19
27.21667,19
27.22500,19
27.23333,19
27.24167,18
27.25000,19
27.25833,19
27.26667,19
27.27500,19
27.28333,19
27.29167,19
27.30000,19
27.30833,19
27.31667,19
27.32500,19
27.33333,19
27.34167,20
27.35000,20
27.35833,19
27.36667,19
27.37500,19
27.38333,19
27.39167,19
27.40000,19
27.40833,19
27.41667,18
27.42500,19
27.43333,19
27.44167,19
27.45000,20
27.45833,19
27.46667,19
27.47500,19
27.48333,19
27.49167,19
27.50000,19
27.50833,19
27.51667,19
27.52500,19
27.53333,19
27.54167,19
27.55000,19
27.55833,19
27.56667,19
27.57500,19
27.58333,19
27.59167,19
27.60000,19
27.60833,19
27.61667,19
27.62500,19
27.63333,19
27.64167,19
27.65000,19
27.65833,18
27.66667,18
27.67500,18
27.68333,18
27.69167,18
27.70000,18
27.70833,17
27.71667,18
27.72500,18
27.73333,18
27.74167,18
27.75000,18
27.75833,19
27.76667,18
27.77500,18
27.78333,17
27.79167,17
27.80000,17
27.80833,16
27.81667,15
27.82500,15
27.83333,14
27.84167,14
27.85000,13
27.85833,13
27.86667,12
27.87500,11
27.88333,11
27.89167,10
27.90000,9
27.90833,8
27.91667,7
27.92500,6
27.93333,5
27.94167,4
27.95000,3
27.95833,2
27.96667,1
27.97500,-0
27.98333,-2
27.99167,-3
28.00000,-5
28.00833,-6
28.01667,-8
28.02500,-10
28.03333,-12
28.04167,-14
28.05000,-16
28.05833,-18
28.06667,-21
28.07500,-23
28.08333,-26
28.09167,-29
28.10000,-31
28.10833,-34
28.11667,-37
28.12500,-40
28.13333,-42
28.14167,-45
28.15000,-48
28.15833,-52
28.16667,-55
28.17500,-58
28.18333,-61
28.19167,-65
28.20000,-68
28.20833,-72
28.21667,-75
28.22500,-78
28.23333,-81
28.24167,-84
28.25000,-88
28.25833,-91
28.26667,-95
28.27500,-97
28.28333,-100
28.29167,-103
28.30000,-106
28.30833,-108
28.31667,-110
28.32500,-112
28.33333,-114
28.34167,-116
28.35000,-118
28.35833,-121
28.36667,-123
28.37500,-124
28.38333,-126
28.39167,-127
28.40000,-128
28.40833,-129
28.41667,-130
28.42500,-131
28.43333,-132
28.44167,-132
28.45000,-132
28.45833,-132
28.46667,-132
28.47500,-132
28.48333,-131
28.49167,-131
28.50000,-130
28.50833,-129
28.51667,-127
28.52500,-126
28.53333,-124
28.54167,-123
28.55000,-121
28.55833,-119
28.56667,-117
28.57500,-115
28.58333,-113
28.59167,-111
28.60000,-109
28.60833,-106
28.61667,-104
28.62500,-101
28.63333,-99
28.64167,-96
28.65000,-93
28.65833,-90
28.66667,-87
28.67500,-84
28.68333,-81
28.69167,-79
28.70000,-76
28.70833,-73
28.71667,-71
28.72500,-68
28.73333,-65
28.74167,-62
28.75000,-60
28.75833,-57
28.76667,-54
28.77500,-51
28.78333,-49
28.79167,-47
28.80000,-44
28.80833,-42
28.81667,-39
28.82500,-37
28.83333,-34
28.84167,-32
28.85000,-30
28.85833,-28
28.86667,-27
28.87500,-25
28.88333,-24
28.89167,-22
28.90000,-20
28.90833,-19
28.91667,-17
28.92500,-15
28.93333,-14
28.94167,-13
28.95000,-12
28.95833,-11
28.96667,-10
28.97500,-9
28.98333,-7
28.99167,-6
29.00000,-5
29.00833,-4
29.01667,-2
29.02500,-1
29.03333,-1
29.04167,0
29.05000,1
29.05833,2
29.06667,3
29.07500,4
29.08333,5
29.09167,5
29.10000,5
29.10833,6
29.11667,6
29.12500,6
29.13333,7
29.14167,7
29.15000,7
29.15833,8
29.16667,8
29.17500,8
29.18333,8
29.19167,8
29.20000,9
29.20833,9
29.21667,9
29.22500,10
29.23333,10
29.24167,10
29.25000,11
29.25833,11
29.26667,11
29.27500,11
29.28333,12
29.29167,12
29.30000,12
29.30833,12
29.31667,12
29.32500,12
29.33333,13
29.34167,13
29.35000,13
29.35833,13
29.36667,13
29.37500,13
29.38333,13
29.39167,13
29.40000,13
29.40833,13
29.41667,13
29.42500,14
29.43333,14
29.44167,14
29.45000,14
29.45833,14
29.46667,14
29.47500,14
29.48333,14
29.49167,14
29.50000,14
29.50833,13
29.51667,13
29.52500,12
29.53333,12
29.54167,12
29.55000,12
29.55833,12
29.56667,12
29.57500,11
29.58333,11
29.59167,11
29.60000,11
29.60833,10
29.61667,10
29.62500,10
29.63333,10
29.64167,9
29.65000,9
29.65833,8
29.66667,8
29.67500,7
29.68333,7
29.69167,6
29.70000,5
29.70833,5
29.71667,5
29.72500,4
29.73333,4
29.74167,3
29.75000,2
29.75833,2
29.76667,1
29.77500,0
29.78333,-0
29.79167,-1
29.80000,-2
29.80833,-3
29.81667,-4
29.82500,-5
29.83333,-6
29.84167,-7
29.85000,-8
29.85833,-9
29.86667,-10
29.87500,-11
29.88333,-12
29.89167,-13
29.90000,-14
29.90833,-15
29.91667,-16
29.92500,-17
29.93333,-18
29.94167,-19
29.95000,-21
29.95833,-22
29.96667,-23
29.97500,-24
29.98333,-25
29.99167,-26
30.00000,-26
30.00833,-28
30.01667,-29
30.02500,-29
30.03333,-30
30.04167,-31
30.05000,-32
30.05833,-32
30.06667,-33
30.07500,-34
30.08333,-35
30.09167,-35
30.10000,-37
30.10833,-38
30.11667,-38
30.12500,-39
30.13333,-39
30.14167,-39
30.15000,-39
30.15833,-39
30.16667,-40
30.17500,-40
30.18333,-40
30.19167,-40
30.20000,-40
30.20833,-40
30.21667,-40
30.22500,-40
30.23333,-39
30.24167,-39
30.25000,-39
30.25833,-38
30.26667,-38
30.27500,-37
30.28333,-37
30.29167,-36
30.30000,-36
30.30833,-35
30.31667,-35
30.32500,-34
30.33333,-34
30.34167,-33
30.35000,-32
30.35833,-31
30.36667,-30
30.37500,-30
30.38333,-29
30.39167,-28
30.40000,-27
30.40833,-25
30.41667,-24
30.42500,-23
30.43333,-22
30.44167,-22
30.45000,-21
30.45833,-20
30.46667,-19
30.47500,-18
30.48333,-17
30.49167,-16
30.50000,-15
30.50833,-14
30.51667,-13
30.52500,-12
30.53333,-11
30.54167,-10
30.55000,-9
30.55833,-8
30.56667,-7
30.57500,-6
30.58333,-5
30.59167,-4
30.60000,-3
30.60833,-3
30.61667,-2
30.62500,-1
30.63333,-1
30.64167,-1
30.65000,0
30.65833,1
30.66667,1
30.67500,2
30.68333,3
30.69167,3
30.70000,3
30.70833,4
30.71667,4
30.72500,5
30.73333,5
30.74167,6
30.75000,7
30.75833,7
30.76667,8
30.77500,8
30.78333,9
30.79167,9
30.80000,9
30.80833,9
30.81667,9
30.82500,9
30.83333,9
30.84167,10
30.85000,10
30.85833,11
30.86667,11
30.87500,11
30.88333,11
30.89167,11
30.90000,12
30.90833,12
30.91667,12
30.92500,12
30.93333,13
30.94167,12
30.95000,12
30.95833,12
30.96667,12
30.97500,13
30.98333,13
30.99167,13
31.00000,14
31.00833,14
31.01667,14
31.02500,14
31.03333,14
31.04167,15
31.05000,15
31.05833,15
31.06667,15
31.07500,15
31.08333,15
31.09167,15
31.10000,14
31.10833,14
31.11667,15
31.12500,15
31.13333,15
31.14167,15
31.15000,15
31.15833,15
31.16667,15
31.17500,15
31.18333,15
31.19167,15
31.20000,15
31.20833,16
31.21667,15
31.22500,15
31.23333,16
31.24167,16
31.25000,16
31.25833,16
31.26667,16
31.27500,16
31.28333,16
31.29167,16
31.30000,16
31.30833,16
31.31667,16
31.32500,17
31.33333,17
31.34167,17
31.35000,17
31.35833,17
31.36667,17
31.37500,17
31.38333,17
31.39167,18
31.40000,18
31.40833,18
31.41667,18
31.42500,18
31.43333,18
31.44167,18
31.45000,18
31.45833,18
31.46667,18
31.47500,19
31.48333,19
31.49167,19
31.50000,19
31.50833,20
31.51667,20
31.52500,20
31.53333,20
31.54167,20
31.55000,20
31.55833,20
31.56667,20
31.57500,20
31.58333,20
31.59167,20
31.60000,20
31.60833,20
31.61667,20
31.62500,21
31.63333,21
31.64167,21
31.65000,20
31.65833,20
31.66667,20
31.67500,20
31.68333,20
31.69167,20
31.70000,20
31.70833,20
31.71667,21
31.72500,21
31.73333,21
31.74167,21
31.75000,21
31.75833,21
31.76667,21
31.77500,21
31.78333,21
31.79167,21
31.80000,21
31.80833,21
31.81667,21
31.82500,21
31.83333,20
31.84167,21
31.85000,21
31.85833,21
31.86667,21
31.87500,21
31.88333,21
31.89167,21
31.90000,21
31.90833,21
31.91667,21
31.92500,21
31.93333,21
31.94167,21
31.95000,22
31.95833,22
31.96667,22
31.97500,22
31.98333,22
31.99167,22
32.00000,22
32.00833,22
32.01667,22
32.02500,22
32.03333,22
32.04167,22
32.05000,22
32.05833,22
32.06667,22
32.07500,22
32.08333,22
32.09167,21
32.10000,21
32.10833,21
32.11667,21
32.12500,21
32.13333,21
32.14167,21
32.15000,21
32.15833,22
32.16667,22
32.17500,22
32.18333,22
32.19167,22
32.20000,22
32.20833,22
32.21667,22
32.22500,22
32.23333,22
32.24167,22
32.25000,22
32.25833,22
32.26667,22
32.27500,22
32.28333,22
32.29167,22
32.30000,22
32.30833,22
32.31667,22
32.32500,23
32.33333,23
32.34167,23
32.35000,23
32.35833,23
32.36667,23
32.37500,23
32.38333,23
32.39167,22
32.40000,23
32.40833,23
32.41667,23
32.42500,23
32.43333,23
32.44167,23
32.45000,23
32.45833,23
32.46667,22
32.47500,22
32.48333,22
32.49167,22
32.50000,23
32.50833,23
32.51667,23
32.52500,23
32.53333,23
32.54167,23
32.55000,23
32.55833,23
32.56667,23
32.57500,24
32.58333,24
32.59167,24
32.60000,24
32.60833,24
32.61667,24
32.62500,24
32.63333,24
32.64167,24
32.65000,24
32.65833,24
32.66667,24
32.67500,24
32.68333,24
32.69167,24
32.70000,24
32.70833,24
32.71667,24
32.72500,24
32.73333,24
32.74167,24
32.75000,24
32.75833,24
32.76667,24
32.77500,24
32.78333,24
32.79167,24
32.80000,24
32.80833,24
32.81667,24
32.82500,24
32.83333,25
32.84167,25
32.85000,25
32.85833,25
32.86667,25
32.87500,25
32.88333,25
32.89167,25
32.90000,25
32.90833,25
32.91667,25
32.92500,25
32.93333,25
32.94167,25
32.95000,25
32.95833,25
32.96667,25
32.97500,25
32.98333,25
32.99167,25
33.00000,25
33.00833,25
33.01667,25
33.02500,25
33.03333,24
33.04167,24
33.05000,24
33.05833,25
33.06667,25
33.07500,25
33.08333,25
33.09167,25
33.10000,25
33.10833,25
33.11667,25
33.12500,25
33.13333,25
33.14167,25
33.15000,25
33.15833,25
33.16667,25
33.17500,25
33.18333,25
33.19167,25
33.20000,25
33.20833,25
33.21667,24
33.22500,24
33.23333,25
33.24167,25
33.25000,25
33.25833,25
33.26667,26
33.27500,26
33.28333,26
33.29167,25
33.30000,25
33.30833,25
33.31667,25
33.32500,25
33.33333,25
33.34167,25
33.35000,25
33.35833,25
33.36667,25
33.37500,25
33.38333,25
33.39167,25
33.40000,25
33.40833,25
33.41667,25
33.42500,25
33.43333,24
33.44167,24
33.45000,24
33.45833,25
33.46667,24
33.47500,25
33.48333,25
33.49167,25
33.50000,25
33.50833,24
33.51667,24
33.52500,24
33.53333,25
33.54167,25
33.55000,25
33.55833,25
33.56667,25
33.57500,25
33.58333,26
33.59167,26
33.60000,26
33.60833,25
33.61667,25
33.62500,25
33.63333,25
33.64167,25
33.65000,24
33.65833,24
33.66667,24
33.67500,24
33.68333,24
33.69167,24
33.70000,24
33.70833,24
33.71667,24
33.72500,25
33.73333,25
33.74167,25
33.75000,25
33.75833,25
33.76667,25
33.77500,24
33.78333,25
33.79167,25
33.80000,24
33.80833,24
33.81667,24
33.82500,24
33.83333,25
33.84167,25
33.85000,26
33.85833,26
33.86667,26
33.87500,25
33.88333,25
33.89167,25
33.90000,25
33.90833,25
33.91667,24
33.92500,24
33.93333,25
33.94167,25
33.95000,25
33.95833,25
33.96667,25
33.97500,25
33.98333,25
33.99167,25
34.00000,25
34.00833,26
34.01667,26
34.02500,26
34.03333,26
34.04167,26
34.05000,26
34.05833,26
34.06667,26
34.07500,26
34.08333,26
34.09167,26
34.10000,26
34.10833,26
34.11667,26
34.12500,26
34.13333,26
34.14167,26
34.15000,26
34.15833,26
34.16667,26
34.17500,26
34.18333,26
34.19167,26
34.20000,26
34.20833,26
34.21667,26
34.22500,26
34.23333,26
34.24167,26
34.25000,26
34.25833,26
34.26667,26
34.27500,26
34.28333,26
34.29167,26
34.30000,26
34.30833,25
34.31667,25
34.32500,26
34.33333,26
34.34167,26
34.35000,25
34.35833,25
34.36667,26
34.37500,26
34.38333,26
34.39167,26
34.40000,26
34.40833,26
34.41667,26
34.42500,26
34.43333,26
34.44167,25
34.45000,25
34.45833,25
34.46667,26
34.47500,26
34.48333,26
34.49167,26
34.50000,26
34.50833,26
34.51667,26
34.52500,26
34.53333,26
34.54167,26
34.55000,26
34.55833,26
34.56667,26
34.57500,26
34.58333,26
34.59167,26
34.60000,26
34.60833,26
34.61667,26
34.62500,26
34.63333,26
34.64167,26
34.65000,26
34.65833,26
34.66667,26
34.67500,26
34.68333,26
34.69167,26
34.70000,26
34.70833,27
34.71667,27
34.72500,27
34.73333,28
34.74167,27
34.75000,27
34.75833,27
34.76667,27
34.77500,27
34.78333,27
34.79167,27
34.80000,27
34.80833,27
34.81667,27
34.82500,27
34.83333,27
34.84167,26
34.85000,26
34.85833,26
34.86667,26
34.87500,26
34.88333,26
34.89167,26
34.90000,26
34.90833,26
34.91667,26
34.92500,26
34.93333,26
34.94167,26
34.95000,26
34.95833,26
34.96667,26
34.97500,25
34.98333,25
34.99167,26
35.00000,26
35.00833,26
35.01667,26
35.02500,26
35.03333,26
35.04167,26
35.05000,26
35.05833,27
35.06667,27
35.07500,27
35.08333,27
35.09167,27
35.10000,27
35.10833,27
35.11667,27
35.12500,27
35.13333,27
35.14167,26
35.15000,26
35.15833,26
35.16667,26
35.17500,26
35.18333,27
35.19167,27
35.20000,27
35.20833,27
35.21667,27
35.22500,27
35.23333,27
35.24167,26
35.25000,26
35.25833,26
35.26667,26
35.27500,26
35.28333,26
35.29167,26
35.30000,26
35.30833,27
35.31667,26
35.32500,26
35.33333,26
35.34167,26
35.35000,26
35.35833,26
35.36667,27
35.37500,27
35.38333,27
35.39167,27
35.40000,28
35.40833,28
35.41667,28
35.42500,27
35.43333,27
35.44167,27
35.45000,27
35.45833,27
35.46667,27
35.47500,27
35.48333,28
35.49167,28
35.50000,27
35.50833,27
35.51667,27
35.52500,27
35.53333,27
35.54167,27
35.55000,27
35.55833,27
35.56667,26
35.57500,26
35.58333,26
35.59167,26
35.60000,26
35.60833,26
35.61667,26
35.62500,26
35.63333,26
35.64167,26
35.65000,26
35.65833,26
35.66667,26
35.67500,26
35.68333,26
35.69167,26
35.70000,26
35.70833,26
35.71667,26
35.72500,26
35.73333,27
35.74167,27
35.75000,27
35.75833,27
35.76667,27
35.77500,28
35.78333,28
35.79167,28
35.80000,27
35.80833,27
35.81667,27
35.82500,27
35.83333,27
35.84167,27
35.85000,27
35.85833,27
35.86667,27
35.87500,27
35.88333,27
35.89167,27
35.90000,27
35.90833,27
35.91667,27
35.92500,27
35.93333,27
35.94167,27
35.95000,27
35.95833,27
35.96667,27
35.97500,27
35.98333,27
35.99167,27
36.00000,27
36.00833,27
36.01667,27
36.02500,26
36.03333,26
36.04167,26
36.05000,26
36.05833,26
36.06667,27
36.07500,27
36.08333,26
36.09167,27
36.10000,26
36.10833,26
36.11667,26
36.12500,26
36.13333,26
36.14167,26
36.15000,27
36.15833,27
36.16667,27
36.17500,27
36.18333,27
36.19167,26
36.20000,26
36.20833,26
36.21667,25
36.22500,25
36.23333,25
36.24167,25
36.25000,26
36.25833,26
36.26667,26
36.27500,26
36.28333,26
36.29167,26
36.30000,26
36.30833,26
36.31667,26
36.32500,26
36.33333,26
36.34167,26
36.35000,25
36.35833,25
36.36667,26
36.37500,26
36.38333,27
36.39167,27
36.40000,27
36.40833,27
36.41667,27
36.42500,27
36.43333,26
36.44167,27
36.45000,27
36.45833,27
36.46667,27
36.47500,27
36.48333,27
36.49167,26
36.50000,26
36.50833,26
36.51667,26
36.52500,26
36.53333,26
36.54167,26
36.55000,26
36.55833,27
36.56667,27
36.57500,27
36.58333,27
36.59167,28
36.60000,28
36.60833,28
36.61667,28
36.62500,28
36.63333,28
36.64167,29
36.65000,29
36.65833,29
36.66667,29
36.67500,29
36.68333,29
36.69167,29
36.70000,29
36.70833,29
36.71667,29
36.72500,29
36.73333,29
36.74167,29
36.75000,29
36.75833,29
36.76667,29
36.77500,29
36.78333,30
36.79167,30
36.80000,30
36.80833,30
36.81667,30
36.82500,30
36.83333,29
36.84167,29
36.85000,29
36.85833,29
36.86667,29
36.87500,29
36.88333,29
36.89167,29
36.90000,29
36.90833,29
36.91667,29
36.92500,29
36.93333,30
36.94167,30
36.95000,30
36.95833,30
36.96667,30
36.97500,30
36.98333,30
36.99167,30
37.00000,30
37.00833,30
37.01667,30
37.02500,30
37.03333,29
37.04167,29
37.05000,30
37.05833,30
37.06667,30
37.07500,30
37.08333,30
37.09167,30
37.10000,30
37.10833,30
37.11667,31
37.12500,30
37.13333,30
37.14167,30
37.15000,30
37.15833,30
37.16667,30
37.17500,30
37.18333,30
37.19167,30
37.20000,30
37.20833,30
37.21667,31
37.22500,31
37.23333,30
37.24167,30
37.25000,30
37.25833,30
37.26667,30
37.27500,30
37.28333,30
37.29167,30
37.30000,30
37.30833,30
37.31667,30
37.32500,30
37.33333,30
37.34167,30
37.35000,30
37.35833,30
37.36667,30
37.37500,30
37.38333,30
37.39167,30
37.40000,30
37.40833,29
37.41667,29
37.42500,29
37.43333,29
37.44167,29
37.45000,29
37.45833,29
37.46667,29
37.47500,29
37.48333,29
37.49167,29
37.50000,29
37.50833,29
37.51667,29
37.52500,30
37.53333,30
37.54167,30
37.55000,30
37.55833,30
37.56667,30
37.57500,30
37.58333,30
37.59167,30
37.60000,29
37.60833,29
37.61667,29
37.62500,29
37.63333,29
37.64167,30
37.65000,29
37.65833,29
37.66667,29
37.67500,29
37.68333,29
37.69167,29
37.70000,29
37.70833,29
37.71667,29
37.72500,29
37.73333,29
37.74167,30
37.75000,30
37.75833,30
37.76667,30
37.77500,30
37.78333,30
37.79167,30
37.80000,30
37.80833,30
37.81667,30
37.82500,30
37.83333,30
37.84167,30
37.85000,30
37.85833,30
37.86667,30
37.87500,30
37.88333,30
37.89167,30
37.90000,30
37.90833,30
37.91667,30
37.92500,30
37.93333,30
37.94167,30
37.95000,30
37.95833,30
37.96667,31
37.97500,31
37.98333,30
37.99167,30
38.00000,30
38.00833,30
38.01667,30
38.02500,30
38.03333,30
38.04167,29
38.05000,29
38.05833,30
38.06667,30
38.07500,30
38.08333,30
38.09167,30
38.10000,30
38.10833,30
38.11667,30
38.12500,29
38.13333,29
38.14167,29
38.15000,29
38.15833,29
38.16667,29
38.17500,30
38.18333,30
38.19167,30
38.20000,30
38.20833,30
38.21667,30
38.22500,30
38.23333,30
38.24167,30
38.25000,30
38.25833,30
38.26667,30
38.27500,30
38.28333,30
38.29167,29
38.30000,30
38.30833,30
38.31667,30
38.32500,30
38.33333,30
38.34167,30
38.35000,30
38.35833,31
38.36667,31
38.37500,31
38.38333,30
38.39167,30
38.40000,29
38.40833,29
38.41667,29
38.42500,29
38.43333,30
38.44167,30
38.45000,29
38.45833,30
38.46667,30
38.47500,30
38.48333,30
38.49167,30
38.50000,30
38.50833,30
38.51667,30
38.52500,30
38.53333,30
38.54167,30
38.55000,30
38.55833,30
38.56667,30
38.57500,30
38.58333,30
38.59167,30
38.60000,30
38.60833,30
38.61667,30
38.62500,30
38.63333,30
38.64167,30
38.65000,30
38.65833,30
38.66667,30
38.67500,30
38.68333,30
38.69167,30
38.70000,30
38.70833,30
38.71667,30
38.72500,30
38.73333,30
38.74167,30
38.75000,31
38.75833,30
38.76667,30
38.77500,30
38.78333,30
38.79167,30
38.80000,29
38.80833,29
38.81667,29
38.82500,29
38.83333,29
38.84167,29
38.85000,30
38.85833,30
38.86667,30
38.87500,30
38.88333,30
38.89167,30
38.90000,30
38.90833,30
38.91667,30
38.92500,30
38.93333,30
38.94167,30
38.95000,30
38.95833,30
38.96667,30
38.97500,30
38.98333,31
38.99167,31
39.00000,30
39.00833,30
39.01667,30
39.02500,30
39.03333,30
39.04167,30
39.05000,30
39.05833,30
39.06667,30
39.07500,30
39.08333,30
39.09167,30
39.10000,30
39.10833,29
39.11667,29
39.12500,29
39.13333,29
39.14167,29
39.15000,30
39.15833,30
39.16667,30
39.17500,30
39.18333,30
39.19167,30
39.20000,30
39.20833,30
39.21667,30
39.22500,30
39.23333,30
39.24167,30
39.25000,30
39.25833,30
39.26667,31
39.27500,31
39.28333,31
39.29167,31
39.30000,31
39.30833,31
39.31667,31
39.32500,31
39.33333,31
39.34167,31
39.35000,31
39.35833,32
39.36667,32
39.37500,31
39.38333,31
39.39167,31
39.40000,31
39.40833,31
39.41667,31
39.42500,31
39.43333,31
39.44167,32
39.45000,32
39.45833,32
39.46667,32
39.47500,32
39.48333,32
39.49167,32
39.50000,33
39.50833,33
39.51667,32
39.52500,32
39.53333,32
39.54167,32
39.55000,32
39.55833,32
39.56667,32
39.57500,32
39.58333,32
39.59167,33
39.60000,33
39.60833,33
39.61667,33
39.62500,33
39.63333,33
39.64167,33
39.65000,33
39.65833,33
39.66667,32
39.67500,32
39.68333,32
39.69167,32
39.70000,32
39.70833,32
39.71667,32
39.72500,32
39.73333,32
39.74167,32
39.75000,32
39.75833,32
39.76667,32
39.77500,31
39.78333,31
39.79167,31
39.80000,32
39.80833,32
39.81667,32
39.82500,32
39.83333,32
39.84167,33
39.85000,33
39.85833,32
39.86667,32
39.87500,32
39.88333,32
39.89167,32
39.90000,32
39.90833,32
39.91667,32
39.92500,32
39.93333,32
39.94167,32
39.95000,32
39.95833,32
39.96667,32
39.97500,33
39.98333,33
39.99167,33
40.00000,33

