[Header]
Application Name,LabSolutions
Version,5.97 SP1
Data File Name,C:\Users\cremerlab\Desktop\griffin\2021-04-03_buffer_calibration\2021-04-03_buffer_calibration_432021_013_013.lcd
Output Date,4/3/2021
Output Time,10:46:58 PM

[File Information]
Type,Data File
Generated,4/3/2021 10:06:40 PM
Generated by,System Administrator
Modified,4/3/2021 10:46:58 PM
Modified by,System Administrator

[Sample Information]
Operator Name,System Administrator
Acquired,4/3/2021 10:06:58 PM
Sample Type,1:Standard
Level,4
Sample Name,2021-04-02_NC_glucose_glycerol_acetate_calibration_0mM
Sample ID,013
ISTD Amount1,1
ISTD Amount2,1
ISTD Amount3,1
ISTD Amount4,1
ISTD Amount5,1
ISTD Amount6,1
ISTD Amount7,1
ISTD Amount8,1
ISTD Amount9,1
ISTD Amount10,1
ISTD Amount11,1
ISTD Amount12,1
ISTD Amount13,1
ISTD Amount14,1
ISTD Amount15,1
ISTD Amount16,1
ISTD Amount17,1
ISTD Amount18,1
ISTD Amount19,1
ISTD Amount20,1
ISTD Amount21,1
ISTD Amount22,1
ISTD Amount23,1
ISTD Amount24,1
ISTD Amount25,1
ISTD Amount26,1
ISTD Amount27,1
ISTD Amount28,1
ISTD Amount29,1
ISTD Amount30,1
ISTD Amount31,1
ISTD Amount32,1
Sample Amount,1
Dilution Factor,1
Vial#,13
Injection Volume,20

[Original Files]
Data File,C:\Users\cremerlab\Desktop\griffin\2021-04-03_buffer_calibration\2021-04-03_buffer_calibration_432021_013_013.lcd
Method File,C:\LabSolutions\Data\Project1\organicacidsetc2.lcm
Batch File,C:\Users\cremerlab\Desktop\griffin\2021-04-03_buffer_calibration\2021-04-03_buffer_calibration.lcb
Report Format File,c:\LabSolutions\System\DEFAULT.lsr

[File Description]


[Configuration]
Instrument Name,HPLC-PC-Instrument1
Instrument #,1
Line #,1
# of Detectors,2
Detector ID,Detector A,Detector B
Detector Name,Detector A,Detector B
# of Channels,1,1

[Peak Table(Detector A)]
# of Peaks,0

[Peak Table(Detector B)]
# of Peaks,2
Peak#,R.Time,I.Time,F.Time,Area,Height,A/H,Conc.,Mark,ID#,Name,k',Plate #,Plate Ht.,Tailing,Resolution,Sep.Factor,Area Ratio,Height Ratio,Conc. %,Norm Conc.
1,11.069,10.767,12.917,1249169,69130,18.070,0.000,   ,,,0.000,10714,14.001,1.333,0.000,0.000,0,0,0.000,0.000
2,15.116,14.117,18.525,3156355,117461,26.872,0.000,   ,,,0.366,7150,20.980,0.763,7.082,0.000,0,0,0.000,0.000

[LC Chromatogram(Detector B-Ch1)]
Interval(msec),500
# of Points,4801
Start Time(min),0.000
End Time(min),40.000
Intensity Units,mV
Intensity Multiplier,0.001
R.Time (min),Intensity
0.00000,-0
0.00833,-0
0.01667,-0
0.02500,0
0.03333,0
0.04167,0
0.05000,0
0.05833,0
0.06667,0
0.07500,0
0.08333,-0
0.09167,0
0.10000,0
0.10833,0
0.11667,0
0.12500,0
0.13333,0
0.14167,0
0.15000,1
0.15833,1
0.16667,1
0.17500,0
0.18333,0
0.19167,0
0.20000,1
0.20833,1
0.21667,1
0.22500,1
0.23333,1
0.24167,1
0.25000,1
0.25833,1
0.26667,1
0.27500,1
0.28333,1
0.29167,1
0.30000,1
0.30833,1
0.31667,1
0.32500,1
0.33333,1
0.34167,0
0.35000,1
0.35833,1
0.36667,1
0.37500,1
0.38333,1
0.39167,1
0.40000,1
0.40833,1
0.41667,1
0.42500,1
0.43333,0
0.44167,0
0.45000,-0
0.45833,-0
0.46667,0
0.47500,0
0.48333,0
0.49167,0
0.50000,-0
0.50833,0
0.51667,1
0.52500,1
0.53333,1
0.54167,1
0.55000,1
0.55833,1
0.56667,1
0.57500,1
0.58333,1
0.59167,2
0.60000,2
0.60833,2
0.61667,1
0.62500,1
0.63333,1
0.64167,1
0.65000,0
0.65833,0
0.66667,0
0.67500,0
0.68333,0
0.69167,0
0.70000,0
0.70833,0
0.71667,0
0.72500,-0
0.73333,-0
0.74167,-0
0.75000,-0
0.75833,-0
0.76667,-0
0.77500,-0
0.78333,-1
0.79167,-1
0.80000,-1
0.80833,-0
0.81667,-0
0.82500,0
0.83333,0
0.84167,0
0.85000,1
0.85833,0
0.86667,0
0.87500,-0
0.88333,-0
0.89167,-1
0.90000,-1
0.90833,-1
0.91667,-1
0.92500,-1
0.93333,-1
0.94167,-1
0.95000,-1
0.95833,-1
0.96667,-1
0.97500,-1
0.98333,-1
0.99167,-1
1.00000,-1
1.00833,-1
1.01667,-0
1.02500,-0
1.03333,-1
1.04167,-1
1.05000,-1
1.05833,-1
1.06667,-1
1.07500,-1
1.08333,-1
1.09167,-1
1.10000,-1
1.10833,-1
1.11667,-1
1.12500,-1
1.13333,-1
1.14167,-1
1.15000,-1
1.15833,-1
1.16667,-1
1.17500,-0
1.18333,-0
1.19167,-0
1.20000,-0
1.20833,-0
1.21667,-0
1.22500,-0
1.23333,-0
1.24167,0
1.25000,-0
1.25833,-0
1.26667,-0
1.27500,-1
1.28333,-1
1.29167,-1
1.30000,-1
1.30833,-1
1.31667,-1
1.32500,-1
1.33333,-1
1.34167,-1
1.35000,-1
1.35833,-1
1.36667,-1
1.37500,-2
1.38333,-2
1.39167,-1
1.40000,-1
1.40833,-1
1.41667,-1
1.42500,-1
1.43333,-1
1.44167,-1
1.45000,-1
1.45833,-2
1.46667,-1
1.47500,-1
1.48333,-1
1.49167,-1
1.50000,-1
1.50833,-1
1.51667,-1
1.52500,-1
1.53333,-1
1.54167,-2
1.55000,-1
1.55833,-1
1.56667,-1
1.57500,-1
1.58333,-0
1.59167,-0
1.60000,-1
1.60833,-1
1.61667,-1
1.62500,-1
1.63333,-1
1.64167,-1
1.65000,-1
1.65833,-0
1.66667,-1
1.67500,-0
1.68333,-0
1.69167,-0
1.70000,0
1.70833,0
1.71667,0
1.72500,0
1.73333,0
1.74167,-0
1.75000,-0
1.75833,-1
1.76667,-1
1.77500,-1
1.78333,-1
1.79167,-1
1.80000,-2
1.80833,-1
1.81667,-1
1.82500,-1
1.83333,-1
1.84167,-2
1.85000,-2
1.85833,-2
1.86667,-2
1.87500,-1
1.88333,-1
1.89167,-1
1.90000,-1
1.90833,-1
1.91667,-1
1.92500,-1
1.93333,-1
1.94167,-1
1.95000,-1
1.95833,-1
1.96667,-1
1.97500,-1
1.98333,-1
1.99167,-1
2.00000,-1
2.00833,-1
2.01667,-1
2.02500,-1
2.03333,-1
2.04167,-1
2.05000,-1
2.05833,-1
2.06667,-1
2.07500,-1
2.08333,-1
2.09167,-1
2.10000,-1
2.10833,-1
2.11667,-1
2.12500,-1
2.13333,-1
2.14167,-1
2.15000,-1
2.15833,-1
2.16667,-1
2.17500,-1
2.18333,-1
2.19167,-1
2.20000,-1
2.20833,-1
2.21667,-1
2.22500,-1
2.23333,-1
2.24167,-1
2.25000,-2
2.25833,-2
2.26667,-2
2.27500,-2
2.28333,-2
2.29167,-2
2.30000,-2
2.30833,-2
2.31667,-2
2.32500,-2
2.33333,-1
2.34167,-1
2.35000,-1
2.35833,-1
2.36667,-2
2.37500,-2
2.38333,-2
2.39167,-2
2.40000,-1
2.40833,-1
2.41667,-1
2.42500,-1
2.43333,-1
2.44167,-1
2.45000,-1
2.45833,-1
2.46667,-1
2.47500,-2
2.48333,-1
2.49167,-1
2.50000,-2
2.50833,-2
2.51667,-2
2.52500,-2
2.53333,-2
2.54167,-2
2.55000,-2
2.55833,-2
2.56667,-2
2.57500,-2
2.58333,-2
2.59167,-2
2.60000,-1
2.60833,-1
2.61667,-1
2.62500,-1
2.63333,-0
2.64167,-1
2.65000,-1
2.65833,-1
2.66667,-1
2.67500,-1
2.68333,-1
2.69167,-1
2.70000,-1
2.70833,-1
2.71667,-1
2.72500,-1
2.73333,-1
2.74167,-1
2.75000,-1
2.75833,-1
2.76667,-1
2.77500,-1
2.78333,-1
2.79167,-2
2.80000,-2
2.80833,-2
2.81667,-2
2.82500,-2
2.83333,-2
2.84167,-2
2.85000,-2
2.85833,-2
2.86667,-2
2.87500,-2
2.88333,-1
2.89167,-1
2.90000,-1
2.90833,-2
2.91667,-2
2.92500,-2
2.93333,-2
2.94167,-2
2.95000,-2
2.95833,-2
2.96667,-2
2.97500,-2
2.98333,-2
2.99167,-2
3.00000,-2
3.00833,-2
3.01667,-2
3.02500,-1
3.03333,-1
3.04167,-1
3.05000,-1
3.05833,-1
3.06667,-2
3.07500,-2
3.08333,-2
3.09167,-2
3.10000,-2
3.10833,-2
3.11667,-2
3.12500,-2
3.13333,-2
3.14167,-2
3.15000,-2
3.15833,-2
3.16667,-2
3.17500,-2
3.18333,-2
3.19167,-2
3.20000,-1
3.20833,-1
3.21667,-2
3.22500,-2
3.23333,-2
3.24167,-2
3.25000,-2
3.25833,-2
3.26667,-3
3.27500,-3
3.28333,-3
3.29167,-3
3.30000,-3
3.30833,-2
3.31667,-2
3.32500,-2
3.33333,-2
3.34167,-2
3.35000,-2
3.35833,-2
3.36667,-2
3.37500,-2
3.38333,-2
3.39167,-2
3.40000,-2
3.40833,-2
3.41667,-2
3.42500,-1
3.43333,-2
3.44167,-2
3.45000,-2
3.45833,-2
3.46667,-2
3.47500,-2
3.48333,-2
3.49167,-2
3.50000,-2
3.50833,-2
3.51667,-2
3.52500,-2
3.53333,-2
3.54167,-2
3.55000,-2
3.55833,-2
3.56667,-2
3.57500,-2
3.58333,-2
3.59167,-2
3.60000,-2
3.60833,-2
3.61667,-2
3.62500,-2
3.63333,-2
3.64167,-2
3.65000,-2
3.65833,-1
3.66667,-1
3.67500,-2
3.68333,-2
3.69167,-2
3.70000,-2
3.70833,-2
3.71667,-2
3.72500,-2
3.73333,-2
3.74167,-2
3.75000,-2
3.75833,-1
3.76667,-1
3.77500,-1
3.78333,-1
3.79167,-1
3.80000,-1
3.80833,-1
3.81667,-1
3.82500,-1
3.83333,-1
3.84167,-1
3.85000,-1
3.85833,-1
3.86667,-1
3.87500,-1
3.88333,-1
3.89167,-1
3.90000,-1
3.90833,-1
3.91667,-1
3.92500,-1
3.93333,-1
3.94167,-1
3.95000,-1
3.95833,-1
3.96667,-1
3.97500,-1
3.98333,-1
3.99167,-1
4.00000,-2
4.00833,-2
4.01667,-2
4.02500,-3
4.03333,-3
4.04167,-2
4.05000,-2
4.05833,-2
4.06667,-2
4.07500,-2
4.08333,-2
4.09167,-2
4.10000,-2
4.10833,-2
4.11667,-2
4.12500,-2
4.13333,-2
4.14167,-2
4.15000,-2
4.15833,-2
4.16667,-2
4.17500,-2
4.18333,-2
4.19167,-2
4.20000,-2
4.20833,-2
4.21667,-2
4.22500,-2
4.23333,-2
4.24167,-2
4.25000,-2
4.25833,-2
4.26667,-2
4.27500,-2
4.28333,-2
4.29167,-2
4.30000,-3
4.30833,-3
4.31667,-3
4.32500,-3
4.33333,-2
4.34167,-2
4.35000,-2
4.35833,-2
4.36667,-2
4.37500,-2
4.38333,-2
4.39167,-2
4.40000,-2
4.40833,-2
4.41667,-2
4.42500,-2
4.43333,-2
4.44167,-2
4.45000,-2
4.45833,-2
4.46667,-2
4.47500,-2
4.48333,-2
4.49167,-2
4.50000,-3
4.50833,-3
4.51667,-3
4.52500,-3
4.53333,-3
4.54167,-3
4.55000,-3
4.55833,-3
4.56667,-3
4.57500,-3
4.58333,-3
4.59167,-3
4.60000,-3
4.60833,-3
4.61667,-3
4.62500,-3
4.63333,-3
4.64167,-3
4.65000,-3
4.65833,-4
4.66667,-4
4.67500,-4
4.68333,-4
4.69167,-3
4.70000,-3
4.70833,-3
4.71667,-3
4.72500,-3
4.73333,-3
4.74167,-3
4.75000,-3
4.75833,-3
4.76667,-3
4.77500,-4
4.78333,-4
4.79167,-3
4.80000,-3
4.80833,-3
4.81667,-3
4.82500,-3
4.83333,-3
4.84167,-3
4.85000,-3
4.85833,-3
4.86667,-2
4.87500,-3
4.88333,-3
4.89167,-3
4.90000,-4
4.90833,-4
4.91667,-4
4.92500,-4
4.93333,-4
4.94167,-4
4.95000,-4
4.95833,-4
4.96667,-5
4.97500,-4
4.98333,-4
4.99167,-5
5.00000,-5
5.00833,-5
5.01667,-5
5.02500,-5
5.03333,-5
5.04167,-5
5.05000,-5
5.05833,-5
5.06667,-5
5.07500,-5
5.08333,-5
5.09167,-5
5.10000,-5
5.10833,-4
5.11667,-4
5.12500,-5
5.13333,-5
5.14167,-5
5.15000,-5
5.15833,-5
5.16667,-5
5.17500,-5
5.18333,-5
5.19167,-5
5.20000,-5
5.20833,-5
5.21667,-5
5.22500,-5
5.23333,-5
5.24167,-4
5.25000,-4
5.25833,-4
5.26667,-5
5.27500,-5
5.28333,-5
5.29167,-5
5.30000,-5
5.30833,-5
5.31667,-5
5.32500,-5
5.33333,-5
5.34167,-5
5.35000,-5
5.35833,-5
5.36667,-5
5.37500,-5
5.38333,-5
5.39167,-5
5.40000,-5
5.40833,-5
5.41667,-6
5.42500,-5
5.43333,-5
5.44167,-5
5.45000,-5
5.45833,-5
5.46667,-5
5.47500,-5
5.48333,-5
5.49167,-5
5.50000,-5
5.50833,-5
5.51667,-5
5.52500,-5
5.53333,-4
5.54167,-4
5.55000,-4
5.55833,-4
5.56667,-4
5.57500,-4
5.58333,-5
5.59167,-5
5.60000,-5
5.60833,-5
5.61667,-5
5.62500,-5
5.63333,-5
5.64167,-5
5.65000,-5
5.65833,-5
5.66667,-5
5.67500,-4
5.68333,-4
5.69167,-4
5.70000,-4
5.70833,-4
5.71667,-4
5.72500,-4
5.73333,-4
5.74167,-4
5.75000,-4
5.75833,-4
5.76667,-4
5.77500,-4
5.78333,-4
5.79167,-4
5.80000,-4
5.80833,-5
5.81667,-5
5.82500,-5
5.83333,-5
5.84167,-6
5.85000,-6
5.85833,-6
5.86667,-5
5.87500,-5
5.88333,-4
5.89167,-4
5.90000,-4
5.90833,-4
5.91667,-4
5.92500,-4
5.93333,-4
5.94167,-4
5.95000,-3
5.95833,-4
5.96667,-4
5.97500,-4
5.98333,-4
5.99167,-5
6.00000,-5
6.00833,-5
6.01667,-5
6.02500,-5
6.03333,-5
6.04167,-5
6.05000,-5
6.05833,-4
6.06667,-4
6.07500,-4
6.08333,-4
6.09167,-4
6.10000,-4
6.10833,-4
6.11667,-4
6.12500,-4
6.13333,-4
6.14167,-4
6.15000,-4
6.15833,-4
6.16667,-4
6.17500,-4
6.18333,-4
6.19167,-5
6.20000,-4
6.20833,-4
6.21667,-4
6.22500,-4
6.23333,-4
6.24167,-4
6.25000,-4
6.25833,-4
6.26667,-3
6.27500,-3
6.28333,-3
6.29167,-3
6.30000,-3
6.30833,-4
6.31667,-4
6.32500,-4
6.33333,-4
6.34167,-5
6.35000,-4
6.35833,-4
6.36667,-4
6.37500,-4
6.38333,-4
6.39167,-4
6.40000,-3
6.40833,-3
6.41667,-3
6.42500,-3
6.43333,-4
6.44167,-4
6.45000,-4
6.45833,-4
6.46667,-4
6.47500,-4
6.48333,-4
6.49167,-4
6.50000,-4
6.50833,-4
6.51667,-3
6.52500,-3
6.53333,-4
6.54167,-4
6.55000,-4
6.55833,-4
6.56667,-4
6.57500,-4
6.58333,-4
6.59167,-4
6.60000,-4
6.60833,-4
6.61667,-4
6.62500,-5
6.63333,-5
6.64167,-5
6.65000,-5
6.65833,-5
6.66667,-5
6.67500,-5
6.68333,-5
6.69167,-5
6.70000,-5
6.70833,-5
6.71667,-5
6.72500,-5
6.73333,-5
6.74167,-4
6.75000,-5
6.75833,-5
6.76667,-5
6.77500,-5
6.78333,-5
6.79167,-5
6.80000,-5
6.80833,-5
6.81667,-4
6.82500,-4
6.83333,-4
6.84167,-4
6.85000,-4
6.85833,-5
6.86667,-5
6.87500,-5
6.88333,-5
6.89167,-5
6.90000,-6
6.90833,-6
6.91667,-6
6.92500,-6
6.93333,-6
6.94167,-6
6.95000,-5
6.95833,-5
6.96667,-5
6.97500,-5
6.98333,-5
6.99167,-5
7.00000,-5
7.00833,-5
7.01667,-5
7.02500,-5
7.03333,-5
7.04167,-5
7.05000,-5
7.05833,-5
7.06667,-5
7.07500,-6
7.08333,-6
7.09167,-6
7.10000,-6
7.10833,-6
7.11667,-6
7.12500,-6
7.13333,-6
7.14167,-6
7.15000,-6
7.15833,-6
7.16667,-6
7.17500,-6
7.18333,-6
7.19167,-6
7.20000,-6
7.20833,-5
7.21667,-5
7.22500,-5
7.23333,-6
7.24167,-6
7.25000,-6
7.25833,-6
7.26667,-6
7.27500,-6
7.28333,-6
7.29167,-6
7.30000,-5
7.30833,-5
7.31667,-5
7.32500,-5
7.33333,-5
7.34167,-5
7.35000,-5
7.35833,-5
7.36667,-5
7.37500,-5
7.38333,-5
7.39167,-5
7.40000,-5
7.40833,-5
7.41667,-6
7.42500,-6
7.43333,-6
7.44167,-6
7.45000,-5
7.45833,-5
7.46667,-5
7.47500,-5
7.48333,-5
7.49167,-5
7.50000,-5
7.50833,-4
7.51667,-5
7.52500,-5
7.53333,-5
7.54167,-5
7.55000,-5
7.55833,-5
7.56667,-6
7.57500,-6
7.58333,-6
7.59167,-6
7.60000,-6
7.60833,-6
7.61667,-6
7.62500,-6
7.63333,-6
7.64167,-6
7.65000,-6
7.65833,-6
7.66667,-6
7.67500,-6
7.68333,-6
7.69167,-6
7.70000,-6
7.70833,-6
7.71667,-6
7.72500,-5
7.73333,-5
7.74167,-5
7.75000,-5
7.75833,-5
7.76667,-5
7.77500,-5
7.78333,-5
7.79167,-6
7.80000,-6
7.80833,-6
7.81667,-6
7.82500,-6
7.83333,-6
7.84167,-6
7.85000,-6
7.85833,-6
7.86667,-6
7.87500,-5
7.88333,-5
7.89167,-5
7.90000,-5
7.90833,-5
7.91667,-5
7.92500,-5
7.93333,-5
7.94167,-5
7.95000,-5
7.95833,-5
7.96667,-6
7.97500,-6
7.98333,-6
7.99167,-6
8.00000,-6
8.00833,-6
8.01667,-5
8.02500,-6
8.03333,-6
8.04167,-6
8.05000,-6
8.05833,-5
8.06667,-5
8.07500,-5
8.08333,-5
8.09167,-5
8.10000,-5
8.10833,-5
8.11667,-5
8.12500,-6
8.13333,-6
8.14167,-6
8.15000,-6
8.15833,-6
8.16667,-7
8.17500,-6
8.18333,-6
8.19167,-6
8.20000,-6
8.20833,-6
8.21667,-6
8.22500,-6
8.23333,-6
8.24167,-6
8.25000,-6
8.25833,-7
8.26667,-7
8.27500,-7
8.28333,-7
8.29167,-7
8.30000,-7
8.30833,-6
8.31667,-6
8.32500,-6
8.33333,-6
8.34167,-6
8.35000,-5
8.35833,-5
8.36667,-5
8.37500,-6
8.38333,-6
8.39167,-6
8.40000,-6
8.40833,-6
8.41667,-6
8.42500,-6
8.43333,-6
8.44167,-6
8.45000,-7
8.45833,-7
8.46667,-7
8.47500,-7
8.48333,-7
8.49167,-7
8.50000,-6
8.50833,-7
8.51667,-7
8.52500,-7
8.53333,-7
8.54167,-7
8.55000,-7
8.55833,-7
8.56667,-6
8.57500,-6
8.58333,-6
8.59167,-6
8.60000,-6
8.60833,-7
8.61667,-7
8.62500,-7
8.63333,-7
8.64167,-7
8.65000,-6
8.65833,-6
8.66667,-6
8.67500,-6
8.68333,-6
8.69167,-6
8.70000,-7
8.70833,-7
8.71667,-7
8.72500,-6
8.73333,-6
8.74167,-6
8.75000,-6
8.75833,-5
8.76667,-6
8.77500,-6
8.78333,-6
8.79167,-6
8.80000,-7
8.80833,-7
8.81667,-7
8.82500,-7
8.83333,-7
8.84167,-7
8.85000,-6
8.85833,-6
8.86667,-6
8.87500,-6
8.88333,-6
8.89167,-6
8.90000,-6
8.90833,-6
8.91667,-5
8.92500,-5
8.93333,-6
8.94167,-6
8.95000,-6
8.95833,-7
8.96667,-7
8.97500,-7
8.98333,-7
8.99167,-7
9.00000,-7
9.00833,-7
9.01667,-7
9.02500,-7
9.03333,-7
9.04167,-7
9.05000,-7
9.05833,-7
9.06667,-7
9.07500,-7
9.08333,-7
9.09167,-6
9.10000,-6
9.10833,-6
9.11667,-6
9.12500,-6
9.13333,-6
9.14167,-6
9.15000,-6
9.15833,-6
9.16667,-6
9.17500,-6
9.18333,-6
9.19167,-6
9.20000,-7
9.20833,-7
9.21667,-6
9.22500,-6
9.23333,-6
9.24167,-6
9.25000,-6
9.25833,-6
9.26667,-6
9.27500,-6
9.28333,-6
9.29167,-6
9.30000,-6
9.30833,-6
9.31667,-6
9.32500,-6
9.33333,-6
9.34167,-7
9.35000,-7
9.35833,-7
9.36667,-7
9.37500,-7
9.38333,-7
9.39167,-7
9.40000,-7
9.40833,-7
9.41667,-7
9.42500,-7
9.43333,-7
9.44167,-7
9.45000,-7
9.45833,-7
9.46667,-7
9.47500,-6
9.48333,-6
9.49167,-6
9.50000,-6
9.50833,-6
9.51667,-6
9.52500,-6
9.53333,-6
9.54167,-6
9.55000,-7
9.55833,-7
9.56667,-7
9.57500,-7
9.58333,-7
9.59167,-7
9.60000,-7
9.60833,-7
9.61667,-7
9.62500,-7
9.63333,-7
9.64167,-7
9.65000,-7
9.65833,-7
9.66667,-6
9.67500,-6
9.68333,-6
9.69167,-6
9.70000,-6
9.70833,-7
9.71667,-7
9.72500,-7
9.73333,-7
9.74167,-7
9.75000,-7
9.75833,-7
9.76667,-7
9.77500,-7
9.78333,-7
9.79167,-7
9.80000,-8
9.80833,-8
9.81667,-8
9.82500,-8
9.83333,-8
9.84167,-8
9.85000,-7
9.85833,-7
9.86667,-7
9.87500,-8
9.88333,-8
9.89167,-7
9.90000,-8
9.90833,-8
9.91667,-8
9.92500,-8
9.93333,-8
9.94167,-8
9.95000,-8
9.95833,-8
9.96667,-8
9.97500,-8
9.98333,-8
9.99167,-8
10.00000,-8
10.00833,-8
10.01667,-7
10.02500,-7
10.03333,-7
10.04167,-7
10.05000,-7
10.05833,-7
10.06667,-7
10.07500,-7
10.08333,-6
10.09167,-7
10.10000,-7
10.10833,-7
10.11667,-7
10.12500,-7
10.13333,-7
10.14167,-7
10.15000,-6
10.15833,-6
10.16667,-6
10.17500,-7
10.18333,-7
10.19167,-6
10.20000,-6
10.20833,-6
10.21667,-7
10.22500,-7
10.23333,-7
10.24167,-7
10.25000,-7
10.25833,-7
10.26667,-7
10.27500,-6
10.28333,-6
10.29167,-6
10.30000,-6
10.30833,-6
10.31667,-6
10.32500,-6
10.33333,-6
10.34167,-6
10.35000,-5
10.35833,-5
10.36667,-5
10.37500,-5
10.38333,-4
10.39167,-4
10.40000,-4
10.40833,-4
10.41667,-3
10.42500,-3
10.43333,-2
10.44167,-2
10.45000,-2
10.45833,-1
10.46667,-1
10.47500,-1
10.48333,-2
10.49167,-3
10.50000,-4
10.50833,-5
10.51667,-7
10.52500,-10
10.53333,-15
10.54167,-21
10.55000,-31
10.55833,-45
10.56667,-63
10.57500,-88
10.58333,-120
10.59167,-160
10.60000,-212
10.60833,-278
10.61667,-359
10.62500,-458
10.63333,-577
10.64167,-717
10.65000,-881
10.65833,-1067
10.66667,-1277
10.67500,-1507
10.68333,-1757
10.69167,-2021
10.70000,-2295
10.70833,-2572
10.71667,-2843
10.72500,-3099
10.73333,-3329
10.74167,-3522
10.75000,-3663
10.75833,-3740
10.76667,-3741
10.77500,-3651
10.78333,-3457
10.79167,-3148
10.80000,-2711
10.80833,-2136
10.81667,-1412
10.82500,-533
10.83333,508
10.84167,1718
10.85000,3100
10.85833,4656
10.86667,6388
10.87500,8294
10.88333,10372
10.89167,12619
10.90000,15028
10.90833,17593
10.91667,20303
10.92500,23149
10.93333,26116
10.94167,29189
10.95000,32348
10.95833,35570
10.96667,38829
10.97500,42093
10.98333,45329
10.99167,48495
11.00000,51547
11.00833,54438
11.01667,57115
11.02500,59527
11.03333,61621
11.04167,63348
11.05000,64663
11.05833,65531
11.06667,65925
11.07500,65832
11.08333,65251
11.09167,64197
11.10000,62696
11.10833,60786
11.11667,58517
11.12500,55944
11.13333,53128
11.14167,50131
11.15000,47015
11.15833,43838
11.16667,40654
11.17500,37510
11.18333,34446
11.19167,31494
11.20000,28679
11.20833,26021
11.21667,23531
11.22500,21216
11.23333,19079
11.24167,17118
11.25000,15327
11.25833,13700
11.26667,12229
11.27500,10904
11.28333,9714
11.29167,8649
11.30000,7698
11.30833,6851
11.31667,6098
11.32500,5431
11.33333,4840
11.34167,4318
11.35000,3856
11.35833,3449
11.36667,3090
11.37500,2774
11.38333,2495
11.39167,2249
11.40000,2033
11.40833,1842
11.41667,1674
11.42500,1526
11.43333,1395
11.44167,1279
11.45000,1176
11.45833,1084
11.46667,1003
11.47500,931
11.48333,867
11.49167,809
11.50000,757
11.50833,711
11.51667,669
11.52500,631
11.53333,597
11.54167,566
11.55000,537
11.55833,512
11.56667,488
11.57500,467
11.58333,447
11.59167,428
11.60000,411
11.60833,395
11.61667,380
11.62500,366
11.63333,353
11.64167,341
11.65000,330
11.65833,319
11.66667,309
11.67500,300
11.68333,291
11.69167,282
11.70000,274
11.70833,267
11.71667,260
11.72500,253
11.73333,247
11.74167,241
11.75000,235
11.75833,230
11.76667,225
11.77500,220
11.78333,215
11.79167,210
11.80000,206
11.80833,202
11.81667,198
11.82500,194
11.83333,191
11.84167,187
11.85000,184
11.85833,181
11.86667,178
11.87500,176
11.88333,173
11.89167,171
11.90000,169
11.90833,167
11.91667,164
11.92500,163
11.93333,161
11.94167,159
11.95000,157
11.95833,156
11.96667,154
11.97500,152
11.98333,150
11.99167,149
12.00000,147
12.00833,146
12.01667,145
12.02500,144
12.03333,143
12.04167,142
12.05000,141
12.05833,140
12.06667,139
12.07500,138
12.08333,137
12.09167,135
12.10000,134
12.10833,134
12.11667,133
12.12500,132
12.13333,131
12.14167,131
12.15000,130
12.15833,129
12.16667,128
12.17500,127
12.18333,126
12.19167,125
12.20000,124
12.20833,124
12.21667,123
12.22500,122
12.23333,121
12.24167,120
12.25000,119
12.25833,118
12.26667,117
12.27500,117
12.28333,116
12.29167,115
12.30000,115
12.30833,114
12.31667,113
12.32500,112
12.33333,112
12.34167,111
12.35000,111
12.35833,110
12.36667,109
12.37500,108
12.38333,107
12.39167,106
12.40000,106
12.40833,105
12.41667,105
12.42500,104
12.43333,103
12.44167,102
12.45000,102
12.45833,101
12.46667,100
12.47500,100
12.48333,99
12.49167,98
12.50000,97
12.50833,97
12.51667,96
12.52500,95
12.53333,95
12.54167,94
12.55000,93
12.55833,92
12.56667,91
12.57500,91
12.58333,90
12.59167,89
12.60000,88
12.60833,87
12.61667,86
12.62500,85
12.63333,85
12.64167,84
12.65000,83
12.65833,82
12.66667,82
12.67500,81
12.68333,80
12.69167,79
12.70000,78
12.70833,78
12.71667,77
12.72500,77
12.73333,76
12.74167,75
12.75000,74
12.75833,73
12.76667,72
12.77500,72
12.78333,71
12.79167,71
12.80000,70
12.80833,70
12.81667,69
12.82500,69
12.83333,68
12.84167,68
12.85000,67
12.85833,67
12.86667,66
12.87500,65
12.88333,65
12.89167,64
12.90000,64
12.90833,63
12.91667,63
12.92500,63
12.93333,62
12.94167,61
12.95000,61
12.95833,61
12.96667,60
12.97500,60
12.98333,60
12.99167,59
13.00000,59
13.00833,58
13.01667,58
13.02500,58
13.03333,58
13.04167,58
13.05000,58
13.05833,58
13.06667,58
13.07500,57
13.08333,57
13.09167,57
13.10000,56
13.10833,56
13.11667,56
13.12500,55
13.13333,55
13.14167,55
13.15000,55
13.15833,55
13.16667,54
13.17500,54
13.18333,53
13.19167,53
13.20000,53
13.20833,52
13.21667,52
13.22500,52
13.23333,53
13.24167,52
13.25000,52
13.25833,52
13.26667,52
13.27500,51
13.28333,51
13.29167,50
13.30000,50
13.30833,49
13.31667,49
13.32500,49
13.33333,48
13.34167,48
13.35000,47
13.35833,47
13.36667,46
13.37500,46
13.38333,46
13.39167,46
13.40000,46
13.40833,46
13.41667,45
13.42500,45
13.43333,44
13.44167,44
13.45000,43
13.45833,43
13.46667,42
13.47500,42
13.48333,41
13.49167,41
13.50000,41
13.50833,41
13.51667,40
13.52500,40
13.53333,40
13.54167,40
13.55000,40
13.55833,40
13.56667,40
13.57500,39
13.58333,39
13.59167,39
13.60000,38
13.60833,38
13.61667,38
13.62500,37
13.63333,37
13.64167,37
13.65000,37
13.65833,36
13.66667,36
13.67500,35
13.68333,35
13.69167,35
13.70000,35
13.70833,35
13.71667,35
13.72500,35
13.73333,35
13.74167,34
13.75000,34
13.75833,34
13.76667,33
13.77500,33
13.78333,33
13.79167,33
13.80000,33
13.80833,33
13.81667,33
13.82500,33
13.83333,33
13.84167,32
13.85000,32
13.85833,33
13.86667,33
13.87500,33
13.88333,33
13.89167,33
13.90000,33
13.90833,33
13.91667,33
13.92500,33
13.93333,33
13.94167,33
13.95000,33
13.95833,33
13.96667,33
13.97500,33
13.98333,33
13.99167,34
14.00000,34
14.00833,35
14.01667,35
14.02500,35
14.03333,35
14.04167,35
14.05000,35
14.05833,36
14.06667,36
14.07500,37
14.08333,37
14.09167,38
14.10000,39
14.10833,40
14.11667,41
14.12500,41
14.13333,42
14.14167,43
14.15000,44
14.15833,46
14.16667,49
14.17500,51
14.18333,53
14.19167,56
14.20000,60
14.20833,64
14.21667,69
14.22500,76
14.23333,83
14.24167,93
14.25000,104
14.25833,118
14.26667,134
14.27500,154
14.28333,178
14.29167,206
14.30000,240
14.30833,280
14.31667,328
14.32500,385
14.33333,452
14.34167,530
14.35000,620
14.35833,725
14.36667,847
14.37500,986
14.38333,1144
14.39167,1323
14.40000,1525
14.40833,1752
14.41667,2004
14.42500,2285
14.43333,2594
14.44167,2933
14.45000,3305
14.45833,3709
14.46667,4147
14.47500,4621
14.48333,5129
14.49167,5674
14.50000,6254
14.50833,6872
14.51667,7526
14.52500,8217
14.53333,8945
14.54167,9709
14.55000,10510
14.55833,11347
14.56667,12220
14.57500,13127
14.58333,14069
14.59167,15045
14.60000,16055
14.60833,17098
14.61667,18173
14.62500,19280
14.63333,20418
14.64167,21586
14.65000,22784
14.65833,24011
14.66667,25267
14.67500,26551
14.68333,27863
14.69167,29202
14.70000,30568
14.70833,31960
14.71667,33378
14.72500,34821
14.73333,36291
14.74167,37785
14.75000,39303
14.75833,40846
14.76667,42412
14.77500,44002
14.78333,45616
14.79167,47252
14.80000,48911
14.80833,50593
14.81667,52298
14.82500,54025
14.83333,55774
14.84167,57546
14.85000,59338
14.85833,61153
14.86667,62988
14.87500,64845
14.88333,66722
14.89167,68620
14.90000,70537
14.90833,72475
14.91667,74433
14.92500,76410
14.93333,78404
14.94167,80417
14.95000,82447
14.95833,84493
14.96667,86554
14.97500,88630
14.98333,90717
14.99167,92815
15.00000,94920
15.00833,97030
15.01667,99140
15.02500,101244
15.03333,103331
15.04167,105391
15.05000,107405
15.05833,109350
15.06667,111195
15.07500,112903
15.08333,114426
15.09167,115710
15.10000,116694
15.10833,117315
15.11667,117506
15.12500,117208
15.13333,116369
15.14167,114948
15.15000,112923
15.15833,110289
15.16667,107063
15.17500,103283
15.18333,99004
15.19167,94299
15.20000,89254
15.20833,83959
15.21667,78509
15.22500,72997
15.23333,67511
15.24167,62131
15.25000,56923
15.25833,51942
15.26667,47230
15.27500,42815
15.28333,38716
15.29167,34939
15.30000,31482
15.30833,28340
15.31667,25496
15.32500,22935
15.33333,20637
15.34167,18581
15.35000,16746
15.35833,15110
15.36667,13654
15.37500,12358
15.38333,11205
15.39167,10180
15.40000,9267
15.40833,8453
15.41667,7726
15.42500,7078
15.43333,6497
15.44167,5976
15.45000,5508
15.45833,5087
15.46667,4707
15.47500,4364
15.48333,4053
15.49167,3771
15.50000,3515
15.50833,3282
15.51667,3069
15.52500,2875
15.53333,2697
15.54167,2534
15.55000,2385
15.55833,2247
15.56667,2120
15.57500,2003
15.58333,1896
15.59167,1796
15.60000,1704
15.60833,1618
15.61667,1539
15.62500,1465
15.63333,1397
15.64167,1333
15.65000,1274
15.65833,1219
15.66667,1167
15.67500,1119
15.68333,1074
15.69167,1033
15.70000,994
15.70833,958
15.71667,924
15.72500,892
15.73333,862
15.74167,834
15.75000,808
15.75833,783
15.76667,760
15.77500,739
15.78333,718
15.79167,699
15.80000,681
15.80833,664
15.81667,648
15.82500,633
15.83333,619
15.84167,606
15.85000,594
15.85833,582
15.86667,571
15.87500,560
15.88333,550
15.89167,540
15.90000,531
15.90833,522
15.91667,514
15.92500,507
15.93333,500
15.94167,493
15.95000,486
15.95833,480
15.96667,474
15.97500,469
15.98333,464
15.99167,458
16.00000,453
16.00833,449
16.01667,444
16.02500,440
16.03333,436
16.04167,432
16.05000,429
16.05833,425
16.06667,422
16.07500,418
16.08333,415
16.09167,411
16.10000,408
16.10833,405
16.11667,402
16.12500,399
16.13333,396
16.14167,393
16.15000,390
16.15833,387
16.16667,384
16.17500,382
16.18333,379
16.19167,376
16.20000,373
16.20833,371
16.21667,368
16.22500,366
16.23333,363
16.24167,360
16.25000,358
16.25833,355
16.26667,352
16.27500,350
16.28333,347
16.29167,345
16.30000,342
16.30833,340
16.31667,337
16.32500,335
16.33333,333
16.34167,330
16.35000,328
16.35833,326
16.36667,324
16.37500,322
16.38333,319
16.39167,317
16.40000,315
16.40833,312
16.41667,310
16.42500,307
16.43333,305
16.44167,302
16.45000,300
16.45833,298
16.46667,296
16.47500,294
16.48333,292
16.49167,290
16.50000,288
16.50833,286
16.51667,284
16.52500,282
16.53333,280
16.54167,278
16.55000,276
16.55833,275
16.56667,273
16.57500,272
16.58333,270
16.59167,268
16.60000,266
16.60833,264
16.61667,262
16.62500,261
16.63333,259
16.64167,257
16.65000,255
16.65833,253
16.66667,252
16.67500,250
16.68333,248
16.69167,247
16.70000,246
16.70833,244
16.71667,243
16.72500,242
16.73333,240
16.74167,239
16.75000,237
16.75833,236
16.76667,235
16.77500,233
16.78333,232
16.79167,231
16.80000,229
16.80833,228
16.81667,226
16.82500,225
16.83333,224
16.84167,223
16.85000,222
16.85833,220
16.86667,219
16.87500,217
16.88333,216
16.89167,215
16.90000,213
16.90833,212
16.91667,211
16.92500,209
16.93333,208
16.94167,207
16.95000,206
16.95833,205
16.96667,204
16.97500,203
16.98333,202
16.99167,201
17.00000,200
17.00833,198
17.01667,197
17.02500,196
17.03333,195
17.04167,194
17.05000,192
17.05833,192
17.06667,191
17.07500,190
17.08333,189
17.09167,188
17.10000,187
17.10833,186
17.11667,185
17.12500,184
17.13333,183
17.14167,182
17.15000,181
17.15833,180
17.16667,179
17.17500,178
17.18333,178
17.19167,177
17.20000,175
17.20833,174
17.21667,173
17.22500,172
17.23333,171
17.24167,170
17.25000,170
17.25833,169
17.26667,168
17.27500,167
17.28333,166
17.29167,166
17.30000,165
17.30833,164
17.31667,163
17.32500,162
17.33333,161
17.34167,160
17.35000,159
17.35833,158
17.36667,157
17.37500,156
17.38333,155
17.39167,154
17.40000,153
17.40833,152
17.41667,151
17.42500,150
17.43333,149
17.44167,148
17.45000,147
17.45833,146
17.46667,145
17.47500,145
17.48333,144
17.49167,143
17.50000,141
17.50833,140
17.51667,139
17.52500,139
17.53333,138
17.54167,137
17.55000,137
17.55833,136
17.56667,135
17.57500,134
17.58333,134
17.59167,133
17.60000,132
17.60833,131
17.61667,130
17.62500,129
17.63333,128
17.64167,127
17.65000,126
17.65833,125
17.66667,125
17.67500,124
17.68333,123
17.69167,123
17.70000,122
17.70833,121
17.71667,120
17.72500,119
17.73333,119
17.74167,118
17.75000,117
17.75833,116
17.76667,116
17.77500,115
17.78333,114
17.79167,114
17.80000,113
17.80833,113
17.81667,112
17.82500,111
17.83333,110
17.84167,110
17.85000,109
17.85833,108
17.86667,107
17.87500,106
17.88333,105
17.89167,105
17.90000,104
17.90833,103
17.91667,103
17.92500,102
17.93333,101
17.94167,101
17.95000,101
17.95833,100
17.96667,100
17.97500,99
17.98333,99
17.99167,98
18.00000,97
18.00833,96
18.01667,96
18.02500,95
18.03333,94
18.04167,93
18.05000,92
18.05833,92
18.06667,91
18.07500,90
18.08333,90
18.09167,89
18.10000,88
18.10833,88
18.11667,87
18.12500,87
18.13333,86
18.14167,86
18.15000,85
18.15833,85
18.16667,84
18.17500,84
18.18333,83
18.19167,83
18.20000,82
18.20833,81
18.21667,81
18.22500,80
18.23333,80
18.24167,79
18.25000,79
18.25833,78
18.26667,78
18.27500,77
18.28333,77
18.29167,76
18.30000,76
18.30833,75
18.31667,75
18.32500,74
18.33333,74
18.34167,73
18.35000,73
18.35833,72
18.36667,72
18.37500,71
18.38333,70
18.39167,70
18.40000,69
18.40833,69
18.41667,68
18.42500,68
18.43333,68
18.44167,67
18.45000,67
18.45833,66
18.46667,66
18.47500,65
18.48333,64
18.49167,64
18.50000,63
18.50833,63
18.51667,62
18.52500,62
18.53333,62
18.54167,62
18.55000,62
18.55833,62
18.56667,62
18.57500,62
18.58333,62
18.59167,61
18.60000,61
18.60833,61
18.61667,60
18.62500,60
18.63333,59
18.64167,59
18.65000,58
18.65833,58
18.66667,58
18.67500,58
18.68333,58
18.69167,58
18.70000,58
18.70833,58
18.71667,58
18.72500,58
18.73333,58
18.74167,58
18.75000,58
18.75833,59
18.76667,59
18.77500,59
18.78333,59
18.79167,59
18.80000,60
18.80833,60
18.81667,61
18.82500,62
18.83333,62
18.84167,63
18.85000,64
18.85833,64
18.86667,65
18.87500,66
18.88333,67
18.89167,68
18.90000,68
18.90833,69
18.91667,70
18.92500,71
18.93333,72
18.94167,72
18.95000,73
18.95833,73
18.96667,74
18.97500,74
18.98333,75
18.99167,75
19.00000,76
19.00833,76
19.01667,76
19.02500,76
19.03333,76
19.04167,76
19.05000,76
19.05833,75
19.06667,75
19.07500,74
19.08333,73
19.09167,73
19.10000,72
19.10833,71
19.11667,70
19.12500,69
19.13333,68
19.14167,67
19.15000,66
19.15833,65
19.16667,64
19.17500,62
19.18333,61
19.19167,60
19.20000,59
19.20833,58
19.21667,57
19.22500,55
19.23333,54
19.24167,53
19.25000,52
19.25833,51
19.26667,50
19.27500,49
19.28333,48
19.29167,47
19.30000,46
19.30833,45
19.31667,45
19.32500,44
19.33333,43
19.34167,42
19.35000,41
19.35833,40
19.36667,39
19.37500,39
19.38333,38
19.39167,38
19.40000,37
19.40833,36
19.41667,36
19.42500,35
19.43333,35
19.44167,34
19.45000,33
19.45833,33
19.46667,33
19.47500,33
19.48333,32
19.49167,32
19.50000,32
19.50833,31
19.51667,31
19.52500,30
19.53333,30
19.54167,30
19.55000,30
19.55833,30
19.56667,29
19.57500,29
19.58333,29
19.59167,29
19.60000,28
19.60833,28
19.61667,28
19.62500,28
19.63333,28
19.64167,28
19.65000,28
19.65833,27
19.66667,27
19.67500,26
19.68333,26
19.69167,26
19.70000,25
19.70833,25
19.71667,25
19.72500,25
19.73333,24
19.74167,24
19.75000,24
19.75833,24
19.76667,24
19.77500,24
19.78333,24
19.79167,24
19.80000,24
19.80833,24
19.81667,24
19.82500,24
19.83333,23
19.84167,23
19.85000,23
19.85833,23
19.86667,23
19.87500,23
19.88333,23
19.89167,23
19.90000,22
19.90833,22
19.91667,22
19.92500,21
19.93333,21
19.94167,20
19.95000,20
19.95833,20
19.96667,20
19.97500,20
19.98333,20
19.99167,19
20.00000,19
20.00833,19
20.01667,19
20.02500,19
20.03333,19
20.04167,18
20.05000,18
20.05833,18
20.06667,19
20.07500,19
20.08333,18
20.09167,18
20.10000,18
20.10833,18
20.11667,18
20.12500,18
20.13333,17
20.14167,17
20.15000,17
20.15833,17
20.16667,17
20.17500,17
20.18333,17
20.19167,16
20.20000,16
20.20833,16
20.21667,16
20.22500,16
20.23333,16
20.24167,16
20.25000,16
20.25833,15
20.26667,15
20.27500,15
20.28333,15
20.29167,15
20.30000,15
20.30833,15
20.31667,15
20.32500,15
20.33333,14
20.34167,14
20.35000,14
20.35833,14
20.36667,14
20.37500,14
20.38333,14
20.39167,14
20.40000,14
20.40833,14
20.41667,13
20.42500,14
20.43333,14
20.44167,13
20.45000,13
20.45833,13
20.46667,13
20.47500,13
20.48333,13
20.49167,13
20.50000,12
20.50833,12
20.51667,13
20.52500,13
20.53333,13
20.54167,12
20.55000,12
20.55833,12
20.56667,12
20.57500,12
20.58333,12
20.59167,12
20.60000,11
20.60833,11
20.61667,11
20.62500,11
20.63333,11
20.64167,11
20.65000,11
20.65833,10
20.66667,10
20.67500,10
20.68333,10
20.69167,10
20.70000,10
20.70833,10
20.71667,10
20.72500,10
20.73333,10
20.74167,10
20.75000,10
20.75833,11
20.76667,10
20.77500,10
20.78333,10
20.79167,11
20.80000,11
20.80833,10
20.81667,10
20.82500,9
20.83333,9
20.84167,9
20.85000,9
20.85833,9
20.86667,8
20.87500,8
20.88333,9
20.89167,8
20.90000,8
20.90833,8
20.91667,8
20.92500,8
20.93333,8
20.94167,8
20.95000,8
20.95833,8
20.96667,8
20.97500,8
20.98333,9
20.99167,8
21.00000,8
21.00833,8
21.01667,8
21.02500,8
21.03333,8
21.04167,8
21.05000,8
21.05833,8
21.06667,8
21.07500,8
21.08333,8
21.09167,8
21.10000,7
21.10833,7
21.11667,7
21.12500,7
21.13333,7
21.14167,7
21.15000,7
21.15833,6
21.16667,6
21.17500,7
21.18333,7
21.19167,7
21.20000,7
21.20833,6
21.21667,6
21.22500,6
21.23333,6
21.24167,6
21.25000,6
21.25833,6
21.26667,6
21.27500,6
21.28333,6
21.29167,6
21.30000,6
21.30833,6
21.31667,6
21.32500,6
21.33333,5
21.34167,5
21.35000,5
21.35833,5
21.36667,5
21.37500,5
21.38333,5
21.39167,5
21.40000,5
21.40833,5
21.41667,5
21.42500,5
21.43333,5
21.44167,5
21.45000,5
21.45833,5
21.46667,5
21.47500,5
21.48333,4
21.49167,4
21.50000,4
21.50833,4
21.51667,4
21.52500,4
21.53333,4
21.54167,4
21.55000,5
21.55833,4
21.56667,4
21.57500,4
21.58333,4
21.59167,3
21.60000,3
21.60833,3
21.61667,3
21.62500,3
21.63333,4
21.64167,4
21.65000,4
21.65833,4
21.66667,4
21.67500,4
21.68333,4
21.69167,4
21.70000,4
21.70833,5
21.71667,5
21.72500,4
21.73333,4
21.74167,4
21.75000,4
21.75833,4
21.76667,4
21.77500,4
21.78333,5
21.79167,5
21.80000,5
21.80833,5
21.81667,5
21.82500,5
21.83333,6
21.84167,6
21.85000,6
21.85833,6
21.86667,6
21.87500,7
21.88333,7
21.89167,7
21.90000,7
21.90833,7
21.91667,7
21.92500,7
21.93333,8
21.94167,8
21.95000,8
21.95833,8
21.96667,8
21.97500,8
21.98333,8
21.99167,8
22.00000,8
22.00833,8
22.01667,8
22.02500,8
22.03333,9
22.04167,9
22.05000,9
22.05833,9
22.06667,9
22.07500,9
22.08333,9
22.09167,9
22.10000,9
22.10833,9
22.11667,9
22.12500,8
22.13333,8
22.14167,8
22.15000,8
22.15833,7
22.16667,7
22.17500,7
22.18333,7
22.19167,7
22.20000,7
22.20833,6
22.21667,6
22.22500,6
22.23333,5
22.24167,5
22.25000,5
22.25833,5
22.26667,5
22.27500,4
22.28333,4
22.29167,4
22.30000,5
22.30833,4
22.31667,4
22.32500,4
22.33333,3
22.34167,3
22.35000,3
22.35833,3
22.36667,3
22.37500,3
22.38333,3
22.39167,3
22.40000,3
22.40833,3
22.41667,3
22.42500,3
22.43333,2
22.44167,2
22.45000,2
22.45833,2
22.46667,2
22.47500,2
22.48333,2
22.49167,1
22.50000,1
22.50833,1
22.51667,1
22.52500,1
22.53333,1
22.54167,1
22.55000,1
22.55833,0
22.56667,0
22.57500,-0
22.58333,-0
22.59167,-1
22.60000,-1
22.60833,-1
22.61667,-1
22.62500,-1
22.63333,-1
22.64167,-0
22.65000,-0
22.65833,-0
22.66667,-0
22.67500,0
22.68333,0
22.69167,0
22.70000,0
22.70833,0
22.71667,-0
22.72500,-0
22.73333,-1
22.74167,-1
22.75000,-1
22.75833,-1
22.76667,-1
22.77500,-1
22.78333,-1
22.79167,-1
22.80000,-0
22.80833,-0
22.81667,-1
22.82500,-1
22.83333,-1
22.84167,-1
22.85000,-1
22.85833,-1
22.86667,-1
22.87500,-1
22.88333,-1
22.89167,-1
22.90000,-1
22.90833,-1
22.91667,-1
22.92500,-1
22.93333,-1
22.94167,-2
22.95000,-2
22.95833,-2
22.96667,-2
22.97500,-2
22.98333,-1
22.99167,-1
23.00000,-2
23.00833,-2
23.01667,-2
23.02500,-2
23.03333,-2
23.04167,-1
23.05000,-2
23.05833,-2
23.06667,-2
23.07500,-2
23.08333,-2
23.09167,-2
23.10000,-2
23.10833,-2
23.11667,-2
23.12500,-2
23.13333,-2
23.14167,-2
23.15000,-1
23.15833,-1
23.16667,-1
23.17500,-1
23.18333,-1
23.19167,-1
23.20000,-2
23.20833,-2
23.21667,-2
23.22500,-2
23.23333,-2
23.24167,-2
23.25000,-3
23.25833,-2
23.26667,-2
23.27500,-2
23.28333,-2
23.29167,-2
23.30000,-2
23.30833,-2
23.31667,-2
23.32500,-2
23.33333,-1
23.34167,-1
23.35000,-1
23.35833,-1
23.36667,-2
23.37500,-2
23.38333,-2
23.39167,-3
23.40000,-3
23.40833,-3
23.41667,-3
23.42500,-3
23.43333,-3
23.44167,-3
23.45000,-3
23.45833,-3
23.46667,-3
23.47500,-3
23.48333,-3
23.49167,-3
23.50000,-3
23.50833,-3
23.51667,-3
23.52500,-3
23.53333,-3
23.54167,-4
23.55000,-3
23.55833,-3
23.56667,-3
23.57500,-3
23.58333,-3
23.59167,-3
23.60000,-3
23.60833,-4
23.61667,-4
23.62500,-4
23.63333,-3
23.64167,-3
23.65000,-3
23.65833,-3
23.66667,-3
23.67500,-3
23.68333,-4
23.69167,-4
23.70000,-4
23.70833,-3
23.71667,-3
23.72500,-4
23.73333,-4
23.74167,-4
23.75000,-4
23.75833,-4
23.76667,-4
23.77500,-4
23.78333,-5
23.79167,-5
23.80000,-5
23.80833,-5
23.81667,-5
23.82500,-5
23.83333,-5
23.84167,-5
23.85000,-4
23.85833,-4
23.86667,-4
23.87500,-4
23.88333,-4
23.89167,-4
23.90000,-4
23.90833,-4
23.91667,-5
23.92500,-5
23.93333,-5
23.94167,-5
23.95000,-5
23.95833,-5
23.96667,-5
23.97500,-5
23.98333,-5
23.99167,-4
24.00000,-4
24.00833,-4
24.01667,-4
24.02500,-4
24.03333,-4
24.04167,-4
24.05000,-4
24.05833,-4
24.06667,-4
24.07500,-4
24.08333,-4
24.09167,-4
24.10000,-4
24.10833,-4
24.11667,-5
24.12500,-5
24.13333,-5
24.14167,-5
24.15000,-5
24.15833,-5
24.16667,-5
24.17500,-5
24.18333,-5
24.19167,-5
24.20000,-5
24.20833,-6
24.21667,-6
24.22500,-6
24.23333,-6
24.24167,-6
24.25000,-5
24.25833,-5
24.26667,-5
24.27500,-5
24.28333,-5
24.29167,-5
24.30000,-5
24.30833,-5
24.31667,-4
24.32500,-4
24.33333,-4
24.34167,-4
24.35000,-5
24.35833,-5
24.36667,-5
24.37500,-5
24.38333,-5
24.39167,-5
24.40000,-5
24.40833,-4
24.41667,-4
24.42500,-4
24.43333,-4
24.44167,-4
24.45000,-4
24.45833,-4
24.46667,-4
24.47500,-4
24.48333,-4
24.49167,-5
24.50000,-5
24.50833,-4
24.51667,-4
24.52500,-4
24.53333,-3
24.54167,-4
24.55000,-4
24.55833,-4
24.56667,-4
24.57500,-4
24.58333,-5
24.59167,-5
24.60000,-5
24.60833,-5
24.61667,-5
24.62500,-5
24.63333,-5
24.64167,-4
24.65000,-4
24.65833,-4
24.66667,-4
24.67500,-4
24.68333,-4
24.69167,-5
24.70000,-5
24.70833,-4
24.71667,-4
24.72500,-4
24.73333,-4
24.74167,-4
24.75000,-3
24.75833,-3
24.76667,-3
24.77500,-3
24.78333,-3
24.79167,-4
24.80000,-4
24.80833,-4
24.81667,-4
24.82500,-4
24.83333,-4
24.84167,-5
24.85000,-4
24.85833,-4
24.86667,-4
24.87500,-4
24.88333,-4
24.89167,-4
24.90000,-4
24.90833,-5
24.91667,-5
24.92500,-5
24.93333,-5
24.94167,-4
24.95000,-4
24.95833,-4
24.96667,-4
24.97500,-4
24.98333,-4
24.99167,-4
25.00000,-4
25.00833,-4
25.01667,-4
25.02500,-4
25.03333,-4
25.04167,-4
25.05000,-4
25.05833,-4
25.06667,-4
25.07500,-4
25.08333,-5
25.09167,-5
25.10000,-5
25.10833,-4
25.11667,-5
25.12500,-5
25.13333,-5
25.14167,-5
25.15000,-5
25.15833,-5
25.16667,-5
25.17500,-5
25.18333,-5
25.19167,-4
25.20000,-4
25.20833,-5
25.21667,-5
25.22500,-5
25.23333,-5
25.24167,-5
25.25000,-5
25.25833,-5
25.26667,-5
25.27500,-5
25.28333,-4
25.29167,-4
25.30000,-4
25.30833,-4
25.31667,-4
25.32500,-4
25.33333,-4
25.34167,-4
25.35000,-4
25.35833,-5
25.36667,-5
25.37500,-5
25.38333,-5
25.39167,-5
25.40000,-5
25.40833,-5
25.41667,-5
25.42500,-5
25.43333,-5
25.44167,-5
25.45000,-5
25.45833,-5
25.46667,-5
25.47500,-5
25.48333,-5
25.49167,-5
25.50000,-5
25.50833,-5
25.51667,-5
25.52500,-5
25.53333,-5
25.54167,-5
25.55000,-4
25.55833,-4
25.56667,-4
25.57500,-4
25.58333,-4
25.59167,-4
25.60000,-4
25.60833,-4
25.61667,-4
25.62500,-4
25.63333,-4
25.64167,-4
25.65000,-4
25.65833,-4
25.66667,-4
25.67500,-4
25.68333,-4
25.69167,-4
25.70000,-4
25.70833,-4
25.71667,-4
25.72500,-4
25.73333,-4
25.74167,-4
25.75000,-4
25.75833,-4
25.76667,-4
25.77500,-4
25.78333,-4
25.79167,-5
25.80000,-5
25.80833,-4
25.81667,-4
25.82500,-4
25.83333,-4
25.84167,-4
25.85000,-4
25.85833,-3
25.86667,-3
25.87500,-3
25.88333,-3
25.89167,-3
25.90000,-3
25.90833,-3
25.91667,-3
25.92500,-3
25.93333,-3
25.94167,-3
25.95000,-4
25.95833,-4
25.96667,-3
25.97500,-3
25.98333,-3
25.99167,-3
26.00000,-3
26.00833,-3
26.01667,-2
26.02500,-2
26.03333,-3
26.04167,-3
26.05000,-3
26.05833,-3
26.06667,-3
26.07500,-3
26.08333,-3
26.09167,-3
26.10000,-4
26.10833,-4
26.11667,-4
26.12500,-4
26.13333,-4
26.14167,-4
26.15000,-4
26.15833,-3
26.16667,-3
26.17500,-3
26.18333,-3
26.19167,-3
26.20000,-3
26.20833,-3
26.21667,-3
26.22500,-3
26.23333,-3
26.24167,-3
26.25000,-3
26.25833,-3
26.26667,-3
26.27500,-3
26.28333,-3
26.29167,-3
26.30000,-3
26.30833,-3
26.31667,-2
26.32500,-2
26.33333,-2
26.34167,-2
26.35000,-2
26.35833,-2
26.36667,-2
26.37500,-2
26.38333,-2
26.39167,-2
26.40000,-2
26.40833,-2
26.41667,-2
26.42500,-2
26.43333,-2
26.44167,-2
26.45000,-2
26.45833,-2
26.46667,-3
26.47500,-3
26.48333,-3
26.49167,-2
26.50000,-2
26.50833,-2
26.51667,-2
26.52500,-2
26.53333,-2
26.54167,-2
26.55000,-2
26.55833,-2
26.56667,-2
26.57500,-2
26.58333,-2
26.59167,-2
26.60000,-2
26.60833,-2
26.61667,-2
26.62500,-2
26.63333,-2
26.64167,-2
26.65000,-2
26.65833,-2
26.66667,-2
26.67500,-2
26.68333,-2
26.69167,-1
26.70000,-1
26.70833,-1
26.71667,-1
26.72500,-1
26.73333,-0
26.74167,-0
26.75000,-1
26.75833,-1
26.76667,-0
26.77500,-0
26.78333,-1
26.79167,-0
26.80000,-0
26.80833,-0
26.81667,-0
26.82500,-0
26.83333,-0
26.84167,-1
26.85000,-1
26.85833,-1
26.86667,-1
26.87500,-2
26.88333,-2
26.89167,-2
26.90000,-1
26.90833,-1
26.91667,-1
26.92500,-1
26.93333,-1
26.94167,-1
26.95000,-1
26.95833,-1
26.96667,-1
26.97500,-1
26.98333,-1
26.99167,-1
27.00000,-1
27.00833,-1
27.01667,-1
27.02500,-1
27.03333,-1
27.04167,-1
27.05000,-1
27.05833,-1
27.06667,-1
27.07500,-1
27.08333,-1
27.09167,-0
27.10000,-0
27.10833,-1
27.11667,-1
27.12500,-1
27.13333,-1
27.14167,-0
27.15000,-0
27.15833,-0
27.16667,-0
27.17500,-0
27.18333,-0
27.19167,-1
27.20000,-1
27.20833,-1
27.21667,-1
27.22500,-1
27.23333,-1
27.24167,-0
27.25000,-0
27.25833,-0
27.26667,0
27.27500,0
27.28333,0
27.29167,0
27.30000,0
27.30833,-0
27.31667,-0
27.32500,0
27.33333,0
27.34167,0
27.35000,-0
27.35833,-0
27.36667,-0
27.37500,-0
27.38333,0
27.39167,0
27.40000,1
27.40833,1
27.41667,1
27.42500,0
27.43333,-0
27.44167,-1
27.45000,-1
27.45833,-1
27.46667,-1
27.47500,-1
27.48333,-1
27.49167,-1
27.50000,-0
27.50833,-0
27.51667,0
27.52500,-0
27.53333,-0
27.54167,0
27.55000,0
27.55833,0
27.56667,0
27.57500,0
27.58333,1
27.59167,1
27.60000,1
27.60833,0
27.61667,0
27.62500,-0
27.63333,-0
27.64167,-0
27.65000,-0
27.65833,0
27.66667,0
27.67500,0
27.68333,-0
27.69167,-0
27.70000,-0
27.70833,-1
27.71667,-1
27.72500,-1
27.73333,-1
27.74167,-1
27.75000,-1
27.75833,-1
27.76667,-1
27.77500,-2
27.78333,-3
27.79167,-3
27.80000,-3
27.80833,-4
27.81667,-4
27.82500,-4
27.83333,-5
27.84167,-5
27.85000,-6
27.85833,-6
27.86667,-7
27.87500,-8
27.88333,-9
27.89167,-10
27.90000,-11
27.90833,-12
27.91667,-13
27.92500,-14
27.93333,-15
27.94167,-16
27.95000,-16
27.95833,-17
27.96667,-19
27.97500,-20
27.98333,-22
27.99167,-23
28.00000,-25
28.00833,-27
28.01667,-29
28.02500,-30
28.03333,-32
28.04167,-33
28.05000,-35
28.05833,-38
28.06667,-40
28.07500,-42
28.08333,-44
28.09167,-47
28.10000,-49
28.10833,-52
28.11667,-54
28.12500,-57
28.13333,-60
28.14167,-63
28.15000,-65
28.15833,-68
28.16667,-71
28.17500,-74
28.18333,-77
28.19167,-80
28.20000,-83
28.20833,-86
28.21667,-89
28.22500,-93
28.23333,-96
28.24167,-99
28.25000,-102
28.25833,-105
28.26667,-108
28.27500,-111
28.28333,-114
28.29167,-116
28.30000,-119
28.30833,-121
28.31667,-123
28.32500,-125
28.33333,-127
28.34167,-130
28.35000,-132
28.35833,-134
28.36667,-135
28.37500,-137
28.38333,-138
28.39167,-139
28.40000,-140
28.40833,-141
28.41667,-142
28.42500,-142
28.43333,-143
28.44167,-143
28.45000,-143
28.45833,-144
28.46667,-144
28.47500,-143
28.48333,-143
28.49167,-142
28.50000,-141
28.50833,-140
28.51667,-139
28.52500,-138
28.53333,-137
28.54167,-135
28.55000,-133
28.55833,-131
28.56667,-129
28.57500,-127
28.58333,-125
28.59167,-123
28.60000,-121
28.60833,-119
28.61667,-116
28.62500,-114
28.63333,-112
28.64167,-110
28.65000,-107
28.65833,-105
28.66667,-102
28.67500,-99
28.68333,-96
28.69167,-93
28.70000,-91
28.70833,-88
28.71667,-86
28.72500,-84
28.73333,-82
28.74167,-79
28.75000,-77
28.75833,-74
28.76667,-71
28.77500,-68
28.78333,-66
28.79167,-64
28.80000,-62
28.80833,-59
28.81667,-57
28.82500,-55
28.83333,-54
28.84167,-52
28.85000,-50
28.85833,-48
28.86667,-46
28.87500,-44
28.88333,-42
28.89167,-41
28.90000,-39
28.90833,-38
28.91667,-37
28.92500,-36
28.93333,-35
28.94167,-33
28.95000,-32
28.95833,-31
28.96667,-30
28.97500,-29
28.98333,-28
28.99167,-27
29.00000,-26
29.00833,-25
29.01667,-24
29.02500,-24
29.03333,-23
29.04167,-23
29.05000,-22
29.05833,-21
29.06667,-20
29.07500,-20
29.08333,-19
29.09167,-19
29.10000,-18
29.10833,-17
29.11667,-16
29.12500,-16
29.13333,-15
29.14167,-15
29.15000,-14
29.15833,-14
29.16667,-14
29.17500,-13
29.18333,-13
29.19167,-13
29.20000,-13
29.20833,-13
29.21667,-13
29.22500,-13
29.23333,-13
29.24167,-13
29.25000,-12
29.25833,-12
29.26667,-11
29.27500,-11
29.28333,-10
29.29167,-10
29.30000,-11
29.30833,-11
29.31667,-11
29.32500,-11
29.33333,-11
29.34167,-11
29.35000,-11
29.35833,-11
29.36667,-11
29.37500,-11
29.38333,-10
29.39167,-10
29.40000,-10
29.40833,-10
29.41667,-10
29.42500,-10
29.43333,-10
29.44167,-11
29.45000,-11
29.45833,-11
29.46667,-10
29.47500,-10
29.48333,-11
29.49167,-11
29.50000,-11
29.50833,-11
29.51667,-10
29.52500,-10
29.53333,-11
29.54167,-11
29.55000,-11
29.55833,-11
29.56667,-12
29.57500,-12
29.58333,-12
29.59167,-12
29.60000,-13
29.60833,-13
29.61667,-13
29.62500,-14
29.63333,-15
29.64167,-15
29.65000,-15
29.65833,-16
29.66667,-16
29.67500,-16
29.68333,-17
29.69167,-17
29.70000,-17
29.70833,-18
29.71667,-18
29.72500,-19
29.73333,-20
29.74167,-20
29.75000,-21
29.75833,-22
29.76667,-23
29.77500,-23
29.78333,-24
29.79167,-25
29.80000,-26
29.80833,-27
29.81667,-27
29.82500,-28
29.83333,-29
29.84167,-30
29.85000,-31
29.85833,-31
29.86667,-32
29.87500,-33
29.88333,-34
29.89167,-35
29.90000,-36
29.90833,-37
29.91667,-38
29.92500,-39
29.93333,-40
29.94167,-41
29.95000,-42
29.95833,-43
29.96667,-44
29.97500,-45
29.98333,-47
29.99167,-47
30.00000,-48
30.00833,-49
30.01667,-50
30.02500,-51
30.03333,-52
30.04167,-53
30.05000,-53
30.05833,-54
30.06667,-55
30.07500,-55
30.08333,-56
30.09167,-57
30.10000,-57
30.10833,-58
30.11667,-58
30.12500,-58
30.13333,-58
30.14167,-59
30.15000,-59
30.15833,-59
30.16667,-60
30.17500,-60
30.18333,-60
30.19167,-61
30.20000,-60
30.20833,-60
30.21667,-60
30.22500,-60
30.23333,-60
30.24167,-59
30.25000,-59
30.25833,-59
30.26667,-59
30.27500,-58
30.28333,-58
30.29167,-57
30.30000,-57
30.30833,-56
30.31667,-56
30.32500,-55
30.33333,-55
30.34167,-54
30.35000,-53
30.35833,-53
30.36667,-52
30.37500,-51
30.38333,-50
30.39167,-49
30.40000,-48
30.40833,-47
30.41667,-47
30.42500,-46
30.43333,-46
30.44167,-45
30.45000,-44
30.45833,-43
30.46667,-42
30.47500,-41
30.48333,-40
30.49167,-39
30.50000,-38
30.50833,-38
30.51667,-37
30.52500,-36
30.53333,-35
30.54167,-34
30.55000,-33
30.55833,-32
30.56667,-32
30.57500,-31
30.58333,-31
30.59167,-30
30.60000,-29
30.60833,-28
30.61667,-28
30.62500,-27
30.63333,-27
30.64167,-26
30.65000,-25
30.65833,-24
30.66667,-23
30.67500,-23
30.68333,-23
30.69167,-22
30.70000,-21
30.70833,-21
30.71667,-20
30.72500,-20
30.73333,-19
30.74167,-19
30.75000,-19
30.75833,-19
30.76667,-18
30.77500,-18
30.78333,-18
30.79167,-17
30.80000,-17
30.80833,-17
30.81667,-17
30.82500,-17
30.83333,-17
30.84167,-17
30.85000,-17
30.85833,-16
30.86667,-16
30.87500,-15
30.88333,-15
30.89167,-15
30.90000,-15
30.90833,-15
30.91667,-15
30.92500,-15
30.93333,-15
30.94167,-15
30.95000,-15
30.95833,-15
30.96667,-15
30.97500,-15
30.98333,-15
30.99167,-15
31.00000,-15
31.00833,-14
31.01667,-14
31.02500,-14
31.03333,-13
31.04167,-13
31.05000,-13
31.05833,-12
31.06667,-12
31.07500,-12
31.08333,-12
31.09167,-12
31.10000,-12
31.10833,-12
31.11667,-12
31.12500,-12
31.13333,-12
31.14167,-12
31.15000,-12
31.15833,-12
31.16667,-11
31.17500,-11
31.18333,-11
31.19167,-11
31.20000,-11
31.20833,-11
31.21667,-11
31.22500,-11
31.23333,-11
31.24167,-11
31.25000,-11
31.25833,-11
31.26667,-11
31.27500,-11
31.28333,-11
31.29167,-11
31.30000,-11
31.30833,-11
31.31667,-11
31.32500,-10
31.33333,-10
31.34167,-10
31.35000,-10
31.35833,-10
31.36667,-10
31.37500,-11
31.38333,-11
31.39167,-11
31.40000,-11
31.40833,-11
31.41667,-10
31.42500,-10
31.43333,-10
31.44167,-10
31.45000,-10
31.45833,-10
31.46667,-10
31.47500,-10
31.48333,-10
31.49167,-9
31.50000,-10
31.50833,-10
31.51667,-9
31.52500,-9
31.53333,-9
31.54167,-9
31.55000,-9
31.55833,-9
31.56667,-9
31.57500,-9
31.58333,-9
31.59167,-9
31.60000,-9
31.60833,-9
31.61667,-10
31.62500,-10
31.63333,-10
31.64167,-10
31.65000,-10
31.65833,-10
31.66667,-9
31.67500,-9
31.68333,-10
31.69167,-10
31.70000,-10
31.70833,-10
31.71667,-10
31.72500,-10
31.73333,-11
31.74167,-11
31.75000,-11
31.75833,-10
31.76667,-10
31.77500,-10
31.78333,-10
31.79167,-10
31.80000,-10
31.80833,-10
31.81667,-10
31.82500,-11
31.83333,-11
31.84167,-11
31.85000,-11
31.85833,-11
31.86667,-11
31.87500,-11
31.88333,-11
31.89167,-11
31.90000,-11
31.90833,-11
31.91667,-11
31.92500,-10
31.93333,-10
31.94167,-10
31.95000,-10
31.95833,-10
31.96667,-10
31.97500,-10
31.98333,-10
31.99167,-10
32.00000,-10
32.00833,-10
32.01667,-10
32.02500,-10
32.03333,-10
32.04167,-10
32.05000,-10
32.05833,-10
32.06667,-10
32.07500,-10
32.08333,-10
32.09167,-10
32.10000,-10
32.10833,-10
32.11667,-10
32.12500,-11
32.13333,-11
32.14167,-11
32.15000,-11
32.15833,-12
32.16667,-12
32.17500,-11
32.18333,-11
32.19167,-11
32.20000,-11
32.20833,-10
32.21667,-10
32.22500,-10
32.23333,-11
32.24167,-11
32.25000,-11
32.25833,-11
32.26667,-11
32.27500,-12
32.28333,-12
32.29167,-12
32.30000,-12
32.30833,-12
32.31667,-12
32.32500,-11
32.33333,-11
32.34167,-11
32.35000,-11
32.35833,-11
32.36667,-11
32.37500,-11
32.38333,-11
32.39167,-11
32.40000,-11
32.40833,-11
32.41667,-11
32.42500,-11
32.43333,-11
32.44167,-11
32.45000,-11
32.45833,-11
32.46667,-11
32.47500,-11
32.48333,-12
32.49167,-12
32.50000,-12
32.50833,-12
32.51667,-12
32.52500,-12
32.53333,-12
32.54167,-11
32.55000,-11
32.55833,-11
32.56667,-11
32.57500,-11
32.58333,-11
32.59167,-11
32.60000,-11
32.60833,-12
32.61667,-12
32.62500,-12
32.63333,-12
32.64167,-12
32.65000,-12
32.65833,-12
32.66667,-12
32.67500,-12
32.68333,-12
32.69167,-11
32.70000,-12
32.70833,-12
32.71667,-12
32.72500,-12
32.73333,-12
32.74167,-12
32.75000,-12
32.75833,-12
32.76667,-12
32.77500,-12
32.78333,-12
32.79167,-12
32.80000,-12
32.80833,-11
32.81667,-11
32.82500,-11
32.83333,-11
32.84167,-12
32.85000,-12
32.85833,-12
32.86667,-12
32.87500,-12
32.88333,-12
32.89167,-12
32.90000,-12
32.90833,-12
32.91667,-12
32.92500,-12
32.93333,-12
32.94167,-12
32.95000,-12
32.95833,-12
32.96667,-13
32.97500,-13
32.98333,-13
32.99167,-13
33.00000,-13
33.00833,-12
33.01667,-12
33.02500,-12
33.03333,-13
33.04167,-13
33.05000,-13
33.05833,-13
33.06667,-13
33.07500,-12
33.08333,-12
33.09167,-12
33.10000,-12
33.10833,-12
33.11667,-12
33.12500,-12
33.13333,-12
33.14167,-13
33.15000,-13
33.15833,-13
33.16667,-12
33.17500,-12
33.18333,-12
33.19167,-13
33.20000,-13
33.20833,-13
33.21667,-13
33.22500,-13
33.23333,-12
33.24167,-12
33.25000,-12
33.25833,-13
33.26667,-13
33.27500,-13
33.28333,-13
33.29167,-13
33.30000,-12
33.30833,-12
33.31667,-12
33.32500,-12
33.33333,-12
33.34167,-12
33.35000,-12
33.35833,-13
33.36667,-13
33.37500,-13
33.38333,-13
33.39167,-13
33.40000,-13
33.40833,-13
33.41667,-13
33.42500,-13
33.43333,-13
33.44167,-12
33.45000,-13
33.45833,-13
33.46667,-13
33.47500,-13
33.48333,-13
33.49167,-13
33.50000,-13
33.50833,-14
33.51667,-14
33.52500,-14
33.53333,-13
33.54167,-13
33.55000,-13
33.55833,-13
33.56667,-13
33.57500,-13
33.58333,-13
33.59167,-13
33.60000,-13
33.60833,-13
33.61667,-13
33.62500,-13
33.63333,-13
33.64167,-13
33.65000,-13
33.65833,-13
33.66667,-13
33.67500,-13
33.68333,-14
33.69167,-14
33.70000,-14
33.70833,-14
33.71667,-14
33.72500,-14
33.73333,-14
33.74167,-14
33.75000,-14
33.75833,-14
33.76667,-13
33.77500,-13
33.78333,-13
33.79167,-13
33.80000,-13
33.80833,-13
33.81667,-13
33.82500,-13
33.83333,-13
33.84167,-13
33.85000,-13
33.85833,-13
33.86667,-14
33.87500,-14
33.88333,-14
33.89167,-14
33.90000,-14
33.90833,-14
33.91667,-14
33.92500,-14
33.93333,-15
33.94167,-14
33.95000,-14
33.95833,-14
33.96667,-14
33.97500,-14
33.98333,-14
33.99167,-14
34.00000,-14
34.00833,-14
34.01667,-14
34.02500,-14
34.03333,-14
34.04167,-14
34.05000,-15
34.05833,-15
34.06667,-15
34.07500,-15
34.08333,-15
34.09167,-15
34.10000,-15
34.10833,-15
34.11667,-15
34.12500,-15
34.13333,-15
34.14167,-15
34.15000,-15
34.15833,-15
34.16667,-14
34.17500,-14
34.18333,-14
34.19167,-13
34.20000,-13
34.20833,-13
34.21667,-13
34.22500,-13
34.23333,-14
34.24167,-14
34.25000,-15
34.25833,-15
34.26667,-15
34.27500,-15
34.28333,-15
34.29167,-15
34.30000,-15
34.30833,-15
34.31667,-15
34.32500,-15
34.33333,-15
34.34167,-15
34.35000,-15
34.35833,-15
34.36667,-15
34.37500,-15
34.38333,-15
34.39167,-15
34.40000,-15
34.40833,-15
34.41667,-15
34.42500,-15
34.43333,-14
34.44167,-14
34.45000,-14
34.45833,-14
34.46667,-14
34.47500,-14
34.48333,-14
34.49167,-13
34.50000,-13
34.50833,-13
34.51667,-13
34.52500,-13
34.53333,-14
34.54167,-14
34.55000,-14
34.55833,-14
34.56667,-14
34.57500,-14
34.58333,-14
34.59167,-14
34.60000,-15
34.60833,-15
34.61667,-15
34.62500,-15
34.63333,-14
34.64167,-14
34.65000,-14
34.65833,-14
34.66667,-14
34.67500,-14
34.68333,-14
34.69167,-15
34.70000,-15
34.70833,-15
34.71667,-15
34.72500,-15
34.73333,-15
34.74167,-15
34.75000,-15
34.75833,-15
34.76667,-14
34.77500,-14
34.78333,-14
34.79167,-14
34.80000,-14
34.80833,-14
34.81667,-14
34.82500,-14
34.83333,-14
34.84167,-14
34.85000,-15
34.85833,-15
34.86667,-15
34.87500,-15
34.88333,-15
34.89167,-14
34.90000,-15
34.90833,-15
34.91667,-15
34.92500,-15
34.93333,-15
34.94167,-16
34.95000,-16
34.95833,-16
34.96667,-16
34.97500,-16
34.98333,-16
34.99167,-15
35.00000,-15
35.00833,-15
35.01667,-16
35.02500,-15
35.03333,-16
35.04167,-16
35.05000,-16
35.05833,-15
35.06667,-15
35.07500,-15
35.08333,-14
35.09167,-14
35.10000,-15
35.10833,-15
35.11667,-15
35.12500,-15
35.13333,-15
35.14167,-15
35.15000,-16
35.15833,-16
35.16667,-16
35.17500,-16
35.18333,-15
35.19167,-15
35.20000,-15
35.20833,-15
35.21667,-15
35.22500,-15
35.23333,-15
35.24167,-15
35.25000,-15
35.25833,-16
35.26667,-15
35.27500,-15
35.28333,-15
35.29167,-16
35.30000,-16
35.30833,-15
35.31667,-15
35.32500,-15
35.33333,-15
35.34167,-15
35.35000,-15
35.35833,-16
35.36667,-16
35.37500,-16
35.38333,-16
35.39167,-16
35.40000,-17
35.40833,-17
35.41667,-17
35.42500,-16
35.43333,-16
35.44167,-16
35.45000,-16
35.45833,-16
35.46667,-16
35.47500,-15
35.48333,-15
35.49167,-15
35.50000,-15
35.50833,-15
35.51667,-15
35.52500,-15
35.53333,-15
35.54167,-15
35.55000,-16
35.55833,-16
35.56667,-16
35.57500,-16
35.58333,-16
35.59167,-16
35.60000,-16
35.60833,-16
35.61667,-16
35.62500,-16
35.63333,-16
35.64167,-16
35.65000,-16
35.65833,-16
35.66667,-16
35.67500,-16
35.68333,-16
35.69167,-16
35.70000,-16
35.70833,-16
35.71667,-16
35.72500,-17
35.73333,-17
35.74167,-17
35.75000,-17
35.75833,-17
35.76667,-16
35.77500,-16
35.78333,-16
35.79167,-16
35.80000,-16
35.80833,-16
35.81667,-16
35.82500,-16
35.83333,-16
35.84167,-16
35.85000,-16
35.85833,-17
35.86667,-17
35.87500,-17
35.88333,-16
35.89167,-16
35.90000,-16
35.90833,-16
35.91667,-16
35.92500,-16
35.93333,-16
35.94167,-16
35.95000,-16
35.95833,-17
35.96667,-17
35.97500,-17
35.98333,-17
35.99167,-17
36.00000,-17
36.00833,-17
36.01667,-17
36.02500,-17
36.03333,-17
36.04167,-17
36.05000,-17
36.05833,-17
36.06667,-17
36.07500,-17
36.08333,-16
36.09167,-17
36.10000,-17
36.10833,-17
36.11667,-17
36.12500,-17
36.13333,-17
36.14167,-17
36.15000,-16
36.15833,-17
36.16667,-17
36.17500,-17
36.18333,-18
36.19167,-18
36.20000,-18
36.20833,-18
36.21667,-17
36.22500,-18
36.23333,-18
36.24167,-18
36.25000,-18
36.25833,-18
36.26667,-18
36.27500,-18
36.28333,-18
36.29167,-18
36.30000,-18
36.30833,-18
36.31667,-18
36.32500,-18
36.33333,-17
36.34167,-17
36.35000,-17
36.35833,-17
36.36667,-17
36.37500,-17
36.38333,-17
36.39167,-17
36.40000,-17
36.40833,-18
36.41667,-18
36.42500,-18
36.43333,-18
36.44167,-18
36.45000,-18
36.45833,-18
36.46667,-18
36.47500,-18
36.48333,-18
36.49167,-17
36.50000,-17
36.50833,-17
36.51667,-17
36.52500,-17
36.53333,-16
36.54167,-16
36.55000,-16
36.55833,-16
36.56667,-16
36.57500,-17
36.58333,-17
36.59167,-17
36.60000,-17
36.60833,-17
36.61667,-17
36.62500,-18
36.63333,-18
36.64167,-17
36.65000,-17
36.65833,-17
36.66667,-17
36.67500,-17
36.68333,-17
36.69167,-17
36.70000,-17
36.70833,-17
36.71667,-17
36.72500,-17
36.73333,-17
36.74167,-17
36.75000,-17
36.75833,-17
36.76667,-17
36.77500,-17
36.78333,-17
36.79167,-17
36.80000,-17
36.80833,-17
36.81667,-17
36.82500,-17
36.83333,-17
36.84167,-17
36.85000,-18
36.85833,-18
36.86667,-18
36.87500,-17
36.88333,-18
36.89167,-18
36.90000,-18
36.90833,-18
36.91667,-18
36.92500,-17
36.93333,-17
36.94167,-17
36.95000,-17
36.95833,-18
36.96667,-18
36.97500,-17
36.98333,-17
36.99167,-17
37.00000,-17
37.00833,-17
37.01667,-17
37.02500,-17
37.03333,-17
37.04167,-17
37.05000,-17
37.05833,-17
37.06667,-17
37.07500,-17
37.08333,-17
37.09167,-17
37.10000,-17
37.10833,-17
37.11667,-16
37.12500,-17
37.13333,-17
37.14167,-17
37.15000,-18
37.15833,-18
37.16667,-18
37.17500,-18
37.18333,-18
37.19167,-18
37.20000,-19
37.20833,-19
37.21667,-18
37.22500,-18
37.23333,-18
37.24167,-18
37.25000,-18
37.25833,-18
37.26667,-18
37.27500,-18
37.28333,-18
37.29167,-18
37.30000,-18
37.30833,-18
37.31667,-18
37.32500,-17
37.33333,-17
37.34167,-17
37.35000,-17
37.35833,-17
37.36667,-17
37.37500,-17
37.38333,-18
37.39167,-18
37.40000,-18
37.40833,-19
37.41667,-18
37.42500,-18
37.43333,-18
37.44167,-17
37.45000,-17
37.45833,-17
37.46667,-18
37.47500,-18
37.48333,-17
37.49167,-17
37.50000,-17
37.50833,-17
37.51667,-18
37.52500,-18
37.53333,-17
37.54167,-17
37.55000,-17
37.55833,-16
37.56667,-17
37.57500,-17
37.58333,-17
37.59167,-17
37.60000,-18
37.60833,-18
37.61667,-17
37.62500,-17
37.63333,-17
37.64167,-17
37.65000,-17
37.65833,-17
37.66667,-17
37.67500,-17
37.68333,-17
37.69167,-17
37.70000,-17
37.70833,-18
37.71667,-17
37.72500,-18
37.73333,-18
37.74167,-18
37.75000,-17
37.75833,-17
37.76667,-17
37.77500,-17
37.78333,-18
37.79167,-18
37.80000,-17
37.80833,-18
37.81667,-18
37.82500,-18
37.83333,-18
37.84167,-18
37.85000,-18
37.85833,-17
37.86667,-18
37.87500,-18
37.88333,-18
37.89167,-18
37.90000,-18
37.90833,-18
37.91667,-17
37.92500,-17
37.93333,-17
37.94167,-17
37.95000,-17
37.95833,-17
37.96667,-18
37.97500,-18
37.98333,-18
37.99167,-18
38.00000,-18
38.00833,-18
38.01667,-18
38.02500,-18
38.03333,-18
38.04167,-18
38.05000,-18
38.05833,-18
38.06667,-18
38.07500,-18
38.08333,-18
38.09167,-18
38.10000,-18
38.10833,-18
38.11667,-18
38.12500,-18
38.13333,-19
38.14167,-19
38.15000,-19
38.15833,-19
38.16667,-19
38.17500,-19
38.18333,-19
38.19167,-18
38.20000,-18
38.20833,-18
38.21667,-18
38.22500,-18
38.23333,-18
38.24167,-18
38.25000,-18
38.25833,-18
38.26667,-19
38.27500,-18
38.28333,-18
38.29167,-18
38.30000,-18
38.30833,-18
38.31667,-18
38.32500,-18
38.33333,-18
38.34167,-18
38.35000,-18
38.35833,-19
38.36667,-19
38.37500,-19
38.38333,-18
38.39167,-19
38.40000,-19
38.40833,-19
38.41667,-19
38.42500,-19
38.43333,-19
38.44167,-19
38.45000,-19
38.45833,-19
38.46667,-19
38.47500,-18
38.48333,-18
38.49167,-18
38.50000,-18
38.50833,-18
38.51667,-18
38.52500,-18
38.53333,-18
38.54167,-18
38.55000,-19
38.55833,-19
38.56667,-19
38.57500,-19
38.58333,-19
38.59167,-18
38.60000,-18
38.60833,-18
38.61667,-18
38.62500,-18
38.63333,-18
38.64167,-19
38.65000,-19
38.65833,-19
38.66667,-19
38.67500,-19
38.68333,-19
38.69167,-19
38.70000,-19
38.70833,-19
38.71667,-19
38.72500,-19
38.73333,-19
38.74167,-19
38.75000,-19
38.75833,-19
38.76667,-19
38.77500,-19
38.78333,-18
38.79167,-18
38.80000,-18
38.80833,-18
38.81667,-18
38.82500,-18
38.83333,-18
38.84167,-17
38.85000,-17
38.85833,-17
38.86667,-17
38.87500,-18
38.88333,-18
38.89167,-18
38.90000,-18
38.90833,-18
38.91667,-18
38.92500,-18
38.93333,-18
38.94167,-18
38.95000,-18
38.95833,-18
38.96667,-18
38.97500,-18
38.98333,-18
38.99167,-18
39.00000,-18
39.00833,-18
39.01667,-18
39.02500,-18
39.03333,-17
39.04167,-18
39.05000,-18
39.05833,-18
39.06667,-18
39.07500,-18
39.08333,-18
39.09167,-18
39.10000,-18
39.10833,-18
39.11667,-18
39.12500,-19
39.13333,-19
39.14167,-19
39.15000,-19
39.15833,-19
39.16667,-19
39.17500,-18
39.18333,-18
39.19167,-18
39.20000,-18
39.20833,-18
39.21667,-18
39.22500,-18
39.23333,-18
39.24167,-19
39.25000,-18
39.25833,-18
39.26667,-19
39.27500,-19
39.28333,-19
39.29167,-18
39.30000,-18
39.30833,-18
39.31667,-18
39.32500,-18
39.33333,-18
39.34167,-18
39.35000,-18
39.35833,-18
39.36667,-18
39.37500,-18
39.38333,-18
39.39167,-18
39.40000,-18
39.40833,-18
39.41667,-18
39.42500,-18
39.43333,-17
39.44167,-18
39.45000,-18
39.45833,-18
39.46667,-19
39.47500,-19
39.48333,-19
39.49167,-18
39.50000,-18
39.50833,-18
39.51667,-18
39.52500,-18
39.53333,-18
39.54167,-19
39.55000,-19
39.55833,-19
39.56667,-19
39.57500,-19
39.58333,-18
39.59167,-18
39.60000,-18
39.60833,-19
39.61667,-19
39.62500,-19
39.63333,-19
39.64167,-19
39.65000,-19
39.65833,-19
39.66667,-19
39.67500,-19
39.68333,-19
39.69167,-19
39.70000,-19
39.70833,-18
39.71667,-18
39.72500,-18
39.73333,-18
39.74167,-18
39.75000,-18
39.75833,-18
39.76667,-18
39.77500,-18
39.78333,-19
39.79167,-19
39.80000,-19
39.80833,-19
39.81667,-19
39.82500,-19
39.83333,-19
39.84167,-19
39.85000,-19
39.85833,-19
39.86667,-19
39.87500,-19
39.88333,-19
39.89167,-19
39.90000,-19
39.90833,-19
39.91667,-19
39.92500,-19
39.93333,-19
39.94167,-19
39.95000,-19
39.95833,-19
39.96667,-19
39.97500,-19
39.98333,-19
39.99167,-19
40.00000,-19

