[Header]
Application Name,LabSolutions
Version,5.97 SP1
Data File Name,C:\Users\cremerlab\Desktop\griffin\2021-04-03_buffer_calibration\2021-04-03_buffer_calibration_432021_009_022.lcd
Output Date,4/4/2021
Output Time,5:30:39 AM

[File Information]
Type,Data File
Generated,4/4/2021 4:50:18 AM
Generated by,System Administrator
Modified,4/4/2021 5:30:39 AM
Modified by,System Administrator

[Sample Information]
Operator Name,System Administrator
Acquired,4/4/2021 4:50:38 AM
Sample Type,1:Standard
Level,9
Sample Name,2021-04-02_DM_glucose_glycerol_acetate_calibration_01mM
Sample ID,009
ISTD Amount1,1
ISTD Amount2,1
ISTD Amount3,1
ISTD Amount4,1
ISTD Amount5,1
ISTD Amount6,1
ISTD Amount7,1
ISTD Amount8,1
ISTD Amount9,1
ISTD Amount10,1
ISTD Amount11,1
ISTD Amount12,1
ISTD Amount13,1
ISTD Amount14,1
ISTD Amount15,1
ISTD Amount16,1
ISTD Amount17,1
ISTD Amount18,1
ISTD Amount19,1
ISTD Amount20,1
ISTD Amount21,1
ISTD Amount22,1
ISTD Amount23,1
ISTD Amount24,1
ISTD Amount25,1
ISTD Amount26,1
ISTD Amount27,1
ISTD Amount28,1
ISTD Amount29,1
ISTD Amount30,1
ISTD Amount31,1
ISTD Amount32,1
Sample Amount,1
Dilution Factor,1
Vial#,27
Injection Volume,20

[Original Files]
Data File,C:\Users\cremerlab\Desktop\griffin\2021-04-03_buffer_calibration\2021-04-03_buffer_calibration_432021_009_022.lcd
Method File,C:\LabSolutions\Data\Project1\organicacidsetc2.lcm
Batch File,C:\Users\cremerlab\Desktop\griffin\2021-04-03_buffer_calibration\2021-04-03_buffer_calibration.lcb
Report Format File,c:\LabSolutions\System\DEFAULT.lsr

[File Description]


[Configuration]
Instrument Name,HPLC-PC-Instrument1
Instrument #,1
Line #,1
# of Detectors,2
Detector ID,Detector A,Detector B
Detector Name,Detector A,Detector B
# of Channels,1,1

[Peak Table(Detector A)]
# of Peaks,0

[Peak Table(Detector B)]
# of Peaks,6
Peak#,R.Time,I.Time,F.Time,Area,Height,A/H,Conc.,Mark,ID#,Name,k',Plate #,Plate Ht.,Tailing,Resolution,Sep.Factor,Area Ratio,Height Ratio,Conc. %,Norm Conc.
1,10.746,10.542,10.967,43058,2924,14.727,2.472,   ,,,0.000,12408,12.089,1.021,0.000,0.000,0,0,0.000,0.000
2,11.342,11.008,11.467,42612,1498,28.446,2.446,   ,,,0.055,10959,13.688,0.688,1.455,0.000,0,0,0.000,0.000
3,14.920,14.100,15.367,1506875,60881,24.751,86.500,   ,,,0.388,7546,19.877,0.830,6.387,7.005,0,0,0.000,0.000
4,15.663,15.367,16.975,109971,4273,25.736,6.313, V ,,,0.458,8399,17.858,0.000,1.085,1.178,0,0,0.000,0.000
5,22.082,21.533,22.817,28074,1055,26.614,1.612,   ,,,1.055,15600,9.616,1.088,9.231,2.305,0,0,0.000,0.000
6,25.086,24.575,25.742,11456,404,28.354,0.658,   ,,,1.335,17423,8.609,1.068,4.094,1.265,0,0,0.000,0.000

[LC Chromatogram(Detector B-Ch1)]
Interval(msec),500
# of Points,4801
Start Time(min),0.000
End Time(min),40.000
Intensity Units,mV
Intensity Multiplier,0.001
R.Time (min),Intensity
0.00000,0
0.00833,0
0.01667,0
0.02500,0
0.03333,0
0.04167,0
0.05000,0
0.05833,0
0.06667,0
0.07500,0
0.08333,0
0.09167,0
0.10000,0
0.10833,1
0.11667,1
0.12500,1
0.13333,1
0.14167,1
0.15000,1
0.15833,1
0.16667,1
0.17500,1
0.18333,1
0.19167,0
0.20000,0
0.20833,1
0.21667,1
0.22500,1
0.23333,1
0.24167,1
0.25000,2
0.25833,2
0.26667,1
0.27500,1
0.28333,1
0.29167,1
0.30000,1
0.30833,1
0.31667,1
0.32500,1
0.33333,1
0.34167,1
0.35000,1
0.35833,0
0.36667,0
0.37500,0
0.38333,0
0.39167,0
0.40000,0
0.40833,1
0.41667,1
0.42500,2
0.43333,2
0.44167,2
0.45000,2
0.45833,2
0.46667,1
0.47500,1
0.48333,2
0.49167,2
0.50000,2
0.50833,2
0.51667,3
0.52500,3
0.53333,3
0.54167,3
0.55000,3
0.55833,3
0.56667,3
0.57500,3
0.58333,3
0.59167,3
0.60000,3
0.60833,3
0.61667,3
0.62500,3
0.63333,3
0.64167,3
0.65000,3
0.65833,2
0.66667,2
0.67500,2
0.68333,1
0.69167,1
0.70000,2
0.70833,1
0.71667,1
0.72500,1
0.73333,2
0.74167,2
0.75000,2
0.75833,2
0.76667,2
0.77500,2
0.78333,3
0.79167,3
0.80000,3
0.80833,3
0.81667,3
0.82500,3
0.83333,4
0.84167,4
0.85000,4
0.85833,4
0.86667,4
0.87500,4
0.88333,4
0.89167,4
0.90000,4
0.90833,3
0.91667,3
0.92500,3
0.93333,4
0.94167,4
0.95000,4
0.95833,4
0.96667,4
0.97500,4
0.98333,4
0.99167,4
1.00000,4
1.00833,4
1.01667,4
1.02500,4
1.03333,4
1.04167,4
1.05000,4
1.05833,4
1.06667,4
1.07500,4
1.08333,4
1.09167,4
1.10000,4
1.10833,4
1.11667,4
1.12500,4
1.13333,4
1.14167,4
1.15000,4
1.15833,4
1.16667,4
1.17500,4
1.18333,4
1.19167,4
1.20000,4
1.20833,5
1.21667,5
1.22500,5
1.23333,4
1.24167,4
1.25000,4
1.25833,4
1.26667,4
1.27500,4
1.28333,4
1.29167,4
1.30000,4
1.30833,4
1.31667,4
1.32500,4
1.33333,4
1.34167,4
1.35000,4
1.35833,4
1.36667,3
1.37500,3
1.38333,3
1.39167,4
1.40000,4
1.40833,4
1.41667,4
1.42500,5
1.43333,5
1.44167,5
1.45000,5
1.45833,5
1.46667,5
1.47500,4
1.48333,4
1.49167,4
1.50000,4
1.50833,4
1.51667,4
1.52500,4
1.53333,4
1.54167,4
1.55000,4
1.55833,4
1.56667,4
1.57500,4
1.58333,4
1.59167,4
1.60000,4
1.60833,4
1.61667,4
1.62500,4
1.63333,4
1.64167,4
1.65000,4
1.65833,4
1.66667,4
1.67500,4
1.68333,3
1.69167,3
1.70000,3
1.70833,3
1.71667,3
1.72500,2
1.73333,2
1.74167,2
1.75000,2
1.75833,2
1.76667,2
1.77500,3
1.78333,3
1.79167,3
1.80000,3
1.80833,3
1.81667,3
1.82500,3
1.83333,3
1.84167,3
1.85000,3
1.85833,2
1.86667,2
1.87500,2
1.88333,2
1.89167,2
1.90000,2
1.90833,3
1.91667,3
1.92500,3
1.93333,3
1.94167,4
1.95000,4
1.95833,4
1.96667,4
1.97500,4
1.98333,4
1.99167,4
2.00000,4
2.00833,4
2.01667,4
2.02500,4
2.03333,3
2.04167,3
2.05000,3
2.05833,3
2.06667,3
2.07500,4
2.08333,4
2.09167,4
2.10000,4
2.10833,4
2.11667,4
2.12500,4
2.13333,4
2.14167,3
2.15000,3
2.15833,3
2.16667,3
2.17500,3
2.18333,3
2.19167,4
2.20000,4
2.20833,4
2.21667,5
2.22500,5
2.23333,4
2.24167,4
2.25000,4
2.25833,4
2.26667,3
2.27500,3
2.28333,3
2.29167,3
2.30000,3
2.30833,3
2.31667,3
2.32500,3
2.33333,3
2.34167,4
2.35000,4
2.35833,4
2.36667,4
2.37500,4
2.38333,4
2.39167,4
2.40000,3
2.40833,3
2.41667,4
2.42500,3
2.43333,3
2.44167,3
2.45000,3
2.45833,3
2.46667,4
2.47500,4
2.48333,4
2.49167,4
2.50000,4
2.50833,4
2.51667,4
2.52500,4
2.53333,4
2.54167,5
2.55000,5
2.55833,5
2.56667,5
2.57500,5
2.58333,5
2.59167,5
2.60000,5
2.60833,5
2.61667,5
2.62500,5
2.63333,5
2.64167,4
2.65000,5
2.65833,5
2.66667,4
2.67500,4
2.68333,4
2.69167,4
2.70000,4
2.70833,4
2.71667,5
2.72500,5
2.73333,5
2.74167,5
2.75000,5
2.75833,5
2.76667,5
2.77500,5
2.78333,5
2.79167,5
2.80000,5
2.80833,5
2.81667,5
2.82500,5
2.83333,5
2.84167,5
2.85000,5
2.85833,5
2.86667,5
2.87500,5
2.88333,5
2.89167,5
2.90000,5
2.90833,5
2.91667,5
2.92500,5
2.93333,5
2.94167,5
2.95000,5
2.95833,5
2.96667,5
2.97500,5
2.98333,5
2.99167,5
3.00000,5
3.00833,6
3.01667,6
3.02500,6
3.03333,6
3.04167,6
3.05000,6
3.05833,6
3.06667,6
3.07500,6
3.08333,6
3.09167,6
3.10000,6
3.10833,6
3.11667,6
3.12500,6
3.13333,6
3.14167,6
3.15000,6
3.15833,6
3.16667,6
3.17500,6
3.18333,7
3.19167,7
3.20000,7
3.20833,6
3.21667,6
3.22500,6
3.23333,7
3.24167,7
3.25000,7
3.25833,7
3.26667,7
3.27500,7
3.28333,7
3.29167,7
3.30000,7
3.30833,7
3.31667,7
3.32500,7
3.33333,7
3.34167,7
3.35000,7
3.35833,7
3.36667,7
3.37500,7
3.38333,7
3.39167,7
3.40000,7
3.40833,7
3.41667,7
3.42500,7
3.43333,6
3.44167,6
3.45000,6
3.45833,6
3.46667,6
3.47500,7
3.48333,7
3.49167,7
3.50000,7
3.50833,7
3.51667,6
3.52500,6
3.53333,7
3.54167,7
3.55000,7
3.55833,7
3.56667,7
3.57500,7
3.58333,6
3.59167,7
3.60000,7
3.60833,7
3.61667,7
3.62500,7
3.63333,7
3.64167,7
3.65000,7
3.65833,7
3.66667,7
3.67500,7
3.68333,7
3.69167,6
3.70000,6
3.70833,6
3.71667,6
3.72500,6
3.73333,6
3.74167,6
3.75000,6
3.75833,6
3.76667,7
3.77500,7
3.78333,7
3.79167,6
3.80000,6
3.80833,6
3.81667,7
3.82500,7
3.83333,7
3.84167,7
3.85000,6
3.85833,6
3.86667,7
3.87500,7
3.88333,6
3.89167,6
3.90000,7
3.90833,7
3.91667,7
3.92500,7
3.93333,7
3.94167,7
3.95000,7
3.95833,7
3.96667,7
3.97500,7
3.98333,7
3.99167,6
4.00000,6
4.00833,6
4.01667,7
4.02500,7
4.03333,7
4.04167,7
4.05000,7
4.05833,7
4.06667,7
4.07500,7
4.08333,7
4.09167,7
4.10000,6
4.10833,6
4.11667,6
4.12500,6
4.13333,7
4.14167,7
4.15000,7
4.15833,7
4.16667,7
4.17500,7
4.18333,7
4.19167,7
4.20000,7
4.20833,7
4.21667,7
4.22500,7
4.23333,7
4.24167,6
4.25000,6
4.25833,6
4.26667,7
4.27500,7
4.28333,7
4.29167,7
4.30000,7
4.30833,7
4.31667,7
4.32500,7
4.33333,7
4.34167,7
4.35000,6
4.35833,6
4.36667,6
4.37500,6
4.38333,6
4.39167,6
4.40000,6
4.40833,6
4.41667,6
4.42500,6
4.43333,7
4.44167,7
4.45000,7
4.45833,7
4.46667,7
4.47500,6
4.48333,6
4.49167,6
4.50000,7
4.50833,7
4.51667,7
4.52500,7
4.53333,7
4.54167,7
4.55000,7
4.55833,7
4.56667,7
4.57500,7
4.58333,7
4.59167,7
4.60000,7
4.60833,7
4.61667,7
4.62500,7
4.63333,7
4.64167,7
4.65000,7
4.65833,7
4.66667,7
4.67500,8
4.68333,8
4.69167,7
4.70000,8
4.70833,7
4.71667,7
4.72500,7
4.73333,7
4.74167,8
4.75000,8
4.75833,8
4.76667,8
4.77500,9
4.78333,9
4.79167,9
4.80000,9
4.80833,9
4.81667,8
4.82500,9
4.83333,9
4.84167,9
4.85000,9
4.85833,9
4.86667,9
4.87500,9
4.88333,9
4.89167,9
4.90000,9
4.90833,9
4.91667,9
4.92500,8
4.93333,8
4.94167,8
4.95000,8
4.95833,8
4.96667,8
4.97500,8
4.98333,8
4.99167,8
5.00000,8
5.00833,8
5.01667,9
5.02500,9
5.03333,9
5.04167,9
5.05000,9
5.05833,9
5.06667,8
5.07500,9
5.08333,9
5.09167,9
5.10000,9
5.10833,9
5.11667,9
5.12500,9
5.13333,9
5.14167,9
5.15000,9
5.15833,9
5.16667,10
5.17500,9
5.18333,9
5.19167,9
5.20000,9
5.20833,9
5.21667,9
5.22500,9
5.23333,9
5.24167,9
5.25000,9
5.25833,9
5.26667,9
5.27500,9
5.28333,10
5.29167,10
5.30000,10
5.30833,10
5.31667,10
5.32500,9
5.33333,9
5.34167,9
5.35000,9
5.35833,9
5.36667,9
5.37500,9
5.38333,9
5.39167,9
5.40000,9
5.40833,9
5.41667,9
5.42500,9
5.43333,9
5.44167,9
5.45000,9
5.45833,9
5.46667,9
5.47500,9
5.48333,9
5.49167,9
5.50000,10
5.50833,10
5.51667,10
5.52500,10
5.53333,10
5.54167,10
5.55000,10
5.55833,10
5.56667,10
5.57500,10
5.58333,10
5.59167,10
5.60000,10
5.60833,10
5.61667,11
5.62500,11
5.63333,10
5.64167,10
5.65000,10
5.65833,10
5.66667,10
5.67500,10
5.68333,10
5.69167,10
5.70000,11
5.70833,11
5.71667,11
5.72500,11
5.73333,11
5.74167,11
5.75000,10
5.75833,10
5.76667,10
5.77500,10
5.78333,10
5.79167,10
5.80000,10
5.80833,10
5.81667,10
5.82500,10
5.83333,10
5.84167,9
5.85000,9
5.85833,9
5.86667,10
5.87500,10
5.88333,10
5.89167,10
5.90000,9
5.90833,9
5.91667,9
5.92500,9
5.93333,9
5.94167,9
5.95000,9
5.95833,9
5.96667,9
5.97500,9
5.98333,9
5.99167,10
6.00000,9
6.00833,9
6.01667,9
6.02500,9
6.03333,9
6.04167,9
6.05000,9
6.05833,9
6.06667,9
6.07500,9
6.08333,9
6.09167,9
6.10000,9
6.10833,9
6.11667,9
6.12500,9
6.13333,9
6.14167,9
6.15000,9
6.15833,9
6.16667,9
6.17500,9
6.18333,9
6.19167,9
6.20000,9
6.20833,9
6.21667,9
6.22500,9
6.23333,9
6.24167,10
6.25000,10
6.25833,10
6.26667,10
6.27500,10
6.28333,10
6.29167,10
6.30000,10
6.30833,10
6.31667,10
6.32500,10
6.33333,10
6.34167,10
6.35000,10
6.35833,10
6.36667,10
6.37500,10
6.38333,10
6.39167,10
6.40000,10
6.40833,10
6.41667,10
6.42500,9
6.43333,9
6.44167,9
6.45000,9
6.45833,9
6.46667,9
6.47500,9
6.48333,9
6.49167,9
6.50000,9
6.50833,9
6.51667,9
6.52500,9
6.53333,9
6.54167,9
6.55000,9
6.55833,9
6.56667,9
6.57500,9
6.58333,10
6.59167,10
6.60000,10
6.60833,10
6.61667,10
6.62500,11
6.63333,11
6.64167,11
6.65000,10
6.65833,10
6.66667,10
6.67500,10
6.68333,10
6.69167,10
6.70000,10
6.70833,10
6.71667,10
6.72500,10
6.73333,10
6.74167,11
6.75000,11
6.75833,11
6.76667,11
6.77500,11
6.78333,11
6.79167,10
6.80000,10
6.80833,10
6.81667,10
6.82500,10
6.83333,9
6.84167,9
6.85000,9
6.85833,10
6.86667,10
6.87500,10
6.88333,10
6.89167,10
6.90000,11
6.90833,11
6.91667,11
6.92500,11
6.93333,11
6.94167,11
6.95000,11
6.95833,11
6.96667,11
6.97500,11
6.98333,11
6.99167,11
7.00000,11
7.00833,11
7.01667,11
7.02500,11
7.03333,10
7.04167,11
7.05000,11
7.05833,11
7.06667,11
7.07500,11
7.08333,11
7.09167,10
7.10000,10
7.10833,10
7.11667,10
7.12500,10
7.13333,10
7.14167,11
7.15000,11
7.15833,11
7.16667,11
7.17500,11
7.18333,11
7.19167,11
7.20000,11
7.20833,11
7.21667,11
7.22500,12
7.23333,11
7.24167,11
7.25000,11
7.25833,11
7.26667,11
7.27500,11
7.28333,11
7.29167,11
7.30000,11
7.30833,11
7.31667,11
7.32500,11
7.33333,11
7.34167,11
7.35000,11
7.35833,11
7.36667,12
7.37500,12
7.38333,12
7.39167,12
7.40000,11
7.40833,11
7.41667,11
7.42500,11
7.43333,11
7.44167,12
7.45000,12
7.45833,12
7.46667,12
7.47500,13
7.48333,13
7.49167,12
7.50000,12
7.50833,12
7.51667,12
7.52500,12
7.53333,12
7.54167,12
7.55000,12
7.55833,12
7.56667,12
7.57500,12
7.58333,12
7.59167,12
7.60000,11
7.60833,11
7.61667,11
7.62500,12
7.63333,11
7.64167,11
7.65000,11
7.65833,12
7.66667,12
7.67500,13
7.68333,13
7.69167,12
7.70000,12
7.70833,12
7.71667,12
7.72500,12
7.73333,12
7.74167,12
7.75000,11
7.75833,11
7.76667,11
7.77500,11
7.78333,11
7.79167,11
7.80000,11
7.80833,10
7.81667,10
7.82500,10
7.83333,11
7.84167,11
7.85000,12
7.85833,12
7.86667,12
7.87500,12
7.88333,12
7.89167,12
7.90000,12
7.90833,12
7.91667,11
7.92500,11
7.93333,11
7.94167,11
7.95000,11
7.95833,12
7.96667,12
7.97500,12
7.98333,12
7.99167,12
8.00000,12
8.00833,12
8.01667,12
8.02500,12
8.03333,12
8.04167,12
8.05000,12
8.05833,12
8.06667,11
8.07500,11
8.08333,11
8.09167,11
8.10000,11
8.10833,11
8.11667,11
8.12500,11
8.13333,11
8.14167,12
8.15000,12
8.15833,13
8.16667,13
8.17500,13
8.18333,13
8.19167,12
8.20000,12
8.20833,12
8.21667,11
8.22500,11
8.23333,11
8.24167,11
8.25000,12
8.25833,12
8.26667,12
8.27500,12
8.28333,12
8.29167,12
8.30000,12
8.30833,12
8.31667,13
8.32500,13
8.33333,13
8.34167,13
8.35000,13
8.35833,13
8.36667,13
8.37500,13
8.38333,13
8.39167,13
8.40000,13
8.40833,13
8.41667,13
8.42500,13
8.43333,13
8.44167,13
8.45000,13
8.45833,13
8.46667,13
8.47500,13
8.48333,12
8.49167,12
8.50000,12
8.50833,12
8.51667,12
8.52500,13
8.53333,13
8.54167,13
8.55000,13
8.55833,13
8.56667,12
8.57500,12
8.58333,12
8.59167,12
8.60000,12
8.60833,12
8.61667,12
8.62500,12
8.63333,12
8.64167,12
8.65000,12
8.65833,12
8.66667,12
8.67500,12
8.68333,12
8.69167,12
8.70000,12
8.70833,12
8.71667,12
8.72500,12
8.73333,13
8.74167,12
8.75000,12
8.75833,12
8.76667,12
8.77500,12
8.78333,12
8.79167,12
8.80000,12
8.80833,12
8.81667,12
8.82500,12
8.83333,12
8.84167,12
8.85000,12
8.85833,12
8.86667,12
8.87500,13
8.88333,13
8.89167,13
8.90000,13
8.90833,13
8.91667,13
8.92500,13
8.93333,12
8.94167,12
8.95000,12
8.95833,12
8.96667,12
8.97500,12
8.98333,12
8.99167,12
9.00000,12
9.00833,12
9.01667,12
9.02500,12
9.03333,12
9.04167,12
9.05000,12
9.05833,12
9.06667,12
9.07500,12
9.08333,12
9.09167,12
9.10000,12
9.10833,12
9.11667,12
9.12500,12
9.13333,12
9.14167,12
9.15000,11
9.15833,11
9.16667,11
9.17500,11
9.18333,12
9.19167,12
9.20000,12
9.20833,12
9.21667,12
9.22500,11
9.23333,12
9.24167,12
9.25000,12
9.25833,12
9.26667,11
9.27500,11
9.28333,11
9.29167,11
9.30000,11
9.30833,10
9.31667,10
9.32500,10
9.33333,10
9.34167,11
9.35000,11
9.35833,12
9.36667,12
9.37500,12
9.38333,13
9.39167,13
9.40000,13
9.40833,13
9.41667,13
9.42500,13
9.43333,13
9.44167,12
9.45000,13
9.45833,13
9.46667,13
9.47500,13
9.48333,13
9.49167,13
9.50000,13
9.50833,12
9.51667,12
9.52500,12
9.53333,12
9.54167,12
9.55000,12
9.55833,12
9.56667,12
9.57500,12
9.58333,12
9.59167,13
9.60000,13
9.60833,13
9.61667,13
9.62500,13
9.63333,13
9.64167,13
9.65000,13
9.65833,12
9.66667,13
9.67500,13
9.68333,13
9.69167,13
9.70000,13
9.70833,13
9.71667,13
9.72500,13
9.73333,13
9.74167,13
9.75000,13
9.75833,13
9.76667,13
9.77500,13
9.78333,13
9.79167,13
9.80000,13
9.80833,13
9.81667,12
9.82500,12
9.83333,13
9.84167,13
9.85000,13
9.85833,13
9.86667,14
9.87500,14
9.88333,13
9.89167,13
9.90000,13
9.90833,13
9.91667,12
9.92500,12
9.93333,12
9.94167,12
9.95000,12
9.95833,12
9.96667,13
9.97500,12
9.98333,12
9.99167,12
10.00000,12
10.00833,13
10.01667,13
10.02500,13
10.03333,13
10.04167,13
10.05000,13
10.05833,13
10.06667,13
10.07500,13
10.08333,14
10.09167,14
10.10000,14
10.10833,13
10.11667,13
10.12500,13
10.13333,13
10.14167,13
10.15000,13
10.15833,13
10.16667,12
10.17500,12
10.18333,12
10.19167,12
10.20000,12
10.20833,12
10.21667,12
10.22500,12
10.23333,13
10.24167,13
10.25000,12
10.25833,12
10.26667,12
10.27500,12
10.28333,12
10.29167,12
10.30000,12
10.30833,13
10.31667,13
10.32500,13
10.33333,13
10.34167,13
10.35000,13
10.35833,13
10.36667,13
10.37500,13
10.38333,13
10.39167,13
10.40000,13
10.40833,14
10.41667,14
10.42500,14
10.43333,14
10.44167,14
10.45000,14
10.45833,14
10.46667,14
10.47500,13
10.48333,13
10.49167,14
10.50000,14
10.50833,14
10.51667,15
10.52500,15
10.53333,15
10.54167,15
10.55000,15
10.55833,15
10.56667,16
10.57500,18
10.58333,19
10.59167,21
10.60000,24
10.60833,27
10.61667,32
10.62500,37
10.63333,45
10.64167,55
10.65000,66
10.65833,80
10.66667,96
10.67500,114
10.68333,134
10.69167,156
10.70000,179
10.70833,202
10.71667,224
10.72500,244
10.73333,260
10.74167,269
10.75000,269
10.75833,257
10.76667,230
10.77500,185
10.78333,120
10.79167,31
10.80000,-84
10.80833,-228
10.81667,-400
10.82500,-603
10.83333,-836
10.84167,-1097
10.85000,-1386
10.85833,-1697
10.86667,-2029
10.87500,-2376
10.88333,-2732
10.89167,-3092
10.90000,-3451
10.90833,-3801
10.91667,-4137
10.92500,-4452
10.93333,-4741
10.94167,-4998
10.95000,-5220
10.95833,-5403
10.96667,-5544
10.97500,-5641
10.98333,-5694
10.99167,-5703
11.00000,-5667
11.00833,-5590
11.01667,-5474
11.02500,-5322
11.03333,-5136
11.04167,-4923
11.05000,-4686
11.05833,-4429
11.06667,-4157
11.07500,-3876
11.08333,-3588
11.09167,-3299
11.10000,-3013
11.10833,-2732
11.11667,-2461
11.12500,-2201
11.13333,-1955
11.14167,-1725
11.15000,-1511
11.15833,-1314
11.16667,-1136
11.17500,-975
11.18333,-831
11.19167,-704
11.20000,-593
11.20833,-496
11.21667,-414
11.22500,-344
11.23333,-285
11.24167,-237
11.25000,-197
11.25833,-165
11.26667,-139
11.27500,-119
11.28333,-103
11.29167,-91
11.30000,-82
11.30833,-76
11.31667,-71
11.32500,-69
11.33333,-67
11.34167,-65
11.35000,-65
11.35833,-65
11.36667,-64
11.37500,-64
11.38333,-64
11.39167,-64
11.40000,-63
11.40833,-63
11.41667,-62
11.42500,-60
11.43333,-59
11.44167,-58
11.45000,-56
11.45833,-55
11.46667,-53
11.47500,-51
11.48333,-50
11.49167,-48
11.50000,-46
11.50833,-44
11.51667,-42
11.52500,-41
11.53333,-39
11.54167,-37
11.55000,-35
11.55833,-34
11.56667,-32
11.57500,-31
11.58333,-29
11.59167,-28
11.60000,-27
11.60833,-26
11.61667,-25
11.62500,-24
11.63333,-23
11.64167,-23
11.65000,-22
11.65833,-21
11.66667,-21
11.67500,-20
11.68333,-19
11.69167,-18
11.70000,-17
11.70833,-16
11.71667,-16
11.72500,-15
11.73333,-14
11.74167,-14
11.75000,-14
11.75833,-13
11.76667,-13
11.77500,-13
11.78333,-12
11.79167,-12
11.80000,-11
11.80833,-11
11.81667,-11
11.82500,-10
11.83333,-9
11.84167,-9
11.85000,-8
11.85833,-8
11.86667,-8
11.87500,-7
11.88333,-7
11.89167,-7
11.90000,-6
11.90833,-6
11.91667,-5
11.92500,-5
11.93333,-5
11.94167,-4
11.95000,-4
11.95833,-4
11.96667,-4
11.97500,-4
11.98333,-3
11.99167,-3
12.00000,-2
12.00833,-2
12.01667,-2
12.02500,-1
12.03333,-1
12.04167,-1
12.05000,-1
12.05833,-1
12.06667,-1
12.07500,-1
12.08333,-1
12.09167,-1
12.10000,-1
12.10833,-1
12.11667,-1
12.12500,-1
12.13333,-1
12.14167,-1
12.15000,-1
12.15833,-1
12.16667,-1
12.17500,-1
12.18333,-1
12.19167,-1
12.20000,-1
12.20833,-1
12.21667,-1
12.22500,-0
12.23333,-0
12.24167,-0
12.25000,0
12.25833,0
12.26667,0
12.27500,0
12.28333,0
12.29167,0
12.30000,1
12.30833,1
12.31667,1
12.32500,1
12.33333,1
12.34167,2
12.35000,2
12.35833,2
12.36667,2
12.37500,2
12.38333,3
12.39167,3
12.40000,3
12.40833,3
12.41667,3
12.42500,4
12.43333,4
12.44167,5
12.45000,5
12.45833,5
12.46667,5
12.47500,5
12.48333,5
12.49167,5
12.50000,5
12.50833,5
12.51667,5
12.52500,6
12.53333,5
12.54167,6
12.55000,6
12.55833,6
12.56667,6
12.57500,5
12.58333,5
12.59167,5
12.60000,5
12.60833,5
12.61667,5
12.62500,5
12.63333,6
12.64167,6
12.65000,6
12.65833,6
12.66667,6
12.67500,6
12.68333,6
12.69167,6
12.70000,7
12.70833,7
12.71667,8
12.72500,8
12.73333,8
12.74167,8
12.75000,8
12.75833,8
12.76667,8
12.77500,8
12.78333,8
12.79167,8
12.80000,8
12.80833,8
12.81667,8
12.82500,8
12.83333,9
12.84167,9
12.85000,10
12.85833,10
12.86667,10
12.87500,10
12.88333,10
12.89167,10
12.90000,10
12.90833,10
12.91667,10
12.92500,11
12.93333,11
12.94167,12
12.95000,12
12.95833,12
12.96667,12
12.97500,12
12.98333,12
12.99167,12
13.00000,12
13.00833,12
13.01667,12
13.02500,13
13.03333,13
13.04167,13
13.05000,13
13.05833,13
13.06667,13
13.07500,13
13.08333,13
13.09167,14
13.10000,14
13.10833,14
13.11667,14
13.12500,14
13.13333,14
13.14167,14
13.15000,14
13.15833,14
13.16667,14
13.17500,14
13.18333,14
13.19167,14
13.20000,15
13.20833,15
13.21667,14
13.22500,15
13.23333,15
13.24167,15
13.25000,15
13.25833,15
13.26667,15
13.27500,15
13.28333,15
13.29167,15
13.30000,15
13.30833,15
13.31667,14
13.32500,14
13.33333,15
13.34167,15
13.35000,15
13.35833,15
13.36667,15
13.37500,15
13.38333,15
13.39167,15
13.40000,16
13.40833,16
13.41667,16
13.42500,16
13.43333,16
13.44167,15
13.45000,15
13.45833,15
13.46667,15
13.47500,16
13.48333,16
13.49167,16
13.50000,16
13.50833,15
13.51667,15
13.52500,15
13.53333,15
13.54167,15
13.55000,15
13.55833,15
13.56667,15
13.57500,15
13.58333,16
13.59167,16
13.60000,16
13.60833,16
13.61667,16
13.62500,16
13.63333,16
13.64167,16
13.65000,16
13.65833,16
13.66667,16
13.67500,16
13.68333,16
13.69167,16
13.70000,16
13.70833,16
13.71667,16
13.72500,16
13.73333,16
13.74167,16
13.75000,16
13.75833,16
13.76667,16
13.77500,16
13.78333,16
13.79167,17
13.80000,17
13.80833,17
13.81667,17
13.82500,17
13.83333,17
13.84167,17
13.85000,18
13.85833,18
13.86667,18
13.87500,18
13.88333,18
13.89167,18
13.90000,18
13.90833,18
13.91667,18
13.92500,18
13.93333,18
13.94167,18
13.95000,18
13.95833,19
13.96667,19
13.97500,19
13.98333,20
13.99167,20
14.00000,20
14.00833,20
14.01667,21
14.02500,21
14.03333,21
14.04167,22
14.05000,22
14.05833,23
14.06667,23
14.07500,23
14.08333,24
14.09167,24
14.10000,25
14.10833,26
14.11667,27
14.12500,28
14.13333,30
14.14167,32
14.15000,34
14.15833,37
14.16667,40
14.17500,43
14.18333,47
14.19167,52
14.20000,58
14.20833,65
14.21667,74
14.22500,84
14.23333,97
14.24167,113
14.25000,132
14.25833,156
14.26667,184
14.27500,217
14.28333,257
14.29167,304
14.30000,360
14.30833,426
14.31667,503
14.32500,594
14.33333,700
14.34167,821
14.35000,961
14.35833,1121
14.36667,1303
14.37500,1508
14.38333,1739
14.39167,1998
14.40000,2286
14.40833,2606
14.41667,2957
14.42500,3343
14.43333,3764
14.44167,4222
14.45000,4717
14.45833,5252
14.46667,5825
14.47500,6437
14.48333,7090
14.49167,7782
14.50000,8512
14.50833,9280
14.51667,10087
14.52500,10930
14.53333,11810
14.54167,12725
14.55000,13673
14.55833,14653
14.56667,15663
14.57500,16702
14.58333,17768
14.59167,18858
14.60000,19971
14.60833,21105
14.61667,22258
14.62500,23428
14.63333,24614
14.64167,25813
14.65000,27023
14.65833,28242
14.66667,29470
14.67500,30704
14.68333,31943
14.69167,33185
14.70000,34429
14.70833,35675
14.71667,36920
14.72500,38163
14.73333,39403
14.74167,40639
14.75000,41871
14.75833,43097
14.76667,44315
14.77500,45526
14.78333,46727
14.79167,47917
14.80000,49095
14.80833,50257
14.81667,51402
14.82500,52526
14.83333,53624
14.84167,54691
14.85000,55720
14.85833,56700
14.86667,57622
14.87500,58470
14.88333,59228
14.89167,59876
14.90000,60392
14.90833,60752
14.91667,60932
14.92500,60906
14.93333,60652
14.94167,60149
14.95000,59383
14.95833,58346
14.96667,57036
14.97500,55460
14.98333,53632
14.99167,51574
15.00000,49315
15.00833,46889
15.01667,44333
15.02500,41688
15.03333,38992
15.04167,36287
15.05000,33606
15.05833,30982
15.06667,28444
15.07500,26012
15.08333,23705
15.09167,21536
15.10000,19511
15.10833,17636
15.11667,15909
15.12500,14329
15.13333,12891
15.14167,11587
15.15000,10410
15.15833,9351
15.16667,8401
15.17500,7551
15.18333,6792
15.19167,6116
15.20000,5515
15.20833,4980
15.21667,4506
15.22500,4085
15.23333,3713
15.24167,3384
15.25000,3093
15.25833,2837
15.26667,2611
15.27500,2412
15.28333,2239
15.29167,2088
15.30000,1957
15.30833,1846
15.31667,1751
15.32500,1673
15.33333,1610
15.34167,1560
15.35000,1524
15.35833,1501
15.36667,1490
15.37500,1491
15.38333,1503
15.39167,1526
15.40000,1560
15.40833,1604
15.41667,1658
15.42500,1721
15.43333,1794
15.44167,1875
15.45000,1965
15.45833,2062
15.46667,2166
15.47500,2276
15.48333,2392
15.49167,2512
15.50000,2636
15.50833,2762
15.51667,2891
15.52500,3020
15.53333,3148
15.54167,3275
15.55000,3399
15.55833,3520
15.56667,3635
15.57500,3744
15.58333,3847
15.59167,3943
15.60000,4029
15.60833,4106
15.61667,4173
15.62500,4230
15.63333,4276
15.64167,4311
15.65000,4335
15.65833,4347
15.66667,4348
15.67500,4337
15.68333,4316
15.69167,4283
15.70000,4240
15.70833,4187
15.71667,4125
15.72500,4053
15.73333,3974
15.74167,3888
15.75000,3794
15.75833,3695
15.76667,3590
15.77500,3481
15.78333,3369
15.79167,3253
15.80000,3136
15.80833,3017
15.81667,2897
15.82500,2777
15.83333,2658
15.84167,2540
15.85000,2423
15.85833,2308
15.86667,2196
15.87500,2086
15.88333,1979
15.89167,1876
15.90000,1776
15.90833,1679
15.91667,1587
15.92500,1499
15.93333,1414
15.94167,1334
15.95000,1257
15.95833,1184
15.96667,1115
15.97500,1050
15.98333,988
15.99167,931
16.00000,877
16.00833,826
16.01667,779
16.02500,734
16.03333,693
16.04167,655
16.05000,619
16.05833,585
16.06667,554
16.07500,525
16.08333,498
16.09167,474
16.10000,451
16.10833,430
16.11667,410
16.12500,392
16.13333,375
16.14167,360
16.15000,346
16.15833,333
16.16667,320
16.17500,309
16.18333,298
16.19167,288
16.20000,279
16.20833,271
16.21667,263
16.22500,256
16.23333,249
16.24167,243
16.25000,237
16.25833,231
16.26667,226
16.27500,222
16.28333,218
16.29167,214
16.30000,210
16.30833,206
16.31667,203
16.32500,199
16.33333,196
16.34167,194
16.35000,191
16.35833,188
16.36667,186
16.37500,183
16.38333,182
16.39167,180
16.40000,178
16.40833,176
16.41667,174
16.42500,171
16.43333,169
16.44167,168
16.45000,166
16.45833,165
16.46667,163
16.47500,162
16.48333,160
16.49167,159
16.50000,157
16.50833,156
16.51667,155
16.52500,154
16.53333,152
16.54167,151
16.55000,150
16.55833,149
16.56667,148
16.57500,148
16.58333,147
16.59167,145
16.60000,144
16.60833,143
16.61667,142
16.62500,141
16.63333,140
16.64167,139
16.65000,139
16.65833,138
16.66667,138
16.67500,137
16.68333,137
16.69167,136
16.70000,135
16.70833,134
16.71667,134
16.72500,134
16.73333,133
16.74167,132
16.75000,132
16.75833,131
16.76667,130
16.77500,130
16.78333,129
16.79167,129
16.80000,128
16.80833,128
16.81667,127
16.82500,126
16.83333,125
16.84167,124
16.85000,124
16.85833,123
16.86667,123
16.87500,122
16.88333,121
16.89167,121
16.90000,121
16.90833,120
16.91667,120
16.92500,119
16.93333,119
16.94167,118
16.95000,117
16.95833,117
16.96667,117
16.97500,116
16.98333,116
16.99167,115
17.00000,115
17.00833,114
17.01667,114
17.02500,114
17.03333,114
17.04167,113
17.05000,113
17.05833,113
17.06667,112
17.07500,112
17.08333,111
17.09167,111
17.10000,110
17.10833,110
17.11667,110
17.12500,109
17.13333,109
17.14167,108
17.15000,107
17.15833,107
17.16667,106
17.17500,106
17.18333,106
17.19167,105
17.20000,105
17.20833,104
17.21667,104
17.22500,103
17.23333,103
17.24167,103
17.25000,102
17.25833,102
17.26667,102
17.27500,101
17.28333,100
17.29167,100
17.30000,99
17.30833,99
17.31667,98
17.32500,97
17.33333,97
17.34167,97
17.35000,97
17.35833,96
17.36667,96
17.37500,95
17.38333,95
17.39167,94
17.40000,94
17.40833,93
17.41667,93
17.42500,92
17.43333,92
17.44167,92
17.45000,91
17.45833,91
17.46667,91
17.47500,91
17.48333,90
17.49167,90
17.50000,89
17.50833,89
17.51667,89
17.52500,89
17.53333,88
17.54167,88
17.55000,88
17.55833,88
17.56667,87
17.57500,87
17.58333,86
17.59167,86
17.60000,86
17.60833,85
17.61667,85
17.62500,85
17.63333,85
17.64167,85
17.65000,84
17.65833,84
17.66667,83
17.67500,83
17.68333,83
17.69167,82
17.70000,82
17.70833,82
17.71667,81
17.72500,81
17.73333,81
17.74167,80
17.75000,80
17.75833,80
17.76667,79
17.77500,79
17.78333,79
17.79167,78
17.80000,78
17.80833,78
17.81667,78
17.82500,77
17.83333,77
17.84167,77
17.85000,76
17.85833,76
17.86667,76
17.87500,75
17.88333,75
17.89167,75
17.90000,74
17.90833,74
17.91667,74
17.92500,74
17.93333,74
17.94167,74
17.95000,74
17.95833,74
17.96667,74
17.97500,74
17.98333,74
17.99167,73
18.00000,73
18.00833,73
18.01667,73
18.02500,72
18.03333,72
18.04167,72
18.05000,72
18.05833,71
18.06667,71
18.07500,70
18.08333,70
18.09167,69
18.10000,69
18.10833,69
18.11667,69
18.12500,68
18.13333,68
18.14167,68
18.15000,68
18.15833,68
18.16667,68
18.17500,68
18.18333,68
18.19167,68
18.20000,67
18.20833,67
18.21667,67
18.22500,66
18.23333,66
18.24167,65
18.25000,65
18.25833,65
18.26667,66
18.27500,66
18.28333,65
18.29167,65
18.30000,65
18.30833,65
18.31667,64
18.32500,64
18.33333,64
18.34167,63
18.35000,63
18.35833,63
18.36667,62
18.37500,62
18.38333,62
18.39167,62
18.40000,63
18.40833,63
18.41667,63
18.42500,63
18.43333,63
18.44167,63
18.45000,63
18.45833,63
18.46667,63
18.47500,63
18.48333,63
18.49167,63
18.50000,63
18.50833,62
18.51667,62
18.52500,63
18.53333,63
18.54167,62
18.55000,62
18.55833,62
18.56667,62
18.57500,62
18.58333,62
18.59167,62
18.60000,62
18.60833,62
18.61667,62
18.62500,62
18.63333,62
18.64167,62
18.65000,62
18.65833,62
18.66667,62
18.67500,62
18.68333,62
18.69167,62
18.70000,62
18.70833,62
18.71667,62
18.72500,63
18.73333,63
18.74167,64
18.75000,64
18.75833,64
18.76667,64
18.77500,65
18.78333,65
18.79167,65
18.80000,65
18.80833,65
18.81667,66
18.82500,66
18.83333,67
18.84167,68
18.85000,69
18.85833,69
18.86667,70
18.87500,70
18.88333,71
18.89167,72
18.90000,73
18.90833,74
18.91667,75
18.92500,76
18.93333,77
18.94167,77
18.95000,78
18.95833,78
18.96667,79
18.97500,79
18.98333,80
18.99167,81
19.00000,82
19.00833,82
19.01667,82
19.02500,82
19.03333,82
19.04167,82
19.05000,82
19.05833,82
19.06667,81
19.07500,80
19.08333,80
19.09167,79
19.10000,79
19.10833,79
19.11667,78
19.12500,77
19.13333,76
19.14167,75
19.15000,74
19.15833,73
19.16667,72
19.17500,71
19.18333,70
19.19167,70
19.20000,69
19.20833,68
19.21667,67
19.22500,66
19.23333,65
19.24167,64
19.25000,63
19.25833,62
19.26667,61
19.27500,59
19.28333,59
19.29167,58
19.30000,57
19.30833,56
19.31667,55
19.32500,54
19.33333,53
19.34167,53
19.35000,52
19.35833,51
19.36667,51
19.37500,51
19.38333,50
19.39167,50
19.40000,50
19.40833,49
19.41667,49
19.42500,49
19.43333,48
19.44167,47
19.45000,47
19.45833,46
19.46667,46
19.47500,46
19.48333,46
19.49167,46
19.50000,45
19.50833,45
19.51667,45
19.52500,45
19.53333,45
19.54167,44
19.55000,44
19.55833,44
19.56667,44
19.57500,44
19.58333,44
19.59167,44
19.60000,43
19.60833,42
19.61667,42
19.62500,42
19.63333,43
19.64167,43
19.65000,42
19.65833,42
19.66667,41
19.67500,41
19.68333,41
19.69167,41
19.70000,41
19.70833,41
19.71667,41
19.72500,41
19.73333,41
19.74167,41
19.75000,41
19.75833,41
19.76667,41
19.77500,41
19.78333,40
19.79167,40
19.80000,41
19.80833,41
19.81667,41
19.82500,40
19.83333,40
19.84167,41
19.85000,40
19.85833,40
19.86667,40
19.87500,40
19.88333,40
19.89167,40
19.90000,40
19.90833,40
19.91667,40
19.92500,39
19.93333,39
19.94167,39
19.95000,39
19.95833,39
19.96667,39
19.97500,39
19.98333,39
19.99167,39
20.00000,39
20.00833,39
20.01667,39
20.02500,39
20.03333,39
20.04167,38
20.05000,38
20.05833,38
20.06667,38
20.07500,38
20.08333,39
20.09167,39
20.10000,39
20.10833,39
20.11667,38
20.12500,38
20.13333,38
20.14167,39
20.15000,39
20.15833,39
20.16667,38
20.17500,38
20.18333,38
20.19167,38
20.20000,38
20.20833,38
20.21667,38
20.22500,38
20.23333,38
20.24167,38
20.25000,38
20.25833,38
20.26667,37
20.27500,37
20.28333,37
20.29167,37
20.30000,37
20.30833,37
20.31667,37
20.32500,37
20.33333,37
20.34167,37
20.35000,37
20.35833,37
20.36667,37
20.37500,37
20.38333,37
20.39167,37
20.40000,36
20.40833,36
20.41667,37
20.42500,37
20.43333,37
20.44167,36
20.45000,36
20.45833,36
20.46667,36
20.47500,36
20.48333,37
20.49167,36
20.50000,36
20.50833,36
20.51667,36
20.52500,36
20.53333,37
20.54167,37
20.55000,37
20.55833,37
20.56667,36
20.57500,36
20.58333,36
20.59167,36
20.60000,36
20.60833,36
20.61667,36
20.62500,35
20.63333,35
20.64167,35
20.65000,36
20.65833,35
20.66667,35
20.67500,36
20.68333,36
20.69167,36
20.70000,36
20.70833,36
20.71667,36
20.72500,36
20.73333,35
20.74167,35
20.75000,35
20.75833,35
20.76667,35
20.77500,35
20.78333,35
20.79167,36
20.80000,35
20.80833,35
20.81667,35
20.82500,34
20.83333,34
20.84167,34
20.85000,34
20.85833,34
20.86667,34
20.87500,35
20.88333,35
20.89167,35
20.90000,35
20.90833,34
20.91667,35
20.92500,35
20.93333,35
20.94167,35
20.95000,34
20.95833,34
20.96667,34
20.97500,34
20.98333,34
20.99167,34
21.00000,34
21.00833,34
21.01667,34
21.02500,34
21.03333,34
21.04167,34
21.05000,34
21.05833,34
21.06667,35
21.07500,35
21.08333,35
21.09167,35
21.10000,35
21.10833,34
21.11667,34
21.12500,34
21.13333,34
21.14167,33
21.15000,33
21.15833,33
21.16667,34
21.17500,34
21.18333,33
21.19167,33
21.20000,33
21.20833,33
21.21667,33
21.22500,33
21.23333,33
21.24167,33
21.25000,33
21.25833,33
21.26667,33
21.27500,33
21.28333,33
21.29167,33
21.30000,33
21.30833,33
21.31667,33
21.32500,33
21.33333,33
21.34167,33
21.35000,33
21.35833,33
21.36667,33
21.37500,34
21.38333,33
21.39167,34
21.40000,34
21.40833,34
21.41667,34
21.42500,34
21.43333,35
21.44167,35
21.45000,35
21.45833,35
21.46667,35
21.47500,36
21.48333,36
21.49167,37
21.50000,37
21.50833,38
21.51667,39
21.52500,39
21.53333,40
21.54167,41
21.55000,42
21.55833,44
21.56667,45
21.57500,47
21.58333,49
21.59167,51
21.60000,54
21.60833,56
21.61667,59
21.62500,62
21.63333,66
21.64167,70
21.65000,74
21.65833,80
21.66667,85
21.67500,92
21.68333,99
21.69167,107
21.70000,116
21.70833,125
21.71667,136
21.72500,147
21.73333,159
21.74167,172
21.75000,186
21.75833,201
21.76667,218
21.77500,236
21.78333,255
21.79167,276
21.80000,297
21.80833,320
21.81667,344
21.82500,369
21.83333,395
21.84167,421
21.85000,450
21.85833,479
21.86667,509
21.87500,540
21.88333,571
21.89167,602
21.90000,634
21.90833,666
21.91667,698
21.92500,730
21.93333,762
21.94167,793
21.95000,824
21.95833,853
21.96667,882
21.97500,909
21.98333,935
21.99167,960
22.00000,983
22.00833,1004
22.01667,1023
22.02500,1040
22.03333,1055
22.04167,1067
22.05000,1078
22.05833,1086
22.06667,1091
22.07500,1094
22.08333,1095
22.09167,1094
22.10000,1090
22.10833,1084
22.11667,1075
22.12500,1064
22.13333,1051
22.14167,1036
22.15000,1019
22.15833,1001
22.16667,981
22.17500,959
22.18333,936
22.19167,911
22.20000,886
22.20833,860
22.21667,833
22.22500,806
22.23333,778
22.24167,750
22.25000,722
22.25833,693
22.26667,665
22.27500,637
22.28333,609
22.29167,581
22.30000,554
22.30833,528
22.31667,502
22.32500,477
22.33333,452
22.34167,429
22.35000,406
22.35833,384
22.36667,362
22.37500,342
22.38333,323
22.39167,304
22.40000,287
22.40833,270
22.41667,254
22.42500,239
22.43333,225
22.44167,211
22.45000,199
22.45833,187
22.46667,176
22.47500,165
22.48333,156
22.49167,147
22.50000,138
22.50833,131
22.51667,124
22.52500,117
22.53333,111
22.54167,105
22.55000,99
22.55833,94
22.56667,89
22.57500,85
22.58333,81
22.59167,78
22.60000,74
22.60833,71
22.61667,69
22.62500,66
22.63333,64
22.64167,61
22.65000,59
22.65833,57
22.66667,56
22.67500,54
22.68333,53
22.69167,51
22.70000,50
22.70833,49
22.71667,48
22.72500,47
22.73333,46
22.74167,45
22.75000,44
22.75833,44
22.76667,43
22.77500,42
22.78333,42
22.79167,42
22.80000,41
22.80833,41
22.81667,40
22.82500,40
22.83333,40
22.84167,39
22.85000,39
22.85833,39
22.86667,39
22.87500,39
22.88333,39
22.89167,39
22.90000,40
22.90833,39
22.91667,39
22.92500,38
22.93333,38
22.94167,38
22.95000,38
22.95833,38
22.96667,38
22.97500,38
22.98333,37
22.99167,37
23.00000,37
23.00833,37
23.01667,37
23.02500,37
23.03333,37
23.04167,37
23.05000,37
23.05833,37
23.06667,37
23.07500,36
23.08333,36
23.09167,36
23.10000,35
23.10833,35
23.11667,35
23.12500,35
23.13333,35
23.14167,35
23.15000,35
23.15833,35
23.16667,35
23.17500,35
23.18333,36
23.19167,36
23.20000,36
23.20833,36
23.21667,36
23.22500,36
23.23333,36
23.24167,36
23.25000,36
23.25833,36
23.26667,35
23.27500,35
23.28333,35
23.29167,35
23.30000,36
23.30833,36
23.31667,36
23.32500,36
23.33333,36
23.34167,36
23.35000,36
23.35833,36
23.36667,36
23.37500,35
23.38333,35
23.39167,35
23.40000,35
23.40833,36
23.41667,36
23.42500,36
23.43333,36
23.44167,36
23.45000,36
23.45833,36
23.46667,35
23.47500,35
23.48333,35
23.49167,35
23.50000,35
23.50833,35
23.51667,35
23.52500,35
23.53333,35
23.54167,35
23.55000,35
23.55833,35
23.56667,35
23.57500,35
23.58333,34
23.59167,35
23.60000,35
23.60833,35
23.61667,34
23.62500,34
23.63333,34
23.64167,34
23.65000,34
23.65833,34
23.66667,34
23.67500,34
23.68333,34
23.69167,33
23.70000,33
23.70833,33
23.71667,33
23.72500,33
23.73333,33
23.74167,33
23.75000,33
23.75833,33
23.76667,33
23.77500,33
23.78333,33
23.79167,33
23.80000,33
23.80833,32
23.81667,32
23.82500,33
23.83333,33
23.84167,33
23.85000,34
23.85833,34
23.86667,34
23.87500,34
23.88333,34
23.89167,34
23.90000,34
23.90833,34
23.91667,34
23.92500,34
23.93333,34
23.94167,34
23.95000,34
23.95833,34
23.96667,34
23.97500,35
23.98333,35
23.99167,34
24.00000,34
24.00833,34
24.01667,34
24.02500,34
24.03333,34
24.04167,34
24.05000,33
24.05833,33
24.06667,33
24.07500,33
24.08333,33
24.09167,33
24.10000,33
24.10833,34
24.11667,34
24.12500,34
24.13333,35
24.14167,34
24.15000,34
24.15833,34
24.16667,34
24.17500,34
24.18333,34
24.19167,34
24.20000,34
24.20833,34
24.21667,34
24.22500,34
24.23333,34
24.24167,34
24.25000,35
24.25833,35
24.26667,35
24.27500,35
24.28333,35
24.29167,35
24.30000,35
24.30833,35
24.31667,35
24.32500,35
24.33333,35
24.34167,35
24.35000,36
24.35833,36
24.36667,36
24.37500,36
24.38333,37
24.39167,37
24.40000,37
24.40833,37
24.41667,38
24.42500,38
24.43333,38
24.44167,38
24.45000,38
24.45833,38
24.46667,38
24.47500,38
24.48333,39
24.49167,39
24.50000,39
24.50833,40
24.51667,40
24.52500,41
24.53333,42
24.54167,43
24.55000,43
24.55833,44
24.56667,45
24.57500,46
24.58333,47
24.59167,49
24.60000,50
24.60833,52
24.61667,53
24.62500,56
24.63333,58
24.64167,61
24.65000,63
24.65833,66
24.66667,70
24.67500,73
24.68333,77
24.69167,81
24.70000,85
24.70833,90
24.71667,95
24.72500,100
24.73333,105
24.74167,111
24.75000,117
24.75833,124
24.76667,130
24.77500,138
24.78333,146
24.79167,154
24.80000,162
24.80833,171
24.81667,180
24.82500,189
24.83333,199
24.84167,209
24.85000,220
24.85833,230
24.86667,241
24.87500,253
24.88333,264
24.89167,275
24.90000,287
24.90833,298
24.91667,309
24.92500,320
24.93333,331
24.94167,342
24.95000,352
24.95833,362
24.96667,372
24.97500,381
24.98333,390
24.99167,399
25.00000,407
25.00833,414
25.01667,421
25.02500,427
25.03333,432
25.04167,437
25.05000,441
25.05833,444
25.06667,447
25.07500,448
25.08333,449
25.09167,449
25.10000,448
25.10833,446
25.11667,444
25.12500,441
25.13333,438
25.14167,433
25.15000,428
25.15833,422
25.16667,416
25.17500,408
25.18333,401
25.19167,393
25.20000,385
25.20833,377
25.21667,368
25.22500,358
25.23333,349
25.24167,339
25.25000,329
25.25833,318
25.26667,308
25.27500,298
25.28333,288
25.29167,278
25.30000,267
25.30833,257
25.31667,247
25.32500,237
25.33333,227
25.34167,218
25.35000,208
25.35833,199
25.36667,190
25.37500,182
25.38333,174
25.39167,167
25.40000,159
25.40833,152
25.41667,145
25.42500,138
25.43333,132
25.44167,126
25.45000,120
25.45833,114
25.46667,109
25.47500,104
25.48333,99
25.49167,94
25.50000,90
25.50833,86
25.51667,83
25.52500,79
25.53333,75
25.54167,72
25.55000,69
25.55833,67
25.56667,65
25.57500,62
25.58333,60
25.59167,59
25.60000,57
25.60833,56
25.61667,55
25.62500,54
25.63333,52
25.64167,51
25.65000,50
25.65833,49
25.66667,48
25.67500,47
25.68333,46
25.69167,45
25.70000,45
25.70833,44
25.71667,43
25.72500,43
25.73333,43
25.74167,43
25.75000,42
25.75833,42
25.76667,42
25.77500,41
25.78333,41
25.79167,40
25.80000,40
25.80833,40
25.81667,40
25.82500,40
25.83333,40
25.84167,40
25.85000,40
25.85833,40
25.86667,40
25.87500,40
25.88333,39
25.89167,39
25.90000,39
25.90833,39
25.91667,39
25.92500,39
25.93333,39
25.94167,39
25.95000,39
25.95833,39
25.96667,38
25.97500,38
25.98333,38
25.99167,39
26.00000,38
26.00833,38
26.01667,39
26.02500,39
26.03333,40
26.04167,39
26.05000,39
26.05833,39
26.06667,39
26.07500,38
26.08333,38
26.09167,38
26.10000,39
26.10833,39
26.11667,39
26.12500,39
26.13333,39
26.14167,38
26.15000,38
26.15833,38
26.16667,38
26.17500,38
26.18333,38
26.19167,38
26.20000,38
26.20833,38
26.21667,38
26.22500,38
26.23333,38
26.24167,38
26.25000,39
26.25833,39
26.26667,39
26.27500,39
26.28333,39
26.29167,39
26.30000,39
26.30833,39
26.31667,39
26.32500,39
26.33333,39
26.34167,40
26.35000,39
26.35833,39
26.36667,39
26.37500,39
26.38333,39
26.39167,39
26.40000,39
26.40833,39
26.41667,39
26.42500,39
26.43333,39
26.44167,39
26.45000,39
26.45833,39
26.46667,39
26.47500,39
26.48333,39
26.49167,39
26.50000,39
26.50833,39
26.51667,39
26.52500,39
26.53333,39
26.54167,39
26.55000,39
26.55833,39
26.56667,39
26.57500,39
26.58333,39
26.59167,39
26.60000,39
26.60833,39
26.61667,39
26.62500,39
26.63333,39
26.64167,39
26.65000,39
26.65833,39
26.66667,39
26.67500,39
26.68333,39
26.69167,39
26.70000,40
26.70833,40
26.71667,40
26.72500,40
26.73333,40
26.74167,40
26.75000,40
26.75833,40
26.76667,40
26.77500,40
26.78333,40
26.79167,40
26.80000,40
26.80833,40
26.81667,40
26.82500,40
26.83333,40
26.84167,40
26.85000,40
26.85833,40
26.86667,40
26.87500,40
26.88333,40
26.89167,40
26.90000,41
26.90833,41
26.91667,41
26.92500,41
26.93333,41
26.94167,41
26.95000,41
26.95833,41
26.96667,41
26.97500,41
26.98333,41
26.99167,41
27.00000,41
27.00833,41
27.01667,41
27.02500,41
27.03333,41
27.04167,41
27.05000,41
27.05833,41
27.06667,41
27.07500,41
27.08333,41
27.09167,41
27.10000,40
27.10833,40
27.11667,40
27.12500,41
27.13333,41
27.14167,41
27.15000,42
27.15833,42
27.16667,42
27.17500,41
27.18333,41
27.19167,41
27.20000,40
27.20833,40
27.21667,40
27.22500,40
27.23333,40
27.24167,40
27.25000,40
27.25833,40
27.26667,41
27.27500,41
27.28333,41
27.29167,41
27.30000,41
27.30833,41
27.31667,41
27.32500,41
27.33333,41
27.34167,41
27.35000,41
27.35833,41
27.36667,41
27.37500,41
27.38333,41
27.39167,41
27.40000,41
27.40833,41
27.41667,41
27.42500,42
27.43333,42
27.44167,42
27.45000,42
27.45833,41
27.46667,41
27.47500,41
27.48333,42
27.49167,42
27.50000,42
27.50833,42
27.51667,42
27.52500,42
27.53333,42
27.54167,42
27.55000,42
27.55833,42
27.56667,43
27.57500,43
27.58333,42
27.59167,42
27.60000,42
27.60833,42
27.61667,42
27.62500,42
27.63333,42
27.64167,41
27.65000,41
27.65833,41
27.66667,41
27.67500,41
27.68333,41
27.69167,42
27.70000,42
27.70833,42
27.71667,42
27.72500,42
27.73333,41
27.74167,41
27.75000,41
27.75833,40
27.76667,40
27.77500,40
27.78333,39
27.79167,39
27.80000,39
27.80833,39
27.81667,39
27.82500,39
27.83333,38
27.84167,38
27.85000,37
27.85833,36
27.86667,35
27.87500,35
27.88333,34
27.89167,33
27.90000,32
27.90833,31
27.91667,30
27.92500,29
27.93333,27
27.94167,26
27.95000,25
27.95833,24
27.96667,22
27.97500,21
27.98333,19
27.99167,18
28.00000,16
28.00833,14
28.01667,13
28.02500,10
28.03333,8
28.04167,6
28.05000,4
28.05833,1
28.06667,-1
28.07500,-3
28.08333,-5
28.09167,-8
28.10000,-11
28.10833,-14
28.11667,-17
28.12500,-20
28.13333,-23
28.14167,-26
28.15000,-29
28.15833,-32
28.16667,-35
28.17500,-38
28.18333,-41
28.19167,-44
28.20000,-48
28.20833,-51
28.21667,-54
28.22500,-57
28.23333,-61
28.24167,-64
28.25000,-68
28.25833,-71
28.26667,-75
28.27500,-78
28.28333,-81
28.29167,-83
28.30000,-86
28.30833,-89
28.31667,-91
28.32500,-94
28.33333,-96
28.34167,-98
28.35000,-100
28.35833,-102
28.36667,-103
28.37500,-105
28.38333,-106
28.39167,-107
28.40000,-109
28.40833,-110
28.41667,-110
28.42500,-111
28.43333,-111
28.44167,-111
28.45000,-111
28.45833,-111
28.46667,-111
28.47500,-110
28.48333,-110
28.49167,-109
28.50000,-109
28.50833,-108
28.51667,-107
28.52500,-106
28.53333,-105
28.54167,-103
28.55000,-101
28.55833,-99
28.56667,-97
28.57500,-94
28.58333,-92
28.59167,-90
28.60000,-87
28.60833,-85
28.61667,-82
28.62500,-79
28.63333,-76
28.64167,-74
28.65000,-71
28.65833,-68
28.66667,-65
28.67500,-63
28.68333,-60
28.69167,-57
28.70000,-54
28.70833,-52
28.71667,-49
28.72500,-46
28.73333,-43
28.74167,-41
28.75000,-38
28.75833,-35
28.76667,-32
28.77500,-30
28.78333,-28
28.79167,-26
28.80000,-24
28.80833,-21
28.81667,-19
28.82500,-16
28.83333,-14
28.84167,-11
28.85000,-9
28.85833,-7
28.86667,-5
28.87500,-3
28.88333,-1
28.89167,0
28.90000,2
28.90833,4
28.91667,6
28.92500,8
28.93333,9
28.94167,10
28.95000,11
28.95833,12
28.96667,13
28.97500,14
28.98333,15
28.99167,16
29.00000,17
29.00833,18
29.01667,19
29.02500,20
29.03333,20
29.04167,21
29.05000,22
29.05833,23
29.06667,24
29.07500,24
29.08333,25
29.09167,26
29.10000,26
29.10833,26
29.11667,27
29.12500,28
29.13333,29
29.14167,30
29.15000,30
29.15833,30
29.16667,30
29.17500,31
29.18333,31
29.19167,31
29.20000,31
29.20833,32
29.21667,32
29.22500,33
29.23333,33
29.24167,34
29.25000,34
29.25833,34
29.26667,34
29.27500,34
29.28333,34
29.29167,34
29.30000,34
29.30833,34
29.31667,34
29.32500,34
29.33333,35
29.34167,35
29.35000,35
29.35833,35
29.36667,35
29.37500,35
29.38333,35
29.39167,35
29.40000,35
29.40833,36
29.41667,36
29.42500,36
29.43333,36
29.44167,36
29.45000,35
29.45833,35
29.46667,35
29.47500,35
29.48333,35
29.49167,35
29.50000,35
29.50833,35
29.51667,35
29.52500,35
29.53333,35
29.54167,35
29.55000,35
29.55833,34
29.56667,34
29.57500,34
29.58333,34
29.59167,33
29.60000,33
29.60833,33
29.61667,32
29.62500,32
29.63333,32
29.64167,32
29.65000,31
29.65833,31
29.66667,30
29.67500,30
29.68333,29
29.69167,29
29.70000,28
29.70833,28
29.71667,27
29.72500,27
29.73333,26
29.74167,25
29.75000,24
29.75833,23
29.76667,23
29.77500,22
29.78333,21
29.79167,20
29.80000,19
29.80833,17
29.81667,16
29.82500,16
29.83333,15
29.84167,14
29.85000,13
29.85833,12
29.86667,11
29.87500,10
29.88333,9
29.89167,8
29.90000,7
29.90833,6
29.91667,5
29.92500,4
29.93333,3
29.94167,2
29.95000,1
29.95833,0
29.96667,-0
29.97500,-1
29.98333,-2
29.99167,-3
30.00000,-4
30.00833,-5
30.01667,-6
30.02500,-7
30.03333,-8
30.04167,-9
30.05000,-10
30.05833,-11
30.06667,-12
30.07500,-13
30.08333,-14
30.09167,-15
30.10000,-15
30.10833,-15
30.11667,-16
30.12500,-16
30.13333,-17
30.14167,-17
30.15000,-17
30.15833,-18
30.16667,-18
30.17500,-19
30.18333,-19
30.19167,-18
30.20000,-18
30.20833,-18
30.21667,-18
30.22500,-17
30.23333,-17
30.24167,-16
30.25000,-16
30.25833,-16
30.26667,-16
30.27500,-16
30.28333,-15
30.29167,-14
30.30000,-14
30.30833,-13
30.31667,-12
30.32500,-12
30.33333,-11
30.34167,-10
30.35000,-9
30.35833,-8
30.36667,-7
30.37500,-7
30.38333,-6
30.39167,-5
30.40000,-4
30.40833,-3
30.41667,-2
30.42500,-1
30.43333,-0
30.44167,1
30.45000,2
30.45833,3
30.46667,4
30.47500,5
30.48333,6
30.49167,7
30.50000,8
30.50833,10
30.51667,11
30.52500,11
30.53333,12
30.54167,13
30.55000,13
30.55833,14
30.56667,15
30.57500,15
30.58333,16
30.59167,17
30.60000,18
30.60833,19
30.61667,20
30.62500,21
30.63333,22
30.64167,23
30.65000,23
30.65833,24
30.66667,25
30.67500,25
30.68333,26
30.69167,26
30.70000,26
30.70833,27
30.71667,27
30.72500,28
30.73333,29
30.74167,29
30.75000,29
30.75833,30
30.76667,30
30.77500,31
30.78333,31
30.79167,32
30.80000,32
30.80833,33
30.81667,33
30.82500,33
30.83333,33
30.84167,33
30.85000,33
30.85833,33
30.86667,34
30.87500,34
30.88333,34
30.89167,35
30.90000,35
30.90833,36
30.91667,36
30.92500,36
30.93333,36
30.94167,36
30.95000,36
30.95833,36
30.96667,36
30.97500,36
30.98333,36
30.99167,36
31.00000,37
31.00833,36
31.01667,36
31.02500,37
31.03333,37
31.04167,37
31.05000,37
31.05833,37
31.06667,37
31.07500,37
31.08333,37
31.09167,37
31.10000,37
31.10833,37
31.11667,37
31.12500,37
31.13333,37
31.14167,37
31.15000,37
31.15833,37
31.16667,37
31.17500,37
31.18333,38
31.19167,38
31.20000,38
31.20833,38
31.21667,38
31.22500,38
31.23333,38
31.24167,38
31.25000,39
31.25833,39
31.26667,39
31.27500,39
31.28333,40
31.29167,40
31.30000,40
31.30833,40
31.31667,40
31.32500,39
31.33333,39
31.34167,39
31.35000,39
31.35833,39
31.36667,39
31.37500,39
31.38333,40
31.39167,40
31.40000,40
31.40833,40
31.41667,39
31.42500,39
31.43333,40
31.44167,40
31.45000,40
31.45833,41
31.46667,41
31.47500,42
31.48333,42
31.49167,41
31.50000,41
31.50833,41
31.51667,41
31.52500,41
31.53333,41
31.54167,41
31.55000,41
31.55833,41
31.56667,41
31.57500,41
31.58333,41
31.59167,41
31.60000,41
31.60833,41
31.61667,41
31.62500,41
31.63333,42
31.64167,42
31.65000,42
31.65833,42
31.66667,42
31.67500,42
31.68333,42
31.69167,42
31.70000,42
31.70833,42
31.71667,42
31.72500,42
31.73333,42
31.74167,42
31.75000,42
31.75833,42
31.76667,42
31.77500,42
31.78333,42
31.79167,42
31.80000,42
31.80833,42
31.81667,43
31.82500,43
31.83333,43
31.84167,43
31.85000,43
31.85833,42
31.86667,42
31.87500,42
31.88333,42
31.89167,43
31.90000,43
31.90833,43
31.91667,43
31.92500,43
31.93333,43
31.94167,43
31.95000,43
31.95833,43
31.96667,43
31.97500,43
31.98333,43
31.99167,43
32.00000,43
32.00833,43
32.01667,43
32.02500,43
32.03333,43
32.04167,43
32.05000,43
32.05833,43
32.06667,44
32.07500,43
32.08333,43
32.09167,43
32.10000,44
32.10833,44
32.11667,44
32.12500,44
32.13333,44
32.14167,44
32.15000,44
32.15833,44
32.16667,44
32.17500,44
32.18333,44
32.19167,44
32.20000,44
32.20833,44
32.21667,44
32.22500,44
32.23333,44
32.24167,44
32.25000,44
32.25833,44
32.26667,44
32.27500,44
32.28333,44
32.29167,44
32.30000,44
32.30833,44
32.31667,44
32.32500,44
32.33333,44
32.34167,44
32.35000,44
32.35833,44
32.36667,44
32.37500,44
32.38333,43
32.39167,43
32.40000,44
32.40833,44
32.41667,44
32.42500,44
32.43333,44
32.44167,44
32.45000,44
32.45833,44
32.46667,44
32.47500,44
32.48333,44
32.49167,44
32.50000,44
32.50833,44
32.51667,44
32.52500,45
32.53333,45
32.54167,45
32.55000,45
32.55833,45
32.56667,45
32.57500,45
32.58333,45
32.59167,45
32.60000,45
32.60833,45
32.61667,45
32.62500,45
32.63333,44
32.64167,44
32.65000,44
32.65833,44
32.66667,45
32.67500,45
32.68333,45
32.69167,45
32.70000,45
32.70833,45
32.71667,45
32.72500,45
32.73333,45
32.74167,45
32.75000,45
32.75833,46
32.76667,46
32.77500,46
32.78333,46
32.79167,45
32.80000,45
32.80833,45
32.81667,45
32.82500,45
32.83333,45
32.84167,45
32.85000,45
32.85833,45
32.86667,45
32.87500,45
32.88333,45
32.89167,45
32.90000,45
32.90833,46
32.91667,46
32.92500,46
32.93333,46
32.94167,46
32.95000,46
32.95833,46
32.96667,45
32.97500,45
32.98333,46
32.99167,46
33.00000,46
33.00833,46
33.01667,46
33.02500,46
33.03333,46
33.04167,46
33.05000,46
33.05833,46
33.06667,47
33.07500,46
33.08333,46
33.09167,46
33.10000,46
33.10833,46
33.11667,46
33.12500,46
33.13333,46
33.14167,46
33.15000,46
33.15833,45
33.16667,45
33.17500,45
33.18333,46
33.19167,45
33.20000,45
33.20833,45
33.21667,46
33.22500,46
33.23333,46
33.24167,46
33.25000,46
33.25833,46
33.26667,46
33.27500,46
33.28333,46
33.29167,46
33.30000,46
33.30833,46
33.31667,46
33.32500,46
33.33333,46
33.34167,46
33.35000,46
33.35833,46
33.36667,45
33.37500,45
33.38333,46
33.39167,46
33.40000,46
33.40833,46
33.41667,46
33.42500,46
33.43333,46
33.44167,46
33.45000,46
33.45833,46
33.46667,46
33.47500,47
33.48333,47
33.49167,47
33.50000,47
33.50833,46
33.51667,46
33.52500,46
33.53333,46
33.54167,46
33.55000,46
33.55833,46
33.56667,46
33.57500,46
33.58333,46
33.59167,46
33.60000,46
33.60833,46
33.61667,46
33.62500,46
33.63333,46
33.64167,46
33.65000,46
33.65833,46
33.66667,46
33.67500,46
33.68333,47
33.69167,47
33.70000,47
33.70833,47
33.71667,48
33.72500,48
33.73333,47
33.74167,47
33.75000,47
33.75833,46
33.76667,46
33.77500,46
33.78333,46
33.79167,46
33.80000,46
33.80833,46
33.81667,46
33.82500,47
33.83333,47
33.84167,47
33.85000,47
33.85833,46
33.86667,46
33.87500,46
33.88333,46
33.89167,46
33.90000,46
33.90833,46
33.91667,46
33.92500,46
33.93333,46
33.94167,46
33.95000,46
33.95833,46
33.96667,46
33.97500,46
33.98333,46
33.99167,46
34.00000,46
34.00833,46
34.01667,46
34.02500,47
34.03333,47
34.04167,47
34.05000,47
34.05833,47
34.06667,46
34.07500,47
34.08333,47
34.09167,46
34.10000,46
34.10833,46
34.11667,47
34.12500,47
34.13333,47
34.14167,47
34.15000,47
34.15833,47
34.16667,46
34.17500,47
34.18333,47
34.19167,46
34.20000,46
34.20833,46
34.21667,46
34.22500,46
34.23333,47
34.24167,47
34.25000,47
34.25833,47
34.26667,47
34.27500,47
34.28333,47
34.29167,47
34.30000,47
34.30833,46
34.31667,46
34.32500,46
34.33333,46
34.34167,47
34.35000,47
34.35833,47
34.36667,47
34.37500,48
34.38333,48
34.39167,48
34.40000,48
34.40833,47
34.41667,47
34.42500,47
34.43333,47
34.44167,47
34.45000,47
34.45833,47
34.46667,47
34.47500,47
34.48333,48
34.49167,48
34.50000,48
34.50833,48
34.51667,48
34.52500,48
34.53333,47
34.54167,48
34.55000,48
34.55833,48
34.56667,48
34.57500,47
34.58333,47
34.59167,47
34.60000,47
34.60833,47
34.61667,47
34.62500,48
34.63333,47
34.64167,48
34.65000,48
34.65833,48
34.66667,48
34.67500,48
34.68333,48
34.69167,48
34.70000,48
34.70833,48
34.71667,48
34.72500,48
34.73333,48
34.74167,48
34.75000,48
34.75833,48
34.76667,48
34.77500,48
34.78333,48
34.79167,48
34.80000,48
34.80833,49
34.81667,49
34.82500,49
34.83333,48
34.84167,48
34.85000,48
34.85833,48
34.86667,48
34.87500,49
34.88333,49
34.89167,49
34.90000,49
34.90833,48
34.91667,48
34.92500,49
34.93333,49
34.94167,49
34.95000,49
34.95833,49
34.96667,49
34.97500,49
34.98333,49
34.99167,49
35.00000,48
35.00833,49
35.01667,49
35.02500,49
35.03333,49
35.04167,49
35.05000,49
35.05833,49
35.06667,49
35.07500,49
35.08333,49
35.09167,49
35.10000,49
35.10833,50
35.11667,50
35.12500,50
35.13333,50
35.14167,50
35.15000,50
35.15833,49
35.16667,49
35.17500,49
35.18333,49
35.19167,49
35.20000,49
35.20833,49
35.21667,49
35.22500,49
35.23333,49
35.24167,49
35.25000,49
35.25833,49
35.26667,49
35.27500,49
35.28333,49
35.29167,49
35.30000,50
35.30833,50
35.31667,50
35.32500,50
35.33333,50
35.34167,49
35.35000,49
35.35833,49
35.36667,49
35.37500,49
35.38333,49
35.39167,49
35.40000,49
35.40833,49
35.41667,49
35.42500,49
35.43333,50
35.44167,50
35.45000,50
35.45833,50
35.46667,50
35.47500,50
35.48333,50
35.49167,50
35.50000,50
35.50833,50
35.51667,50
35.52500,50
35.53333,50
35.54167,50
35.55000,50
35.55833,50
35.56667,51
35.57500,51
35.58333,51
35.59167,51
35.60000,50
35.60833,50
35.61667,50
35.62500,50
35.63333,50
35.64167,50
35.65000,50
35.65833,50
35.66667,50
35.67500,50
35.68333,51
35.69167,51
35.70000,51
35.70833,51
35.71667,50
35.72500,50
35.73333,50
35.74167,51
35.75000,51
35.75833,51
35.76667,51
35.77500,51
35.78333,51
35.79167,51
35.80000,51
35.80833,51
35.81667,51
35.82500,51
35.83333,51
35.84167,51
35.85000,50
35.85833,51
35.86667,51
35.87500,51
35.88333,51
35.89167,51
35.90000,50
35.90833,50
35.91667,50
35.92500,50
35.93333,50
35.94167,50
35.95000,50
35.95833,50
35.96667,50
35.97500,50
35.98333,50
35.99167,50
36.00000,50
36.00833,50
36.01667,50
36.02500,50
36.03333,50
36.04167,50
36.05000,50
36.05833,49
36.06667,49
36.07500,49
36.08333,49
36.09167,49
36.10000,49
36.10833,49
36.11667,49
36.12500,49
36.13333,49
36.14167,49
36.15000,49
36.15833,50
36.16667,50
36.17500,50
36.18333,49
36.19167,50
36.20000,50
36.20833,49
36.21667,49
36.22500,49
36.23333,49
36.24167,49
36.25000,49
36.25833,49
36.26667,49
36.27500,49
36.28333,49
36.29167,49
36.30000,49
36.30833,49
36.31667,49
36.32500,49
36.33333,48
36.34167,49
36.35000,49
36.35833,49
36.36667,49
36.37500,50
36.38333,50
36.39167,50
36.40000,50
36.40833,50
36.41667,50
36.42500,50
36.43333,50
36.44167,50
36.45000,50
36.45833,50
36.46667,50
36.47500,50
36.48333,50
36.49167,50
36.50000,50
36.50833,50
36.51667,50
36.52500,50
36.53333,50
36.54167,50
36.55000,50
36.55833,50
36.56667,50
36.57500,51
36.58333,51
36.59167,51
36.60000,50
36.60833,50
36.61667,50
36.62500,50
36.63333,50
36.64167,50
36.65000,50
36.65833,51
36.66667,51
36.67500,51
36.68333,51
36.69167,52
36.70000,52
36.70833,52
36.71667,52
36.72500,51
36.73333,51
36.74167,51
36.75000,51
36.75833,51
36.76667,52
36.77500,52
36.78333,52
36.79167,52
36.80000,52
36.80833,52
36.81667,52
36.82500,52
36.83333,52
36.84167,53
36.85000,53
36.85833,52
36.86667,52
36.87500,52
36.88333,52
36.89167,52
36.90000,52
36.90833,52
36.91667,52
36.92500,52
36.93333,53
36.94167,52
36.95000,52
36.95833,52
36.96667,52
36.97500,53
36.98333,53
36.99167,53
37.00000,53
37.00833,53
37.01667,53
37.02500,53
37.03333,52
37.04167,52
37.05000,52
37.05833,52
37.06667,52
37.07500,52
37.08333,53
37.09167,53
37.10000,53
37.10833,53
37.11667,53
37.12500,53
37.13333,53
37.14167,53
37.15000,53
37.15833,53
37.16667,53
37.17500,53
37.18333,53
37.19167,53
37.20000,53
37.20833,53
37.21667,53
37.22500,53
37.23333,53
37.24167,53
37.25000,53
37.25833,53
37.26667,53
37.27500,53
37.28333,53
37.29167,53
37.30000,53
37.30833,53
37.31667,53
37.32500,53
37.33333,53
37.34167,53
37.35000,53
37.35833,53
37.36667,53
37.37500,54
37.38333,54
37.39167,54
37.40000,54
37.40833,54
37.41667,54
37.42500,54
37.43333,54
37.44167,54
37.45000,54
37.45833,53
37.46667,53
37.47500,53
37.48333,53
37.49167,53
37.50000,53
37.50833,53
37.51667,53
37.52500,54
37.53333,54
37.54167,54
37.55000,54
37.55833,54
37.56667,54
37.57500,53
37.58333,53
37.59167,53
37.60000,53
37.60833,53
37.61667,52
37.62500,52
37.63333,52
37.64167,52
37.65000,53
37.65833,53
37.66667,53
37.67500,53
37.68333,53
37.69167,53
37.70000,53
37.70833,53
37.71667,53
37.72500,52
37.73333,53
37.74167,53
37.75000,54
37.75833,54
37.76667,54
37.77500,54
37.78333,54
37.79167,53
37.80000,53
37.80833,54
37.81667,54
37.82500,54
37.83333,54
37.84167,54
37.85000,54
37.85833,54
37.86667,54
37.87500,54
37.88333,54
37.89167,54
37.90000,54
37.90833,54
37.91667,54
37.92500,54
37.93333,55
37.94167,55
37.95000,55
37.95833,55
37.96667,54
37.97500,54
37.98333,54
37.99167,54
38.00000,54
38.00833,54
38.01667,54
38.02500,54
38.03333,54
38.04167,54
38.05000,54
38.05833,54
38.06667,55
38.07500,55
38.08333,55
38.09167,55
38.10000,55
38.10833,55
38.11667,55
38.12500,55
38.13333,55
38.14167,55
38.15000,55
38.15833,54
38.16667,54
38.17500,54
38.18333,54
38.19167,54
38.20000,55
38.20833,55
38.21667,55
38.22500,55
38.23333,55
38.24167,55
38.25000,55
38.25833,55
38.26667,55
38.27500,55
38.28333,55
38.29167,55
38.30000,55
38.30833,55
38.31667,55
38.32500,55
38.33333,56
38.34167,56
38.35000,56
38.35833,56
38.36667,56
38.37500,55
38.38333,55
38.39167,55
38.40000,55
38.40833,55
38.41667,55
38.42500,55
38.43333,56
38.44167,55
38.45000,55
38.45833,55
38.46667,55
38.47500,55
38.48333,56
38.49167,56
38.50000,56
38.50833,56
38.51667,57
38.52500,57
38.53333,57
38.54167,57
38.55000,57
38.55833,57
38.56667,57
38.57500,57
38.58333,56
38.59167,56
38.60000,56
38.60833,56
38.61667,56
38.62500,56
38.63333,56
38.64167,56
38.65000,56
38.65833,56
38.66667,56
38.67500,56
38.68333,56
38.69167,56
38.70000,56
38.70833,56
38.71667,56
38.72500,56
38.73333,56
38.74167,56
38.75000,56
38.75833,56
38.76667,56
38.77500,56
38.78333,57
38.79167,57
38.80000,57
38.80833,57
38.81667,57
38.82500,57
38.83333,57
38.84167,57
38.85000,57
38.85833,57
38.86667,57
38.87500,57
38.88333,56
38.89167,56
38.90000,57
38.90833,57
38.91667,57
38.92500,57
38.93333,57
38.94167,57
38.95000,57
38.95833,56
38.96667,56
38.97500,56
38.98333,57
38.99167,57
39.00000,57
39.00833,57
39.01667,57
39.02500,57
39.03333,57
39.04167,57
39.05000,57
39.05833,57
39.06667,57
39.07500,57
39.08333,56
39.09167,56
39.10000,56
39.10833,57
39.11667,57
39.12500,57
39.13333,57
39.14167,56
39.15000,56
39.15833,56
39.16667,57
39.17500,57
39.18333,57
39.19167,57
39.20000,57
39.20833,57
39.21667,57
39.22500,57
39.23333,57
39.24167,57
39.25000,57
39.25833,57
39.26667,57
39.27500,57
39.28333,58
39.29167,57
39.30000,57
39.30833,57
39.31667,57
39.32500,58
39.33333,58
39.34167,57
39.35000,57
39.35833,57
39.36667,57
39.37500,58
39.38333,58
39.39167,57
39.40000,57
39.40833,57
39.41667,57
39.42500,57
39.43333,57
39.44167,57
39.45000,57
39.45833,57
39.46667,57
39.47500,57
39.48333,57
39.49167,57
39.50000,58
39.50833,58
39.51667,58
39.52500,58
39.53333,58
39.54167,58
39.55000,58
39.55833,58
39.56667,58
39.57500,58
39.58333,58
39.59167,58
39.60000,57
39.60833,57
39.61667,57
39.62500,57
39.63333,57
39.64167,57
39.65000,58
39.65833,58
39.66667,58
39.67500,57
39.68333,57
39.69167,57
39.70000,57
39.70833,57
39.71667,57
39.72500,57
39.73333,57
39.74167,58
39.75000,58
39.75833,58
39.76667,58
39.77500,58
39.78333,58
39.79167,58
39.80000,58
39.80833,58
39.81667,58
39.82500,58
39.83333,58
39.84167,58
39.85000,58
39.85833,58
39.86667,58
39.87500,58
39.88333,58
39.89167,58
39.90000,58
39.90833,58
39.91667,58
39.92500,58
39.93333,58
39.94167,58
39.95000,58
39.95833,58
39.96667,58
39.97500,58
39.98333,58
39.99167,58
40.00000,58

