[Header]
Application Name,LabSolutions
Version,5.97 SP1
Data File Name,C:\Users\cremerlab\Desktop\griffin\2021-04-03_buffer_calibration\2021-04-03_buffer_calibration_432021_003_003.lcd
Output Date,4/3/2021
Output Time,4:03:35 PM

[File Information]
Type,Data File
Generated,4/3/2021 3:23:16 PM
Generated by,System Administrator
Modified,4/3/2021 4:03:35 PM
Modified by,System Administrator

[Sample Information]
Operator Name,System Administrator
Acquired,4/3/2021 3:23:35 PM
Sample Type,1:Standard
Level,3
Sample Name,2021-04-02_NC_glucose_glycerol_acetate_calibration_20mM
Sample ID,003
ISTD Amount1,1
ISTD Amount2,1
ISTD Amount3,1
ISTD Amount4,1
ISTD Amount5,1
ISTD Amount6,1
ISTD Amount7,1
ISTD Amount8,1
ISTD Amount9,1
ISTD Amount10,1
ISTD Amount11,1
ISTD Amount12,1
ISTD Amount13,1
ISTD Amount14,1
ISTD Amount15,1
ISTD Amount16,1
ISTD Amount17,1
ISTD Amount18,1
ISTD Amount19,1
ISTD Amount20,1
ISTD Amount21,1
ISTD Amount22,1
ISTD Amount23,1
ISTD Amount24,1
ISTD Amount25,1
ISTD Amount26,1
ISTD Amount27,1
ISTD Amount28,1
ISTD Amount29,1
ISTD Amount30,1
ISTD Amount31,1
ISTD Amount32,1
Sample Amount,1
Dilution Factor,1
Vial#,3
Injection Volume,20

[Original Files]
Data File,C:\Users\cremerlab\Desktop\griffin\2021-04-03_buffer_calibration\2021-04-03_buffer_calibration_432021_003_003.lcd
Method File,C:\LabSolutions\Data\Project1\organicacidsetc2.lcm
Batch File,C:\Users\cremerlab\Desktop\griffin\2021-04-03_buffer_calibration\2021-04-03_buffer_calibration.lcb
Report Format File,c:\LabSolutions\System\DEFAULT.lsr

[File Description]


[Configuration]
Instrument Name,HPLC-PC-Instrument1
Instrument #,1
Line #,1
# of Detectors,2
Detector ID,Detector A,Detector B
Detector Name,Detector A,Detector B
# of Channels,1,1

[Peak Table(Detector A)]
# of Peaks,0

[Peak Table(Detector B)]
# of Peaks,5
Peak#,R.Time,I.Time,F.Time,Area,Height,A/H,Conc.,Mark,ID#,Name,k',Plate #,Plate Ht.,Tailing,Resolution,Sep.Factor,Area Ratio,Height Ratio,Conc. %,Norm Conc.
1,11.066,10.758,12.733,1220526,68777,17.746,0.000,   ,,,0.000,10708,14.008,1.304,0.000,0.000,0,0,0.000,0.000
2,15.109,14.108,15.375,3072456,115666,26.563,0.000,   ,,,0.365,6943,21.604,0.000,7.013,0.000,0,0,0.000,0.000
3,15.661,15.375,18.708,1946812,79310,24.547,0.000, V ,,,0.415,9205,16.295,0.000,0.801,1.137,0,0,0.000,0.000
4,22.079,21.325,23.583,552507,20376,27.116,0.000,   ,,,0.995,15393,9.745,1.092,9.406,2.397,0,0,0.000,0.000
5,25.071,24.325,26.225,236578,8047,29.401,0.000,   ,,,1.266,16688,8.989,1.068,4.020,1.272,0,0,0.000,0.000

[LC Chromatogram(Detector B-Ch1)]
Interval(msec),500
# of Points,4801
Start Time(min),0.000
End Time(min),40.000
Intensity Units,mV
Intensity Multiplier,0.001
R.Time (min),Intensity
0.00000,-1
0.00833,-1
0.01667,0
0.02500,0
0.03333,-0
0.04167,-1
0.05000,-1
0.05833,-1
0.06667,-0
0.07500,-0
0.08333,-0
0.09167,-0
0.10000,-0
0.10833,-0
0.11667,-0
0.12500,-0
0.13333,-0
0.14167,-0
0.15000,-0
0.15833,-0
0.16667,-0
0.17500,-0
0.18333,-0
0.19167,-0
0.20000,-1
0.20833,-1
0.21667,-1
0.22500,-1
0.23333,-1
0.24167,-1
0.25000,-0
0.25833,-0
0.26667,-0
0.27500,-0
0.28333,-0
0.29167,-1
0.30000,-1
0.30833,-1
0.31667,-2
0.32500,-2
0.33333,-2
0.34167,-2
0.35000,-2
0.35833,-2
0.36667,-2
0.37500,-2
0.38333,-2
0.39167,-2
0.40000,-2
0.40833,-2
0.41667,-1
0.42500,-1
0.43333,-1
0.44167,-2
0.45000,-2
0.45833,-2
0.46667,-2
0.47500,-2
0.48333,-2
0.49167,-1
0.50000,-1
0.50833,-1
0.51667,-1
0.52500,-1
0.53333,-1
0.54167,-1
0.55000,-1
0.55833,-1
0.56667,-1
0.57500,-1
0.58333,-1
0.59167,-2
0.60000,-2
0.60833,-2
0.61667,-2
0.62500,-1
0.63333,-1
0.64167,-2
0.65000,-2
0.65833,-2
0.66667,-2
0.67500,-3
0.68333,-3
0.69167,-3
0.70000,-4
0.70833,-4
0.71667,-4
0.72500,-4
0.73333,-4
0.74167,-4
0.75000,-4
0.75833,-4
0.76667,-4
0.77500,-4
0.78333,-4
0.79167,-4
0.80000,-4
0.80833,-3
0.81667,-3
0.82500,-3
0.83333,-3
0.84167,-3
0.85000,-3
0.85833,-3
0.86667,-3
0.87500,-3
0.88333,-2
0.89167,-2
0.90000,-2
0.90833,-2
0.91667,-2
0.92500,-2
0.93333,-2
0.94167,-2
0.95000,-2
0.95833,-2
0.96667,-2
0.97500,-2
0.98333,-2
0.99167,-2
1.00000,-3
1.00833,-3
1.01667,-3
1.02500,-3
1.03333,-3
1.04167,-3
1.05000,-3
1.05833,-3
1.06667,-3
1.07500,-3
1.08333,-3
1.09167,-3
1.10000,-2
1.10833,-2
1.11667,-2
1.12500,-2
1.13333,-2
1.14167,-2
1.15000,-2
1.15833,-2
1.16667,-2
1.17500,-2
1.18333,-2
1.19167,-1
1.20000,-1
1.20833,-2
1.21667,-2
1.22500,-2
1.23333,-2
1.24167,-1
1.25000,-2
1.25833,-2
1.26667,-2
1.27500,-1
1.28333,-1
1.29167,-1
1.30000,-1
1.30833,-2
1.31667,-2
1.32500,-3
1.33333,-3
1.34167,-3
1.35000,-3
1.35833,-3
1.36667,-3
1.37500,-3
1.38333,-2
1.39167,-2
1.40000,-2
1.40833,-2
1.41667,-2
1.42500,-2
1.43333,-2
1.44167,-2
1.45000,-2
1.45833,-2
1.46667,-2
1.47500,-2
1.48333,-2
1.49167,-3
1.50000,-3
1.50833,-3
1.51667,-3
1.52500,-3
1.53333,-3
1.54167,-3
1.55000,-3
1.55833,-3
1.56667,-2
1.57500,-2
1.58333,-2
1.59167,-3
1.60000,-3
1.60833,-3
1.61667,-2
1.62500,-2
1.63333,-2
1.64167,-2
1.65000,-2
1.65833,-2
1.66667,-2
1.67500,-3
1.68333,-3
1.69167,-3
1.70000,-3
1.70833,-3
1.71667,-2
1.72500,-2
1.73333,-2
1.74167,-2
1.75000,-3
1.75833,-3
1.76667,-3
1.77500,-3
1.78333,-3
1.79167,-3
1.80000,-4
1.80833,-3
1.81667,-3
1.82500,-3
1.83333,-3
1.84167,-3
1.85000,-3
1.85833,-3
1.86667,-3
1.87500,-3
1.88333,-3
1.89167,-3
1.90000,-3
1.90833,-3
1.91667,-3
1.92500,-3
1.93333,-3
1.94167,-3
1.95000,-3
1.95833,-3
1.96667,-3
1.97500,-3
1.98333,-2
1.99167,-2
2.00000,-2
2.00833,-2
2.01667,-2
2.02500,-2
2.03333,-3
2.04167,-3
2.05000,-3
2.05833,-2
2.06667,-3
2.07500,-3
2.08333,-3
2.09167,-3
2.10000,-3
2.10833,-3
2.11667,-3
2.12500,-3
2.13333,-3
2.14167,-3
2.15000,-3
2.15833,-3
2.16667,-3
2.17500,-3
2.18333,-3
2.19167,-3
2.20000,-3
2.20833,-3
2.21667,-3
2.22500,-3
2.23333,-3
2.24167,-3
2.25000,-3
2.25833,-3
2.26667,-4
2.27500,-4
2.28333,-4
2.29167,-4
2.30000,-4
2.30833,-3
2.31667,-3
2.32500,-3
2.33333,-3
2.34167,-3
2.35000,-3
2.35833,-3
2.36667,-3
2.37500,-3
2.38333,-3
2.39167,-3
2.40000,-3
2.40833,-3
2.41667,-3
2.42500,-4
2.43333,-3
2.44167,-3
2.45000,-3
2.45833,-3
2.46667,-3
2.47500,-3
2.48333,-3
2.49167,-2
2.50000,-2
2.50833,-2
2.51667,-2
2.52500,-3
2.53333,-3
2.54167,-3
2.55000,-3
2.55833,-3
2.56667,-4
2.57500,-4
2.58333,-4
2.59167,-4
2.60000,-4
2.60833,-4
2.61667,-4
2.62500,-3
2.63333,-3
2.64167,-3
2.65000,-3
2.65833,-3
2.66667,-3
2.67500,-2
2.68333,-2
2.69167,-3
2.70000,-3
2.70833,-3
2.71667,-3
2.72500,-3
2.73333,-3
2.74167,-3
2.75000,-3
2.75833,-3
2.76667,-3
2.77500,-3
2.78333,-3
2.79167,-3
2.80000,-3
2.80833,-4
2.81667,-4
2.82500,-4
2.83333,-4
2.84167,-4
2.85000,-4
2.85833,-4
2.86667,-3
2.87500,-3
2.88333,-3
2.89167,-3
2.90000,-4
2.90833,-4
2.91667,-3
2.92500,-3
2.93333,-3
2.94167,-3
2.95000,-3
2.95833,-3
2.96667,-3
2.97500,-3
2.98333,-3
2.99167,-3
3.00000,-4
3.00833,-4
3.01667,-4
3.02500,-3
3.03333,-3
3.04167,-3
3.05000,-3
3.05833,-3
3.06667,-3
3.07500,-3
3.08333,-3
3.09167,-3
3.10000,-3
3.10833,-3
3.11667,-3
3.12500,-3
3.13333,-3
3.14167,-3
3.15000,-3
3.15833,-3
3.16667,-3
3.17500,-3
3.18333,-3
3.19167,-3
3.20000,-3
3.20833,-3
3.21667,-4
3.22500,-4
3.23333,-4
3.24167,-4
3.25000,-4
3.25833,-4
3.26667,-4
3.27500,-4
3.28333,-4
3.29167,-4
3.30000,-4
3.30833,-4
3.31667,-4
3.32500,-4
3.33333,-4
3.34167,-4
3.35000,-4
3.35833,-4
3.36667,-4
3.37500,-4
3.38333,-4
3.39167,-3
3.40000,-3
3.40833,-3
3.41667,-3
3.42500,-3
3.43333,-3
3.44167,-3
3.45000,-3
3.45833,-3
3.46667,-4
3.47500,-3
3.48333,-3
3.49167,-3
3.50000,-3
3.50833,-3
3.51667,-3
3.52500,-3
3.53333,-3
3.54167,-3
3.55000,-3
3.55833,-3
3.56667,-3
3.57500,-3
3.58333,-3
3.59167,-3
3.60000,-3
3.60833,-3
3.61667,-3
3.62500,-3
3.63333,-4
3.64167,-4
3.65000,-4
3.65833,-4
3.66667,-4
3.67500,-4
3.68333,-4
3.69167,-4
3.70000,-3
3.70833,-4
3.71667,-3
3.72500,-3
3.73333,-3
3.74167,-3
3.75000,-3
3.75833,-3
3.76667,-3
3.77500,-3
3.78333,-3
3.79167,-4
3.80000,-4
3.80833,-4
3.81667,-4
3.82500,-4
3.83333,-5
3.84167,-5
3.85000,-5
3.85833,-5
3.86667,-4
3.87500,-4
3.88333,-5
3.89167,-5
3.90000,-5
3.90833,-5
3.91667,-5
3.92500,-5
3.93333,-5
3.94167,-5
3.95000,-5
3.95833,-5
3.96667,-5
3.97500,-5
3.98333,-5
3.99167,-5
4.00000,-5
4.00833,-5
4.01667,-5
4.02500,-4
4.03333,-4
4.04167,-4
4.05000,-4
4.05833,-4
4.06667,-5
4.07500,-5
4.08333,-5
4.09167,-5
4.10000,-5
4.10833,-5
4.11667,-5
4.12500,-5
4.13333,-5
4.14167,-5
4.15000,-5
4.15833,-4
4.16667,-4
4.17500,-4
4.18333,-4
4.19167,-4
4.20000,-4
4.20833,-4
4.21667,-4
4.22500,-4
4.23333,-4
4.24167,-4
4.25000,-4
4.25833,-4
4.26667,-4
4.27500,-4
4.28333,-4
4.29167,-4
4.30000,-4
4.30833,-4
4.31667,-4
4.32500,-4
4.33333,-4
4.34167,-4
4.35000,-4
4.35833,-4
4.36667,-4
4.37500,-4
4.38333,-5
4.39167,-5
4.40000,-5
4.40833,-5
4.41667,-5
4.42500,-5
4.43333,-5
4.44167,-5
4.45000,-5
4.45833,-5
4.46667,-5
4.47500,-5
4.48333,-4
4.49167,-4
4.50000,-4
4.50833,-4
4.51667,-4
4.52500,-4
4.53333,-4
4.54167,-5
4.55000,-5
4.55833,-5
4.56667,-5
4.57500,-5
4.58333,-5
4.59167,-5
4.60000,-4
4.60833,-4
4.61667,-4
4.62500,-4
4.63333,-4
4.64167,-4
4.65000,-4
4.65833,-4
4.66667,-4
4.67500,-4
4.68333,-4
4.69167,-4
4.70000,-4
4.70833,-4
4.71667,-4
4.72500,-4
4.73333,-4
4.74167,-4
4.75000,-4
4.75833,-4
4.76667,-4
4.77500,-4
4.78333,-4
4.79167,-4
4.80000,-4
4.80833,-4
4.81667,-4
4.82500,-4
4.83333,-4
4.84167,-4
4.85000,-4
4.85833,-3
4.86667,-3
4.87500,-3
4.88333,-3
4.89167,-4
4.90000,-4
4.90833,-4
4.91667,-4
4.92500,-4
4.93333,-4
4.94167,-4
4.95000,-5
4.95833,-5
4.96667,-5
4.97500,-5
4.98333,-4
4.99167,-4
5.00000,-4
5.00833,-4
5.01667,-4
5.02500,-4
5.03333,-4
5.04167,-4
5.05000,-4
5.05833,-4
5.06667,-4
5.07500,-4
5.08333,-4
5.09167,-4
5.10000,-4
5.10833,-4
5.11667,-4
5.12500,-4
5.13333,-5
5.14167,-5
5.15000,-4
5.15833,-4
5.16667,-4
5.17500,-4
5.18333,-4
5.19167,-4
5.20000,-4
5.20833,-4
5.21667,-4
5.22500,-4
5.23333,-4
5.24167,-4
5.25000,-3
5.25833,-4
5.26667,-4
5.27500,-4
5.28333,-4
5.29167,-4
5.30000,-4
5.30833,-4
5.31667,-5
5.32500,-5
5.33333,-5
5.34167,-5
5.35000,-5
5.35833,-5
5.36667,-5
5.37500,-5
5.38333,-4
5.39167,-4
5.40000,-3
5.40833,-3
5.41667,-3
5.42500,-3
5.43333,-3
5.44167,-3
5.45000,-4
5.45833,-4
5.46667,-4
5.47500,-4
5.48333,-4
5.49167,-4
5.50000,-4
5.50833,-4
5.51667,-4
5.52500,-4
5.53333,-4
5.54167,-4
5.55000,-4
5.55833,-4
5.56667,-5
5.57500,-5
5.58333,-5
5.59167,-5
5.60000,-5
5.60833,-5
5.61667,-5
5.62500,-5
5.63333,-5
5.64167,-6
5.65000,-6
5.65833,-5
5.66667,-5
5.67500,-5
5.68333,-5
5.69167,-5
5.70000,-5
5.70833,-5
5.71667,-5
5.72500,-5
5.73333,-5
5.74167,-5
5.75000,-5
5.75833,-5
5.76667,-5
5.77500,-5
5.78333,-5
5.79167,-5
5.80000,-6
5.80833,-6
5.81667,-6
5.82500,-6
5.83333,-6
5.84167,-6
5.85000,-5
5.85833,-5
5.86667,-5
5.87500,-5
5.88333,-5
5.89167,-5
5.90000,-5
5.90833,-5
5.91667,-5
5.92500,-5
5.93333,-5
5.94167,-5
5.95000,-5
5.95833,-5
5.96667,-5
5.97500,-5
5.98333,-6
5.99167,-6
6.00000,-6
6.00833,-6
6.01667,-6
6.02500,-6
6.03333,-6
6.04167,-6
6.05000,-5
6.05833,-5
6.06667,-5
6.07500,-5
6.08333,-6
6.09167,-6
6.10000,-6
6.10833,-6
6.11667,-6
6.12500,-6
6.13333,-6
6.14167,-6
6.15000,-6
6.15833,-6
6.16667,-6
6.17500,-6
6.18333,-5
6.19167,-5
6.20000,-6
6.20833,-6
6.21667,-6
6.22500,-7
6.23333,-7
6.24167,-7
6.25000,-7
6.25833,-6
6.26667,-6
6.27500,-6
6.28333,-6
6.29167,-6
6.30000,-6
6.30833,-6
6.31667,-6
6.32500,-6
6.33333,-6
6.34167,-6
6.35000,-6
6.35833,-6
6.36667,-7
6.37500,-7
6.38333,-7
6.39167,-7
6.40000,-7
6.40833,-7
6.41667,-7
6.42500,-7
6.43333,-8
6.44167,-8
6.45000,-8
6.45833,-7
6.46667,-7
6.47500,-7
6.48333,-7
6.49167,-7
6.50000,-6
6.50833,-6
6.51667,-6
6.52500,-6
6.53333,-6
6.54167,-6
6.55000,-6
6.55833,-7
6.56667,-7
6.57500,-7
6.58333,-7
6.59167,-6
6.60000,-6
6.60833,-6
6.61667,-6
6.62500,-6
6.63333,-6
6.64167,-6
6.65000,-6
6.65833,-6
6.66667,-6
6.67500,-6
6.68333,-6
6.69167,-7
6.70000,-7
6.70833,-7
6.71667,-7
6.72500,-7
6.73333,-7
6.74167,-7
6.75000,-7
6.75833,-7
6.76667,-6
6.77500,-6
6.78333,-7
6.79167,-7
6.80000,-7
6.80833,-7
6.81667,-7
6.82500,-7
6.83333,-7
6.84167,-7
6.85000,-7
6.85833,-7
6.86667,-7
6.87500,-7
6.88333,-7
6.89167,-7
6.90000,-7
6.90833,-7
6.91667,-7
6.92500,-7
6.93333,-7
6.94167,-7
6.95000,-7
6.95833,-7
6.96667,-7
6.97500,-7
6.98333,-8
6.99167,-8
7.00000,-8
7.00833,-8
7.01667,-8
7.02500,-8
7.03333,-8
7.04167,-8
7.05000,-8
7.05833,-8
7.06667,-8
7.07500,-8
7.08333,-8
7.09167,-8
7.10000,-8
7.10833,-8
7.11667,-7
7.12500,-7
7.13333,-7
7.14167,-7
7.15000,-7
7.15833,-7
7.16667,-7
7.17500,-7
7.18333,-7
7.19167,-7
7.20000,-7
7.20833,-7
7.21667,-7
7.22500,-7
7.23333,-7
7.24167,-7
7.25000,-7
7.25833,-7
7.26667,-7
7.27500,-7
7.28333,-7
7.29167,-7
7.30000,-7
7.30833,-7
7.31667,-8
7.32500,-8
7.33333,-8
7.34167,-7
7.35000,-7
7.35833,-7
7.36667,-7
7.37500,-7
7.38333,-7
7.39167,-8
7.40000,-8
7.40833,-8
7.41667,-8
7.42500,-8
7.43333,-8
7.44167,-9
7.45000,-9
7.45833,-9
7.46667,-9
7.47500,-9
7.48333,-9
7.49167,-8
7.50000,-8
7.50833,-8
7.51667,-8
7.52500,-8
7.53333,-8
7.54167,-8
7.55000,-8
7.55833,-8
7.56667,-8
7.57500,-8
7.58333,-8
7.59167,-8
7.60000,-8
7.60833,-7
7.61667,-7
7.62500,-7
7.63333,-7
7.64167,-7
7.65000,-7
7.65833,-7
7.66667,-7
7.67500,-7
7.68333,-7
7.69167,-7
7.70000,-7
7.70833,-7
7.71667,-7
7.72500,-7
7.73333,-6
7.74167,-6
7.75000,-6
7.75833,-6
7.76667,-6
7.77500,-6
7.78333,-6
7.79167,-6
7.80000,-6
7.80833,-7
7.81667,-7
7.82500,-7
7.83333,-7
7.84167,-7
7.85000,-7
7.85833,-7
7.86667,-7
7.87500,-7
7.88333,-7
7.89167,-7
7.90000,-8
7.90833,-7
7.91667,-7
7.92500,-7
7.93333,-7
7.94167,-7
7.95000,-7
7.95833,-7
7.96667,-7
7.97500,-7
7.98333,-7
7.99167,-7
8.00000,-7
8.00833,-7
8.01667,-7
8.02500,-7
8.03333,-7
8.04167,-7
8.05000,-7
8.05833,-7
8.06667,-7
8.07500,-7
8.08333,-7
8.09167,-7
8.10000,-8
8.10833,-7
8.11667,-7
8.12500,-7
8.13333,-7
8.14167,-7
8.15000,-7
8.15833,-7
8.16667,-7
8.17500,-7
8.18333,-7
8.19167,-7
8.20000,-7
8.20833,-7
8.21667,-7
8.22500,-7
8.23333,-7
8.24167,-7
8.25000,-7
8.25833,-7
8.26667,-7
8.27500,-7
8.28333,-7
8.29167,-7
8.30000,-7
8.30833,-7
8.31667,-7
8.32500,-8
8.33333,-8
8.34167,-8
8.35000,-7
8.35833,-7
8.36667,-7
8.37500,-7
8.38333,-7
8.39167,-7
8.40000,-7
8.40833,-7
8.41667,-7
8.42500,-8
8.43333,-8
8.44167,-8
8.45000,-7
8.45833,-7
8.46667,-7
8.47500,-7
8.48333,-7
8.49167,-7
8.50000,-7
8.50833,-7
8.51667,-7
8.52500,-7
8.53333,-8
8.54167,-8
8.55000,-8
8.55833,-8
8.56667,-8
8.57500,-8
8.58333,-8
8.59167,-8
8.60000,-7
8.60833,-7
8.61667,-7
8.62500,-7
8.63333,-7
8.64167,-7
8.65000,-7
8.65833,-6
8.66667,-6
8.67500,-6
8.68333,-6
8.69167,-6
8.70000,-6
8.70833,-6
8.71667,-6
8.72500,-6
8.73333,-7
8.74167,-7
8.75000,-7
8.75833,-7
8.76667,-7
8.77500,-7
8.78333,-7
8.79167,-7
8.80000,-7
8.80833,-8
8.81667,-8
8.82500,-8
8.83333,-8
8.84167,-8
8.85000,-8
8.85833,-8
8.86667,-8
8.87500,-8
8.88333,-8
8.89167,-8
8.90000,-8
8.90833,-8
8.91667,-8
8.92500,-8
8.93333,-8
8.94167,-8
8.95000,-8
8.95833,-8
8.96667,-7
8.97500,-7
8.98333,-7
8.99167,-7
9.00000,-6
9.00833,-6
9.01667,-6
9.02500,-6
9.03333,-6
9.04167,-6
9.05000,-7
9.05833,-7
9.06667,-7
9.07500,-7
9.08333,-7
9.09167,-7
9.10000,-7
9.10833,-7
9.11667,-8
9.12500,-8
9.13333,-8
9.14167,-8
9.15000,-8
9.15833,-8
9.16667,-8
9.17500,-8
9.18333,-8
9.19167,-8
9.20000,-8
9.20833,-8
9.21667,-8
9.22500,-8
9.23333,-8
9.24167,-7
9.25000,-7
9.25833,-7
9.26667,-7
9.27500,-7
9.28333,-7
9.29167,-7
9.30000,-7
9.30833,-7
9.31667,-8
9.32500,-8
9.33333,-8
9.34167,-8
9.35000,-8
9.35833,-8
9.36667,-8
9.37500,-8
9.38333,-8
9.39167,-8
9.40000,-8
9.40833,-8
9.41667,-8
9.42500,-8
9.43333,-8
9.44167,-8
9.45000,-8
9.45833,-8
9.46667,-8
9.47500,-8
9.48333,-8
9.49167,-8
9.50000,-8
9.50833,-7
9.51667,-7
9.52500,-7
9.53333,-8
9.54167,-7
9.55000,-7
9.55833,-7
9.56667,-7
9.57500,-7
9.58333,-7
9.59167,-7
9.60000,-7
9.60833,-7
9.61667,-7
9.62500,-7
9.63333,-7
9.64167,-7
9.65000,-7
9.65833,-7
9.66667,-7
9.67500,-7
9.68333,-7
9.69167,-7
9.70000,-7
9.70833,-7
9.71667,-8
9.72500,-8
9.73333,-8
9.74167,-8
9.75000,-7
9.75833,-7
9.76667,-7
9.77500,-7
9.78333,-7
9.79167,-7
9.80000,-7
9.80833,-7
9.81667,-7
9.82500,-7
9.83333,-7
9.84167,-7
9.85000,-7
9.85833,-7
9.86667,-7
9.87500,-7
9.88333,-7
9.89167,-6
9.90000,-6
9.90833,-6
9.91667,-6
9.92500,-7
9.93333,-7
9.94167,-7
9.95000,-7
9.95833,-7
9.96667,-7
9.97500,-7
9.98333,-8
9.99167,-8
10.00000,-8
10.00833,-8
10.01667,-8
10.02500,-8
10.03333,-8
10.04167,-7
10.05000,-8
10.05833,-7
10.06667,-7
10.07500,-7
10.08333,-7
10.09167,-7
10.10000,-7
10.10833,-7
10.11667,-7
10.12500,-6
10.13333,-6
10.14167,-6
10.15000,-6
10.15833,-7
10.16667,-7
10.17500,-7
10.18333,-7
10.19167,-7
10.20000,-7
10.20833,-7
10.21667,-7
10.22500,-7
10.23333,-7
10.24167,-6
10.25000,-6
10.25833,-6
10.26667,-6
10.27500,-7
10.28333,-7
10.29167,-7
10.30000,-7
10.30833,-7
10.31667,-6
10.32500,-6
10.33333,-6
10.34167,-6
10.35000,-6
10.35833,-5
10.36667,-5
10.37500,-5
10.38333,-5
10.39167,-5
10.40000,-4
10.40833,-5
10.41667,-5
10.42500,-4
10.43333,-4
10.44167,-4
10.45000,-3
10.45833,-3
10.46667,-3
10.47500,-3
10.48333,-3
10.49167,-3
10.50000,-4
10.50833,-6
10.51667,-8
10.52500,-12
10.53333,-17
10.54167,-25
10.55000,-36
10.55833,-51
10.56667,-71
10.57500,-98
10.58333,-134
10.59167,-179
10.60000,-236
10.60833,-307
10.61667,-394
10.62500,-499
10.63333,-625
10.64167,-772
10.65000,-942
10.65833,-1134
10.66667,-1347
10.67500,-1581
10.68333,-1831
10.69167,-2093
10.70000,-2362
10.70833,-2629
10.71667,-2888
10.72500,-3126
10.73333,-3334
10.74167,-3500
10.75000,-3609
10.75833,-3650
10.76667,-3610
10.77500,-3475
10.78333,-3231
10.79167,-2869
10.80000,-2375
10.80833,-1741
10.81667,-956
10.82500,-13
10.83333,1093
10.84167,2368
10.85000,3814
10.85833,5435
10.86667,7230
10.87500,9198
10.88333,11336
10.89167,13640
10.90000,16103
10.90833,18718
10.91667,21474
10.92500,24360
10.93333,27361
10.94167,30459
10.95000,33634
10.95833,36861
10.96667,40113
10.97500,43356
10.98333,46554
10.99167,49665
11.00000,52642
11.00833,55436
11.01667,57996
11.02500,60267
11.03333,62199
11.04167,63745
11.05000,64865
11.05833,65526
11.06667,65708
11.07500,65404
11.08333,64618
11.09167,63372
11.10000,61698
11.10833,59639
11.11667,57246
11.12500,54578
11.13333,51696
11.14167,48662
11.15000,45536
11.15833,42374
11.16667,39225
11.17500,36134
11.18333,33138
11.19167,30264
11.20000,27535
11.20833,24966
11.21667,22568
11.22500,20343
11.23333,18294
11.24167,16416
11.25000,14704
11.25833,13150
11.26667,11745
11.27500,10479
11.28333,9343
11.29167,8326
11.30000,7418
11.30833,6609
11.31667,5889
11.32500,5250
11.33333,4683
11.34167,4182
11.35000,3738
11.35833,3346
11.36667,3000
11.37500,2695
11.38333,2426
11.39167,2188
11.40000,1978
11.40833,1793
11.41667,1629
11.42500,1484
11.43333,1356
11.44167,1243
11.45000,1142
11.45833,1053
11.46667,974
11.47500,903
11.48333,840
11.49167,783
11.50000,732
11.50833,686
11.51667,645
11.52500,608
11.53333,574
11.54167,543
11.55000,516
11.55833,490
11.56667,467
11.57500,446
11.58333,426
11.59167,408
11.60000,391
11.60833,375
11.61667,361
11.62500,347
11.63333,335
11.64167,323
11.65000,312
11.65833,302
11.66667,292
11.67500,283
11.68333,275
11.69167,267
11.70000,259
11.70833,252
11.71667,245
11.72500,238
11.73333,233
11.74167,227
11.75000,222
11.75833,218
11.76667,213
11.77500,209
11.78333,205
11.79167,201
11.80000,198
11.80833,195
11.81667,192
11.82500,190
11.83333,187
11.84167,185
11.85000,183
11.85833,181
11.86667,179
11.87500,177
11.88333,175
11.89167,173
11.90000,172
11.90833,170
11.91667,169
11.92500,168
11.93333,166
11.94167,165
11.95000,164
11.95833,163
11.96667,161
11.97500,160
11.98333,159
11.99167,158
12.00000,157
12.00833,156
12.01667,154
12.02500,153
12.03333,152
12.04167,152
12.05000,151
12.05833,150
12.06667,149
12.07500,148
12.08333,147
12.09167,146
12.10000,144
12.10833,143
12.11667,142
12.12500,141
12.13333,140
12.14167,138
12.15000,137
12.15833,136
12.16667,134
12.17500,133
12.18333,132
12.19167,131
12.20000,129
12.20833,128
12.21667,127
12.22500,126
12.23333,125
12.24167,124
12.25000,123
12.25833,122
12.26667,121
12.27500,120
12.28333,119
12.29167,118
12.30000,117
12.30833,117
12.31667,116
12.32500,115
12.33333,114
12.34167,113
12.35000,113
12.35833,112
12.36667,111
12.37500,111
12.38333,110
12.39167,109
12.40000,109
12.40833,108
12.41667,108
12.42500,108
12.43333,107
12.44167,106
12.45000,105
12.45833,105
12.46667,104
12.47500,103
12.48333,102
12.49167,102
12.50000,101
12.50833,101
12.51667,100
12.52500,99
12.53333,99
12.54167,98
12.55000,97
12.55833,97
12.56667,96
12.57500,96
12.58333,95
12.59167,94
12.60000,94
12.60833,93
12.61667,93
12.62500,92
12.63333,91
12.64167,91
12.65000,90
12.65833,89
12.66667,88
12.67500,88
12.68333,87
12.69167,87
12.70000,86
12.70833,86
12.71667,85
12.72500,85
12.73333,85
12.74167,84
12.75000,84
12.75833,83
12.76667,83
12.77500,82
12.78333,81
12.79167,81
12.80000,81
12.80833,81
12.81667,81
12.82500,81
12.83333,80
12.84167,80
12.85000,80
12.85833,81
12.86667,81
12.87500,82
12.88333,82
12.89167,83
12.90000,83
12.90833,84
12.91667,85
12.92500,85
12.93333,85
12.94167,86
12.95000,86
12.95833,87
12.96667,87
12.97500,88
12.98333,88
12.99167,88
13.00000,88
13.00833,89
13.01667,89
13.02500,90
13.03333,91
13.04167,91
13.05000,92
13.05833,92
13.06667,93
13.07500,93
13.08333,94
13.09167,95
13.10000,95
13.10833,96
13.11667,96
13.12500,96
13.13333,97
13.14167,97
13.15000,97
13.15833,97
13.16667,97
13.17500,97
13.18333,97
13.19167,97
13.20000,97
13.20833,97
13.21667,97
13.22500,97
13.23333,97
13.24167,96
13.25000,96
13.25833,95
13.26667,95
13.27500,94
13.28333,94
13.29167,93
13.30000,92
13.30833,91
13.31667,90
13.32500,89
13.33333,88
13.34167,87
13.35000,86
13.35833,85
13.36667,84
13.37500,83
13.38333,82
13.39167,80
13.40000,79
13.40833,77
13.41667,76
13.42500,75
13.43333,73
13.44167,72
13.45000,70
13.45833,68
13.46667,67
13.47500,65
13.48333,64
13.49167,62
13.50000,61
13.50833,59
13.51667,58
13.52500,57
13.53333,55
13.54167,54
13.55000,53
13.55833,52
13.56667,51
13.57500,50
13.58333,49
13.59167,48
13.60000,46
13.60833,45
13.61667,44
13.62500,43
13.63333,42
13.64167,42
13.65000,42
13.65833,41
13.66667,41
13.67500,40
13.68333,39
13.69167,39
13.70000,39
13.70833,38
13.71667,37
13.72500,37
13.73333,36
13.74167,35
13.75000,35
13.75833,34
13.76667,34
13.77500,34
13.78333,33
13.79167,33
13.80000,33
13.80833,32
13.81667,32
13.82500,32
13.83333,32
13.84167,31
13.85000,31
13.85833,31
13.86667,31
13.87500,31
13.88333,31
13.89167,31
13.90000,31
13.90833,31
13.91667,31
13.92500,31
13.93333,31
13.94167,31
13.95000,32
13.95833,32
13.96667,33
13.97500,33
13.98333,33
13.99167,33
14.00000,33
14.00833,33
14.01667,33
14.02500,34
14.03333,34
14.04167,35
14.05000,35
14.05833,35
14.06667,36
14.07500,37
14.08333,37
14.09167,38
14.10000,38
14.10833,39
14.11667,40
14.12500,41
14.13333,42
14.14167,44
14.15000,46
14.15833,48
14.16667,50
14.17500,53
14.18333,56
14.19167,60
14.20000,64
14.20833,69
14.21667,75
14.22500,83
14.23333,92
14.24167,102
14.25000,115
14.25833,131
14.26667,149
14.27500,171
14.28333,198
14.29167,230
14.30000,269
14.30833,314
14.31667,367
14.32500,430
14.33333,504
14.34167,590
14.35000,690
14.35833,805
14.36667,937
14.37500,1087
14.38333,1257
14.39167,1450
14.40000,1666
14.40833,1908
14.41667,2176
14.42500,2473
14.43333,2800
14.44167,3158
14.45000,3549
14.45833,3972
14.46667,4430
14.47500,4924
14.48333,5453
14.49167,6018
14.50000,6619
14.50833,7257
14.51667,7932
14.52500,8643
14.53333,9391
14.54167,10175
14.55000,10995
14.55833,11851
14.56667,12742
14.57500,13668
14.58333,14628
14.59167,15621
14.60000,16647
14.60833,17706
14.61667,18796
14.62500,19917
14.63333,21069
14.64167,22251
14.65000,23462
14.65833,24702
14.66667,25970
14.67500,27266
14.68333,28589
14.69167,29939
14.70000,31315
14.70833,32716
14.71667,34143
14.72500,35595
14.73333,37072
14.74167,38572
14.75000,40096
14.75833,41644
14.76667,43216
14.77500,44810
14.78333,46427
14.79167,48067
14.80000,49729
14.80833,51413
14.81667,53118
14.82500,54846
14.83333,56595
14.84167,58365
14.85000,60155
14.85833,61967
14.86667,63798
14.87500,65650
14.88333,67521
14.89167,69412
14.90000,71321
14.90833,73249
14.91667,75195
14.92500,77158
14.93333,79138
14.94167,81134
14.95000,83145
14.95833,85171
14.96667,87209
14.97500,89258
14.98333,91317
14.99167,93382
15.00000,95449
15.00833,97516
15.01667,99575
15.02500,101618
15.03333,103633
15.04167,105605
15.05000,107510
15.05833,109322
15.06667,111004
15.07500,112512
15.08333,113797
15.09167,114800
15.10000,115462
15.10833,115722
15.11667,115521
15.12500,114810
15.13333,113549
15.14167,111714
15.15000,109300
15.15833,106319
15.16667,102805
15.17500,98809
15.18333,94400
15.19167,89655
15.20000,84665
15.20833,79520
15.21667,74312
15.22500,69127
15.23333,64046
15.24167,59136
15.25000,54456
15.25833,50051
15.26667,45956
15.27500,42196
15.28333,38784
15.29167,35726
15.30000,33022
15.30833,30665
15.31667,28647
15.32500,26956
15.33333,25580
15.34167,24503
15.35000,23714
15.35833,23199
15.36667,22946
15.37500,22944
15.38333,23183
15.39167,23651
15.40000,24340
15.40833,25239
15.41667,26341
15.42500,27635
15.43333,29111
15.44167,30760
15.45000,32568
15.45833,34523
15.46667,36613
15.47500,38822
15.48333,41133
15.49167,43531
15.50000,45996
15.50833,48510
15.51667,51052
15.52500,53601
15.53333,56137
15.54167,58636
15.55000,61079
15.55833,63443
15.56667,65707
15.57500,67852
15.58333,69859
15.59167,71710
15.60000,73389
15.60833,74881
15.61667,76175
15.62500,77259
15.63333,78126
15.64167,78770
15.65000,79187
15.65833,79376
15.66667,79338
15.67500,79076
15.68333,78594
15.69167,77901
15.70000,77005
15.70833,75915
15.71667,74644
15.72500,73205
15.73333,71612
15.74167,69878
15.75000,68020
15.75833,66052
15.76667,63989
15.77500,61849
15.78333,59646
15.79167,57394
15.80000,55108
15.80833,52802
15.81667,50489
15.82500,48180
15.83333,45888
15.84167,43622
15.85000,41392
15.85833,39207
15.86667,37072
15.87500,34995
15.88333,32982
15.89167,31036
15.90000,29163
15.90833,27363
15.91667,25640
15.92500,23995
15.93333,22428
15.94167,20939
15.95000,19528
15.95833,18194
15.96667,16935
15.97500,15750
15.98333,14636
15.99167,13592
16.00000,12615
16.00833,11702
16.01667,10850
16.02500,10057
16.03333,9320
16.04167,8635
16.05000,8000
16.05833,7412
16.06667,6868
16.07500,6366
16.08333,5903
16.09167,5476
16.10000,5083
16.10833,4721
16.11667,4389
16.12500,4084
16.13333,3803
16.14167,3546
16.15000,3310
16.15833,3094
16.16667,2896
16.17500,2714
16.18333,2547
16.19167,2394
16.20000,2254
16.20833,2125
16.21667,2008
16.22500,1900
16.23333,1801
16.24167,1710
16.25000,1627
16.25833,1550
16.26667,1480
16.27500,1415
16.28333,1355
16.29167,1300
16.30000,1249
16.30833,1203
16.31667,1159
16.32500,1119
16.33333,1082
16.34167,1048
16.35000,1015
16.35833,986
16.36667,958
16.37500,932
16.38333,908
16.39167,885
16.40000,864
16.40833,845
16.41667,826
16.42500,809
16.43333,792
16.44167,777
16.45000,762
16.45833,748
16.46667,735
16.47500,723
16.48333,711
16.49167,700
16.50000,690
16.50833,680
16.51667,670
16.52500,661
16.53333,652
16.54167,643
16.55000,635
16.55833,627
16.56667,620
16.57500,613
16.58333,606
16.59167,600
16.60000,593
16.60833,587
16.61667,581
16.62500,575
16.63333,569
16.64167,564
16.65000,559
16.65833,554
16.66667,549
16.67500,544
16.68333,540
16.69167,535
16.70000,531
16.70833,527
16.71667,523
16.72500,518
16.73333,514
16.74167,510
16.75000,506
16.75833,502
16.76667,498
16.77500,494
16.78333,490
16.79167,486
16.80000,483
16.80833,479
16.81667,476
16.82500,472
16.83333,469
16.84167,465
16.85000,462
16.85833,458
16.86667,455
16.87500,452
16.88333,449
16.89167,446
16.90000,443
16.90833,440
16.91667,436
16.92500,433
16.93333,430
16.94167,427
16.95000,423
16.95833,420
16.96667,417
16.97500,414
16.98333,411
16.99167,408
17.00000,405
17.00833,402
17.01667,399
17.02500,397
17.03333,394
17.04167,391
17.05000,388
17.05833,385
17.06667,382
17.07500,379
17.08333,377
17.09167,374
17.10000,371
17.10833,368
17.11667,365
17.12500,362
17.13333,360
17.14167,357
17.15000,355
17.15833,352
17.16667,350
17.17500,347
17.18333,345
17.19167,343
17.20000,341
17.20833,339
17.21667,337
17.22500,334
17.23333,332
17.24167,329
17.25000,327
17.25833,324
17.26667,322
17.27500,320
17.28333,318
17.29167,316
17.30000,314
17.30833,312
17.31667,310
17.32500,308
17.33333,307
17.34167,305
17.35000,303
17.35833,301
17.36667,299
17.37500,297
17.38333,295
17.39167,293
17.40000,292
17.40833,290
17.41667,288
17.42500,286
17.43333,284
17.44167,283
17.45000,281
17.45833,280
17.46667,278
17.47500,277
17.48333,275
17.49167,273
17.50000,272
17.50833,270
17.51667,268
17.52500,267
17.53333,265
17.54167,263
17.55000,262
17.55833,260
17.56667,258
17.57500,256
17.58333,255
17.59167,254
17.60000,252
17.60833,251
17.61667,250
17.62500,248
17.63333,248
17.64167,246
17.65000,245
17.65833,243
17.66667,242
17.67500,240
17.68333,239
17.69167,238
17.70000,237
17.70833,236
17.71667,235
17.72500,234
17.73333,232
17.74167,231
17.75000,229
17.75833,228
17.76667,226
17.77500,225
17.78333,223
17.79167,222
17.80000,220
17.80833,219
17.81667,218
17.82500,217
17.83333,216
17.84167,215
17.85000,214
17.85833,213
17.86667,212
17.87500,211
17.88333,210
17.89167,209
17.90000,207
17.90833,206
17.91667,204
17.92500,203
17.93333,202
17.94167,200
17.95000,199
17.95833,198
17.96667,197
17.97500,196
17.98333,196
17.99167,195
18.00000,194
18.00833,193
18.01667,192
18.02500,190
18.03333,189
18.04167,188
18.05000,187
18.05833,186
18.06667,184
18.07500,183
18.08333,182
18.09167,181
18.10000,180
18.10833,179
18.11667,178
18.12500,178
18.13333,177
18.14167,176
18.15000,174
18.15833,173
18.16667,171
18.17500,170
18.18333,169
18.19167,168
18.20000,167
18.20833,166
18.21667,165
18.22500,164
18.23333,163
18.24167,163
18.25000,161
18.25833,160
18.26667,159
18.27500,158
18.28333,157
18.29167,157
18.30000,156
18.30833,155
18.31667,153
18.32500,152
18.33333,151
18.34167,150
18.35000,149
18.35833,149
18.36667,148
18.37500,147
18.38333,146
18.39167,145
18.40000,144
18.40833,143
18.41667,142
18.42500,141
18.43333,141
18.44167,140
18.45000,139
18.45833,139
18.46667,137
18.47500,136
18.48333,135
18.49167,134
18.50000,134
18.50833,133
18.51667,133
18.52500,132
18.53333,131
18.54167,130
18.55000,129
18.55833,128
18.56667,128
18.57500,127
18.58333,127
18.59167,126
18.60000,126
18.60833,126
18.61667,125
18.62500,124
18.63333,123
18.64167,122
18.65000,122
18.65833,121
18.66667,120
18.67500,120
18.68333,119
18.69167,119
18.70000,118
18.70833,118
18.71667,117
18.72500,117
18.73333,117
18.74167,116
18.75000,116
18.75833,116
18.76667,116
18.77500,116
18.78333,116
18.79167,116
18.80000,116
18.80833,116
18.81667,117
18.82500,117
18.83333,117
18.84167,118
18.85000,118
18.85833,118
18.86667,118
18.87500,119
18.88333,119
18.89167,120
18.90000,120
18.90833,121
18.91667,121
18.92500,122
18.93333,122
18.94167,122
18.95000,122
18.95833,122
18.96667,122
18.97500,122
18.98333,122
18.99167,122
19.00000,121
19.00833,121
19.01667,121
19.02500,120
19.03333,120
19.04167,119
19.05000,118
19.05833,117
19.06667,116
19.07500,116
19.08333,115
19.09167,114
19.10000,113
19.10833,112
19.11667,110
19.12500,109
19.13333,108
19.14167,107
19.15000,105
19.15833,104
19.16667,103
19.17500,102
19.18333,100
19.19167,99
19.20000,98
19.20833,97
19.21667,96
19.22500,94
19.23333,93
19.24167,92
19.25000,90
19.25833,89
19.26667,88
19.27500,87
19.28333,86
19.29167,85
19.30000,84
19.30833,83
19.31667,82
19.32500,81
19.33333,81
19.34167,80
19.35000,79
19.35833,78
19.36667,78
19.37500,77
19.38333,76
19.39167,76
19.40000,75
19.40833,74
19.41667,73
19.42500,73
19.43333,72
19.44167,72
19.45000,71
19.45833,71
19.46667,70
19.47500,70
19.48333,69
19.49167,68
19.50000,68
19.50833,67
19.51667,66
19.52500,66
19.53333,66
19.54167,66
19.55000,65
19.55833,65
19.56667,65
19.57500,65
19.58333,64
19.59167,64
19.60000,63
19.60833,63
19.61667,62
19.62500,62
19.63333,61
19.64167,61
19.65000,60
19.65833,60
19.66667,59
19.67500,59
19.68333,59
19.69167,59
19.70000,58
19.70833,58
19.71667,58
19.72500,57
19.73333,57
19.74167,56
19.75000,56
19.75833,55
19.76667,54
19.77500,54
19.78333,54
19.79167,54
19.80000,53
19.80833,53
19.81667,53
19.82500,53
19.83333,52
19.84167,52
19.85000,52
19.85833,52
19.86667,52
19.87500,51
19.88333,51
19.89167,51
19.90000,50
19.90833,50
19.91667,50
19.92500,49
19.93333,49
19.94167,49
19.95000,48
19.95833,48
19.96667,48
19.97500,48
19.98333,47
19.99167,47
20.00000,47
20.00833,47
20.01667,46
20.02500,46
20.03333,45
20.04167,45
20.05000,45
20.05833,45
20.06667,44
20.07500,44
20.08333,44
20.09167,44
20.10000,43
20.10833,43
20.11667,43
20.12500,43
20.13333,43
20.14167,42
20.15000,42
20.15833,42
20.16667,41
20.17500,41
20.18333,41
20.19167,41
20.20000,41
20.20833,40
20.21667,40
20.22500,40
20.23333,40
20.24167,39
20.25000,39
20.25833,39
20.26667,39
20.27500,39
20.28333,39
20.29167,38
20.30000,38
20.30833,38
20.31667,38
20.32500,38
20.33333,38
20.34167,37
20.35000,38
20.35833,38
20.36667,38
20.37500,37
20.38333,37
20.39167,37
20.40000,37
20.40833,36
20.41667,36
20.42500,36
20.43333,36
20.44167,36
20.45000,36
20.45833,35
20.46667,35
20.47500,35
20.48333,34
20.49167,34
20.50000,34
20.50833,33
20.51667,33
20.52500,33
20.53333,34
20.54167,34
20.55000,34
20.55833,33
20.56667,33
20.57500,32
20.58333,32
20.59167,32
20.60000,32
20.60833,33
20.61667,32
20.62500,32
20.63333,32
20.64167,31
20.65000,31
20.65833,31
20.66667,31
20.67500,31
20.68333,31
20.69167,31
20.70000,31
20.70833,30
20.71667,30
20.72500,30
20.73333,29
20.74167,29
20.75000,29
20.75833,29
20.76667,29
20.77500,29
20.78333,29
20.79167,28
20.80000,28
20.80833,28
20.81667,27
20.82500,27
20.83333,27
20.84167,26
20.85000,26
20.85833,26
20.86667,26
20.87500,26
20.88333,26
20.89167,26
20.90000,26
20.90833,26
20.91667,26
20.92500,26
20.93333,25
20.94167,26
20.95000,26
20.95833,26
20.96667,25
20.97500,25
20.98333,25
20.99167,25
21.00000,25
21.00833,25
21.01667,24
21.02500,24
21.03333,24
21.04167,24
21.05000,24
21.05833,23
21.06667,23
21.07500,23
21.08333,23
21.09167,23
21.10000,23
21.10833,23
21.11667,23
21.12500,23
21.13333,23
21.14167,23
21.15000,23
21.15833,23
21.16667,23
21.17500,23
21.18333,23
21.19167,23
21.20000,23
21.20833,23
21.21667,23
21.22500,23
21.23333,23
21.24167,23
21.25000,23
21.25833,23
21.26667,23
21.27500,23
21.28333,23
21.29167,23
21.30000,24
21.30833,25
21.31667,26
21.32500,26
21.33333,28
21.34167,28
21.35000,29
21.35833,31
21.36667,32
21.37500,34
21.38333,36
21.39167,38
21.40000,40
21.40833,43
21.41667,46
21.42500,49
21.43333,53
21.44167,57
21.45000,62
21.45833,68
21.46667,75
21.47500,82
21.48333,91
21.49167,101
21.50000,112
21.50833,125
21.51667,139
21.52500,154
21.53333,173
21.54167,193
21.55000,216
21.55833,243
21.56667,272
21.57500,306
21.58333,344
21.59167,386
21.60000,434
21.60833,488
21.61667,548
21.62500,616
21.63333,691
21.64167,775
21.65000,869
21.65833,973
21.66667,1089
21.67500,1217
21.68333,1358
21.69167,1513
21.70000,1684
21.70833,1871
21.71667,2075
21.72500,2297
21.73333,2539
21.74167,2800
21.75000,3082
21.75833,3386
21.76667,3712
21.77500,4060
21.78333,4432
21.79167,4826
21.80000,5243
21.80833,5684
21.81667,6146
21.82500,6631
21.83333,7136
21.84167,7660
21.85000,8204
21.85833,8763
21.86667,9338
21.87500,9926
21.88333,10525
21.89167,11132
21.90000,11744
21.90833,12359
21.91667,12974
21.92500,13585
21.93333,14188
21.94167,14782
21.95000,15362
21.95833,15925
21.96667,16467
21.97500,16986
21.98333,17478
21.99167,17940
22.00000,18370
22.00833,18763
22.01667,19119
22.02500,19435
22.03333,19710
22.04167,19942
22.05000,20128
22.05833,20269
22.06667,20364
22.07500,20412
22.08333,20413
22.09167,20368
22.10000,20278
22.10833,20144
22.11667,19966
22.12500,19747
22.13333,19488
22.14167,19192
22.15000,18861
22.15833,18496
22.16667,18101
22.17500,17679
22.18333,17232
22.19167,16763
22.20000,16274
22.20833,15770
22.21667,15252
22.22500,14724
22.23333,14187
22.24167,13645
22.25000,13101
22.25833,12556
22.26667,12013
22.27500,11474
22.28333,10941
22.29167,10415
22.30000,9899
22.30833,9394
22.31667,8902
22.32500,8423
22.33333,7957
22.34167,7507
22.35000,7073
22.35833,6656
22.36667,6255
22.37500,5870
22.38333,5503
22.39167,5152
22.40000,4819
22.40833,4502
22.41667,4203
22.42500,3919
22.43333,3652
22.44167,3400
22.45000,3163
22.45833,2941
22.46667,2732
22.47500,2537
22.48333,2355
22.49167,2184
22.50000,2026
22.50833,1878
22.51667,1742
22.52500,1614
22.53333,1496
22.54167,1387
22.55000,1286
22.55833,1193
22.56667,1107
22.57500,1027
22.58333,954
22.59167,887
22.60000,825
22.60833,768
22.61667,715
22.62500,667
22.63333,623
22.64167,583
22.65000,545
22.65833,511
22.66667,480
22.67500,451
22.68333,425
22.69167,400
22.70000,378
22.70833,358
22.71667,339
22.72500,321
22.73333,305
22.74167,290
22.75000,277
22.75833,265
22.76667,253
22.77500,242
22.78333,233
22.79167,223
22.80000,215
22.80833,207
22.81667,200
22.82500,194
22.83333,188
22.84167,182
22.85000,176
22.85833,171
22.86667,166
22.87500,162
22.88333,158
22.89167,154
22.90000,150
22.90833,147
22.91667,144
22.92500,141
22.93333,138
22.94167,136
22.95000,133
22.95833,131
22.96667,128
22.97500,126
22.98333,124
22.99167,122
23.00000,120
23.00833,118
23.01667,116
23.02500,114
23.03333,112
23.04167,111
23.05000,109
23.05833,108
23.06667,107
23.07500,106
23.08333,105
23.09167,103
23.10000,102
23.10833,101
23.11667,99
23.12500,99
23.13333,98
23.14167,97
23.15000,96
23.15833,95
23.16667,94
23.17500,93
23.18333,93
23.19167,92
23.20000,90
23.20833,89
23.21667,88
23.22500,87
23.23333,87
23.24167,86
23.25000,85
23.25833,84
23.26667,83
23.27500,83
23.28333,82
23.29167,81
23.30000,81
23.30833,80
23.31667,79
23.32500,78
23.33333,77
23.34167,76
23.35000,75
23.35833,74
23.36667,74
23.37500,73
23.38333,73
23.39167,72
23.40000,71
23.40833,71
23.41667,70
23.42500,70
23.43333,69
23.44167,68
23.45000,67
23.45833,67
23.46667,66
23.47500,66
23.48333,65
23.49167,65
23.50000,64
23.50833,63
23.51667,63
23.52500,62
23.53333,62
23.54167,61
23.55000,60
23.55833,60
23.56667,59
23.57500,59
23.58333,59
23.59167,58
23.60000,58
23.60833,57
23.61667,57
23.62500,56
23.63333,56
23.64167,56
23.65000,55
23.65833,55
23.66667,54
23.67500,54
23.68333,53
23.69167,53
23.70000,52
23.70833,52
23.71667,51
23.72500,51
23.73333,51
23.74167,51
23.75000,51
23.75833,50
23.76667,50
23.77500,50
23.78333,49
23.79167,49
23.80000,48
23.80833,48
23.81667,48
23.82500,48
23.83333,48
23.84167,48
23.85000,48
23.85833,48
23.86667,48
23.87500,48
23.88333,48
23.89167,48
23.90000,47
23.90833,47
23.91667,46
23.92500,46
23.93333,46
23.94167,45
23.95000,45
23.95833,44
23.96667,44
23.97500,44
23.98333,43
23.99167,43
24.00000,43
24.00833,44
24.01667,44
24.02500,44
24.03333,44
24.04167,43
24.05000,43
24.05833,43
24.06667,42
24.07500,42
24.08333,42
24.09167,42
24.10000,42
24.10833,42
24.11667,42
24.12500,42
24.13333,41
24.14167,41
24.15000,41
24.15833,41
24.16667,41
24.17500,40
24.18333,40
24.19167,41
24.20000,40
24.20833,40
24.21667,40
24.22500,40
24.23333,40
24.24167,40
24.25000,40
24.25833,40
24.26667,40
24.27500,40
24.28333,40
24.29167,41
24.30000,42
24.30833,42
24.31667,43
24.32500,44
24.33333,45
24.34167,46
24.35000,48
24.35833,49
24.36667,51
24.37500,52
24.38333,54
24.39167,56
24.40000,59
24.40833,62
24.41667,65
24.42500,68
24.43333,72
24.44167,77
24.45000,82
24.45833,88
24.46667,95
24.47500,102
24.48333,110
24.49167,119
24.50000,129
24.50833,141
24.51667,154
24.52500,168
24.53333,184
24.54167,202
24.55000,221
24.55833,242
24.56667,266
24.57500,292
24.58333,321
24.59167,352
24.60000,387
24.60833,425
24.61667,467
24.62500,513
24.63333,564
24.64167,619
24.65000,678
24.65833,743
24.66667,813
24.67500,889
24.68333,971
24.69167,1059
24.70000,1154
24.70833,1255
24.71667,1364
24.72500,1479
24.73333,1601
24.74167,1731
24.75000,1869
24.75833,2014
24.76667,2166
24.77500,2325
24.78333,2492
24.79167,2666
24.80000,2846
24.80833,3033
24.81667,3226
24.82500,3425
24.83333,3629
24.84167,3838
24.85000,4050
24.85833,4265
24.86667,4483
24.87500,4702
24.88333,4923
24.89167,5143
24.90000,5363
24.90833,5580
24.91667,5794
24.92500,6004
24.93333,6210
24.94167,6408
24.95000,6600
24.95833,6783
24.96667,6958
24.97500,7123
24.98333,7277
24.99167,7420
25.00000,7551
25.00833,7668
25.01667,7772
25.02500,7862
25.03333,7938
25.04167,7999
25.05000,8045
25.05833,8075
25.06667,8091
25.07500,8091
25.08333,8076
25.09167,8046
25.10000,8001
25.10833,7941
25.11667,7868
25.12500,7780
25.13333,7680
25.14167,7568
25.15000,7444
25.15833,7310
25.16667,7166
25.17500,7012
25.18333,6850
25.19167,6681
25.20000,6505
25.20833,6323
25.21667,6136
25.22500,5945
25.23333,5751
25.24167,5554
25.25000,5356
25.25833,5156
25.26667,4957
25.27500,4758
25.28333,4561
25.29167,4365
25.30000,4172
25.30833,3981
25.31667,3794
25.32500,3611
25.33333,3432
25.34167,3257
25.35000,3087
25.35833,2922
25.36667,2763
25.37500,2609
25.38333,2461
25.39167,2319
25.40000,2183
25.40833,2052
25.41667,1927
25.42500,1808
25.43333,1695
25.44167,1588
25.45000,1486
25.45833,1389
25.46667,1298
25.47500,1212
25.48333,1131
25.49167,1054
25.50000,982
25.50833,915
25.51667,852
25.52500,793
25.53333,738
25.54167,686
25.55000,638
25.55833,594
25.56667,553
25.57500,515
25.58333,479
25.59167,446
25.60000,415
25.60833,387
25.61667,361
25.62500,336
25.63333,314
25.64167,294
25.65000,275
25.65833,258
25.66667,241
25.67500,227
25.68333,213
25.69167,201
25.70000,189
25.70833,178
25.71667,169
25.72500,160
25.73333,152
25.74167,145
25.75000,138
25.75833,132
25.76667,126
25.77500,121
25.78333,116
25.79167,111
25.80000,107
25.80833,103
25.81667,99
25.82500,96
25.83333,94
25.84167,91
25.85000,88
25.85833,85
25.86667,83
25.87500,81
25.88333,79
25.89167,77
25.90000,75
25.90833,74
25.91667,72
25.92500,70
25.93333,69
25.94167,68
25.95000,67
25.95833,66
25.96667,64
25.97500,63
25.98333,62
25.99167,61
26.00000,60
26.00833,59
26.01667,58
26.02500,57
26.03333,57
26.04167,56
26.05000,55
26.05833,55
26.06667,55
26.07500,54
26.08333,54
26.09167,53
26.10000,52
26.10833,52
26.11667,51
26.12500,50
26.13333,50
26.14167,49
26.15000,49
26.15833,48
26.16667,48
26.17500,48
26.18333,47
26.19167,46
26.20000,46
26.20833,46
26.21667,45
26.22500,45
26.23333,44
26.24167,45
26.25000,44
26.25833,44
26.26667,43
26.27500,43
26.28333,42
26.29167,42
26.30000,42
26.30833,42
26.31667,41
26.32500,41
26.33333,41
26.34167,41
26.35000,40
26.35833,40
26.36667,40
26.37500,39
26.38333,39
26.39167,39
26.40000,39
26.40833,39
26.41667,38
26.42500,38
26.43333,38
26.44167,38
26.45000,38
26.45833,38
26.46667,38
26.47500,38
26.48333,38
26.49167,38
26.50000,37
26.50833,37
26.51667,37
26.52500,37
26.53333,37
26.54167,36
26.55000,36
26.55833,36
26.56667,36
26.57500,36
26.58333,36
26.59167,36
26.60000,36
26.60833,36
26.61667,36
26.62500,36
26.63333,36
26.64167,36
26.65000,36
26.65833,36
26.66667,36
26.67500,36
26.68333,36
26.69167,35
26.70000,36
26.70833,36
26.71667,35
26.72500,35
26.73333,35
26.74167,35
26.75000,35
26.75833,35
26.76667,35
26.77500,35
26.78333,34
26.79167,34
26.80000,34
26.80833,34
26.81667,34
26.82500,33
26.83333,33
26.84167,33
26.85000,32
26.85833,32
26.86667,32
26.87500,32
26.88333,32
26.89167,32
26.90000,32
26.90833,32
26.91667,31
26.92500,31
26.93333,31
26.94167,31
26.95000,31
26.95833,30
26.96667,30
26.97500,30
26.98333,30
26.99167,29
27.00000,29
27.00833,29
27.01667,29
27.02500,29
27.03333,28
27.04167,28
27.05000,28
27.05833,28
27.06667,28
27.07500,28
27.08333,28
27.09167,28
27.10000,27
27.10833,27
27.11667,26
27.12500,26
27.13333,26
27.14167,26
27.15000,26
27.15833,26
27.16667,26
27.17500,25
27.18333,25
27.19167,25
27.20000,25
27.20833,24
27.21667,24
27.22500,24
27.23333,24
27.24167,24
27.25000,24
27.25833,24
27.26667,24
27.27500,24
27.28333,25
27.29167,24
27.30000,24
27.30833,24
27.31667,24
27.32500,24
27.33333,24
27.34167,24
27.35000,24
27.35833,24
27.36667,24
27.37500,24
27.38333,23
27.39167,23
27.40000,22
27.40833,22
27.41667,22
27.42500,22
27.43333,22
27.44167,23
27.45000,23
27.45833,23
27.46667,23
27.47500,23
27.48333,22
27.49167,22
27.50000,22
27.50833,22
27.51667,22
27.52500,22
27.53333,22
27.54167,22
27.55000,23
27.55833,23
27.56667,23
27.57500,22
27.58333,22
27.59167,22
27.60000,22
27.60833,22
27.61667,21
27.62500,21
27.63333,21
27.64167,21
27.65000,21
27.65833,21
27.66667,21
27.67500,21
27.68333,21
27.69167,21
27.70000,20
27.70833,20
27.71667,20
27.72500,21
27.73333,20
27.74167,20
27.75000,20
27.75833,19
27.76667,19
27.77500,19
27.78333,19
27.79167,19
27.80000,19
27.80833,18
27.81667,18
27.82500,18
27.83333,17
27.84167,17
27.85000,16
27.85833,15
27.86667,15
27.87500,14
27.88333,13
27.89167,12
27.90000,12
27.90833,11
27.91667,10
27.92500,10
27.93333,9
27.94167,8
27.95000,7
27.95833,5
27.96667,4
27.97500,3
27.98333,1
27.99167,-0
28.00000,-1
28.00833,-3
28.01667,-5
28.02500,-7
28.03333,-8
28.04167,-11
28.05000,-13
28.05833,-15
28.06667,-17
28.07500,-19
28.08333,-21
28.09167,-23
28.10000,-25
28.10833,-27
28.11667,-30
28.12500,-32
28.13333,-35
28.14167,-38
28.15000,-40
28.15833,-43
28.16667,-46
28.17500,-49
28.18333,-52
28.19167,-55
28.20000,-58
28.20833,-61
28.21667,-63
28.22500,-66
28.23333,-69
28.24167,-73
28.25000,-76
28.25833,-78
28.26667,-81
28.27500,-83
28.28333,-86
28.29167,-89
28.30000,-92
28.30833,-95
28.31667,-97
28.32500,-99
28.33333,-102
28.34167,-104
28.35000,-106
28.35833,-108
28.36667,-110
28.37500,-111
28.38333,-113
28.39167,-114
28.40000,-115
28.40833,-116
28.41667,-117
28.42500,-118
28.43333,-119
28.44167,-119
28.45000,-120
28.45833,-120
28.46667,-120
28.47500,-119
28.48333,-118
28.49167,-118
28.50000,-118
28.50833,-117
28.51667,-116
28.52500,-116
28.53333,-115
28.54167,-113
28.55000,-112
28.55833,-110
28.56667,-108
28.57500,-106
28.58333,-104
28.59167,-102
28.60000,-100
28.60833,-97
28.61667,-95
28.62500,-93
28.63333,-91
28.64167,-88
28.65000,-86
28.65833,-84
28.66667,-81
28.67500,-79
28.68333,-76
28.69167,-74
28.70000,-72
28.70833,-69
28.71667,-67
28.72500,-65
28.73333,-62
28.74167,-60
28.75000,-58
28.75833,-55
28.76667,-53
28.77500,-51
28.78333,-49
28.79167,-46
28.80000,-44
28.80833,-43
28.81667,-41
28.82500,-39
28.83333,-37
28.84167,-34
28.85000,-32
28.85833,-30
28.86667,-29
28.87500,-27
28.88333,-26
28.89167,-24
28.90000,-22
28.90833,-21
28.91667,-19
28.92500,-18
28.93333,-17
28.94167,-16
28.95000,-15
28.95833,-13
28.96667,-12
28.97500,-11
28.98333,-10
28.99167,-9
29.00000,-8
29.00833,-7
29.01667,-7
29.02500,-6
29.03333,-6
29.04167,-5
29.05000,-4
29.05833,-3
29.06667,-2
29.07500,-2
29.08333,-1
29.09167,-1
29.10000,-1
29.10833,-0
29.11667,1
29.12500,1
29.13333,1
29.14167,2
29.15000,2
29.15833,2
29.16667,2
29.17500,3
29.18333,3
29.19167,3
29.20000,4
29.20833,4
29.21667,4
29.22500,4
29.23333,4
29.24167,4
29.25000,5
29.25833,5
29.26667,5
29.27500,5
29.28333,5
29.29167,5
29.30000,6
29.30833,6
29.31667,6
29.32500,6
29.33333,6
29.34167,6
29.35000,6
29.35833,6
29.36667,6
29.37500,6
29.38333,6
29.39167,6
29.40000,6
29.40833,6
29.41667,6
29.42500,7
29.43333,7
29.44167,7
29.45000,6
29.45833,6
29.46667,6
29.47500,6
29.48333,6
29.49167,6
29.50000,5
29.50833,5
29.51667,5
29.52500,5
29.53333,5
29.54167,5
29.55000,4
29.55833,4
29.56667,4
29.57500,4
29.58333,4
29.59167,3
29.60000,3
29.60833,3
29.61667,3
29.62500,2
29.63333,2
29.64167,1
29.65000,1
29.65833,1
29.66667,0
29.67500,0
29.68333,-0
29.69167,-1
29.70000,-2
29.70833,-2
29.71667,-3
29.72500,-3
29.73333,-4
29.74167,-4
29.75000,-5
29.75833,-6
29.76667,-6
29.77500,-7
29.78333,-8
29.79167,-9
29.80000,-10
29.80833,-11
29.81667,-11
29.82500,-12
29.83333,-12
29.84167,-13
29.85000,-14
29.85833,-15
29.86667,-16
29.87500,-17
29.88333,-18
29.89167,-19
29.90000,-20
29.90833,-21
29.91667,-21
29.92500,-23
29.93333,-24
29.94167,-25
29.95000,-26
29.95833,-27
29.96667,-28
29.97500,-28
29.98333,-29
29.99167,-30
30.00000,-31
30.00833,-32
30.01667,-34
30.02500,-35
30.03333,-36
30.04167,-36
30.05000,-37
30.05833,-37
30.06667,-38
30.07500,-39
30.08333,-39
30.09167,-40
30.10000,-40
30.10833,-41
30.11667,-42
30.12500,-43
30.13333,-43
30.14167,-44
30.15000,-44
30.15833,-44
30.16667,-44
30.17500,-44
30.18333,-45
30.19167,-45
30.20000,-45
30.20833,-46
30.21667,-46
30.22500,-45
30.23333,-45
30.24167,-44
30.25000,-44
30.25833,-43
30.26667,-43
30.27500,-43
30.28333,-42
30.29167,-42
30.30000,-42
30.30833,-41
30.31667,-41
30.32500,-41
30.33333,-40
30.34167,-40
30.35000,-39
30.35833,-38
30.36667,-38
30.37500,-37
30.38333,-36
30.39167,-35
30.40000,-34
30.40833,-34
30.41667,-33
30.42500,-32
30.43333,-31
30.44167,-30
30.45000,-29
30.45833,-29
30.46667,-28
30.47500,-27
30.48333,-26
30.49167,-25
30.50000,-25
30.50833,-24
30.51667,-24
30.52500,-23
30.53333,-22
30.54167,-21
30.55000,-21
30.55833,-20
30.56667,-19
30.57500,-18
30.58333,-18
30.59167,-17
30.60000,-16
30.60833,-16
30.61667,-16
30.62500,-15
30.63333,-14
30.64167,-13
30.65000,-13
30.65833,-12
30.66667,-12
30.67500,-11
30.68333,-10
30.69167,-10
30.70000,-9
30.70833,-9
30.71667,-9
30.72500,-8
30.73333,-8
30.74167,-8
30.75000,-7
30.75833,-7
30.76667,-7
30.77500,-6
30.78333,-6
30.79167,-6
30.80000,-6
30.80833,-6
30.81667,-6
30.82500,-6
30.83333,-6
30.84167,-6
30.85000,-6
30.85833,-6
30.86667,-6
30.87500,-5
30.88333,-5
30.89167,-5
30.90000,-5
30.90833,-5
30.91667,-4
30.92500,-4
30.93333,-4
30.94167,-3
30.95000,-3
30.95833,-3
30.96667,-3
30.97500,-3
30.98333,-3
30.99167,-3
31.00000,-3
31.00833,-3
31.01667,-3
31.02500,-2
31.03333,-2
31.04167,-2
31.05000,-2
31.05833,-2
31.06667,-2
31.07500,-2
31.08333,-2
31.09167,-2
31.10000,-2
31.10833,-2
31.11667,-2
31.12500,-2
31.13333,-2
31.14167,-2
31.15000,-2
31.15833,-3
31.16667,-3
31.17500,-3
31.18333,-3
31.19167,-3
31.20000,-2
31.20833,-2
31.21667,-3
31.22500,-3
31.23333,-2
31.24167,-2
31.25000,-2
31.25833,-2
31.26667,-2
31.27500,-1
31.28333,-1
31.29167,-2
31.30000,-2
31.30833,-1
31.31667,-1
31.32500,-1
31.33333,-1
31.34167,-2
31.35000,-2
31.35833,-2
31.36667,-2
31.37500,-2
31.38333,-2
31.39167,-2
31.40000,-1
31.40833,-1
31.41667,-1
31.42500,-1
31.43333,-1
31.44167,-1
31.45000,-1
31.45833,-1
31.46667,-0
31.47500,-0
31.48333,0
31.49167,0
31.50000,-0
31.50833,-0
31.51667,-0
31.52500,-0
31.53333,-0
31.54167,-0
31.55000,0
31.55833,1
31.56667,1
31.57500,1
31.58333,0
31.59167,0
31.60000,1
31.60833,1
31.61667,1
31.62500,1
31.63333,1
31.64167,1
31.65000,1
31.65833,1
31.66667,1
31.67500,1
31.68333,1
31.69167,1
31.70000,1
31.70833,1
31.71667,1
31.72500,1
31.73333,1
31.74167,1
31.75000,1
31.75833,1
31.76667,1
31.77500,1
31.78333,1
31.79167,1
31.80000,1
31.80833,1
31.81667,1
31.82500,1
31.83333,1
31.84167,0
31.85000,-0
31.85833,-0
31.86667,0
31.87500,0
31.88333,0
31.89167,0
31.90000,0
31.90833,0
31.91667,0
31.92500,0
31.93333,-0
31.94167,-0
31.95000,-1
31.95833,-1
31.96667,-1
31.97500,-1
31.98333,-1
31.99167,-1
32.00000,-1
32.00833,-1
32.01667,-0
32.02500,-0
32.03333,-0
32.04167,-0
32.05000,-1
32.05833,-1
32.06667,-1
32.07500,-1
32.08333,-2
32.09167,-1
32.10000,-1
32.10833,-1
32.11667,-1
32.12500,-1
32.13333,-1
32.14167,-1
32.15000,-2
32.15833,-2
32.16667,-2
32.17500,-2
32.18333,-1
32.19167,-1
32.20000,-2
32.20833,-2
32.21667,-2
32.22500,-2
32.23333,-2
32.24167,-2
32.25000,-2
32.25833,-2
32.26667,-2
32.27500,-2
32.28333,-2
32.29167,-2
32.30000,-2
32.30833,-3
32.31667,-3
32.32500,-3
32.33333,-3
32.34167,-3
32.35000,-3
32.35833,-3
32.36667,-3
32.37500,-3
32.38333,-3
32.39167,-3
32.40000,-3
32.40833,-3
32.41667,-3
32.42500,-3
32.43333,-2
32.44167,-2
32.45000,-3
32.45833,-3
32.46667,-3
32.47500,-3
32.48333,-3
32.49167,-2
32.50000,-2
32.50833,-2
32.51667,-2
32.52500,-2
32.53333,-2
32.54167,-2
32.55000,-3
32.55833,-3
32.56667,-3
32.57500,-3
32.58333,-3
32.59167,-3
32.60000,-2
32.60833,-2
32.61667,-2
32.62500,-2
32.63333,-2
32.64167,-2
32.65000,-2
32.65833,-3
32.66667,-3
32.67500,-3
32.68333,-3
32.69167,-3
32.70000,-2
32.70833,-2
32.71667,-2
32.72500,-2
32.73333,-2
32.74167,-2
32.75000,-2
32.75833,-2
32.76667,-3
32.77500,-3
32.78333,-3
32.79167,-3
32.80000,-3
32.80833,-3
32.81667,-3
32.82500,-3
32.83333,-3
32.84167,-3
32.85000,-3
32.85833,-3
32.86667,-3
32.87500,-3
32.88333,-3
32.89167,-3
32.90000,-3
32.90833,-3
32.91667,-3
32.92500,-3
32.93333,-3
32.94167,-4
32.95000,-3
32.95833,-3
32.96667,-3
32.97500,-4
32.98333,-4
32.99167,-3
33.00000,-3
33.00833,-3
33.01667,-4
33.02500,-4
33.03333,-4
33.04167,-4
33.05000,-4
33.05833,-3
33.06667,-3
33.07500,-4
33.08333,-4
33.09167,-4
33.10000,-4
33.10833,-4
33.11667,-4
33.12500,-4
33.13333,-4
33.14167,-4
33.15000,-4
33.15833,-3
33.16667,-3
33.17500,-3
33.18333,-3
33.19167,-4
33.20000,-4
33.20833,-4
33.21667,-4
33.22500,-4
33.23333,-4
33.24167,-4
33.25000,-4
33.25833,-4
33.26667,-4
33.27500,-4
33.28333,-4
33.29167,-4
33.30000,-5
33.30833,-4
33.31667,-4
33.32500,-4
33.33333,-4
33.34167,-3
33.35000,-3
33.35833,-4
33.36667,-4
33.37500,-4
33.38333,-4
33.39167,-4
33.40000,-3
33.40833,-4
33.41667,-4
33.42500,-4
33.43333,-4
33.44167,-4
33.45000,-4
33.45833,-4
33.46667,-5
33.47500,-4
33.48333,-4
33.49167,-4
33.50000,-4
33.50833,-4
33.51667,-4
33.52500,-4
33.53333,-4
33.54167,-4
33.55000,-4
33.55833,-4
33.56667,-4
33.57500,-4
33.58333,-4
33.59167,-4
33.60000,-4
33.60833,-4
33.61667,-5
33.62500,-5
33.63333,-5
33.64167,-5
33.65000,-5
33.65833,-5
33.66667,-5
33.67500,-5
33.68333,-5
33.69167,-6
33.70000,-5
33.70833,-5
33.71667,-5
33.72500,-6
33.73333,-6
33.74167,-6
33.75000,-6
33.75833,-5
33.76667,-5
33.77500,-5
33.78333,-5
33.79167,-5
33.80000,-5
33.80833,-5
33.81667,-5
33.82500,-5
33.83333,-5
33.84167,-5
33.85000,-5
33.85833,-6
33.86667,-6
33.87500,-5
33.88333,-6
33.89167,-6
33.90000,-5
33.90833,-5
33.91667,-5
33.92500,-5
33.93333,-5
33.94167,-5
33.95000,-5
33.95833,-5
33.96667,-5
33.97500,-5
33.98333,-6
33.99167,-6
34.00000,-6
34.00833,-6
34.01667,-6
34.02500,-6
34.03333,-6
34.04167,-5
34.05000,-6
34.05833,-6
34.06667,-6
34.07500,-5
34.08333,-5
34.09167,-5
34.10000,-5
34.10833,-6
34.11667,-6
34.12500,-6
34.13333,-5
34.14167,-5
34.15000,-5
34.15833,-5
34.16667,-5
34.17500,-5
34.18333,-5
34.19167,-5
34.20000,-5
34.20833,-5
34.21667,-5
34.22500,-5
34.23333,-5
34.24167,-5
34.25000,-5
34.25833,-5
34.26667,-5
34.27500,-5
34.28333,-6
34.29167,-6
34.30000,-6
34.30833,-6
34.31667,-5
34.32500,-5
34.33333,-5
34.34167,-5
34.35000,-5
34.35833,-5
34.36667,-5
34.37500,-5
34.38333,-5
34.39167,-5
34.40000,-5
34.40833,-5
34.41667,-5
34.42500,-4
34.43333,-4
34.44167,-5
34.45000,-5
34.45833,-5
34.46667,-5
34.47500,-5
34.48333,-5
34.49167,-5
34.50000,-5
34.50833,-5
34.51667,-5
34.52500,-5
34.53333,-5
34.54167,-5
34.55000,-5
34.55833,-5
34.56667,-5
34.57500,-5
34.58333,-5
34.59167,-6
34.60000,-6
34.60833,-6
34.61667,-6
34.62500,-6
34.63333,-6
34.64167,-6
34.65000,-6
34.65833,-6
34.66667,-6
34.67500,-6
34.68333,-6
34.69167,-6
34.70000,-6
34.70833,-6
34.71667,-7
34.72500,-7
34.73333,-7
34.74167,-7
34.75000,-7
34.75833,-7
34.76667,-7
34.77500,-7
34.78333,-7
34.79167,-7
34.80000,-7
34.80833,-7
34.81667,-7
34.82500,-7
34.83333,-7
34.84167,-7
34.85000,-7
34.85833,-8
34.86667,-8
34.87500,-8
34.88333,-8
34.89167,-7
34.90000,-7
34.90833,-7
34.91667,-8
34.92500,-8
34.93333,-8
34.94167,-7
34.95000,-7
34.95833,-7
34.96667,-7
34.97500,-7
34.98333,-7
34.99167,-7
35.00000,-7
35.00833,-7
35.01667,-7
35.02500,-7
35.03333,-7
35.04167,-7
35.05000,-7
35.05833,-7
35.06667,-7
35.07500,-7
35.08333,-8
35.09167,-8
35.10000,-8
35.10833,-8
35.11667,-8
35.12500,-8
35.13333,-8
35.14167,-7
35.15000,-7
35.15833,-7
35.16667,-7
35.17500,-7
35.18333,-7
35.19167,-8
35.20000,-8
35.20833,-8
35.21667,-8
35.22500,-8
35.23333,-8
35.24167,-8
35.25000,-8
35.25833,-8
35.26667,-8
35.27500,-8
35.28333,-7
35.29167,-7
35.30000,-7
35.30833,-8
35.31667,-8
35.32500,-8
35.33333,-8
35.34167,-8
35.35000,-8
35.35833,-7
35.36667,-7
35.37500,-7
35.38333,-7
35.39167,-7
35.40000,-7
35.40833,-7
35.41667,-8
35.42500,-8
35.43333,-8
35.44167,-8
35.45000,-8
35.45833,-8
35.46667,-8
35.47500,-8
35.48333,-8
35.49167,-8
35.50000,-8
35.50833,-8
35.51667,-8
35.52500,-8
35.53333,-8
35.54167,-8
35.55000,-8
35.55833,-8
35.56667,-8
35.57500,-8
35.58333,-8
35.59167,-8
35.60000,-8
35.60833,-8
35.61667,-8
35.62500,-7
35.63333,-7
35.64167,-8
35.65000,-8
35.65833,-8
35.66667,-8
35.67500,-8
35.68333,-8
35.69167,-8
35.70000,-8
35.70833,-8
35.71667,-8
35.72500,-8
35.73333,-8
35.74167,-8
35.75000,-8
35.75833,-8
35.76667,-8
35.77500,-8
35.78333,-8
35.79167,-8
35.80000,-8
35.80833,-8
35.81667,-8
35.82500,-7
35.83333,-8
35.84167,-8
35.85000,-8
35.85833,-8
35.86667,-8
35.87500,-8
35.88333,-8
35.89167,-8
35.90000,-8
35.90833,-8
35.91667,-8
35.92500,-9
35.93333,-9
35.94167,-9
35.95000,-9
35.95833,-9
35.96667,-9
35.97500,-9
35.98333,-9
35.99167,-9
36.00000,-9
36.00833,-9
36.01667,-9
36.02500,-9
36.03333,-9
36.04167,-9
36.05000,-9
36.05833,-9
36.06667,-9
36.07500,-9
36.08333,-9
36.09167,-9
36.10000,-9
36.10833,-9
36.11667,-9
36.12500,-9
36.13333,-10
36.14167,-10
36.15000,-10
36.15833,-10
36.16667,-10
36.17500,-11
36.18333,-11
36.19167,-11
36.20000,-11
36.20833,-11
36.21667,-11
36.22500,-10
36.23333,-10
36.24167,-10
36.25000,-10
36.25833,-10
36.26667,-10
36.27500,-10
36.28333,-10
36.29167,-10
36.30000,-11
36.30833,-11
36.31667,-11
36.32500,-11
36.33333,-11
36.34167,-11
36.35000,-11
36.35833,-11
36.36667,-10
36.37500,-10
36.38333,-10
36.39167,-10
36.40000,-10
36.40833,-11
36.41667,-11
36.42500,-11
36.43333,-11
36.44167,-11
36.45000,-11
36.45833,-11
36.46667,-11
36.47500,-11
36.48333,-11
36.49167,-11
36.50000,-11
36.50833,-11
36.51667,-11
36.52500,-11
36.53333,-10
36.54167,-10
36.55000,-10
36.55833,-9
36.56667,-9
36.57500,-9
36.58333,-9
36.59167,-10
36.60000,-10
36.60833,-10
36.61667,-10
36.62500,-10
36.63333,-10
36.64167,-10
36.65000,-10
36.65833,-10
36.66667,-10
36.67500,-10
36.68333,-10
36.69167,-10
36.70000,-10
36.70833,-10
36.71667,-9
36.72500,-9
36.73333,-9
36.74167,-9
36.75000,-9
36.75833,-10
36.76667,-10
36.77500,-10
36.78333,-10
36.79167,-10
36.80000,-10
36.80833,-10
36.81667,-11
36.82500,-11
36.83333,-11
36.84167,-11
36.85000,-11
36.85833,-11
36.86667,-11
36.87500,-11
36.88333,-11
36.89167,-11
36.90000,-11
36.90833,-11
36.91667,-11
36.92500,-10
36.93333,-10
36.94167,-10
36.95000,-10
36.95833,-10
36.96667,-9
36.97500,-9
36.98333,-9
36.99167,-9
37.00000,-9
37.00833,-9
37.01667,-9
37.02500,-10
37.03333,-10
37.04167,-10
37.05000,-10
37.05833,-10
37.06667,-10
37.07500,-10
37.08333,-10
37.09167,-10
37.10000,-10
37.10833,-11
37.11667,-11
37.12500,-11
37.13333,-11
37.14167,-11
37.15000,-11
37.15833,-11
37.16667,-11
37.17500,-11
37.18333,-11
37.19167,-10
37.20000,-10
37.20833,-10
37.21667,-10
37.22500,-10
37.23333,-10
37.24167,-11
37.25000,-11
37.25833,-10
37.26667,-10
37.27500,-10
37.28333,-10
37.29167,-10
37.30000,-10
37.30833,-10
37.31667,-10
37.32500,-10
37.33333,-11
37.34167,-11
37.35000,-11
37.35833,-11
37.36667,-11
37.37500,-12
37.38333,-12
37.39167,-12
37.40000,-12
37.40833,-11
37.41667,-11
37.42500,-11
37.43333,-11
37.44167,-11
37.45000,-11
37.45833,-11
37.46667,-11
37.47500,-10
37.48333,-11
37.49167,-11
37.50000,-11
37.50833,-11
37.51667,-11
37.52500,-11
37.53333,-11
37.54167,-11
37.55000,-11
37.55833,-11
37.56667,-11
37.57500,-12
37.58333,-12
37.59167,-12
37.60000,-12
37.60833,-12
37.61667,-12
37.62500,-12
37.63333,-12
37.64167,-11
37.65000,-11
37.65833,-11
37.66667,-12
37.67500,-11
37.68333,-11
37.69167,-11
37.70000,-11
37.70833,-11
37.71667,-11
37.72500,-11
37.73333,-12
37.74167,-12
37.75000,-12
37.75833,-12
37.76667,-12
37.77500,-12
37.78333,-13
37.79167,-12
37.80000,-12
37.80833,-12
37.81667,-12
37.82500,-12
37.83333,-12
37.84167,-12
37.85000,-12
37.85833,-12
37.86667,-12
37.87500,-12
37.88333,-11
37.89167,-12
37.90000,-12
37.90833,-12
37.91667,-12
37.92500,-12
37.93333,-12
37.94167,-12
37.95000,-12
37.95833,-11
37.96667,-11
37.97500,-12
37.98333,-12
37.99167,-12
38.00000,-12
38.00833,-12
38.01667,-11
38.02500,-11
38.03333,-11
38.04167,-11
38.05000,-11
38.05833,-11
38.06667,-11
38.07500,-11
38.08333,-11
38.09167,-11
38.10000,-11
38.10833,-11
38.11667,-12
38.12500,-12
38.13333,-12
38.14167,-12
38.15000,-11
38.15833,-11
38.16667,-11
38.17500,-11
38.18333,-11
38.19167,-11
38.20000,-12
38.20833,-12
38.21667,-12
38.22500,-12
38.23333,-12
38.24167,-12
38.25000,-12
38.25833,-12
38.26667,-12
38.27500,-12
38.28333,-12
38.29167,-12
38.30000,-12
38.30833,-12
38.31667,-13
38.32500,-13
38.33333,-13
38.34167,-13
38.35000,-13
38.35833,-12
38.36667,-12
38.37500,-12
38.38333,-13
38.39167,-13
38.40000,-13
38.40833,-12
38.41667,-12
38.42500,-12
38.43333,-12
38.44167,-13
38.45000,-12
38.45833,-13
38.46667,-13
38.47500,-13
38.48333,-13
38.49167,-13
38.50000,-12
38.50833,-13
38.51667,-13
38.52500,-13
38.53333,-13
38.54167,-13
38.55000,-13
38.55833,-13
38.56667,-13
38.57500,-12
38.58333,-12
38.59167,-13
38.60000,-13
38.60833,-13
38.61667,-13
38.62500,-13
38.63333,-13
38.64167,-13
38.65000,-13
38.65833,-13
38.66667,-13
38.67500,-13
38.68333,-13
38.69167,-13
38.70000,-12
38.70833,-12
38.71667,-12
38.72500,-12
38.73333,-12
38.74167,-12
38.75000,-12
38.75833,-13
38.76667,-13
38.77500,-13
38.78333,-13
38.79167,-13
38.80000,-13
38.80833,-13
38.81667,-12
38.82500,-13
38.83333,-13
38.84167,-13
38.85000,-13
38.85833,-12
38.86667,-12
38.87500,-12
38.88333,-12
38.89167,-12
38.90000,-12
38.90833,-12
38.91667,-12
38.92500,-12
38.93333,-12
38.94167,-12
38.95000,-13
38.95833,-13
38.96667,-13
38.97500,-13
38.98333,-13
38.99167,-13
39.00000,-13
39.00833,-13
39.01667,-13
39.02500,-13
39.03333,-13
39.04167,-13
39.05000,-13
39.05833,-14
39.06667,-14
39.07500,-14
39.08333,-14
39.09167,-14
39.10000,-14
39.10833,-14
39.11667,-14
39.12500,-13
39.13333,-13
39.14167,-13
39.15000,-13
39.15833,-13
39.16667,-13
39.17500,-13
39.18333,-13
39.19167,-13
39.20000,-13
39.20833,-13
39.21667,-13
39.22500,-13
39.23333,-13
39.24167,-13
39.25000,-13
39.25833,-13
39.26667,-13
39.27500,-13
39.28333,-13
39.29167,-13
39.30000,-13
39.30833,-13
39.31667,-13
39.32500,-13
39.33333,-12
39.34167,-12
39.35000,-12
39.35833,-12
39.36667,-12
39.37500,-12
39.38333,-12
39.39167,-12
39.40000,-12
39.40833,-12
39.41667,-12
39.42500,-12
39.43333,-12
39.44167,-12
39.45000,-12
39.45833,-13
39.46667,-13
39.47500,-13
39.48333,-13
39.49167,-13
39.50000,-13
39.50833,-13
39.51667,-13
39.52500,-13
39.53333,-13
39.54167,-14
39.55000,-13
39.55833,-13
39.56667,-13
39.57500,-13
39.58333,-14
39.59167,-14
39.60000,-14
39.60833,-14
39.61667,-14
39.62500,-14
39.63333,-14
39.64167,-14
39.65000,-13
39.65833,-13
39.66667,-13
39.67500,-13
39.68333,-14
39.69167,-14
39.70000,-14
39.70833,-14
39.71667,-14
39.72500,-14
39.73333,-14
39.74167,-14
39.75000,-15
39.75833,-15
39.76667,-15
39.77500,-15
39.78333,-14
39.79167,-14
39.80000,-14
39.80833,-13
39.81667,-13
39.82500,-13
39.83333,-13
39.84167,-13
39.85000,-13
39.85833,-14
39.86667,-14
39.87500,-14
39.88333,-14
39.89167,-14
39.90000,-14
39.90833,-14
39.91667,-14
39.92500,-14
39.93333,-14
39.94167,-14
39.95000,-14
39.95833,-14
39.96667,-14
39.97500,-15
39.98333,-15
39.99167,-15
40.00000,-15

