[Header]
Application Name,LabSolutions
Version,5.97 SP1
Data File Name,C:\Users\cremerlab\Desktop\griffin\2021-04-03_buffer_calibration\2021-04-03_buffer_calibration_432021_007_007.lcd
Output Date,4/3/2021
Output Time,6:44:55 PM

[File Information]
Type,Data File
Generated,4/3/2021 6:04:35 PM
Generated by,System Administrator
Modified,4/3/2021 6:44:55 PM
Modified by,System Administrator

[Sample Information]
Operator Name,System Administrator
Acquired,4/3/2021 6:04:54 PM
Sample Type,1:Standard
Level,7
Sample Name,2021-04-02_NC_glucose_glycerol_acetate_calibration_03mM
Sample ID,007
ISTD Amount1,1
ISTD Amount2,1
ISTD Amount3,1
ISTD Amount4,1
ISTD Amount5,1
ISTD Amount6,1
ISTD Amount7,1
ISTD Amount8,1
ISTD Amount9,1
ISTD Amount10,1
ISTD Amount11,1
ISTD Amount12,1
ISTD Amount13,1
ISTD Amount14,1
ISTD Amount15,1
ISTD Amount16,1
ISTD Amount17,1
ISTD Amount18,1
ISTD Amount19,1
ISTD Amount20,1
ISTD Amount21,1
ISTD Amount22,1
ISTD Amount23,1
ISTD Amount24,1
ISTD Amount25,1
ISTD Amount26,1
ISTD Amount27,1
ISTD Amount28,1
ISTD Amount29,1
ISTD Amount30,1
ISTD Amount31,1
ISTD Amount32,1
Sample Amount,1
Dilution Factor,1
Vial#,7
Injection Volume,20

[Original Files]
Data File,C:\Users\cremerlab\Desktop\griffin\2021-04-03_buffer_calibration\2021-04-03_buffer_calibration_432021_007_007.lcd
Method File,C:\LabSolutions\Data\Project1\organicacidsetc2.lcm
Batch File,C:\Users\cremerlab\Desktop\griffin\2021-04-03_buffer_calibration\2021-04-03_buffer_calibration.lcb
Report Format File,c:\LabSolutions\System\DEFAULT.lsr

[File Description]


[Configuration]
Instrument Name,HPLC-PC-Instrument1
Instrument #,1
Line #,1
# of Detectors,2
Detector ID,Detector A,Detector B
Detector Name,Detector A,Detector B
# of Channels,1,1

[Peak Table(Detector A)]
# of Peaks,0

[Peak Table(Detector B)]
# of Peaks,5
Peak#,R.Time,I.Time,F.Time,Area,Height,A/H,Conc.,Mark,ID#,Name,k',Plate #,Plate Ht.,Tailing,Resolution,Sep.Factor,Area Ratio,Height Ratio,Conc. %,Norm Conc.
1,11.063,10.758,12.900,1246790,69004,18.068,25.977,   ,,,0.000,10685,14.038,1.330,0.000,0.000,0,0,0.000,0.000
2,15.109,14.108,15.458,3113546,117020,26.607,64.871,   ,,,0.366,7093,21.148,0.000,7.062,0.000,0,0,0.000,0.000
3,15.645,15.458,18.175,321377,12987,24.746,6.696, V ,,,0.414,5346,28.057,0.000,0.682,1.133,0,0,0.000,0.000
4,22.074,21.467,22.975,82707,3080,26.855,1.723,   ,,,0.995,15456,9.705,1.090,8.210,2.403,0,0,0.000,0.000
5,25.073,24.467,25.825,35142,1212,28.998,0.732,   ,,,1.266,16822,8.917,1.058,4.043,1.272,0,0,0.000,0.000

[LC Chromatogram(Detector B-Ch1)]
Interval(msec),500
# of Points,4801
Start Time(min),0.000
End Time(min),40.000
Intensity Units,mV
Intensity Multiplier,0.001
R.Time (min),Intensity
0.00000,-1
0.00833,-1
0.01667,0
0.02500,0
0.03333,-0
0.04167,-0
0.05000,-0
0.05833,-0
0.06667,-0
0.07500,-0
0.08333,0
0.09167,0
0.10000,0
0.10833,0
0.11667,0
0.12500,0
0.13333,0
0.14167,0
0.15000,0
0.15833,0
0.16667,-0
0.17500,-0
0.18333,-0
0.19167,-0
0.20000,-0
0.20833,-0
0.21667,-0
0.22500,0
0.23333,0
0.24167,1
0.25000,1
0.25833,0
0.26667,0
0.27500,0
0.28333,0
0.29167,0
0.30000,0
0.30833,0
0.31667,-0
0.32500,0
0.33333,0
0.34167,-0
0.35000,-0
0.35833,-0
0.36667,-0
0.37500,-1
0.38333,-1
0.39167,-1
0.40000,-1
0.40833,-0
0.41667,-0
0.42500,0
0.43333,0
0.44167,0
0.45000,0
0.45833,0
0.46667,0
0.47500,-0
0.48333,-0
0.49167,-1
0.50000,-1
0.50833,-1
0.51667,-1
0.52500,-1
0.53333,-1
0.54167,-0
0.55000,-0
0.55833,0
0.56667,0
0.57500,0
0.58333,0
0.59167,0
0.60000,0
0.60833,0
0.61667,0
0.62500,-0
0.63333,-0
0.64167,-1
0.65000,-1
0.65833,-2
0.66667,-2
0.67500,-1
0.68333,-1
0.69167,-1
0.70000,-1
0.70833,-1
0.71667,-1
0.72500,-1
0.73333,-1
0.74167,-1
0.75000,-1
0.75833,-1
0.76667,-1
0.77500,-1
0.78333,-1
0.79167,-1
0.80000,-1
0.80833,-1
0.81667,-1
0.82500,-1
0.83333,-1
0.84167,-0
0.85000,-0
0.85833,-0
0.86667,-1
0.87500,-1
0.88333,-1
0.89167,-0
0.90000,-0
0.90833,-0
0.91667,-0
0.92500,-0
0.93333,-0
0.94167,-1
0.95000,-1
0.95833,-1
0.96667,-1
0.97500,-0
0.98333,-0
0.99167,0
1.00000,0
1.00833,-0
1.01667,-0
1.02500,-0
1.03333,-1
1.04167,-1
1.05000,-1
1.05833,-1
1.06667,-1
1.07500,-1
1.08333,-1
1.09167,-1
1.10000,-1
1.10833,-1
1.11667,-1
1.12500,-1
1.13333,-1
1.14167,-1
1.15000,-1
1.15833,-1
1.16667,-1
1.17500,-1
1.18333,-1
1.19167,-2
1.20000,-2
1.20833,-2
1.21667,-2
1.22500,-2
1.23333,-2
1.24167,-2
1.25000,-1
1.25833,-1
1.26667,-1
1.27500,-1
1.28333,-1
1.29167,-1
1.30000,-2
1.30833,-2
1.31667,-2
1.32500,-2
1.33333,-2
1.34167,-2
1.35000,-2
1.35833,-2
1.36667,-2
1.37500,-2
1.38333,-2
1.39167,-1
1.40000,-1
1.40833,-1
1.41667,-1
1.42500,-2
1.43333,-2
1.44167,-2
1.45000,-2
1.45833,-3
1.46667,-2
1.47500,-2
1.48333,-2
1.49167,-2
1.50000,-2
1.50833,-2
1.51667,-2
1.52500,-2
1.53333,-2
1.54167,-2
1.55000,-3
1.55833,-3
1.56667,-2
1.57500,-2
1.58333,-2
1.59167,-2
1.60000,-2
1.60833,-2
1.61667,-2
1.62500,-2
1.63333,-2
1.64167,-2
1.65000,-2
1.65833,-2
1.66667,-2
1.67500,-2
1.68333,-2
1.69167,-2
1.70000,-2
1.70833,-2
1.71667,-2
1.72500,-2
1.73333,-3
1.74167,-3
1.75000,-3
1.75833,-3
1.76667,-3
1.77500,-3
1.78333,-3
1.79167,-3
1.80000,-3
1.80833,-3
1.81667,-3
1.82500,-2
1.83333,-2
1.84167,-2
1.85000,-2
1.85833,-2
1.86667,-2
1.87500,-2
1.88333,-2
1.89167,-2
1.90000,-2
1.90833,-2
1.91667,-2
1.92500,-2
1.93333,-3
1.94167,-3
1.95000,-2
1.95833,-2
1.96667,-2
1.97500,-2
1.98333,-2
1.99167,-2
2.00000,-2
2.00833,-2
2.01667,-2
2.02500,-2
2.03333,-3
2.04167,-3
2.05000,-2
2.05833,-3
2.06667,-3
2.07500,-4
2.08333,-3
2.09167,-3
2.10000,-3
2.10833,-3
2.11667,-3
2.12500,-3
2.13333,-3
2.14167,-3
2.15000,-3
2.15833,-2
2.16667,-2
2.17500,-3
2.18333,-3
2.19167,-3
2.20000,-3
2.20833,-2
2.21667,-2
2.22500,-2
2.23333,-2
2.24167,-2
2.25000,-2
2.25833,-2
2.26667,-2
2.27500,-2
2.28333,-2
2.29167,-2
2.30000,-2
2.30833,-2
2.31667,-2
2.32500,-2
2.33333,-2
2.34167,-2
2.35000,-2
2.35833,-2
2.36667,-1
2.37500,-2
2.38333,-2
2.39167,-2
2.40000,-2
2.40833,-2
2.41667,-2
2.42500,-2
2.43333,-2
2.44167,-2
2.45000,-2
2.45833,-3
2.46667,-3
2.47500,-3
2.48333,-3
2.49167,-2
2.50000,-2
2.50833,-2
2.51667,-2
2.52500,-3
2.53333,-3
2.54167,-2
2.55000,-2
2.55833,-2
2.56667,-2
2.57500,-2
2.58333,-2
2.59167,-2
2.60000,-2
2.60833,-2
2.61667,-2
2.62500,-2
2.63333,-3
2.64167,-3
2.65000,-3
2.65833,-3
2.66667,-3
2.67500,-3
2.68333,-3
2.69167,-3
2.70000,-3
2.70833,-3
2.71667,-3
2.72500,-3
2.73333,-3
2.74167,-3
2.75000,-3
2.75833,-3
2.76667,-3
2.77500,-3
2.78333,-3
2.79167,-3
2.80000,-4
2.80833,-4
2.81667,-4
2.82500,-4
2.83333,-4
2.84167,-4
2.85000,-3
2.85833,-3
2.86667,-3
2.87500,-3
2.88333,-3
2.89167,-3
2.90000,-3
2.90833,-3
2.91667,-3
2.92500,-3
2.93333,-3
2.94167,-3
2.95000,-3
2.95833,-2
2.96667,-2
2.97500,-3
2.98333,-3
2.99167,-3
3.00000,-3
3.00833,-3
3.01667,-3
3.02500,-3
3.03333,-3
3.04167,-3
3.05000,-3
3.05833,-3
3.06667,-3
3.07500,-3
3.08333,-3
3.09167,-3
3.10000,-3
3.10833,-3
3.11667,-3
3.12500,-4
3.13333,-4
3.14167,-3
3.15000,-3
3.15833,-4
3.16667,-4
3.17500,-4
3.18333,-4
3.19167,-4
3.20000,-4
3.20833,-4
3.21667,-4
3.22500,-4
3.23333,-4
3.24167,-4
3.25000,-4
3.25833,-4
3.26667,-4
3.27500,-4
3.28333,-4
3.29167,-4
3.30000,-3
3.30833,-3
3.31667,-4
3.32500,-4
3.33333,-4
3.34167,-4
3.35000,-4
3.35833,-4
3.36667,-4
3.37500,-3
3.38333,-3
3.39167,-4
3.40000,-4
3.40833,-4
3.41667,-4
3.42500,-4
3.43333,-4
3.44167,-4
3.45000,-4
3.45833,-4
3.46667,-3
3.47500,-3
3.48333,-3
3.49167,-3
3.50000,-3
3.50833,-3
3.51667,-4
3.52500,-4
3.53333,-4
3.54167,-4
3.55000,-4
3.55833,-5
3.56667,-5
3.57500,-5
3.58333,-5
3.59167,-5
3.60000,-5
3.60833,-5
3.61667,-4
3.62500,-4
3.63333,-4
3.64167,-4
3.65000,-4
3.65833,-4
3.66667,-4
3.67500,-4
3.68333,-4
3.69167,-4
3.70000,-4
3.70833,-4
3.71667,-4
3.72500,-4
3.73333,-4
3.74167,-4
3.75000,-4
3.75833,-4
3.76667,-5
3.77500,-5
3.78333,-5
3.79167,-5
3.80000,-5
3.80833,-5
3.81667,-5
3.82500,-5
3.83333,-5
3.84167,-5
3.85000,-4
3.85833,-4
3.86667,-4
3.87500,-4
3.88333,-4
3.89167,-4
3.90000,-5
3.90833,-5
3.91667,-4
3.92500,-5
3.93333,-5
3.94167,-5
3.95000,-5
3.95833,-5
3.96667,-5
3.97500,-5
3.98333,-5
3.99167,-5
4.00000,-5
4.00833,-5
4.01667,-5
4.02500,-5
4.03333,-5
4.04167,-6
4.05000,-6
4.05833,-5
4.06667,-5
4.07500,-4
4.08333,-4
4.09167,-4
4.10000,-4
4.10833,-4
4.11667,-5
4.12500,-5
4.13333,-5
4.14167,-5
4.15000,-6
4.15833,-6
4.16667,-5
4.17500,-5
4.18333,-5
4.19167,-5
4.20000,-5
4.20833,-5
4.21667,-5
4.22500,-5
4.23333,-5
4.24167,-5
4.25000,-5
4.25833,-5
4.26667,-5
4.27500,-4
4.28333,-5
4.29167,-5
4.30000,-5
4.30833,-5
4.31667,-5
4.32500,-5
4.33333,-5
4.34167,-5
4.35000,-5
4.35833,-5
4.36667,-5
4.37500,-5
4.38333,-5
4.39167,-5
4.40000,-5
4.40833,-5
4.41667,-5
4.42500,-5
4.43333,-5
4.44167,-4
4.45000,-4
4.45833,-4
4.46667,-4
4.47500,-4
4.48333,-4
4.49167,-4
4.50000,-4
4.50833,-4
4.51667,-4
4.52500,-4
4.53333,-4
4.54167,-4
4.55000,-4
4.55833,-4
4.56667,-5
4.57500,-5
4.58333,-5
4.59167,-5
4.60000,-5
4.60833,-5
4.61667,-5
4.62500,-5
4.63333,-5
4.64167,-5
4.65000,-4
4.65833,-4
4.66667,-4
4.67500,-4
4.68333,-4
4.69167,-4
4.70000,-4
4.70833,-4
4.71667,-4
4.72500,-4
4.73333,-4
4.74167,-4
4.75000,-4
4.75833,-4
4.76667,-4
4.77500,-4
4.78333,-4
4.79167,-4
4.80000,-4
4.80833,-5
4.81667,-5
4.82500,-5
4.83333,-5
4.84167,-5
4.85000,-4
4.85833,-4
4.86667,-4
4.87500,-4
4.88333,-3
4.89167,-3
4.90000,-4
4.90833,-4
4.91667,-5
4.92500,-5
4.93333,-5
4.94167,-5
4.95000,-5
4.95833,-5
4.96667,-5
4.97500,-6
4.98333,-6
4.99167,-5
5.00000,-5
5.00833,-5
5.01667,-5
5.02500,-5
5.03333,-5
5.04167,-5
5.05000,-5
5.05833,-5
5.06667,-5
5.07500,-6
5.08333,-6
5.09167,-6
5.10000,-6
5.10833,-6
5.11667,-6
5.12500,-6
5.13333,-6
5.14167,-6
5.15000,-6
5.15833,-5
5.16667,-5
5.17500,-5
5.18333,-5
5.19167,-6
5.20000,-6
5.20833,-6
5.21667,-6
5.22500,-6
5.23333,-7
5.24167,-7
5.25000,-7
5.25833,-6
5.26667,-6
5.27500,-6
5.28333,-6
5.29167,-6
5.30000,-6
5.30833,-6
5.31667,-6
5.32500,-6
5.33333,-6
5.34167,-6
5.35000,-6
5.35833,-6
5.36667,-7
5.37500,-7
5.38333,-7
5.39167,-6
5.40000,-6
5.40833,-5
5.41667,-6
5.42500,-6
5.43333,-6
5.44167,-6
5.45000,-6
5.45833,-6
5.46667,-6
5.47500,-6
5.48333,-6
5.49167,-7
5.50000,-7
5.50833,-6
5.51667,-6
5.52500,-6
5.53333,-6
5.54167,-6
5.55000,-6
5.55833,-6
5.56667,-6
5.57500,-6
5.58333,-7
5.59167,-7
5.60000,-7
5.60833,-6
5.61667,-6
5.62500,-6
5.63333,-7
5.64167,-7
5.65000,-6
5.65833,-6
5.66667,-6
5.67500,-6
5.68333,-6
5.69167,-6
5.70000,-6
5.70833,-6
5.71667,-7
5.72500,-7
5.73333,-7
5.74167,-7
5.75000,-7
5.75833,-7
5.76667,-7
5.77500,-7
5.78333,-7
5.79167,-7
5.80000,-7
5.80833,-7
5.81667,-7
5.82500,-7
5.83333,-6
5.84167,-6
5.85000,-6
5.85833,-6
5.86667,-6
5.87500,-7
5.88333,-7
5.89167,-7
5.90000,-7
5.90833,-7
5.91667,-6
5.92500,-6
5.93333,-6
5.94167,-6
5.95000,-6
5.95833,-6
5.96667,-6
5.97500,-6
5.98333,-6
5.99167,-6
6.00000,-7
6.00833,-7
6.01667,-7
6.02500,-6
6.03333,-6
6.04167,-6
6.05000,-6
6.05833,-6
6.06667,-6
6.07500,-6
6.08333,-6
6.09167,-6
6.10000,-6
6.10833,-6
6.11667,-6
6.12500,-6
6.13333,-5
6.14167,-6
6.15000,-6
6.15833,-6
6.16667,-5
6.17500,-6
6.18333,-6
6.19167,-6
6.20000,-6
6.20833,-6
6.21667,-6
6.22500,-6
6.23333,-6
6.24167,-6
6.25000,-6
6.25833,-6
6.26667,-6
6.27500,-6
6.28333,-6
6.29167,-6
6.30000,-6
6.30833,-6
6.31667,-6
6.32500,-6
6.33333,-6
6.34167,-6
6.35000,-6
6.35833,-6
6.36667,-6
6.37500,-6
6.38333,-6
6.39167,-6
6.40000,-6
6.40833,-6
6.41667,-6
6.42500,-7
6.43333,-7
6.44167,-7
6.45000,-6
6.45833,-6
6.46667,-6
6.47500,-6
6.48333,-6
6.49167,-6
6.50000,-6
6.50833,-6
6.51667,-6
6.52500,-6
6.53333,-6
6.54167,-7
6.55000,-7
6.55833,-7
6.56667,-7
6.57500,-7
6.58333,-7
6.59167,-6
6.60000,-6
6.60833,-6
6.61667,-6
6.62500,-6
6.63333,-6
6.64167,-6
6.65000,-6
6.65833,-7
6.66667,-7
6.67500,-7
6.68333,-7
6.69167,-7
6.70000,-7
6.70833,-7
6.71667,-7
6.72500,-7
6.73333,-6
6.74167,-6
6.75000,-6
6.75833,-5
6.76667,-5
6.77500,-5
6.78333,-5
6.79167,-5
6.80000,-5
6.80833,-5
6.81667,-5
6.82500,-5
6.83333,-5
6.84167,-5
6.85000,-5
6.85833,-6
6.86667,-6
6.87500,-6
6.88333,-5
6.89167,-5
6.90000,-5
6.90833,-6
6.91667,-6
6.92500,-6
6.93333,-6
6.94167,-6
6.95000,-6
6.95833,-6
6.96667,-6
6.97500,-6
6.98333,-6
6.99167,-6
7.00000,-5
7.00833,-5
7.01667,-5
7.02500,-5
7.03333,-5
7.04167,-5
7.05000,-5
7.05833,-5
7.06667,-5
7.07500,-5
7.08333,-5
7.09167,-5
7.10000,-5
7.10833,-5
7.11667,-5
7.12500,-5
7.13333,-6
7.14167,-6
7.15000,-6
7.15833,-6
7.16667,-6
7.17500,-6
7.18333,-6
7.19167,-6
7.20000,-6
7.20833,-6
7.21667,-6
7.22500,-6
7.23333,-6
7.24167,-6
7.25000,-6
7.25833,-6
7.26667,-6
7.27500,-6
7.28333,-6
7.29167,-7
7.30000,-7
7.30833,-7
7.31667,-7
7.32500,-6
7.33333,-6
7.34167,-6
7.35000,-6
7.35833,-6
7.36667,-6
7.37500,-6
7.38333,-6
7.39167,-6
7.40000,-6
7.40833,-6
7.41667,-6
7.42500,-6
7.43333,-6
7.44167,-6
7.45000,-6
7.45833,-6
7.46667,-7
7.47500,-7
7.48333,-7
7.49167,-7
7.50000,-7
7.50833,-6
7.51667,-6
7.52500,-6
7.53333,-6
7.54167,-6
7.55000,-6
7.55833,-7
7.56667,-7
7.57500,-7
7.58333,-6
7.59167,-6
7.60000,-6
7.60833,-6
7.61667,-6
7.62500,-6
7.63333,-6
7.64167,-6
7.65000,-6
7.65833,-6
7.66667,-6
7.67500,-6
7.68333,-6
7.69167,-6
7.70000,-6
7.70833,-6
7.71667,-6
7.72500,-6
7.73333,-6
7.74167,-6
7.75000,-6
7.75833,-7
7.76667,-7
7.77500,-7
7.78333,-7
7.79167,-7
7.80000,-7
7.80833,-7
7.81667,-7
7.82500,-7
7.83333,-7
7.84167,-7
7.85000,-7
7.85833,-7
7.86667,-7
7.87500,-7
7.88333,-7
7.89167,-7
7.90000,-7
7.90833,-7
7.91667,-7
7.92500,-8
7.93333,-8
7.94167,-8
7.95000,-8
7.95833,-8
7.96667,-8
7.97500,-8
7.98333,-8
7.99167,-8
8.00000,-8
8.00833,-8
8.01667,-8
8.02500,-8
8.03333,-8
8.04167,-8
8.05000,-8
8.05833,-8
8.06667,-8
8.07500,-8
8.08333,-8
8.09167,-8
8.10000,-8
8.10833,-8
8.11667,-7
8.12500,-7
8.13333,-7
8.14167,-7
8.15000,-7
8.15833,-7
8.16667,-7
8.17500,-7
8.18333,-7
8.19167,-7
8.20000,-7
8.20833,-8
8.21667,-8
8.22500,-8
8.23333,-8
8.24167,-8
8.25000,-8
8.25833,-9
8.26667,-8
8.27500,-8
8.28333,-8
8.29167,-8
8.30000,-8
8.30833,-9
8.31667,-9
8.32500,-9
8.33333,-8
8.34167,-8
8.35000,-8
8.35833,-8
8.36667,-8
8.37500,-9
8.38333,-9
8.39167,-9
8.40000,-9
8.40833,-9
8.41667,-8
8.42500,-8
8.43333,-8
8.44167,-9
8.45000,-9
8.45833,-9
8.46667,-9
8.47500,-9
8.48333,-9
8.49167,-9
8.50000,-9
8.50833,-9
8.51667,-9
8.52500,-9
8.53333,-9
8.54167,-9
8.55000,-9
8.55833,-9
8.56667,-9
8.57500,-9
8.58333,-8
8.59167,-8
8.60000,-8
8.60833,-8
8.61667,-8
8.62500,-9
8.63333,-9
8.64167,-9
8.65000,-9
8.65833,-9
8.66667,-9
8.67500,-9
8.68333,-9
8.69167,-8
8.70000,-8
8.70833,-8
8.71667,-8
8.72500,-8
8.73333,-8
8.74167,-7
8.75000,-7
8.75833,-7
8.76667,-7
8.77500,-7
8.78333,-7
8.79167,-7
8.80000,-7
8.80833,-8
8.81667,-8
8.82500,-8
8.83333,-8
8.84167,-8
8.85000,-8
8.85833,-8
8.86667,-8
8.87500,-8
8.88333,-8
8.89167,-8
8.90000,-8
8.90833,-8
8.91667,-8
8.92500,-8
8.93333,-8
8.94167,-8
8.95000,-8
8.95833,-8
8.96667,-8
8.97500,-8
8.98333,-7
8.99167,-7
9.00000,-7
9.00833,-7
9.01667,-7
9.02500,-7
9.03333,-7
9.04167,-7
9.05000,-7
9.05833,-7
9.06667,-7
9.07500,-7
9.08333,-8
9.09167,-8
9.10000,-8
9.10833,-7
9.11667,-7
9.12500,-7
9.13333,-7
9.14167,-7
9.15000,-7
9.15833,-7
9.16667,-7
9.17500,-7
9.18333,-7
9.19167,-7
9.20000,-7
9.20833,-6
9.21667,-6
9.22500,-7
9.23333,-7
9.24167,-7
9.25000,-7
9.25833,-6
9.26667,-6
9.27500,-7
9.28333,-7
9.29167,-7
9.30000,-7
9.30833,-6
9.31667,-7
9.32500,-7
9.33333,-7
9.34167,-7
9.35000,-7
9.35833,-8
9.36667,-8
9.37500,-8
9.38333,-8
9.39167,-7
9.40000,-7
9.40833,-7
9.41667,-7
9.42500,-7
9.43333,-7
9.44167,-7
9.45000,-7
9.45833,-7
9.46667,-7
9.47500,-7
9.48333,-7
9.49167,-7
9.50000,-7
9.50833,-7
9.51667,-8
9.52500,-8
9.53333,-8
9.54167,-8
9.55000,-8
9.55833,-8
9.56667,-8
9.57500,-8
9.58333,-8
9.59167,-8
9.60000,-8
9.60833,-8
9.61667,-8
9.62500,-8
9.63333,-8
9.64167,-8
9.65000,-8
9.65833,-8
9.66667,-7
9.67500,-8
9.68333,-8
9.69167,-7
9.70000,-8
9.70833,-8
9.71667,-8
9.72500,-8
9.73333,-8
9.74167,-7
9.75000,-7
9.75833,-7
9.76667,-7
9.77500,-7
9.78333,-7
9.79167,-7
9.80000,-7
9.80833,-7
9.81667,-7
9.82500,-8
9.83333,-8
9.84167,-8
9.85000,-8
9.85833,-8
9.86667,-8
9.87500,-8
9.88333,-8
9.89167,-8
9.90000,-8
9.90833,-8
9.91667,-8
9.92500,-8
9.93333,-8
9.94167,-8
9.95000,-8
9.95833,-8
9.96667,-8
9.97500,-8
9.98333,-8
9.99167,-8
10.00000,-8
10.00833,-8
10.01667,-7
10.02500,-8
10.03333,-8
10.04167,-8
10.05000,-8
10.05833,-8
10.06667,-8
10.07500,-9
10.08333,-8
10.09167,-8
10.10000,-8
10.10833,-8
10.11667,-8
10.12500,-8
10.13333,-8
10.14167,-8
10.15000,-8
10.15833,-8
10.16667,-8
10.17500,-8
10.18333,-8
10.19167,-8
10.20000,-8
10.20833,-8
10.21667,-8
10.22500,-7
10.23333,-7
10.24167,-7
10.25000,-7
10.25833,-7
10.26667,-7
10.27500,-7
10.28333,-7
10.29167,-8
10.30000,-8
10.30833,-7
10.31667,-7
10.32500,-7
10.33333,-6
10.34167,-6
10.35000,-6
10.35833,-5
10.36667,-5
10.37500,-5
10.38333,-5
10.39167,-4
10.40000,-4
10.40833,-4
10.41667,-4
10.42500,-4
10.43333,-4
10.44167,-4
10.45000,-3
10.45833,-3
10.46667,-3
10.47500,-3
10.48333,-3
10.49167,-3
10.50000,-4
10.50833,-6
10.51667,-9
10.52500,-14
10.53333,-20
10.54167,-28
10.55000,-40
10.55833,-57
10.56667,-79
10.57500,-109
10.58333,-148
10.59167,-197
10.60000,-260
10.60833,-337
10.61667,-432
10.62500,-545
10.63333,-680
10.64167,-837
10.65000,-1017
10.65833,-1220
10.66667,-1444
10.67500,-1688
10.68333,-1948
10.69167,-2218
10.70000,-2493
10.70833,-2765
10.71667,-3024
10.72500,-3259
10.73333,-3460
10.74167,-3613
10.75000,-3706
10.75833,-3726
10.76667,-3659
10.77500,-3493
10.78333,-3214
10.79167,-2810
10.80000,-2271
10.80833,-1587
10.81667,-749
10.82500,248
10.83333,1412
10.84167,2747
10.85000,4255
10.85833,5938
10.86667,7795
10.87500,9826
10.88333,12025
10.89167,14388
10.90000,16909
10.90833,19579
10.91667,22386
10.92500,25318
10.93333,28360
10.94167,31494
10.95000,34697
10.95833,37943
10.96667,41204
10.97500,44445
10.98333,47627
10.99167,50708
11.00000,53640
11.00833,56372
11.01667,58853
11.02500,61029
11.03333,62852
11.04167,64276
11.05000,65262
11.05833,65781
11.06667,65818
11.07500,65368
11.08333,64442
11.09167,63062
11.10000,61265
11.10833,59095
11.11667,56608
11.12500,53863
11.13333,50922
11.14167,47845
11.15000,44692
11.15833,41517
11.16667,38369
11.17500,35289
11.18333,32313
11.19167,29467
11.20000,26771
11.20833,24240
11.21667,21881
11.22500,19698
11.23333,17691
11.24167,15855
11.25000,14184
11.25833,12670
11.26667,11304
11.27500,10076
11.28333,8975
11.29167,7991
11.30000,7114
11.30833,6333
11.31667,5640
11.32500,5026
11.33333,4483
11.34167,4002
11.35000,3578
11.35833,3204
11.36667,2874
11.37500,2582
11.38333,2326
11.39167,2100
11.40000,1901
11.40833,1725
11.41667,1569
11.42500,1432
11.43333,1311
11.44167,1204
11.45000,1109
11.45833,1024
11.46667,950
11.47500,883
11.48333,823
11.49167,769
11.50000,721
11.50833,678
11.51667,639
11.52500,604
11.53333,572
11.54167,542
11.55000,515
11.55833,491
11.56667,468
11.57500,448
11.58333,429
11.59167,411
11.60000,395
11.60833,380
11.61667,366
11.62500,353
11.63333,341
11.64167,330
11.65000,319
11.65833,309
11.66667,299
11.67500,290
11.68333,281
11.69167,273
11.70000,265
11.70833,259
11.71667,252
11.72500,246
11.73333,239
11.74167,233
11.75000,228
11.75833,223
11.76667,218
11.77500,214
11.78333,210
11.79167,206
11.80000,202
11.80833,198
11.81667,194
11.82500,191
11.83333,188
11.84167,185
11.85000,182
11.85833,179
11.86667,177
11.87500,175
11.88333,172
11.89167,170
11.90000,167
11.90833,165
11.91667,164
11.92500,162
11.93333,161
11.94167,159
11.95000,158
11.95833,156
11.96667,154
11.97500,153
11.98333,151
11.99167,150
12.00000,148
12.00833,147
12.01667,146
12.02500,145
12.03333,144
12.04167,143
12.05000,142
12.05833,141
12.06667,140
12.07500,139
12.08333,138
12.09167,137
12.10000,136
12.10833,135
12.11667,134
12.12500,133
12.13333,132
12.14167,131
12.15000,130
12.15833,129
12.16667,128
12.17500,127
12.18333,126
12.19167,125
12.20000,124
12.20833,124
12.21667,123
12.22500,122
12.23333,120
12.24167,119
12.25000,118
12.25833,117
12.26667,116
12.27500,116
12.28333,115
12.29167,114
12.30000,113
12.30833,113
12.31667,112
12.32500,112
12.33333,111
12.34167,111
12.35000,110
12.35833,110
12.36667,109
12.37500,109
12.38333,108
12.39167,107
12.40000,107
12.40833,106
12.41667,106
12.42500,105
12.43333,104
12.44167,103
12.45000,102
12.45833,102
12.46667,101
12.47500,100
12.48333,100
12.49167,100
12.50000,99
12.50833,98
12.51667,97
12.52500,97
12.53333,96
12.54167,96
12.55000,95
12.55833,94
12.56667,94
12.57500,93
12.58333,92
12.59167,91
12.60000,90
12.60833,90
12.61667,89
12.62500,88
12.63333,87
12.64167,86
12.65000,86
12.65833,85
12.66667,84
12.67500,83
12.68333,83
12.69167,82
12.70000,82
12.70833,81
12.71667,80
12.72500,80
12.73333,79
12.74167,78
12.75000,77
12.75833,77
12.76667,76
12.77500,75
12.78333,75
12.79167,74
12.80000,74
12.80833,73
12.81667,72
12.82500,71
12.83333,71
12.84167,71
12.85000,70
12.85833,70
12.86667,69
12.87500,69
12.88333,68
12.89167,68
12.90000,68
12.90833,67
12.91667,67
12.92500,66
12.93333,65
12.94167,65
12.95000,65
12.95833,64
12.96667,64
12.97500,64
12.98333,64
12.99167,64
13.00000,63
13.00833,63
13.01667,63
13.02500,62
13.03333,62
13.04167,62
13.05000,62
13.05833,61
13.06667,61
13.07500,61
13.08333,61
13.09167,61
13.10000,61
13.10833,60
13.11667,60
13.12500,60
13.13333,59
13.14167,59
13.15000,59
13.15833,59
13.16667,59
13.17500,59
13.18333,59
13.19167,59
13.20000,59
13.20833,58
13.21667,58
13.22500,58
13.23333,57
13.24167,57
13.25000,57
13.25833,57
13.26667,57
13.27500,56
13.28333,55
13.29167,55
13.30000,54
13.30833,53
13.31667,53
13.32500,53
13.33333,52
13.34167,51
13.35000,51
13.35833,50
13.36667,50
13.37500,49
13.38333,49
13.39167,48
13.40000,48
13.40833,48
13.41667,47
13.42500,46
13.43333,46
13.44167,46
13.45000,45
13.45833,45
13.46667,45
13.47500,44
13.48333,44
13.49167,43
13.50000,42
13.50833,42
13.51667,41
13.52500,41
13.53333,41
13.54167,40
13.55000,40
13.55833,39
13.56667,39
13.57500,39
13.58333,38
13.59167,38
13.60000,37
13.60833,37
13.61667,36
13.62500,36
13.63333,36
13.64167,35
13.65000,35
13.65833,35
13.66667,35
13.67500,35
13.68333,35
13.69167,35
13.70000,34
13.70833,34
13.71667,34
13.72500,33
13.73333,33
13.74167,33
13.75000,33
13.75833,33
13.76667,33
13.77500,32
13.78333,32
13.79167,32
13.80000,31
13.80833,31
13.81667,31
13.82500,31
13.83333,30
13.84167,30
13.85000,30
13.85833,30
13.86667,30
13.87500,30
13.88333,30
13.89167,30
13.90000,30
13.90833,30
13.91667,30
13.92500,30
13.93333,30
13.94167,31
13.95000,31
13.95833,31
13.96667,31
13.97500,32
13.98333,32
13.99167,32
14.00000,32
14.00833,32
14.01667,32
14.02500,32
14.03333,33
14.04167,33
14.05000,34
14.05833,34
14.06667,35
14.07500,35
14.08333,35
14.09167,36
14.10000,36
14.10833,37
14.11667,38
14.12500,39
14.13333,40
14.14167,42
14.15000,44
14.15833,46
14.16667,48
14.17500,51
14.18333,54
14.19167,57
14.20000,62
14.20833,67
14.21667,73
14.22500,81
14.23333,90
14.24167,101
14.25000,114
14.25833,129
14.26667,148
14.27500,171
14.28333,198
14.29167,231
14.30000,270
14.30833,316
14.31667,371
14.32500,435
14.33333,511
14.34167,599
14.35000,701
14.35833,819
14.36667,954
14.37500,1109
14.38333,1283
14.39167,1480
14.40000,1701
14.40833,1948
14.41667,2221
14.42500,2524
14.43333,2856
14.44167,3221
14.45000,3617
14.45833,4048
14.46667,4513
14.47500,5013
14.48333,5548
14.49167,6120
14.50000,6729
14.50833,7375
14.51667,8057
14.52500,8776
14.53333,9532
14.54167,10324
14.55000,11152
14.55833,12016
14.56667,12915
14.57500,13850
14.58333,14818
14.59167,15819
14.60000,16854
14.60833,17921
14.61667,19019
14.62500,20150
14.63333,21311
14.64167,22501
14.65000,23721
14.65833,24970
14.66667,26248
14.67500,27553
14.68333,28886
14.69167,30246
14.70000,31632
14.70833,33043
14.71667,34480
14.72500,35943
14.73333,37430
14.74167,38942
14.75000,40477
14.75833,42037
14.76667,43620
14.77500,45227
14.78333,46857
14.79167,48509
14.80000,50185
14.80833,51883
14.81667,53603
14.82500,55345
14.83333,57109
14.84167,58895
14.85000,60702
14.85833,62531
14.86667,64380
14.87500,66250
14.88333,68140
14.89167,70050
14.90000,71980
14.90833,73930
14.91667,75898
14.92500,77885
14.93333,79889
14.94167,81910
14.95000,83947
14.95833,85999
14.96667,88064
14.97500,90143
14.98333,92232
14.99167,94328
15.00000,96429
15.00833,98530
15.01667,100625
15.02500,102705
15.03333,104759
15.04167,106769
15.05000,108713
15.05833,110562
15.06667,112278
15.07500,113818
15.08333,115128
15.09167,116149
15.10000,116818
15.10833,117071
15.11667,116849
15.12500,116099
15.13333,114780
15.14167,112867
15.15000,110356
15.15833,107259
15.16667,103610
15.17500,99462
15.18333,94884
15.19167,89958
15.20000,84773
15.20833,79421
15.21667,73996
15.22500,68583
15.23333,63263
15.24167,58103
15.25000,53160
15.25833,48477
15.26667,44087
15.27500,40009
15.28333,36254
15.29167,32823
15.30000,29710
15.30833,26903
15.31667,24388
15.32500,22147
15.33333,20161
15.34167,18409
15.35000,16873
15.35833,15534
15.36667,14373
15.37500,13375
15.38333,12523
15.39167,11804
15.40000,11204
15.40833,10713
15.41667,10320
15.42500,10015
15.43333,9790
15.44167,9638
15.45000,9549
15.45833,9519
15.46667,9540
15.47500,9607
15.48333,9713
15.49167,9854
15.50000,10024
15.50833,10219
15.51667,10432
15.52500,10659
15.53333,10895
15.54167,11136
15.55000,11377
15.55833,11615
15.56667,11845
15.57500,12063
15.58333,12267
15.59167,12452
15.60000,12616
15.60833,12756
15.61667,12871
15.62500,12959
15.63333,13018
15.64167,13046
15.65000,13045
15.65833,13013
15.66667,12949
15.67500,12856
15.68333,12732
15.69167,12580
15.70000,12400
15.70833,12194
15.71667,11964
15.72500,11710
15.73333,11436
15.74167,11144
15.75000,10835
15.75833,10513
15.76667,10178
15.77500,9834
15.78333,9483
15.79167,9126
15.80000,8765
15.80833,8403
15.81667,8042
15.82500,7682
15.83333,7327
15.84167,6976
15.85000,6632
15.85833,6296
15.86667,5968
15.87500,5650
15.88333,5342
15.89167,5045
15.90000,4760
15.90833,4486
15.91667,4223
15.92500,3973
15.93333,3735
15.94167,3508
15.95000,3294
15.95833,3091
15.96667,2900
15.97500,2721
15.98333,2552
15.99167,2393
16.00000,2245
16.00833,2106
16.01667,1977
16.02500,1856
16.03333,1744
16.04167,1640
16.05000,1543
16.05833,1453
16.06667,1370
16.07500,1293
16.08333,1222
16.09167,1156
16.10000,1096
16.10833,1040
16.11667,989
16.12500,942
16.13333,898
16.14167,858
16.15000,820
16.15833,786
16.16667,755
16.17500,726
16.18333,699
16.19167,675
16.20000,652
16.20833,631
16.21667,611
16.22500,593
16.23333,576
16.24167,560
16.25000,546
16.25833,532
16.26667,519
16.27500,507
16.28333,496
16.29167,486
16.30000,476
16.30833,467
16.31667,459
16.32500,451
16.33333,443
16.34167,436
16.35000,430
16.35833,424
16.36667,418
16.37500,412
16.38333,407
16.39167,401
16.40000,396
16.40833,392
16.41667,387
16.42500,383
16.43333,378
16.44167,374
16.45000,370
16.45833,366
16.46667,362
16.47500,358
16.48333,355
16.49167,351
16.50000,347
16.50833,344
16.51667,340
16.52500,337
16.53333,334
16.54167,331
16.55000,328
16.55833,326
16.56667,323
16.57500,321
16.58333,318
16.59167,316
16.60000,313
16.60833,310
16.61667,308
16.62500,306
16.63333,304
16.64167,302
16.65000,299
16.65833,297
16.66667,295
16.67500,292
16.68333,290
16.69167,288
16.70000,285
16.70833,283
16.71667,282
16.72500,280
16.73333,278
16.74167,276
16.75000,274
16.75833,272
16.76667,271
16.77500,270
16.78333,268
16.79167,266
16.80000,265
16.80833,263
16.81667,261
16.82500,260
16.83333,258
16.84167,256
16.85000,255
16.85833,254
16.86667,252
16.87500,250
16.88333,249
16.89167,247
16.90000,245
16.90833,244
16.91667,243
16.92500,241
16.93333,240
16.94167,239
16.95000,238
16.95833,236
16.96667,235
16.97500,234
16.98333,232
16.99167,231
17.00000,229
17.00833,228
17.01667,226
17.02500,225
17.03333,223
17.04167,222
17.05000,221
17.05833,220
17.06667,219
17.07500,217
17.08333,216
17.09167,215
17.10000,213
17.10833,212
17.11667,211
17.12500,210
17.13333,209
17.14167,208
17.15000,206
17.15833,205
17.16667,204
17.17500,203
17.18333,202
17.19167,200
17.20000,199
17.20833,198
17.21667,197
17.22500,196
17.23333,195
17.24167,194
17.25000,193
17.25833,192
17.26667,190
17.27500,189
17.28333,188
17.29167,187
17.30000,186
17.30833,185
17.31667,184
17.32500,183
17.33333,182
17.34167,181
17.35000,180
17.35833,178
17.36667,177
17.37500,176
17.38333,175
17.39167,174
17.40000,173
17.40833,172
17.41667,171
17.42500,170
17.43333,169
17.44167,168
17.45000,167
17.45833,166
17.46667,165
17.47500,164
17.48333,162
17.49167,161
17.50000,160
17.50833,159
17.51667,158
17.52500,157
17.53333,156
17.54167,155
17.55000,154
17.55833,153
17.56667,152
17.57500,152
17.58333,151
17.59167,150
17.60000,149
17.60833,148
17.61667,147
17.62500,146
17.63333,145
17.64167,145
17.65000,144
17.65833,143
17.66667,142
17.67500,141
17.68333,141
17.69167,139
17.70000,138
17.70833,137
17.71667,136
17.72500,136
17.73333,135
17.74167,134
17.75000,133
17.75833,132
17.76667,131
17.77500,130
17.78333,130
17.79167,129
17.80000,128
17.80833,127
17.81667,126
17.82500,126
17.83333,126
17.84167,125
17.85000,124
17.85833,123
17.86667,122
17.87500,121
17.88333,121
17.89167,120
17.90000,119
17.90833,118
17.91667,118
17.92500,117
17.93333,116
17.94167,115
17.95000,114
17.95833,114
17.96667,113
17.97500,112
17.98333,111
17.99167,111
18.00000,111
18.00833,110
18.01667,109
18.02500,108
18.03333,108
18.04167,107
18.05000,106
18.05833,106
18.06667,105
18.07500,104
18.08333,104
18.09167,103
18.10000,103
18.10833,102
18.11667,101
18.12500,100
18.13333,99
18.14167,98
18.15000,97
18.15833,97
18.16667,97
18.17500,97
18.18333,96
18.19167,95
18.20000,95
18.20833,95
18.21667,94
18.22500,93
18.23333,93
18.24167,92
18.25000,92
18.25833,91
18.26667,90
18.27500,89
18.28333,89
18.29167,88
18.30000,88
18.30833,88
18.31667,87
18.32500,87
18.33333,87
18.34167,86
18.35000,85
18.35833,84
18.36667,84
18.37500,83
18.38333,83
18.39167,82
18.40000,82
18.40833,82
18.41667,82
18.42500,81
18.43333,80
18.44167,80
18.45000,79
18.45833,78
18.46667,78
18.47500,77
18.48333,77
18.49167,76
18.50000,76
18.50833,75
18.51667,75
18.52500,74
18.53333,74
18.54167,73
18.55000,73
18.55833,72
18.56667,72
18.57500,72
18.58333,71
18.59167,71
18.60000,71
18.60833,70
18.61667,70
18.62500,69
18.63333,69
18.64167,69
18.65000,69
18.65833,68
18.66667,68
18.67500,68
18.68333,67
18.69167,67
18.70000,67
18.70833,66
18.71667,66
18.72500,66
18.73333,65
18.74167,65
18.75000,65
18.75833,65
18.76667,65
18.77500,65
18.78333,65
18.79167,65
18.80000,65
18.80833,65
18.81667,65
18.82500,66
18.83333,66
18.84167,66
18.85000,66
18.85833,66
18.86667,67
18.87500,67
18.88333,67
18.89167,67
18.90000,67
18.90833,67
18.91667,67
18.92500,67
18.93333,67
18.94167,67
18.95000,68
18.95833,68
18.96667,68
18.97500,68
18.98333,67
18.99167,67
19.00000,67
19.00833,67
19.01667,67
19.02500,67
19.03333,67
19.04167,66
19.05000,66
19.05833,66
19.06667,65
19.07500,65
19.08333,64
19.09167,63
19.10000,63
19.10833,62
19.11667,62
19.12500,61
19.13333,61
19.14167,60
19.15000,60
19.15833,59
19.16667,59
19.17500,58
19.18333,57
19.19167,57
19.20000,56
19.20833,55
19.21667,55
19.22500,54
19.23333,53
19.24167,52
19.25000,50
19.25833,49
19.26667,49
19.27500,48
19.28333,48
19.29167,48
19.30000,47
19.30833,47
19.31667,46
19.32500,45
19.33333,45
19.34167,44
19.35000,44
19.35833,43
19.36667,43
19.37500,42
19.38333,42
19.39167,41
19.40000,40
19.40833,40
19.41667,39
19.42500,39
19.43333,39
19.44167,39
19.45000,39
19.45833,38
19.46667,38
19.47500,38
19.48333,37
19.49167,37
19.50000,37
19.50833,36
19.51667,36
19.52500,36
19.53333,36
19.54167,36
19.55000,36
19.55833,35
19.56667,35
19.57500,35
19.58333,35
19.59167,34
19.60000,34
19.60833,34
19.61667,34
19.62500,33
19.63333,33
19.64167,33
19.65000,33
19.65833,33
19.66667,33
19.67500,33
19.68333,32
19.69167,32
19.70000,32
19.70833,31
19.71667,31
19.72500,31
19.73333,31
19.74167,31
19.75000,31
19.75833,30
19.76667,30
19.77500,30
19.78333,30
19.79167,29
19.80000,29
19.80833,29
19.81667,29
19.82500,28
19.83333,28
19.84167,28
19.85000,28
19.85833,29
19.86667,29
19.87500,29
19.88333,28
19.89167,27
19.90000,27
19.90833,26
19.91667,26
19.92500,26
19.93333,26
19.94167,26
19.95000,26
19.95833,26
19.96667,26
19.97500,25
19.98333,24
19.99167,24
20.00000,24
20.00833,24
20.01667,24
20.02500,23
20.03333,23
20.04167,23
20.05000,23
20.05833,23
20.06667,23
20.07500,23
20.08333,22
20.09167,22
20.10000,22
20.10833,22
20.11667,22
20.12500,22
20.13333,21
20.14167,21
20.15000,21
20.15833,21
20.16667,21
20.17500,21
20.18333,20
20.19167,20
20.20000,20
20.20833,20
20.21667,20
20.22500,20
20.23333,20
20.24167,20
20.25000,19
20.25833,19
20.26667,19
20.27500,19
20.28333,19
20.29167,19
20.30000,19
20.30833,19
20.31667,19
20.32500,19
20.33333,19
20.34167,19
20.35000,18
20.35833,18
20.36667,17
20.37500,17
20.38333,17
20.39167,17
20.40000,17
20.40833,17
20.41667,16
20.42500,16
20.43333,16
20.44167,16
20.45000,16
20.45833,16
20.46667,17
20.47500,17
20.48333,17
20.49167,18
20.50000,17
20.50833,17
20.51667,17
20.52500,17
20.53333,17
20.54167,17
20.55000,16
20.55833,16
20.56667,16
20.57500,16
20.58333,16
20.59167,16
20.60000,16
20.60833,16
20.61667,15
20.62500,15
20.63333,15
20.64167,15
20.65000,14
20.65833,14
20.66667,14
20.67500,14
20.68333,14
20.69167,14
20.70000,14
20.70833,14
20.71667,14
20.72500,14
20.73333,14
20.74167,14
20.75000,14
20.75833,15
20.76667,15
20.77500,15
20.78333,14
20.79167,14
20.80000,14
20.80833,14
20.81667,14
20.82500,14
20.83333,13
20.84167,13
20.85000,13
20.85833,13
20.86667,13
20.87500,13
20.88333,13
20.89167,13
20.90000,13
20.90833,13
20.91667,13
20.92500,13
20.93333,12
20.94167,12
20.95000,12
20.95833,12
20.96667,12
20.97500,11
20.98333,12
20.99167,12
21.00000,12
21.00833,12
21.01667,12
21.02500,12
21.03333,11
21.04167,11
21.05000,11
21.05833,11
21.06667,11
21.07500,10
21.08333,10
21.09167,10
21.10000,10
21.10833,10
21.11667,10
21.12500,10
21.13333,10
21.14167,10
21.15000,10
21.15833,10
21.16667,10
21.17500,10
21.18333,10
21.19167,10
21.20000,10
21.20833,9
21.21667,9
21.22500,9
21.23333,9
21.24167,8
21.25000,8
21.25833,8
21.26667,8
21.27500,8
21.28333,8
21.29167,8
21.30000,8
21.30833,9
21.31667,9
21.32500,9
21.33333,9
21.34167,9
21.35000,9
21.35833,9
21.36667,10
21.37500,10
21.38333,10
21.39167,11
21.40000,11
21.40833,12
21.41667,12
21.42500,12
21.43333,13
21.44167,13
21.45000,14
21.45833,15
21.46667,16
21.47500,17
21.48333,18
21.49167,20
21.50000,21
21.50833,23
21.51667,26
21.52500,28
21.53333,31
21.54167,34
21.55000,38
21.55833,42
21.56667,47
21.57500,53
21.58333,59
21.59167,66
21.60000,73
21.60833,82
21.61667,92
21.62500,103
21.63333,115
21.64167,128
21.65000,143
21.65833,160
21.66667,179
21.67500,199
21.68333,222
21.69167,247
21.70000,274
21.70833,304
21.71667,336
21.72500,372
21.73333,410
21.74167,451
21.75000,496
21.75833,545
21.76667,596
21.77500,651
21.78333,709
21.79167,771
21.80000,837
21.80833,906
21.81667,978
21.82500,1054
21.83333,1132
21.84167,1213
21.85000,1297
21.85833,1383
21.86667,1471
21.87500,1561
21.88333,1653
21.89167,1745
21.90000,1838
21.90833,1931
21.91667,2024
21.92500,2116
21.93333,2207
21.94167,2296
21.95000,2382
21.95833,2465
21.96667,2546
21.97500,2622
21.98333,2694
21.99167,2761
22.00000,2823
22.00833,2879
22.01667,2929
22.02500,2973
22.03333,3011
22.04167,3042
22.05000,3066
22.05833,3083
22.06667,3093
22.07500,3096
22.08333,3092
22.09167,3081
22.10000,3064
22.10833,3040
22.11667,3009
22.12500,2972
22.13333,2929
22.14167,2881
22.15000,2828
22.15833,2770
22.16667,2707
22.17500,2641
22.18333,2571
22.19167,2498
22.20000,2423
22.20833,2346
22.21667,2266
22.22500,2185
22.23333,2104
22.24167,2021
22.25000,1939
22.25833,1857
22.26667,1775
22.27500,1693
22.28333,1613
22.29167,1534
22.30000,1457
22.30833,1381
22.31667,1308
22.32500,1236
22.33333,1167
22.34167,1100
22.35000,1036
22.35833,974
22.36667,915
22.37500,858
22.38333,804
22.39167,752
22.40000,703
22.40833,657
22.41667,613
22.42500,571
22.43333,532
22.44167,494
22.45000,460
22.45833,428
22.46667,398
22.47500,369
22.48333,342
22.49167,317
22.50000,295
22.50833,273
22.51667,253
22.52500,235
22.53333,218
22.54167,202
22.55000,187
22.55833,173
22.56667,161
22.57500,149
22.58333,138
22.59167,129
22.60000,119
22.60833,111
22.61667,103
22.62500,96
22.63333,90
22.64167,84
22.65000,79
22.65833,74
22.66667,69
22.67500,65
22.68333,62
22.69167,58
22.70000,55
22.70833,52
22.71667,49
22.72500,46
22.73333,44
22.74167,41
22.75000,39
22.75833,38
22.76667,37
22.77500,35
22.78333,34
22.79167,32
22.80000,31
22.80833,29
22.81667,28
22.82500,27
22.83333,26
22.84167,25
22.85000,25
22.85833,24
22.86667,23
22.87500,23
22.88333,22
22.89167,22
22.90000,22
22.90833,21
22.91667,21
22.92500,20
22.93333,19
22.94167,19
22.95000,19
22.95833,18
22.96667,18
22.97500,17
22.98333,17
22.99167,17
23.00000,17
23.00833,17
23.01667,16
23.02500,16
23.03333,16
23.04167,16
23.05000,15
23.05833,15
23.06667,15
23.07500,15
23.08333,14
23.09167,15
23.10000,15
23.10833,15
23.11667,14
23.12500,14
23.13333,14
23.14167,14
23.15000,13
23.15833,13
23.16667,13
23.17500,13
23.18333,12
23.19167,12
23.20000,11
23.20833,11
23.21667,11
23.22500,11
23.23333,11
23.24167,11
23.25000,11
23.25833,11
23.26667,11
23.27500,11
23.28333,11
23.29167,11
23.30000,10
23.30833,10
23.31667,10
23.32500,10
23.33333,10
23.34167,10
23.35000,10
23.35833,9
23.36667,9
23.37500,9
23.38333,9
23.39167,9
23.40000,9
23.40833,9
23.41667,9
23.42500,8
23.43333,8
23.44167,7
23.45000,7
23.45833,7
23.46667,8
23.47500,8
23.48333,8
23.49167,8
23.50000,7
23.50833,7
23.51667,7
23.52500,6
23.53333,6
23.54167,6
23.55000,6
23.55833,7
23.56667,6
23.57500,6
23.58333,6
23.59167,6
23.60000,7
23.60833,7
23.61667,7
23.62500,7
23.63333,6
23.64167,6
23.65000,5
23.65833,5
23.66667,5
23.67500,5
23.68333,5
23.69167,5
23.70000,5
23.70833,5
23.71667,5
23.72500,5
23.73333,5
23.74167,5
23.75000,5
23.75833,5
23.76667,5
23.77500,5
23.78333,5
23.79167,5
23.80000,4
23.80833,4
23.81667,3
23.82500,3
23.83333,3
23.84167,3
23.85000,3
23.85833,3
23.86667,3
23.87500,4
23.88333,4
23.89167,3
23.90000,3
23.90833,3
23.91667,3
23.92500,3
23.93333,3
23.94167,3
23.95000,3
23.95833,3
23.96667,4
23.97500,4
23.98333,4
23.99167,4
24.00000,4
24.00833,3
24.01667,3
24.02500,3
24.03333,3
24.04167,3
24.05000,3
24.05833,3
24.06667,3
24.07500,3
24.08333,3
24.09167,3
24.10000,2
24.10833,2
24.11667,2
24.12500,2
24.13333,2
24.14167,2
24.15000,2
24.15833,2
24.16667,2
24.17500,2
24.18333,2
24.19167,2
24.20000,2
24.20833,2
24.21667,1
24.22500,1
24.23333,2
24.24167,2
24.25000,2
24.25833,2
24.26667,2
24.27500,2
24.28333,2
24.29167,2
24.30000,2
24.30833,2
24.31667,2
24.32500,2
24.33333,3
24.34167,3
24.35000,3
24.35833,3
24.36667,3
24.37500,3
24.38333,4
24.39167,4
24.40000,5
24.40833,5
24.41667,6
24.42500,6
24.43333,6
24.44167,7
24.45000,8
24.45833,8
24.46667,9
24.47500,11
24.48333,12
24.49167,13
24.50000,15
24.50833,17
24.51667,19
24.52500,21
24.53333,24
24.54167,26
24.55000,30
24.55833,33
24.56667,37
24.57500,41
24.58333,45
24.59167,50
24.60000,55
24.60833,60
24.61667,67
24.62500,73
24.63333,80
24.64167,89
24.65000,98
24.65833,108
24.66667,118
24.67500,130
24.68333,142
24.69167,155
24.70000,170
24.70833,185
24.71667,202
24.72500,219
24.73333,238
24.74167,257
24.75000,278
24.75833,299
24.76667,322
24.77500,346
24.78333,371
24.79167,397
24.80000,424
24.80833,452
24.81667,481
24.82500,511
24.83333,541
24.84167,573
24.85000,605
24.85833,638
24.86667,670
24.87500,703
24.88333,736
24.89167,770
24.90000,803
24.90833,835
24.91667,868
24.92500,899
24.93333,930
24.94167,961
24.95000,990
24.95833,1018
24.96667,1044
24.97500,1069
24.98333,1093
24.99167,1115
25.00000,1135
25.00833,1154
25.01667,1170
25.02500,1184
25.03333,1195
25.04167,1205
25.05000,1213
25.05833,1218
25.06667,1221
25.07500,1222
25.08333,1220
25.09167,1216
25.10000,1211
25.10833,1202
25.11667,1192
25.12500,1179
25.13333,1165
25.14167,1148
25.15000,1130
25.15833,1110
25.16667,1088
25.17500,1065
25.18333,1040
25.19167,1014
25.20000,987
25.20833,959
25.21667,930
25.22500,901
25.23333,871
25.24167,842
25.25000,812
25.25833,782
25.26667,751
25.27500,721
25.28333,691
25.29167,661
25.30000,632
25.30833,603
25.31667,574
25.32500,546
25.33333,518
25.34167,491
25.35000,465
25.35833,440
25.36667,416
25.37500,392
25.38333,369
25.39167,348
25.40000,327
25.40833,307
25.41667,288
25.42500,270
25.43333,253
25.44167,236
25.45000,221
25.45833,206
25.46667,192
25.47500,179
25.48333,166
25.49167,155
25.50000,144
25.50833,133
25.51667,124
25.52500,115
25.53333,107
25.54167,99
25.55000,92
25.55833,85
25.56667,78
25.57500,73
25.58333,68
25.59167,63
25.60000,58
25.60833,54
25.61667,50
25.62500,46
25.63333,43
25.64167,40
25.65000,37
25.65833,35
25.66667,32
25.67500,30
25.68333,28
25.69167,26
25.70000,25
25.70833,23
25.71667,22
25.72500,21
25.73333,19
25.74167,18
25.75000,17
25.75833,16
25.76667,15
25.77500,14
25.78333,13
25.79167,12
25.80000,12
25.80833,11
25.81667,11
25.82500,10
25.83333,10
25.84167,10
25.85000,9
25.85833,8
25.86667,8
25.87500,8
25.88333,8
25.89167,8
25.90000,8
25.90833,7
25.91667,7
25.92500,7
25.93333,7
25.94167,7
25.95000,7
25.95833,7
25.96667,7
25.97500,6
25.98333,6
25.99167,6
26.00000,5
26.00833,5
26.01667,5
26.02500,5
26.03333,5
26.04167,5
26.05000,5
26.05833,4
26.06667,4
26.07500,3
26.08333,3
26.09167,3
26.10000,3
26.10833,3
26.11667,3
26.12500,3
26.13333,3
26.14167,3
26.15000,3
26.15833,4
26.16667,4
26.17500,4
26.18333,4
26.19167,4
26.20000,4
26.20833,4
26.21667,4
26.22500,4
26.23333,4
26.24167,4
26.25000,3
26.25833,3
26.26667,3
26.27500,3
26.28333,3
26.29167,3
26.30000,3
26.30833,3
26.31667,3
26.32500,3
26.33333,3
26.34167,3
26.35000,3
26.35833,2
26.36667,2
26.37500,2
26.38333,2
26.39167,2
26.40000,2
26.40833,3
26.41667,3
26.42500,3
26.43333,3
26.44167,3
26.45000,2
26.45833,2
26.46667,2
26.47500,2
26.48333,2
26.49167,1
26.50000,1
26.50833,1
26.51667,2
26.52500,2
26.53333,3
26.54167,3
26.55000,3
26.55833,2
26.56667,2
26.57500,2
26.58333,2
26.59167,2
26.60000,2
26.60833,2
26.61667,2
26.62500,2
26.63333,2
26.64167,2
26.65000,2
26.65833,2
26.66667,2
26.67500,2
26.68333,2
26.69167,2
26.70000,2
26.70833,2
26.71667,2
26.72500,2
26.73333,2
26.74167,3
26.75000,3
26.75833,3
26.76667,3
26.77500,3
26.78333,3
26.79167,2
26.80000,3
26.80833,3
26.81667,3
26.82500,3
26.83333,3
26.84167,3
26.85000,3
26.85833,3
26.86667,3
26.87500,3
26.88333,3
26.89167,3
26.90000,3
26.90833,3
26.91667,3
26.92500,3
26.93333,3
26.94167,3
26.95000,3
26.95833,3
26.96667,3
26.97500,3
26.98333,3
26.99167,3
27.00000,3
27.00833,3
27.01667,3
27.02500,3
27.03333,3
27.04167,3
27.05000,3
27.05833,3
27.06667,3
27.07500,3
27.08333,2
27.09167,3
27.10000,3
27.10833,3
27.11667,3
27.12500,3
27.13333,3
27.14167,2
27.15000,2
27.15833,2
27.16667,2
27.17500,3
27.18333,3
27.19167,3
27.20000,3
27.20833,3
27.21667,3
27.22500,2
27.23333,2
27.24167,2
27.25000,2
27.25833,2
27.26667,2
27.27500,3
27.28333,3
27.29167,3
27.30000,3
27.30833,3
27.31667,3
27.32500,3
27.33333,3
27.34167,3
27.35000,3
27.35833,3
27.36667,3
27.37500,3
27.38333,3
27.39167,3
27.40000,3
27.40833,2
27.41667,2
27.42500,2
27.43333,2
27.44167,2
27.45000,3
27.45833,3
27.46667,3
27.47500,3
27.48333,3
27.49167,2
27.50000,2
27.50833,2
27.51667,2
27.52500,2
27.53333,2
27.54167,2
27.55000,2
27.55833,2
27.56667,1
27.57500,1
27.58333,1
27.59167,2
27.60000,2
27.60833,2
27.61667,2
27.62500,2
27.63333,2
27.64167,2
27.65000,2
27.65833,2
27.66667,2
27.67500,2
27.68333,2
27.69167,2
27.70000,2
27.70833,2
27.71667,1
27.72500,1
27.73333,1
27.74167,1
27.75000,1
27.75833,1
27.76667,0
27.77500,0
27.78333,-0
27.79167,-1
27.80000,-1
27.80833,-1
27.81667,-1
27.82500,-2
27.83333,-2
27.84167,-2
27.85000,-3
27.85833,-3
27.86667,-4
27.87500,-4
27.88333,-5
27.89167,-6
27.90000,-7
27.90833,-8
27.91667,-9
27.92500,-9
27.93333,-10
27.94167,-11
27.95000,-12
27.95833,-14
27.96667,-15
27.97500,-16
27.98333,-18
27.99167,-20
28.00000,-21
28.00833,-23
28.01667,-25
28.02500,-26
28.03333,-29
28.04167,-30
28.05000,-32
28.05833,-34
28.06667,-36
28.07500,-38
28.08333,-40
28.09167,-43
28.10000,-46
28.10833,-49
28.11667,-52
28.12500,-54
28.13333,-57
28.14167,-60
28.15000,-63
28.15833,-66
28.16667,-69
28.17500,-72
28.18333,-75
28.19167,-78
28.20000,-81
28.20833,-84
28.21667,-87
28.22500,-89
28.23333,-92
28.24167,-95
28.25000,-98
28.25833,-101
28.26667,-104
28.27500,-106
28.28333,-109
28.29167,-111
28.30000,-114
28.30833,-117
28.31667,-120
28.32500,-122
28.33333,-124
28.34167,-126
28.35000,-128
28.35833,-130
28.36667,-132
28.37500,-133
28.38333,-135
28.39167,-136
28.40000,-137
28.40833,-138
28.41667,-138
28.42500,-139
28.43333,-139
28.44167,-139
28.45000,-139
28.45833,-139
28.46667,-139
28.47500,-139
28.48333,-138
28.49167,-138
28.50000,-137
28.50833,-136
28.51667,-135
28.52500,-134
28.53333,-133
28.54167,-131
28.55000,-129
28.55833,-127
28.56667,-125
28.57500,-123
28.58333,-121
28.59167,-118
28.60000,-116
28.60833,-114
28.61667,-112
28.62500,-109
28.63333,-107
28.64167,-104
28.65000,-102
28.65833,-99
28.66667,-97
28.67500,-94
28.68333,-92
28.69167,-90
28.70000,-87
28.70833,-85
28.71667,-82
28.72500,-80
28.73333,-77
28.74167,-75
28.75000,-73
28.75833,-70
28.76667,-68
28.77500,-66
28.78333,-64
28.79167,-61
28.80000,-59
28.80833,-57
28.81667,-55
28.82500,-52
28.83333,-50
28.84167,-48
28.85000,-46
28.85833,-45
28.86667,-43
28.87500,-41
28.88333,-40
28.89167,-39
28.90000,-37
28.90833,-36
28.91667,-34
28.92500,-33
28.93333,-32
28.94167,-31
28.95000,-30
28.95833,-29
28.96667,-28
28.97500,-27
28.98333,-26
28.99167,-25
29.00000,-24
29.00833,-24
29.01667,-23
29.02500,-22
29.03333,-21
29.04167,-20
29.05000,-19
29.05833,-19
29.06667,-18
29.07500,-17
29.08333,-17
29.09167,-16
29.10000,-16
29.10833,-16
29.11667,-15
29.12500,-15
29.13333,-15
29.14167,-14
29.15000,-14
29.15833,-13
29.16667,-12
29.17500,-12
29.18333,-11
29.19167,-11
29.20000,-11
29.20833,-11
29.21667,-11
29.22500,-11
29.23333,-11
29.24167,-11
29.25000,-11
29.25833,-11
29.26667,-11
29.27500,-11
29.28333,-11
29.29167,-10
29.30000,-10
29.30833,-10
29.31667,-9
29.32500,-9
29.33333,-9
29.34167,-9
29.35000,-9
29.35833,-9
29.36667,-9
29.37500,-9
29.38333,-9
29.39167,-9
29.40000,-9
29.40833,-9
29.41667,-9
29.42500,-9
29.43333,-9
29.44167,-9
29.45000,-9
29.45833,-9
29.46667,-9
29.47500,-10
29.48333,-10
29.49167,-10
29.50000,-10
29.50833,-10
29.51667,-10
29.52500,-10
29.53333,-10
29.54167,-11
29.55000,-11
29.55833,-11
29.56667,-11
29.57500,-11
29.58333,-11
29.59167,-12
29.60000,-12
29.60833,-12
29.61667,-13
29.62500,-13
29.63333,-14
29.64167,-14
29.65000,-14
29.65833,-14
29.66667,-15
29.67500,-15
29.68333,-16
29.69167,-16
29.70000,-17
29.70833,-17
29.71667,-18
29.72500,-18
29.73333,-18
29.74167,-19
29.75000,-20
29.75833,-20
29.76667,-21
29.77500,-22
29.78333,-23
29.79167,-24
29.80000,-24
29.80833,-25
29.81667,-26
29.82500,-27
29.83333,-28
29.84167,-28
29.85000,-29
29.85833,-30
29.86667,-32
29.87500,-33
29.88333,-34
29.89167,-35
29.90000,-36
29.90833,-37
29.91667,-38
29.92500,-39
29.93333,-40
29.94167,-41
29.95000,-42
29.95833,-43
29.96667,-44
29.97500,-45
29.98333,-46
29.99167,-47
30.00000,-48
30.00833,-49
30.01667,-49
30.02500,-50
30.03333,-51
30.04167,-52
30.05000,-52
30.05833,-53
30.06667,-54
30.07500,-54
30.08333,-55
30.09167,-55
30.10000,-55
30.10833,-56
30.11667,-56
30.12500,-57
30.13333,-57
30.14167,-57
30.15000,-58
30.15833,-58
30.16667,-58
30.17500,-58
30.18333,-58
30.19167,-59
30.20000,-59
30.20833,-59
30.21667,-59
30.22500,-59
30.23333,-59
30.24167,-58
30.25000,-58
30.25833,-58
30.26667,-57
30.27500,-57
30.28333,-56
30.29167,-56
30.30000,-55
30.30833,-55
30.31667,-54
30.32500,-54
30.33333,-54
30.34167,-53
30.35000,-52
30.35833,-51
30.36667,-51
30.37500,-50
30.38333,-49
30.39167,-49
30.40000,-48
30.40833,-47
30.41667,-46
30.42500,-45
30.43333,-44
30.44167,-43
30.45000,-42
30.45833,-42
30.46667,-41
30.47500,-40
30.48333,-39
30.49167,-38
30.50000,-37
30.50833,-36
30.51667,-35
30.52500,-34
30.53333,-33
30.54167,-33
30.55000,-32
30.55833,-31
30.56667,-31
30.57500,-30
30.58333,-29
30.59167,-28
30.60000,-28
30.60833,-27
30.61667,-27
30.62500,-26
30.63333,-26
30.64167,-25
30.65000,-24
30.65833,-24
30.66667,-24
30.67500,-24
30.68333,-23
30.69167,-23
30.70000,-22
30.70833,-21
30.71667,-20
30.72500,-20
30.73333,-20
30.74167,-20
30.75000,-20
30.75833,-19
30.76667,-19
30.77500,-19
30.78333,-18
30.79167,-18
30.80000,-17
30.80833,-17
30.81667,-16
30.82500,-16
30.83333,-16
30.84167,-15
30.85000,-15
30.85833,-15
30.86667,-15
30.87500,-15
30.88333,-15
30.89167,-15
30.90000,-15
30.90833,-15
30.91667,-14
30.92500,-14
30.93333,-14
30.94167,-14
30.95000,-14
30.95833,-13
30.96667,-13
30.97500,-13
30.98333,-13
30.99167,-13
31.00000,-13
31.00833,-13
31.01667,-13
31.02500,-13
31.03333,-13
31.04167,-13
31.05000,-13
31.05833,-12
31.06667,-12
31.07500,-12
31.08333,-13
31.09167,-13
31.10000,-13
31.10833,-13
31.11667,-13
31.12500,-13
31.13333,-13
31.14167,-13
31.15000,-13
31.15833,-13
31.16667,-13
31.17500,-13
31.18333,-13
31.19167,-13
31.20000,-13
31.20833,-13
31.21667,-12
31.22500,-12
31.23333,-12
31.24167,-11
31.25000,-11
31.25833,-11
31.26667,-11
31.27500,-11
31.28333,-12
31.29167,-11
31.30000,-11
31.30833,-11
31.31667,-12
31.32500,-12
31.33333,-12
31.34167,-12
31.35000,-13
31.35833,-12
31.36667,-12
31.37500,-12
31.38333,-12
31.39167,-12
31.40000,-12
31.40833,-12
31.41667,-12
31.42500,-12
31.43333,-12
31.44167,-12
31.45000,-11
31.45833,-11
31.46667,-11
31.47500,-11
31.48333,-11
31.49167,-11
31.50000,-11
31.50833,-11
31.51667,-11
31.52500,-11
31.53333,-11
31.54167,-12
31.55000,-11
31.55833,-11
31.56667,-11
31.57500,-11
31.58333,-11
31.59167,-11
31.60000,-11
31.60833,-11
31.61667,-11
31.62500,-11
31.63333,-11
31.64167,-11
31.65000,-11
31.65833,-11
31.66667,-10
31.67500,-10
31.68333,-11
31.69167,-10
31.70000,-10
31.70833,-11
31.71667,-11
31.72500,-12
31.73333,-12
31.74167,-11
31.75000,-11
31.75833,-12
31.76667,-12
31.77500,-12
31.78333,-12
31.79167,-11
31.80000,-11
31.80833,-11
31.81667,-11
31.82500,-11
31.83333,-11
31.84167,-11
31.85000,-11
31.85833,-11
31.86667,-11
31.87500,-11
31.88333,-11
31.89167,-11
31.90000,-12
31.90833,-12
31.91667,-12
31.92500,-12
31.93333,-12
31.94167,-11
31.95000,-11
31.95833,-11
31.96667,-11
31.97500,-11
31.98333,-11
31.99167,-11
32.00000,-11
32.00833,-10
32.01667,-10
32.02500,-10
32.03333,-10
32.04167,-10
32.05000,-11
32.05833,-11
32.06667,-11
32.07500,-11
32.08333,-11
32.09167,-11
32.10000,-12
32.10833,-12
32.11667,-12
32.12500,-12
32.13333,-12
32.14167,-12
32.15000,-12
32.15833,-12
32.16667,-12
32.17500,-12
32.18333,-12
32.19167,-12
32.20000,-12
32.20833,-12
32.21667,-12
32.22500,-11
32.23333,-11
32.24167,-12
32.25000,-12
32.25833,-12
32.26667,-12
32.27500,-12
32.28333,-11
32.29167,-11
32.30000,-11
32.30833,-11
32.31667,-11
32.32500,-11
32.33333,-12
32.34167,-12
32.35000,-12
32.35833,-12
32.36667,-12
32.37500,-12
32.38333,-12
32.39167,-12
32.40000,-13
32.40833,-13
32.41667,-13
32.42500,-12
32.43333,-12
32.44167,-12
32.45000,-12
32.45833,-12
32.46667,-12
32.47500,-12
32.48333,-12
32.49167,-12
32.50000,-12
32.50833,-12
32.51667,-12
32.52500,-12
32.53333,-12
32.54167,-11
32.55000,-11
32.55833,-11
32.56667,-11
32.57500,-11
32.58333,-12
32.59167,-12
32.60000,-12
32.60833,-12
32.61667,-12
32.62500,-12
32.63333,-12
32.64167,-12
32.65000,-12
32.65833,-12
32.66667,-12
32.67500,-12
32.68333,-12
32.69167,-12
32.70000,-12
32.70833,-12
32.71667,-12
32.72500,-12
32.73333,-12
32.74167,-12
32.75000,-12
32.75833,-12
32.76667,-12
32.77500,-12
32.78333,-12
32.79167,-12
32.80000,-12
32.80833,-12
32.81667,-13
32.82500,-13
32.83333,-12
32.84167,-12
32.85000,-12
32.85833,-12
32.86667,-12
32.87500,-12
32.88333,-12
32.89167,-12
32.90000,-12
32.90833,-12
32.91667,-12
32.92500,-12
32.93333,-12
32.94167,-12
32.95000,-12
32.95833,-12
32.96667,-12
32.97500,-12
32.98333,-12
32.99167,-12
33.00000,-12
33.00833,-12
33.01667,-12
33.02500,-12
33.03333,-13
33.04167,-13
33.05000,-13
33.05833,-13
33.06667,-13
33.07500,-14
33.08333,-14
33.09167,-13
33.10000,-13
33.10833,-13
33.11667,-13
33.12500,-13
33.13333,-12
33.14167,-12
33.15000,-12
33.15833,-12
33.16667,-12
33.17500,-12
33.18333,-12
33.19167,-12
33.20000,-11
33.20833,-11
33.21667,-12
33.22500,-12
33.23333,-12
33.24167,-12
33.25000,-12
33.25833,-12
33.26667,-12
33.27500,-13
33.28333,-13
33.29167,-12
33.30000,-12
33.30833,-12
33.31667,-12
33.32500,-12
33.33333,-13
33.34167,-13
33.35000,-12
33.35833,-12
33.36667,-12
33.37500,-12
33.38333,-12
33.39167,-12
33.40000,-12
33.40833,-12
33.41667,-12
33.42500,-12
33.43333,-12
33.44167,-12
33.45000,-12
33.45833,-12
33.46667,-12
33.47500,-12
33.48333,-12
33.49167,-12
33.50000,-12
33.50833,-12
33.51667,-12
33.52500,-12
33.53333,-12
33.54167,-12
33.55000,-12
33.55833,-12
33.56667,-12
33.57500,-13
33.58333,-13
33.59167,-12
33.60000,-12
33.60833,-12
33.61667,-12
33.62500,-12
33.63333,-13
33.64167,-13
33.65000,-13
33.65833,-13
33.66667,-13
33.67500,-13
33.68333,-13
33.69167,-13
33.70000,-13
33.70833,-13
33.71667,-13
33.72500,-12
33.73333,-12
33.74167,-12
33.75000,-12
33.75833,-12
33.76667,-12
33.77500,-12
33.78333,-12
33.79167,-12
33.80000,-12
33.80833,-12
33.81667,-13
33.82500,-13
33.83333,-13
33.84167,-13
33.85000,-14
33.85833,-14
33.86667,-14
33.87500,-14
33.88333,-14
33.89167,-14
33.90000,-13
33.90833,-14
33.91667,-14
33.92500,-14
33.93333,-14
33.94167,-14
33.95000,-13
33.95833,-13
33.96667,-13
33.97500,-13
33.98333,-13
33.99167,-12
34.00000,-12
34.00833,-12
34.01667,-12
34.02500,-13
34.03333,-13
34.04167,-13
34.05000,-13
34.05833,-13
34.06667,-13
34.07500,-13
34.08333,-13
34.09167,-13
34.10000,-14
34.10833,-14
34.11667,-14
34.12500,-14
34.13333,-14
34.14167,-14
34.15000,-14
34.15833,-14
34.16667,-14
34.17500,-14
34.18333,-14
34.19167,-14
34.20000,-14
34.20833,-14
34.21667,-14
34.22500,-14
34.23333,-14
34.24167,-15
34.25000,-15
34.25833,-15
34.26667,-15
34.27500,-15
34.28333,-15
34.29167,-15
34.30000,-15
34.30833,-14
34.31667,-15
34.32500,-15
34.33333,-15
34.34167,-14
34.35000,-14
34.35833,-14
34.36667,-14
34.37500,-13
34.38333,-14
34.39167,-14
34.40000,-13
34.40833,-14
34.41667,-14
34.42500,-14
34.43333,-14
34.44167,-14
34.45000,-14
34.45833,-14
34.46667,-14
34.47500,-14
34.48333,-14
34.49167,-13
34.50000,-13
34.50833,-13
34.51667,-13
34.52500,-13
34.53333,-14
34.54167,-14
34.55000,-14
34.55833,-15
34.56667,-15
34.57500,-15
34.58333,-15
34.59167,-15
34.60000,-15
34.60833,-14
34.61667,-14
34.62500,-14
34.63333,-14
34.64167,-14
34.65000,-14
34.65833,-14
34.66667,-14
34.67500,-14
34.68333,-14
34.69167,-14
34.70000,-14
34.70833,-14
34.71667,-15
34.72500,-15
34.73333,-14
34.74167,-14
34.75000,-15
34.75833,-15
34.76667,-15
34.77500,-15
34.78333,-15
34.79167,-15
34.80000,-15
34.80833,-15
34.81667,-15
34.82500,-15
34.83333,-15
34.84167,-15
34.85000,-15
34.85833,-15
34.86667,-15
34.87500,-15
34.88333,-15
34.89167,-15
34.90000,-15
34.90833,-15
34.91667,-15
34.92500,-15
34.93333,-15
34.94167,-15
34.95000,-15
34.95833,-15
34.96667,-15
34.97500,-15
34.98333,-15
34.99167,-15
35.00000,-15
35.00833,-15
35.01667,-15
35.02500,-15
35.03333,-15
35.04167,-15
35.05000,-14
35.05833,-14
35.06667,-15
35.07500,-15
35.08333,-15
35.09167,-15
35.10000,-15
35.10833,-15
35.11667,-16
35.12500,-16
35.13333,-16
35.14167,-15
35.15000,-15
35.15833,-15
35.16667,-15
35.17500,-15
35.18333,-15
35.19167,-15
35.20000,-15
35.20833,-15
35.21667,-15
35.22500,-15
35.23333,-15
35.24167,-15
35.25000,-15
35.25833,-15
35.26667,-15
35.27500,-15
35.28333,-15
35.29167,-15
35.30000,-15
35.30833,-15
35.31667,-16
35.32500,-16
35.33333,-15
35.34167,-15
35.35000,-16
35.35833,-16
35.36667,-16
35.37500,-16
35.38333,-16
35.39167,-16
35.40000,-16
35.40833,-16
35.41667,-16
35.42500,-16
35.43333,-16
35.44167,-16
35.45000,-16
35.45833,-16
35.46667,-16
35.47500,-16
35.48333,-16
35.49167,-16
35.50000,-16
35.50833,-15
35.51667,-16
35.52500,-16
35.53333,-16
35.54167,-16
35.55000,-16
35.55833,-16
35.56667,-16
35.57500,-16
35.58333,-16
35.59167,-16
35.60000,-16
35.60833,-16
35.61667,-16
35.62500,-16
35.63333,-16
35.64167,-16
35.65000,-16
35.65833,-16
35.66667,-16
35.67500,-17
35.68333,-17
35.69167,-17
35.70000,-17
35.70833,-17
35.71667,-16
35.72500,-17
35.73333,-16
35.74167,-16
35.75000,-16
35.75833,-16
35.76667,-16
35.77500,-16
35.78333,-16
35.79167,-16
35.80000,-16
35.80833,-16
35.81667,-16
35.82500,-16
35.83333,-16
35.84167,-15
35.85000,-15
35.85833,-15
35.86667,-16
35.87500,-16
35.88333,-16
35.89167,-16
35.90000,-16
35.90833,-16
35.91667,-16
35.92500,-16
35.93333,-16
35.94167,-16
35.95000,-17
35.95833,-17
35.96667,-17
35.97500,-17
35.98333,-17
35.99167,-17
36.00000,-17
36.00833,-17
36.01667,-17
36.02500,-17
36.03333,-17
36.04167,-17
36.05000,-16
36.05833,-16
36.06667,-16
36.07500,-16
36.08333,-16
36.09167,-17
36.10000,-17
36.10833,-17
36.11667,-17
36.12500,-17
36.13333,-17
36.14167,-17
36.15000,-17
36.15833,-17
36.16667,-17
36.17500,-18
36.18333,-18
36.19167,-18
36.20000,-18
36.20833,-18
36.21667,-18
36.22500,-17
36.23333,-17
36.24167,-17
36.25000,-17
36.25833,-17
36.26667,-17
36.27500,-17
36.28333,-17
36.29167,-17
36.30000,-17
36.30833,-18
36.31667,-18
36.32500,-18
36.33333,-18
36.34167,-19
36.35000,-19
36.35833,-18
36.36667,-18
36.37500,-18
36.38333,-17
36.39167,-17
36.40000,-18
36.40833,-18
36.41667,-18
36.42500,-18
36.43333,-17
36.44167,-17
36.45000,-17
36.45833,-17
36.46667,-17
36.47500,-17
36.48333,-17
36.49167,-17
36.50000,-18
36.50833,-18
36.51667,-18
36.52500,-17
36.53333,-17
36.54167,-17
36.55000,-16
36.55833,-16
36.56667,-16
36.57500,-16
36.58333,-17
36.59167,-17
36.60000,-17
36.60833,-17
36.61667,-17
36.62500,-17
36.63333,-17
36.64167,-17
36.65000,-17
36.65833,-17
36.66667,-17
36.67500,-17
36.68333,-17
36.69167,-17
36.70000,-17
36.70833,-17
36.71667,-17
36.72500,-17
36.73333,-17
36.74167,-16
36.75000,-16
36.75833,-16
36.76667,-16
36.77500,-16
36.78333,-16
36.79167,-16
36.80000,-16
36.80833,-16
36.81667,-16
36.82500,-16
36.83333,-16
36.84167,-17
36.85000,-17
36.85833,-17
36.86667,-16
36.87500,-16
36.88333,-16
36.89167,-16
36.90000,-16
36.90833,-16
36.91667,-16
36.92500,-16
36.93333,-16
36.94167,-16
36.95000,-16
36.95833,-16
36.96667,-16
36.97500,-16
36.98333,-16
36.99167,-16
37.00000,-16
37.00833,-16
37.01667,-16
37.02500,-16
37.03333,-16
37.04167,-16
37.05000,-16
37.05833,-16
37.06667,-16
37.07500,-16
37.08333,-16
37.09167,-16
37.10000,-16
37.10833,-16
37.11667,-16
37.12500,-16
37.13333,-16
37.14167,-16
37.15000,-16
37.15833,-16
37.16667,-16
37.17500,-16
37.18333,-16
37.19167,-16
37.20000,-16
37.20833,-16
37.21667,-16
37.22500,-16
37.23333,-16
37.24167,-16
37.25000,-16
37.25833,-16
37.26667,-16
37.27500,-16
37.28333,-16
37.29167,-16
37.30000,-16
37.30833,-16
37.31667,-16
37.32500,-16
37.33333,-16
37.34167,-16
37.35000,-16
37.35833,-17
37.36667,-17
37.37500,-17
37.38333,-17
37.39167,-17
37.40000,-17
37.40833,-17
37.41667,-17
37.42500,-17
37.43333,-17
37.44167,-17
37.45000,-16
37.45833,-16
37.46667,-16
37.47500,-16
37.48333,-16
37.49167,-16
37.50000,-17
37.50833,-17
37.51667,-17
37.52500,-17
37.53333,-17
37.54167,-17
37.55000,-17
37.55833,-17
37.56667,-17
37.57500,-17
37.58333,-17
37.59167,-16
37.60000,-16
37.60833,-16
37.61667,-16
37.62500,-16
37.63333,-16
37.64167,-17
37.65000,-17
37.65833,-17
37.66667,-17
37.67500,-17
37.68333,-17
37.69167,-17
37.70000,-17
37.70833,-17
37.71667,-17
37.72500,-17
37.73333,-17
37.74167,-18
37.75000,-18
37.75833,-18
37.76667,-18
37.77500,-18
37.78333,-18
37.79167,-18
37.80000,-18
37.80833,-18
37.81667,-18
37.82500,-18
37.83333,-19
37.84167,-19
37.85000,-19
37.85833,-19
37.86667,-18
37.87500,-18
37.88333,-18
37.89167,-18
37.90000,-18
37.90833,-18
37.91667,-18
37.92500,-18
37.93333,-18
37.94167,-19
37.95000,-19
37.95833,-19
37.96667,-19
37.97500,-19
37.98333,-18
37.99167,-17
38.00000,-17
38.00833,-17
38.01667,-17
38.02500,-17
38.03333,-18
38.04167,-18
38.05000,-18
38.05833,-18
38.06667,-18
38.07500,-18
38.08333,-18
38.09167,-18
38.10000,-18
38.10833,-18
38.11667,-18
38.12500,-18
38.13333,-18
38.14167,-18
38.15000,-18
38.15833,-18
38.16667,-18
38.17500,-18
38.18333,-18
38.19167,-18
38.20000,-18
38.20833,-18
38.21667,-18
38.22500,-18
38.23333,-18
38.24167,-18
38.25000,-18
38.25833,-18
38.26667,-18
38.27500,-19
38.28333,-19
38.29167,-19
38.30000,-19
38.30833,-19
38.31667,-20
38.32500,-20
38.33333,-19
38.34167,-19
38.35000,-19
38.35833,-19
38.36667,-18
38.37500,-18
38.38333,-18
38.39167,-18
38.40000,-18
38.40833,-18
38.41667,-18
38.42500,-18
38.43333,-17
38.44167,-18
38.45000,-18
38.45833,-18
38.46667,-18
38.47500,-18
38.48333,-18
38.49167,-18
38.50000,-18
38.50833,-19
38.51667,-18
38.52500,-18
38.53333,-18
38.54167,-18
38.55000,-18
38.55833,-18
38.56667,-18
38.57500,-18
38.58333,-18
38.59167,-18
38.60000,-18
38.60833,-18
38.61667,-18
38.62500,-18
38.63333,-18
38.64167,-18
38.65000,-18
38.65833,-18
38.66667,-18
38.67500,-19
38.68333,-19
38.69167,-19
38.70000,-19
38.70833,-19
38.71667,-19
38.72500,-19
38.73333,-19
38.74167,-19
38.75000,-19
38.75833,-19
38.76667,-19
38.77500,-18
38.78333,-18
38.79167,-18
38.80000,-18
38.80833,-18
38.81667,-18
38.82500,-18
38.83333,-18
38.84167,-18
38.85000,-18
38.85833,-18
38.86667,-18
38.87500,-18
38.88333,-19
38.89167,-19
38.90000,-19
38.90833,-19
38.91667,-19
38.92500,-19
38.93333,-19
38.94167,-19
38.95000,-19
38.95833,-19
38.96667,-19
38.97500,-19
38.98333,-19
38.99167,-18
39.00000,-18
39.00833,-18
39.01667,-18
39.02500,-18
39.03333,-18
39.04167,-18
39.05000,-19
39.05833,-19
39.06667,-19
39.07500,-19
39.08333,-19
39.09167,-19
39.10000,-19
39.10833,-19
39.11667,-19
39.12500,-18
39.13333,-18
39.14167,-18
39.15000,-18
39.15833,-18
39.16667,-18
39.17500,-18
39.18333,-18
39.19167,-18
39.20000,-18
39.20833,-18
39.21667,-18
39.22500,-18
39.23333,-19
39.24167,-19
39.25000,-19
39.25833,-19
39.26667,-19
39.27500,-19
39.28333,-19
39.29167,-19
39.30000,-19
39.30833,-19
39.31667,-19
39.32500,-19
39.33333,-19
39.34167,-19
39.35000,-18
39.35833,-19
39.36667,-19
39.37500,-19
39.38333,-19
39.39167,-18
39.40000,-18
39.40833,-19
39.41667,-19
39.42500,-19
39.43333,-20
39.44167,-20
39.45000,-20
39.45833,-20
39.46667,-20
39.47500,-19
39.48333,-19
39.49167,-19
39.50000,-19
39.50833,-19
39.51667,-19
39.52500,-19
39.53333,-20
39.54167,-20
39.55000,-20
39.55833,-20
39.56667,-20
39.57500,-20
39.58333,-20
39.59167,-20
39.60000,-20
39.60833,-20
39.61667,-20
39.62500,-20
39.63333,-20
39.64167,-19
39.65000,-19
39.65833,-19
39.66667,-19
39.67500,-19
39.68333,-19
39.69167,-19
39.70000,-19
39.70833,-19
39.71667,-18
39.72500,-18
39.73333,-19
39.74167,-19
39.75000,-19
39.75833,-19
39.76667,-19
39.77500,-19
39.78333,-19
39.79167,-19
39.80000,-19
39.80833,-19
39.81667,-19
39.82500,-19
39.83333,-19
39.84167,-19
39.85000,-19
39.85833,-19
39.86667,-19
39.87500,-19
39.88333,-19
39.89167,-19
39.90000,-19
39.90833,-19
39.91667,-19
39.92500,-19
39.93333,-19
39.94167,-19
39.95000,-19
39.95833,-19
39.96667,-19
39.97500,-19
39.98333,-20
39.99167,-20
40.00000,-20

