[Header]
Application Name,LabSolutions
Version,5.97 SP1
Data File Name,C:\Users\cremerlab\Desktop\griffin\2021-04-03_buffer_calibration\2021-04-03_buffer_calibration_432021_006_006.lcd
Output Date,4/3/2021
Output Time,6:04:34 PM

[File Information]
Type,Data File
Generated,4/3/2021 5:24:16 PM
Generated by,System Administrator
Modified,4/3/2021 6:04:34 PM
Modified by,System Administrator

[Sample Information]
Operator Name,System Administrator
Acquired,4/3/2021 5:24:34 PM
Sample Type,1:Standard
Level,6
Sample Name,2021-04-02_NC_glucose_glycerol_acetate_calibration_05mM
Sample ID,006
ISTD Amount1,1
ISTD Amount2,1
ISTD Amount3,1
ISTD Amount4,1
ISTD Amount5,1
ISTD Amount6,1
ISTD Amount7,1
ISTD Amount8,1
ISTD Amount9,1
ISTD Amount10,1
ISTD Amount11,1
ISTD Amount12,1
ISTD Amount13,1
ISTD Amount14,1
ISTD Amount15,1
ISTD Amount16,1
ISTD Amount17,1
ISTD Amount18,1
ISTD Amount19,1
ISTD Amount20,1
ISTD Amount21,1
ISTD Amount22,1
ISTD Amount23,1
ISTD Amount24,1
ISTD Amount25,1
ISTD Amount26,1
ISTD Amount27,1
ISTD Amount28,1
ISTD Amount29,1
ISTD Amount30,1
ISTD Amount31,1
ISTD Amount32,1
Sample Amount,1
Dilution Factor,1
Vial#,6
Injection Volume,20

[Original Files]
Data File,C:\Users\cremerlab\Desktop\griffin\2021-04-03_buffer_calibration\2021-04-03_buffer_calibration_432021_006_006.lcd
Method File,C:\LabSolutions\Data\Project1\organicacidsetc2.lcm
Batch File,C:\Users\cremerlab\Desktop\griffin\2021-04-03_buffer_calibration\2021-04-03_buffer_calibration.lcb
Report Format File,c:\LabSolutions\System\DEFAULT.lsr

[File Description]


[Configuration]
Instrument Name,HPLC-PC-Instrument1
Instrument #,1
Line #,1
# of Detectors,2
Detector ID,Detector A,Detector B
Detector Name,Detector A,Detector B
# of Channels,1,1

[Peak Table(Detector A)]
# of Peaks,0

[Peak Table(Detector B)]
# of Peaks,5
Peak#,R.Time,I.Time,F.Time,Area,Height,A/H,Conc.,Mark,ID#,Name,k',Plate #,Plate Ht.,Tailing,Resolution,Sep.Factor,Area Ratio,Height Ratio,Conc. %,Norm Conc.
1,11.062,10.758,12.908,1246298,68904,18.087,24.636,   ,,,0.000,10671,14.057,1.329,0.000,0.000,0,0,0.000,0.000
2,15.106,14.108,15.433,3108367,116823,26.608,61.443,   ,,,0.366,7071,21.212,0.000,7.052,0.000,0,0,0.000,0.000
3,15.649,15.433,18.458,509714,20568,24.782,10.076, V ,,,0.415,7055,21.262,0.000,0.742,1.134,0,0,0.000,0.000
4,22.072,21.417,23.000,136314,5062,26.931,2.695,   ,,,0.995,15417,9.730,1.088,8.820,2.400,0,0,0.000,0.000
5,25.068,24.417,25.900,58243,1998,29.152,1.151,   ,,,1.266,16736,8.963,1.060,4.033,1.272,0,0,0.000,0.000

[LC Chromatogram(Detector B-Ch1)]
Interval(msec),500
# of Points,4801
Start Time(min),0.000
End Time(min),40.000
Intensity Units,mV
Intensity Multiplier,0.001
R.Time (min),Intensity
0.00000,-2
0.00833,-2
0.01667,-0
0.02500,-0
0.03333,-0
0.04167,-0
0.05000,-0
0.05833,-0
0.06667,-0
0.07500,-0
0.08333,-0
0.09167,-0
0.10000,-0
0.10833,-0
0.11667,-1
0.12500,-0
0.13333,-0
0.14167,-0
0.15000,-1
0.15833,-1
0.16667,-1
0.17500,-0
0.18333,-0
0.19167,-0
0.20000,0
0.20833,0
0.21667,0
0.22500,0
0.23333,0
0.24167,0
0.25000,0
0.25833,0
0.26667,0
0.27500,-0
0.28333,-0
0.29167,-0
0.30000,-0
0.30833,-0
0.31667,-0
0.32500,-1
0.33333,-1
0.34167,-1
0.35000,-0
0.35833,-0
0.36667,0
0.37500,0
0.38333,1
0.39167,0
0.40000,-0
0.40833,-0
0.41667,-0
0.42500,-0
0.43333,-0
0.44167,0
0.45000,0
0.45833,0
0.46667,0
0.47500,0
0.48333,0
0.49167,0
0.50000,0
0.50833,0
0.51667,0
0.52500,0
0.53333,0
0.54167,0
0.55000,1
0.55833,1
0.56667,1
0.57500,1
0.58333,1
0.59167,1
0.60000,1
0.60833,1
0.61667,1
0.62500,1
0.63333,1
0.64167,1
0.65000,0
0.65833,0
0.66667,-0
0.67500,-0
0.68333,-0
0.69167,-1
0.70000,-1
0.70833,-1
0.71667,-1
0.72500,-1
0.73333,-0
0.74167,-0
0.75000,-0
0.75833,-0
0.76667,-0
0.77500,-0
0.78333,-0
0.79167,-0
0.80000,-0
0.80833,-0
0.81667,-1
0.82500,-1
0.83333,-1
0.84167,-1
0.85000,-1
0.85833,-0
0.86667,-0
0.87500,0
0.88333,0
0.89167,0
0.90000,0
0.90833,1
0.91667,1
0.92500,1
0.93333,1
0.94167,1
0.95000,1
0.95833,1
0.96667,1
0.97500,0
0.98333,0
0.99167,0
1.00000,0
1.00833,0
1.01667,0
1.02500,0
1.03333,0
1.04167,0
1.05000,0
1.05833,0
1.06667,1
1.07500,1
1.08333,1
1.09167,1
1.10000,0
1.10833,0
1.11667,0
1.12500,0
1.13333,0
1.14167,0
1.15000,0
1.15833,-0
1.16667,-0
1.17500,-0
1.18333,-0
1.19167,-0
1.20000,0
1.20833,0
1.21667,0
1.22500,0
1.23333,0
1.24167,0
1.25000,0
1.25833,-0
1.26667,-0
1.27500,-0
1.28333,-0
1.29167,-0
1.30000,-0
1.30833,-0
1.31667,-0
1.32500,0
1.33333,0
1.34167,1
1.35000,1
1.35833,1
1.36667,1
1.37500,1
1.38333,0
1.39167,0
1.40000,0
1.40833,0
1.41667,1
1.42500,0
1.43333,0
1.44167,0
1.45000,0
1.45833,0
1.46667,0
1.47500,-0
1.48333,-0
1.49167,0
1.50000,0
1.50833,0
1.51667,0
1.52500,0
1.53333,-0
1.54167,-0
1.55000,-0
1.55833,-0
1.56667,0
1.57500,0
1.58333,0
1.59167,0
1.60000,0
1.60833,0
1.61667,0
1.62500,1
1.63333,0
1.64167,0
1.65000,-0
1.65833,-1
1.66667,-1
1.67500,-0
1.68333,-0
1.69167,0
1.70000,-0
1.70833,0
1.71667,0
1.72500,0
1.73333,0
1.74167,0
1.75000,0
1.75833,0
1.76667,0
1.77500,0
1.78333,0
1.79167,1
1.80000,1
1.80833,1
1.81667,1
1.82500,1
1.83333,1
1.84167,1
1.85000,1
1.85833,1
1.86667,1
1.87500,0
1.88333,0
1.89167,-0
1.90000,-0
1.90833,-1
1.91667,-1
1.92500,-0
1.93333,-0
1.94167,-0
1.95000,-0
1.95833,-0
1.96667,-1
1.97500,-0
1.98333,-0
1.99167,-0
2.00000,-0
2.00833,0
2.01667,1
2.02500,1
2.03333,1
2.04167,1
2.05000,1
2.05833,1
2.06667,1
2.07500,1
2.08333,1
2.09167,1
2.10000,1
2.10833,1
2.11667,1
2.12500,1
2.13333,1
2.14167,1
2.15000,1
2.15833,1
2.16667,1
2.17500,1
2.18333,1
2.19167,1
2.20000,1
2.20833,1
2.21667,1
2.22500,1
2.23333,1
2.24167,1
2.25000,0
2.25833,0
2.26667,0
2.27500,0
2.28333,1
2.29167,0
2.30000,-0
2.30833,-0
2.31667,-0
2.32500,-0
2.33333,0
2.34167,0
2.35000,0
2.35833,-0
2.36667,-0
2.37500,-0
2.38333,-0
2.39167,-0
2.40000,-0
2.40833,-1
2.41667,-1
2.42500,-1
2.43333,-1
2.44167,-0
2.45000,-0
2.45833,-0
2.46667,-1
2.47500,-1
2.48333,-1
2.49167,-1
2.50000,-0
2.50833,-0
2.51667,0
2.52500,0
2.53333,-0
2.54167,-0
2.55000,-1
2.55833,-1
2.56667,-1
2.57500,-2
2.58333,-1
2.59167,-1
2.60000,-1
2.60833,-1
2.61667,-1
2.62500,-1
2.63333,-1
2.64167,-1
2.65000,-1
2.65833,-0
2.66667,-0
2.67500,0
2.68333,0
2.69167,0
2.70000,0
2.70833,0
2.71667,-0
2.72500,-0
2.73333,-0
2.74167,-0
2.75000,-0
2.75833,-0
2.76667,-1
2.77500,-1
2.78333,-1
2.79167,-1
2.80000,-1
2.80833,-1
2.81667,-1
2.82500,-1
2.83333,-1
2.84167,-1
2.85000,-1
2.85833,-1
2.86667,-1
2.87500,-1
2.88333,-1
2.89167,-1
2.90000,-1
2.90833,-2
2.91667,-2
2.92500,-2
2.93333,-1
2.94167,-1
2.95000,-1
2.95833,-1
2.96667,-1
2.97500,-1
2.98333,-1
2.99167,-1
3.00000,-1
3.00833,-2
3.01667,-2
3.02500,-2
3.03333,-2
3.04167,-2
3.05000,-3
3.05833,-2
3.06667,-2
3.07500,-2
3.08333,-2
3.09167,-2
3.10000,-2
3.10833,-2
3.11667,-2
3.12500,-2
3.13333,-1
3.14167,-1
3.15000,-1
3.15833,-1
3.16667,-1
3.17500,-1
3.18333,-1
3.19167,-2
3.20000,-2
3.20833,-2
3.21667,-2
3.22500,-1
3.23333,-1
3.24167,-1
3.25000,-1
3.25833,-1
3.26667,-1
3.27500,-1
3.28333,-1
3.29167,-1
3.30000,-1
3.30833,-1
3.31667,-2
3.32500,-2
3.33333,-2
3.34167,-2
3.35000,-2
3.35833,-2
3.36667,-2
3.37500,-1
3.38333,-1
3.39167,-1
3.40000,-1
3.40833,-1
3.41667,-2
3.42500,-2
3.43333,-2
3.44167,-2
3.45000,-1
3.45833,-1
3.46667,-1
3.47500,-1
3.48333,-1
3.49167,-1
3.50000,-1
3.50833,-1
3.51667,-1
3.52500,-1
3.53333,-1
3.54167,-1
3.55000,-1
3.55833,-1
3.56667,-1
3.57500,-1
3.58333,-1
3.59167,-1
3.60000,-2
3.60833,-2
3.61667,-2
3.62500,-2
3.63333,-2
3.64167,-2
3.65000,-2
3.65833,-2
3.66667,-2
3.67500,-2
3.68333,-2
3.69167,-2
3.70000,-2
3.70833,-2
3.71667,-2
3.72500,-2
3.73333,-2
3.74167,-2
3.75000,-2
3.75833,-2
3.76667,-2
3.77500,-2
3.78333,-2
3.79167,-2
3.80000,-2
3.80833,-2
3.81667,-2
3.82500,-2
3.83333,-2
3.84167,-2
3.85000,-2
3.85833,-2
3.86667,-2
3.87500,-2
3.88333,-2
3.89167,-2
3.90000,-2
3.90833,-2
3.91667,-2
3.92500,-2
3.93333,-2
3.94167,-2
3.95000,-2
3.95833,-2
3.96667,-2
3.97500,-2
3.98333,-1
3.99167,-1
4.00000,-1
4.00833,-2
4.01667,-2
4.02500,-2
4.03333,-2
4.04167,-2
4.05000,-2
4.05833,-2
4.06667,-2
4.07500,-2
4.08333,-2
4.09167,-1
4.10000,-1
4.10833,-1
4.11667,-1
4.12500,-1
4.13333,-1
4.14167,-2
4.15000,-2
4.15833,-2
4.16667,-2
4.17500,-2
4.18333,-2
4.19167,-2
4.20000,-2
4.20833,-2
4.21667,-2
4.22500,-2
4.23333,-3
4.24167,-3
4.25000,-2
4.25833,-2
4.26667,-1
4.27500,-2
4.28333,-1
4.29167,-1
4.30000,-1
4.30833,-1
4.31667,-1
4.32500,-1
4.33333,-1
4.34167,-1
4.35000,-2
4.35833,-2
4.36667,-2
4.37500,-2
4.38333,-2
4.39167,-2
4.40000,-2
4.40833,-2
4.41667,-2
4.42500,-2
4.43333,-2
4.44167,-2
4.45000,-2
4.45833,-2
4.46667,-2
4.47500,-2
4.48333,-2
4.49167,-2
4.50000,-2
4.50833,-3
4.51667,-2
4.52500,-2
4.53333,-2
4.54167,-2
4.55000,-2
4.55833,-2
4.56667,-2
4.57500,-1
4.58333,-1
4.59167,-1
4.60000,-1
4.60833,-1
4.61667,-1
4.62500,-1
4.63333,-1
4.64167,-1
4.65000,-1
4.65833,-1
4.66667,-0
4.67500,-0
4.68333,-0
4.69167,-1
4.70000,-1
4.70833,-1
4.71667,-1
4.72500,-1
4.73333,-1
4.74167,-1
4.75000,-2
4.75833,-2
4.76667,-2
4.77500,-2
4.78333,-2
4.79167,-2
4.80000,-2
4.80833,-2
4.81667,-2
4.82500,-1
4.83333,-1
4.84167,-1
4.85000,-1
4.85833,-1
4.86667,-1
4.87500,-1
4.88333,-1
4.89167,-1
4.90000,-1
4.90833,-1
4.91667,-1
4.92500,-1
4.93333,-2
4.94167,-2
4.95000,-2
4.95833,-2
4.96667,-2
4.97500,-2
4.98333,-2
4.99167,-2
5.00000,-2
5.00833,-2
5.01667,-2
5.02500,-1
5.03333,-1
5.04167,-1
5.05000,-2
5.05833,-2
5.06667,-2
5.07500,-2
5.08333,-1
5.09167,-1
5.10000,-1
5.10833,-2
5.11667,-2
5.12500,-2
5.13333,-2
5.14167,-2
5.15000,-2
5.15833,-2
5.16667,-2
5.17500,-2
5.18333,-2
5.19167,-2
5.20000,-2
5.20833,-2
5.21667,-2
5.22500,-2
5.23333,-2
5.24167,-2
5.25000,-2
5.25833,-2
5.26667,-2
5.27500,-2
5.28333,-3
5.29167,-3
5.30000,-2
5.30833,-2
5.31667,-2
5.32500,-2
5.33333,-2
5.34167,-2
5.35000,-2
5.35833,-2
5.36667,-2
5.37500,-2
5.38333,-2
5.39167,-2
5.40000,-2
5.40833,-2
5.41667,-2
5.42500,-2
5.43333,-2
5.44167,-2
5.45000,-2
5.45833,-2
5.46667,-2
5.47500,-2
5.48333,-2
5.49167,-3
5.50000,-3
5.50833,-3
5.51667,-3
5.52500,-3
5.53333,-3
5.54167,-3
5.55000,-3
5.55833,-3
5.56667,-3
5.57500,-3
5.58333,-3
5.59167,-3
5.60000,-3
5.60833,-3
5.61667,-3
5.62500,-2
5.63333,-2
5.64167,-2
5.65000,-2
5.65833,-2
5.66667,-2
5.67500,-3
5.68333,-3
5.69167,-3
5.70000,-3
5.70833,-3
5.71667,-3
5.72500,-3
5.73333,-3
5.74167,-4
5.75000,-4
5.75833,-4
5.76667,-4
5.77500,-4
5.78333,-4
5.79167,-4
5.80000,-3
5.80833,-3
5.81667,-3
5.82500,-3
5.83333,-3
5.84167,-3
5.85000,-3
5.85833,-3
5.86667,-3
5.87500,-3
5.88333,-3
5.89167,-3
5.90000,-3
5.90833,-3
5.91667,-3
5.92500,-3
5.93333,-3
5.94167,-3
5.95000,-3
5.95833,-3
5.96667,-3
5.97500,-3
5.98333,-3
5.99167,-2
6.00000,-2
6.00833,-2
6.01667,-2
6.02500,-2
6.03333,-2
6.04167,-2
6.05000,-3
6.05833,-3
6.06667,-3
6.07500,-3
6.08333,-4
6.09167,-4
6.10000,-3
6.10833,-3
6.11667,-3
6.12500,-2
6.13333,-2
6.14167,-2
6.15000,-1
6.15833,-1
6.16667,-2
6.17500,-2
6.18333,-2
6.19167,-3
6.20000,-3
6.20833,-3
6.21667,-3
6.22500,-3
6.23333,-3
6.24167,-3
6.25000,-2
6.25833,-2
6.26667,-2
6.27500,-2
6.28333,-2
6.29167,-1
6.30000,-2
6.30833,-2
6.31667,-2
6.32500,-3
6.33333,-3
6.34167,-2
6.35000,-2
6.35833,-2
6.36667,-2
6.37500,-2
6.38333,-2
6.39167,-2
6.40000,-2
6.40833,-2
6.41667,-2
6.42500,-2
6.43333,-2
6.44167,-2
6.45000,-1
6.45833,-2
6.46667,-2
6.47500,-2
6.48333,-2
6.49167,-3
6.50000,-3
6.50833,-3
6.51667,-3
6.52500,-3
6.53333,-3
6.54167,-3
6.55000,-3
6.55833,-3
6.56667,-3
6.57500,-3
6.58333,-3
6.59167,-3
6.60000,-3
6.60833,-3
6.61667,-2
6.62500,-2
6.63333,-2
6.64167,-2
6.65000,-3
6.65833,-3
6.66667,-2
6.67500,-2
6.68333,-2
6.69167,-2
6.70000,-3
6.70833,-3
6.71667,-3
6.72500,-3
6.73333,-3
6.74167,-2
6.75000,-2
6.75833,-2
6.76667,-1
6.77500,-1
6.78333,-1
6.79167,-1
6.80000,-1
6.80833,-2
6.81667,-2
6.82500,-2
6.83333,-2
6.84167,-2
6.85000,-3
6.85833,-3
6.86667,-3
6.87500,-3
6.88333,-3
6.89167,-2
6.90000,-2
6.90833,-2
6.91667,-2
6.92500,-3
6.93333,-3
6.94167,-3
6.95000,-3
6.95833,-3
6.96667,-3
6.97500,-3
6.98333,-3
6.99167,-2
7.00000,-2
7.00833,-2
7.01667,-3
7.02500,-3
7.03333,-3
7.04167,-3
7.05000,-3
7.05833,-3
7.06667,-2
7.07500,-2
7.08333,-3
7.09167,-3
7.10000,-3
7.10833,-3
7.11667,-3
7.12500,-3
7.13333,-3
7.14167,-3
7.15000,-3
7.15833,-3
7.16667,-3
7.17500,-3
7.18333,-3
7.19167,-3
7.20000,-3
7.20833,-3
7.21667,-3
7.22500,-3
7.23333,-3
7.24167,-3
7.25000,-3
7.25833,-3
7.26667,-3
7.27500,-3
7.28333,-4
7.29167,-4
7.30000,-4
7.30833,-4
7.31667,-4
7.32500,-4
7.33333,-4
7.34167,-4
7.35000,-4
7.35833,-4
7.36667,-4
7.37500,-4
7.38333,-4
7.39167,-4
7.40000,-4
7.40833,-4
7.41667,-4
7.42500,-3
7.43333,-3
7.44167,-3
7.45000,-3
7.45833,-3
7.46667,-3
7.47500,-3
7.48333,-3
7.49167,-4
7.50000,-4
7.50833,-4
7.51667,-4
7.52500,-4
7.53333,-4
7.54167,-4
7.55000,-4
7.55833,-4
7.56667,-5
7.57500,-5
7.58333,-5
7.59167,-4
7.60000,-4
7.60833,-4
7.61667,-4
7.62500,-4
7.63333,-4
7.64167,-4
7.65000,-4
7.65833,-4
7.66667,-4
7.67500,-4
7.68333,-4
7.69167,-4
7.70000,-4
7.70833,-4
7.71667,-4
7.72500,-4
7.73333,-4
7.74167,-4
7.75000,-4
7.75833,-4
7.76667,-4
7.77500,-4
7.78333,-4
7.79167,-4
7.80000,-4
7.80833,-4
7.81667,-5
7.82500,-5
7.83333,-5
7.84167,-5
7.85000,-5
7.85833,-5
7.86667,-5
7.87500,-5
7.88333,-5
7.89167,-4
7.90000,-4
7.90833,-4
7.91667,-4
7.92500,-5
7.93333,-5
7.94167,-5
7.95000,-5
7.95833,-5
7.96667,-5
7.97500,-5
7.98333,-5
7.99167,-5
8.00000,-5
8.00833,-5
8.01667,-5
8.02500,-5
8.03333,-5
8.04167,-5
8.05000,-5
8.05833,-5
8.06667,-4
8.07500,-4
8.08333,-5
8.09167,-5
8.10000,-5
8.10833,-5
8.11667,-5
8.12500,-5
8.13333,-5
8.14167,-5
8.15000,-5
8.15833,-5
8.16667,-5
8.17500,-5
8.18333,-5
8.19167,-5
8.20000,-5
8.20833,-5
8.21667,-5
8.22500,-5
8.23333,-5
8.24167,-5
8.25000,-5
8.25833,-6
8.26667,-6
8.27500,-6
8.28333,-6
8.29167,-6
8.30000,-6
8.30833,-6
8.31667,-6
8.32500,-6
8.33333,-6
8.34167,-6
8.35000,-5
8.35833,-5
8.36667,-5
8.37500,-5
8.38333,-5
8.39167,-5
8.40000,-5
8.40833,-5
8.41667,-5
8.42500,-5
8.43333,-5
8.44167,-6
8.45000,-6
8.45833,-6
8.46667,-6
8.47500,-6
8.48333,-6
8.49167,-5
8.50000,-5
8.50833,-6
8.51667,-6
8.52500,-5
8.53333,-5
8.54167,-6
8.55000,-6
8.55833,-6
8.56667,-6
8.57500,-6
8.58333,-6
8.59167,-6
8.60000,-6
8.60833,-6
8.61667,-6
8.62500,-6
8.63333,-6
8.64167,-6
8.65000,-6
8.65833,-6
8.66667,-6
8.67500,-6
8.68333,-6
8.69167,-6
8.70000,-5
8.70833,-6
8.71667,-6
8.72500,-6
8.73333,-6
8.74167,-6
8.75000,-6
8.75833,-6
8.76667,-6
8.77500,-6
8.78333,-6
8.79167,-6
8.80000,-5
8.80833,-5
8.81667,-5
8.82500,-5
8.83333,-5
8.84167,-5
8.85000,-6
8.85833,-6
8.86667,-6
8.87500,-6
8.88333,-6
8.89167,-6
8.90000,-6
8.90833,-6
8.91667,-6
8.92500,-6
8.93333,-6
8.94167,-6
8.95000,-6
8.95833,-6
8.96667,-6
8.97500,-6
8.98333,-7
8.99167,-7
9.00000,-7
9.00833,-7
9.01667,-7
9.02500,-6
9.03333,-6
9.04167,-6
9.05000,-6
9.05833,-6
9.06667,-6
9.07500,-6
9.08333,-6
9.09167,-6
9.10000,-6
9.10833,-6
9.11667,-6
9.12500,-6
9.13333,-6
9.14167,-6
9.15000,-6
9.15833,-7
9.16667,-6
9.17500,-6
9.18333,-6
9.19167,-6
9.20000,-6
9.20833,-6
9.21667,-6
9.22500,-6
9.23333,-6
9.24167,-6
9.25000,-6
9.25833,-6
9.26667,-6
9.27500,-6
9.28333,-6
9.29167,-6
9.30000,-6
9.30833,-6
9.31667,-6
9.32500,-6
9.33333,-6
9.34167,-6
9.35000,-6
9.35833,-7
9.36667,-7
9.37500,-7
9.38333,-7
9.39167,-7
9.40000,-7
9.40833,-7
9.41667,-6
9.42500,-6
9.43333,-6
9.44167,-6
9.45000,-6
9.45833,-6
9.46667,-6
9.47500,-6
9.48333,-6
9.49167,-6
9.50000,-7
9.50833,-6
9.51667,-6
9.52500,-6
9.53333,-5
9.54167,-5
9.55000,-5
9.55833,-5
9.56667,-6
9.57500,-6
9.58333,-7
9.59167,-7
9.60000,-7
9.60833,-7
9.61667,-7
9.62500,-7
9.63333,-7
9.64167,-6
9.65000,-6
9.65833,-6
9.66667,-6
9.67500,-6
9.68333,-6
9.69167,-6
9.70000,-6
9.70833,-6
9.71667,-7
9.72500,-7
9.73333,-7
9.74167,-7
9.75000,-7
9.75833,-7
9.76667,-7
9.77500,-7
9.78333,-6
9.79167,-6
9.80000,-6
9.80833,-6
9.81667,-7
9.82500,-6
9.83333,-6
9.84167,-6
9.85000,-6
9.85833,-6
9.86667,-6
9.87500,-6
9.88333,-6
9.89167,-6
9.90000,-6
9.90833,-6
9.91667,-7
9.92500,-7
9.93333,-7
9.94167,-6
9.95000,-6
9.95833,-6
9.96667,-6
9.97500,-6
9.98333,-6
9.99167,-6
10.00000,-6
10.00833,-6
10.01667,-6
10.02500,-7
10.03333,-7
10.04167,-7
10.05000,-7
10.05833,-7
10.06667,-7
10.07500,-7
10.08333,-7
10.09167,-7
10.10000,-7
10.10833,-6
10.11667,-6
10.12500,-6
10.13333,-6
10.14167,-6
10.15000,-6
10.15833,-6
10.16667,-6
10.17500,-6
10.18333,-6
10.19167,-6
10.20000,-6
10.20833,-6
10.21667,-6
10.22500,-6
10.23333,-6
10.24167,-6
10.25000,-6
10.25833,-6
10.26667,-5
10.27500,-5
10.28333,-5
10.29167,-5
10.30000,-5
10.30833,-5
10.31667,-5
10.32500,-6
10.33333,-5
10.34167,-5
10.35000,-5
10.35833,-5
10.36667,-5
10.37500,-4
10.38333,-4
10.39167,-4
10.40000,-3
10.40833,-3
10.41667,-3
10.42500,-2
10.43333,-2
10.44167,-1
10.45000,-1
10.45833,-0
10.46667,-0
10.47500,-1
10.48333,-1
10.49167,-1
10.50000,-2
10.50833,-4
10.51667,-7
10.52500,-11
10.53333,-18
10.54167,-28
10.55000,-40
10.55833,-57
10.56667,-80
10.57500,-111
10.58333,-150
10.59167,-200
10.60000,-264
10.60833,-342
10.61667,-438
10.62500,-553
10.63333,-689
10.64167,-848
10.65000,-1029
10.65833,-1233
10.66667,-1458
10.67500,-1703
10.68333,-1962
10.69167,-2232
10.70000,-2506
10.70833,-2775
10.71667,-3031
10.72500,-3262
10.73333,-3458
10.74167,-3605
10.75000,-3691
10.75833,-3703
10.76667,-3627
10.77500,-3450
10.78333,-3159
10.79167,-2744
10.80000,-2192
10.80833,-1496
10.81667,-646
10.82500,366
10.83333,1544
10.84167,2892
10.85000,4414
10.85833,6110
10.86667,7981
10.87500,10023
10.88333,12233
10.89167,14607
10.90000,17137
10.90833,19814
10.91667,22629
10.92500,25567
10.93333,28613
10.94167,31748
10.95000,34951
10.95833,38194
10.96667,41450
10.97500,44682
10.98333,47852
10.99167,50917
11.00000,53829
11.00833,56537
11.01667,58990
11.02500,61136
11.03333,62923
11.04167,64309
11.05000,65255
11.05833,65734
11.06667,65731
11.07500,65242
11.08333,64279
11.09167,62867
11.10000,61041
11.10833,58849
11.11667,56345
11.12500,53588
11.13333,50639
11.14167,47560
11.15000,44409
11.15833,41240
11.16667,38102
11.17500,35036
11.18333,32074
11.19167,29244
11.20000,26565
11.20833,24051
11.21667,21709
11.22500,19542
11.23333,17550
11.24167,15729
11.25000,14072
11.25833,12571
11.26667,11216
11.27500,9998
11.28333,8907
11.29167,7931
11.30000,7061
11.30833,6288
11.31667,5601
11.32500,4992
11.33333,4454
11.34167,3977
11.35000,3556
11.35833,3185
11.36667,2857
11.37500,2568
11.38333,2313
11.39167,2089
11.40000,1891
11.40833,1717
11.41667,1563
11.42500,1427
11.43333,1306
11.44167,1199
11.45000,1105
11.45833,1021
11.46667,946
11.47500,879
11.48333,820
11.49167,766
11.50000,718
11.50833,675
11.51667,636
11.52500,600
11.53333,568
11.54167,540
11.55000,513
11.55833,489
11.56667,467
11.57500,447
11.58333,427
11.59167,410
11.60000,393
11.60833,378
11.61667,364
11.62500,351
11.63333,339
11.64167,328
11.65000,317
11.65833,307
11.66667,298
11.67500,288
11.68333,280
11.69167,272
11.70000,264
11.70833,258
11.71667,251
11.72500,245
11.73333,240
11.74167,235
11.75000,229
11.75833,224
11.76667,219
11.77500,215
11.78333,211
11.79167,207
11.80000,203
11.80833,199
11.81667,196
11.82500,192
11.83333,189
11.84167,186
11.85000,183
11.85833,181
11.86667,178
11.87500,175
11.88333,173
11.89167,171
11.90000,169
11.90833,167
11.91667,165
11.92500,163
11.93333,162
11.94167,160
11.95000,159
11.95833,158
11.96667,156
11.97500,154
11.98333,153
11.99167,152
12.00000,151
12.00833,150
12.01667,148
12.02500,147
12.03333,146
12.04167,145
12.05000,143
12.05833,142
12.06667,141
12.07500,140
12.08333,139
12.09167,138
12.10000,136
12.10833,135
12.11667,134
12.12500,133
12.13333,132
12.14167,132
12.15000,131
12.15833,130
12.16667,130
12.17500,129
12.18333,128
12.19167,127
12.20000,126
12.20833,126
12.21667,125
12.22500,124
12.23333,123
12.24167,122
12.25000,121
12.25833,120
12.26667,119
12.27500,118
12.28333,117
12.29167,116
12.30000,115
12.30833,114
12.31667,114
12.32500,113
12.33333,112
12.34167,112
12.35000,111
12.35833,110
12.36667,110
12.37500,109
12.38333,108
12.39167,108
12.40000,107
12.40833,107
12.41667,106
12.42500,105
12.43333,105
12.44167,104
12.45000,104
12.45833,103
12.46667,103
12.47500,102
12.48333,102
12.49167,101
12.50000,101
12.50833,100
12.51667,99
12.52500,98
12.53333,97
12.54167,97
12.55000,97
12.55833,96
12.56667,95
12.57500,94
12.58333,94
12.59167,93
12.60000,92
12.60833,92
12.61667,91
12.62500,90
12.63333,89
12.64167,88
12.65000,87
12.65833,87
12.66667,86
12.67500,85
12.68333,85
12.69167,84
12.70000,83
12.70833,82
12.71667,81
12.72500,81
12.73333,80
12.74167,79
12.75000,78
12.75833,78
12.76667,77
12.77500,76
12.78333,76
12.79167,76
12.80000,75
12.80833,74
12.81667,74
12.82500,73
12.83333,72
12.84167,72
12.85000,72
12.85833,71
12.86667,70
12.87500,70
12.88333,69
12.89167,69
12.90000,68
12.90833,68
12.91667,68
12.92500,68
12.93333,68
12.94167,68
12.95000,67
12.95833,67
12.96667,67
12.97500,67
12.98333,67
12.99167,67
13.00000,66
13.00833,66
13.01667,66
13.02500,66
13.03333,65
13.04167,65
13.05000,65
13.05833,64
13.06667,64
13.07500,65
13.08333,65
13.09167,65
13.10000,65
13.10833,64
13.11667,64
13.12500,64
13.13333,64
13.14167,64
13.15000,64
13.15833,63
13.16667,63
13.17500,63
13.18333,63
13.19167,62
13.20000,62
13.20833,62
13.21667,61
13.22500,61
13.23333,61
13.24167,60
13.25000,60
13.25833,59
13.26667,59
13.27500,59
13.28333,58
13.29167,58
13.30000,58
13.30833,57
13.31667,57
13.32500,56
13.33333,56
13.34167,55
13.35000,55
13.35833,54
13.36667,54
13.37500,54
13.38333,53
13.39167,53
13.40000,52
13.40833,51
13.41667,51
13.42500,50
13.43333,49
13.44167,48
13.45000,47
13.45833,46
13.46667,46
13.47500,45
13.48333,45
13.49167,44
13.50000,44
13.50833,44
13.51667,43
13.52500,42
13.53333,42
13.54167,42
13.55000,41
13.55833,41
13.56667,41
13.57500,41
13.58333,40
13.59167,39
13.60000,38
13.60833,38
13.61667,38
13.62500,38
13.63333,38
13.64167,37
13.65000,37
13.65833,37
13.66667,36
13.67500,36
13.68333,35
13.69167,34
13.70000,34
13.70833,34
13.71667,34
13.72500,34
13.73333,34
13.74167,34
13.75000,33
13.75833,33
13.76667,33
13.77500,33
13.78333,32
13.79167,32
13.80000,32
13.80833,32
13.81667,32
13.82500,32
13.83333,31
13.84167,31
13.85000,31
13.85833,31
13.86667,31
13.87500,31
13.88333,30
13.89167,31
13.90000,30
13.90833,30
13.91667,30
13.92500,30
13.93333,31
13.94167,31
13.95000,31
13.95833,31
13.96667,32
13.97500,32
13.98333,32
13.99167,33
14.00000,33
14.00833,33
14.01667,33
14.02500,34
14.03333,35
14.04167,35
14.05000,35
14.05833,36
14.06667,36
14.07500,36
14.08333,37
14.09167,37
14.10000,38
14.10833,39
14.11667,40
14.12500,41
14.13333,42
14.14167,44
14.15000,45
14.15833,48
14.16667,50
14.17500,53
14.18333,56
14.19167,59
14.20000,64
14.20833,69
14.21667,75
14.22500,83
14.23333,92
14.24167,104
14.25000,117
14.25833,134
14.26667,154
14.27500,178
14.28333,207
14.29167,242
14.30000,282
14.30833,330
14.31667,387
14.32500,455
14.33333,533
14.34167,625
14.35000,731
14.35833,853
14.36667,992
14.37500,1151
14.38333,1331
14.39167,1535
14.40000,1762
14.40833,2015
14.41667,2296
14.42500,2605
14.43333,2946
14.44167,3318
14.45000,3723
14.45833,4162
14.46667,4635
14.47500,5145
14.48333,5689
14.49167,6270
14.50000,6887
14.50833,7542
14.51667,8233
14.52500,8962
14.53333,9727
14.54167,10528
14.55000,11366
14.55833,12238
14.56667,13146
14.57500,14089
14.58333,15065
14.59167,16075
14.60000,17118
14.60833,18193
14.61667,19299
14.62500,20437
14.63333,21605
14.64167,22803
14.65000,24030
14.65833,25286
14.66667,26570
14.67500,27881
14.68333,29220
14.69167,30585
14.70000,31977
14.70833,33394
14.71667,34837
14.72500,36305
14.73333,37797
14.74167,39315
14.75000,40856
14.75833,42421
14.76667,44009
14.77500,45620
14.78333,47254
14.79167,48911
14.80000,50590
14.80833,52293
14.81667,54017
14.82500,55764
14.83333,57533
14.84167,59323
14.85000,61134
14.85833,62966
14.86667,64819
14.87500,66692
14.88333,68585
14.89167,70499
14.90000,72432
14.90833,74384
14.91667,76355
14.92500,78344
14.93333,80350
14.94167,82373
14.95000,84411
14.95833,86464
14.96667,88530
14.97500,90607
14.98333,92695
14.99167,94789
15.00000,96886
15.00833,98981
15.01667,101068
15.02500,103137
15.03333,105174
15.04167,107162
15.05000,109077
15.05833,110887
15.06667,112554
15.07500,114030
15.08333,115261
15.09167,116187
15.10000,116745
15.10833,116872
15.11667,116510
15.12500,115610
15.13333,114136
15.14167,112068
15.15000,109405
15.15833,106167
15.16667,102393
15.17500,98140
15.18333,93480
15.19167,88499
15.20000,83287
15.20833,77936
15.21667,72536
15.22500,67173
15.23333,61923
15.24167,56852
15.25000,52012
15.25833,47444
15.26667,43177
15.27500,39228
15.28333,35606
15.29167,32310
15.30000,29333
15.30833,26664
15.31667,24287
15.32500,22186
15.33333,20341
15.34167,18734
15.35000,17345
15.35833,16158
15.36667,15154
15.37500,14318
15.38333,13637
15.39167,13096
15.40000,12683
15.40833,12388
15.41667,12199
15.42500,12109
15.43333,12108
15.44167,12188
15.45000,12341
15.45833,12560
15.46667,12838
15.47500,13167
15.48333,13541
15.49167,13952
15.50000,14394
15.50833,14860
15.51667,15344
15.52500,15838
15.53333,16335
15.54167,16829
15.55000,17314
15.55833,17785
15.56667,18235
15.57500,18659
15.58333,19051
15.59167,19407
15.60000,19724
15.60833,19996
15.61667,20223
15.62500,20400
15.63333,20526
15.64167,20600
15.65000,20622
15.65833,20589
15.66667,20504
15.67500,20367
15.68333,20179
15.69167,19942
15.70000,19660
15.70833,19333
15.71667,18966
15.72500,18561
15.73333,18122
15.74167,17652
15.75000,17155
15.75833,16635
15.76667,16096
15.77500,15540
15.78333,14973
15.79167,14397
15.80000,13815
15.80833,13232
15.81667,12649
15.82500,12069
15.83333,11496
15.84167,10931
15.85000,10377
15.85833,9836
15.86667,9309
15.87500,8797
15.88333,8301
15.89167,7824
15.90000,7365
15.90833,6925
15.91667,6504
15.92500,6102
15.93333,5720
15.94167,5358
15.95000,5015
15.95833,4691
15.96667,4385
15.97500,4098
15.98333,3828
15.99167,3576
16.00000,3339
16.00833,3119
16.01667,2913
16.02500,2721
16.03333,2543
16.04167,2377
16.05000,2223
16.05833,2080
16.06667,1948
16.07500,1826
16.08333,1714
16.09167,1611
16.10000,1515
16.10833,1428
16.11667,1347
16.12500,1272
16.13333,1204
16.14167,1140
16.15000,1082
16.15833,1029
16.16667,980
16.17500,935
16.18333,893
16.19167,855
16.20000,820
16.20833,788
16.21667,758
16.22500,730
16.23333,705
16.24167,682
16.25000,660
16.25833,641
16.26667,623
16.27500,605
16.28333,589
16.29167,574
16.30000,559
16.30833,546
16.31667,534
16.32500,523
16.33333,512
16.34167,502
16.35000,492
16.35833,483
16.36667,475
16.37500,467
16.38333,460
16.39167,453
16.40000,446
16.40833,440
16.41667,434
16.42500,428
16.43333,422
16.44167,417
16.45000,411
16.45833,406
16.46667,402
16.47500,397
16.48333,392
16.49167,387
16.50000,383
16.50833,379
16.51667,375
16.52500,371
16.53333,368
16.54167,364
16.55000,360
16.55833,357
16.56667,354
16.57500,350
16.58333,348
16.59167,345
16.60000,342
16.60833,339
16.61667,336
16.62500,334
16.63333,331
16.64167,329
16.65000,327
16.65833,325
16.66667,322
16.67500,319
16.68333,317
16.69167,315
16.70000,312
16.70833,310
16.71667,308
16.72500,305
16.73333,303
16.74167,301
16.75000,299
16.75833,297
16.76667,295
16.77500,293
16.78333,291
16.79167,289
16.80000,287
16.80833,285
16.81667,283
16.82500,281
16.83333,280
16.84167,278
16.85000,276
16.85833,274
16.86667,273
16.87500,271
16.88333,269
16.89167,267
16.90000,265
16.90833,263
16.91667,262
16.92500,260
16.93333,258
16.94167,256
16.95000,255
16.95833,253
16.96667,252
16.97500,250
16.98333,248
16.99167,247
17.00000,245
17.00833,244
17.01667,243
17.02500,241
17.03333,240
17.04167,239
17.05000,237
17.05833,236
17.06667,234
17.07500,233
17.08333,232
17.09167,230
17.10000,229
17.10833,227
17.11667,226
17.12500,224
17.13333,223
17.14167,221
17.15000,220
17.15833,218
17.16667,217
17.17500,215
17.18333,214
17.19167,213
17.20000,212
17.20833,211
17.21667,210
17.22500,209
17.23333,207
17.24167,206
17.25000,205
17.25833,203
17.26667,202
17.27500,201
17.28333,200
17.29167,199
17.30000,198
17.30833,197
17.31667,196
17.32500,194
17.33333,193
17.34167,191
17.35000,190
17.35833,189
17.36667,188
17.37500,187
17.38333,186
17.39167,185
17.40000,184
17.40833,183
17.41667,182
17.42500,180
17.43333,179
17.44167,178
17.45000,177
17.45833,176
17.46667,175
17.47500,174
17.48333,173
17.49167,172
17.50000,171
17.50833,170
17.51667,169
17.52500,168
17.53333,167
17.54167,166
17.55000,165
17.55833,163
17.56667,162
17.57500,161
17.58333,160
17.59167,160
17.60000,159
17.60833,158
17.61667,157
17.62500,157
17.63333,156
17.64167,154
17.65000,153
17.65833,152
17.66667,151
17.67500,149
17.68333,148
17.69167,148
17.70000,147
17.70833,146
17.71667,145
17.72500,144
17.73333,143
17.74167,143
17.75000,142
17.75833,141
17.76667,140
17.77500,140
17.78333,139
17.79167,138
17.80000,137
17.80833,137
17.81667,136
17.82500,135
17.83333,134
17.84167,132
17.85000,132
17.85833,131
17.86667,130
17.87500,129
17.88333,128
17.89167,128
17.90000,127
17.90833,125
17.91667,125
17.92500,124
17.93333,123
17.94167,123
17.95000,122
17.95833,122
17.96667,121
17.97500,120
17.98333,119
17.99167,118
18.00000,117
18.00833,116
18.01667,115
18.02500,115
18.03333,114
18.04167,113
18.05000,113
18.05833,112
18.06667,112
18.07500,111
18.08333,110
18.09167,110
18.10000,109
18.10833,108
18.11667,108
18.12500,107
18.13333,106
18.14167,105
18.15000,105
18.15833,104
18.16667,103
18.17500,103
18.18333,102
18.19167,101
18.20000,100
18.20833,99
18.21667,99
18.22500,98
18.23333,98
18.24167,97
18.25000,97
18.25833,96
18.26667,96
18.27500,95
18.28333,94
18.29167,93
18.30000,93
18.30833,92
18.31667,92
18.32500,91
18.33333,91
18.34167,90
18.35000,89
18.35833,89
18.36667,88
18.37500,88
18.38333,87
18.39167,86
18.40000,86
18.40833,85
18.41667,84
18.42500,83
18.43333,83
18.44167,82
18.45000,82
18.45833,82
18.46667,81
18.47500,81
18.48333,80
18.49167,79
18.50000,79
18.50833,78
18.51667,78
18.52500,78
18.53333,77
18.54167,77
18.55000,76
18.55833,76
18.56667,76
18.57500,75
18.58333,75
18.59167,74
18.60000,74
18.60833,74
18.61667,74
18.62500,73
18.63333,73
18.64167,73
18.65000,73
18.65833,73
18.66667,72
18.67500,72
18.68333,71
18.69167,71
18.70000,71
18.70833,71
18.71667,71
18.72500,71
18.73333,71
18.74167,71
18.75000,71
18.75833,71
18.76667,71
18.77500,70
18.78333,70
18.79167,70
18.80000,70
18.80833,71
18.81667,71
18.82500,72
18.83333,72
18.84167,73
18.85000,74
18.85833,75
18.86667,75
18.87500,76
18.88333,77
18.89167,78
18.90000,78
18.90833,79
18.91667,80
18.92500,81
18.93333,81
18.94167,81
18.95000,81
18.95833,82
18.96667,82
18.97500,82
18.98333,82
18.99167,82
19.00000,82
19.00833,81
19.01667,81
19.02500,81
19.03333,81
19.04167,80
19.05000,80
19.05833,79
19.06667,79
19.07500,78
19.08333,77
19.09167,76
19.10000,76
19.10833,75
19.11667,74
19.12500,73
19.13333,72
19.14167,70
19.15000,69
19.15833,68
19.16667,67
19.17500,65
19.18333,64
19.19167,63
19.20000,62
19.20833,61
19.21667,60
19.22500,59
19.23333,58
19.24167,57
19.25000,55
19.25833,55
19.26667,54
19.27500,53
19.28333,52
19.29167,52
19.30000,51
19.30833,50
19.31667,50
19.32500,49
19.33333,48
19.34167,47
19.35000,46
19.35833,46
19.36667,45
19.37500,44
19.38333,43
19.39167,43
19.40000,43
19.40833,42
19.41667,41
19.42500,41
19.43333,40
19.44167,40
19.45000,39
19.45833,39
19.46667,39
19.47500,38
19.48333,38
19.49167,38
19.50000,37
19.50833,37
19.51667,37
19.52500,37
19.53333,36
19.54167,36
19.55000,35
19.55833,35
19.56667,34
19.57500,34
19.58333,34
19.59167,34
19.60000,34
19.60833,34
19.61667,34
19.62500,33
19.63333,33
19.64167,33
19.65000,32
19.65833,32
19.66667,32
19.67500,32
19.68333,32
19.69167,31
19.70000,31
19.70833,31
19.71667,31
19.72500,31
19.73333,31
19.74167,30
19.75000,30
19.75833,30
19.76667,30
19.77500,30
19.78333,30
19.79167,29
19.80000,29
19.80833,28
19.81667,28
19.82500,28
19.83333,28
19.84167,28
19.85000,28
19.85833,28
19.86667,27
19.87500,27
19.88333,27
19.89167,27
19.90000,27
19.90833,26
19.91667,26
19.92500,26
19.93333,25
19.94167,25
19.95000,24
19.95833,24
19.96667,24
19.97500,23
19.98333,23
19.99167,24
20.00000,24
20.00833,24
20.01667,24
20.02500,24
20.03333,24
20.04167,24
20.05000,24
20.05833,24
20.06667,24
20.07500,24
20.08333,23
20.09167,23
20.10000,23
20.10833,22
20.11667,22
20.12500,22
20.13333,22
20.14167,22
20.15000,22
20.15833,22
20.16667,22
20.17500,22
20.18333,22
20.19167,21
20.20000,21
20.20833,21
20.21667,21
20.22500,20
20.23333,20
20.24167,20
20.25000,20
20.25833,19
20.26667,19
20.27500,19
20.28333,19
20.29167,19
20.30000,19
20.30833,19
20.31667,18
20.32500,18
20.33333,18
20.34167,18
20.35000,18
20.35833,18
20.36667,18
20.37500,18
20.38333,18
20.39167,18
20.40000,18
20.40833,17
20.41667,17
20.42500,17
20.43333,17
20.44167,17
20.45000,16
20.45833,16
20.46667,16
20.47500,16
20.48333,15
20.49167,15
20.50000,14
20.50833,14
20.51667,14
20.52500,14
20.53333,14
20.54167,14
20.55000,14
20.55833,15
20.56667,15
20.57500,15
20.58333,15
20.59167,15
20.60000,14
20.60833,14
20.61667,14
20.62500,13
20.63333,13
20.64167,13
20.65000,13
20.65833,13
20.66667,13
20.67500,13
20.68333,13
20.69167,13
20.70000,13
20.70833,13
20.71667,13
20.72500,13
20.73333,13
20.74167,12
20.75000,12
20.75833,12
20.76667,12
20.77500,12
20.78333,12
20.79167,11
20.80000,11
20.80833,11
20.81667,10
20.82500,10
20.83333,10
20.84167,10
20.85000,9
20.85833,9
20.86667,9
20.87500,9
20.88333,9
20.89167,9
20.90000,9
20.90833,9
20.91667,9
20.92500,9
20.93333,9
20.94167,9
20.95000,9
20.95833,9
20.96667,9
20.97500,9
20.98333,9
20.99167,9
21.00000,9
21.00833,9
21.01667,8
21.02500,8
21.03333,8
21.04167,8
21.05000,8
21.05833,7
21.06667,7
21.07500,7
21.08333,8
21.09167,8
21.10000,7
21.10833,7
21.11667,6
21.12500,6
21.13333,6
21.14167,6
21.15000,6
21.15833,6
21.16667,6
21.17500,6
21.18333,7
21.19167,7
21.20000,7
21.20833,7
21.21667,7
21.22500,7
21.23333,7
21.24167,7
21.25000,7
21.25833,6
21.26667,6
21.27500,6
21.28333,6
21.29167,6
21.30000,6
21.30833,7
21.31667,7
21.32500,7
21.33333,7
21.34167,7
21.35000,8
21.35833,8
21.36667,9
21.37500,9
21.38333,10
21.39167,10
21.40000,11
21.40833,11
21.41667,12
21.42500,13
21.43333,14
21.44167,15
21.45000,16
21.45833,18
21.46667,20
21.47500,23
21.48333,25
21.49167,27
21.50000,30
21.50833,34
21.51667,38
21.52500,42
21.53333,47
21.54167,53
21.55000,59
21.55833,67
21.56667,75
21.57500,84
21.58333,94
21.59167,106
21.60000,119
21.60833,134
21.61667,150
21.62500,169
21.63333,190
21.64167,213
21.65000,239
21.65833,268
21.66667,300
21.67500,335
21.68333,373
21.69167,415
21.70000,461
21.70833,512
21.71667,566
21.72500,626
21.73333,691
21.74167,761
21.75000,836
21.75833,917
21.76667,1004
21.77500,1097
21.78333,1195
21.79167,1298
21.80000,1408
21.80833,1523
21.81667,1643
21.82500,1768
21.83333,1899
21.84167,2034
21.85000,2173
21.85833,2315
21.86667,2462
21.87500,2611
21.88333,2762
21.89167,2914
21.90000,3067
21.90833,3220
21.91667,3371
21.92500,3522
21.93333,3670
21.94167,3815
21.95000,3955
21.95833,4090
21.96667,4220
21.97500,4343
21.98333,4458
21.99167,4565
22.00000,4663
22.00833,4752
22.01667,4831
22.02500,4900
22.03333,4958
22.04167,5005
22.05000,5040
22.05833,5064
22.06667,5077
22.07500,5078
22.08333,5068
22.09167,5046
22.10000,5013
22.10833,4970
22.11667,4916
22.12500,4852
22.13333,4779
22.14167,4698
22.15000,4608
22.15833,4510
22.16667,4406
22.17500,4295
22.18333,4179
22.19167,4057
22.20000,3932
22.20833,3803
22.21667,3672
22.22500,3539
22.23333,3404
22.24167,3268
22.25000,3133
22.25833,2997
22.26667,2863
22.27500,2731
22.28333,2600
22.29167,2472
22.30000,2346
22.30833,2224
22.31667,2104
22.32500,1988
22.33333,1876
22.34167,1767
22.35000,1663
22.35833,1563
22.36667,1467
22.37500,1375
22.38333,1288
22.39167,1204
22.40000,1125
22.40833,1050
22.41667,979
22.42500,912
22.43333,849
22.44167,789
22.45000,734
22.45833,681
22.46667,633
22.47500,587
22.48333,544
22.49167,504
22.50000,467
22.50833,433
22.51667,401
22.52500,371
22.53333,343
22.54167,318
22.55000,295
22.55833,273
22.56667,253
22.57500,235
22.58333,218
22.59167,204
22.60000,190
22.60833,176
22.61667,164
22.62500,152
22.63333,142
22.64167,133
22.65000,124
22.65833,116
22.66667,109
22.67500,102
22.68333,96
22.69167,90
22.70000,85
22.70833,81
22.71667,77
22.72500,73
22.73333,69
22.74167,65
22.75000,62
22.75833,58
22.76667,56
22.77500,54
22.78333,51
22.79167,50
22.80000,48
22.80833,46
22.81667,44
22.82500,42
22.83333,40
22.84167,39
22.85000,38
22.85833,36
22.86667,35
22.87500,34
22.88333,33
22.89167,32
22.90000,31
22.90833,30
22.91667,30
22.92500,29
22.93333,29
22.94167,28
22.95000,27
22.95833,26
22.96667,25
22.97500,25
22.98333,24
22.99167,24
23.00000,24
23.00833,24
23.01667,23
23.02500,23
23.03333,22
23.04167,22
23.05000,22
23.05833,22
23.06667,21
23.07500,21
23.08333,21
23.09167,20
23.10000,20
23.10833,19
23.11667,19
23.12500,19
23.13333,18
23.14167,18
23.15000,17
23.15833,18
23.16667,18
23.17500,17
23.18333,17
23.19167,17
23.20000,17
23.20833,17
23.21667,16
23.22500,16
23.23333,16
23.24167,16
23.25000,15
23.25833,15
23.26667,15
23.27500,15
23.28333,15
23.29167,15
23.30000,15
23.30833,14
23.31667,14
23.32500,14
23.33333,14
23.34167,14
23.35000,13
23.35833,13
23.36667,13
23.37500,13
23.38333,13
23.39167,12
23.40000,12
23.40833,13
23.41667,13
23.42500,12
23.43333,12
23.44167,12
23.45000,11
23.45833,11
23.46667,10
23.47500,10
23.48333,10
23.49167,10
23.50000,10
23.50833,10
23.51667,10
23.52500,10
23.53333,9
23.54167,9
23.55000,9
23.55833,9
23.56667,9
23.57500,9
23.58333,9
23.59167,9
23.60000,8
23.60833,8
23.61667,8
23.62500,7
23.63333,7
23.64167,7
23.65000,6
23.65833,6
23.66667,6
23.67500,6
23.68333,6
23.69167,6
23.70000,6
23.70833,6
23.71667,6
23.72500,6
23.73333,6
23.74167,5
23.75000,5
23.75833,5
23.76667,6
23.77500,6
23.78333,6
23.79167,6
23.80000,6
23.80833,5
23.81667,5
23.82500,5
23.83333,5
23.84167,5
23.85000,5
23.85833,5
23.86667,5
23.87500,5
23.88333,4
23.89167,4
23.90000,4
23.90833,4
23.91667,4
23.92500,4
23.93333,4
23.94167,4
23.95000,4
23.95833,4
23.96667,4
23.97500,4
23.98333,4
23.99167,5
24.00000,4
24.00833,4
24.01667,4
24.02500,4
24.03333,4
24.04167,4
24.05000,4
24.05833,4
24.06667,4
24.07500,4
24.08333,4
24.09167,4
24.10000,4
24.10833,4
24.11667,4
24.12500,4
24.13333,4
24.14167,4
24.15000,4
24.15833,4
24.16667,3
24.17500,3
24.18333,3
24.19167,3
24.20000,3
24.20833,3
24.21667,3
24.22500,3
24.23333,3
24.24167,3
24.25000,3
24.25833,3
24.26667,3
24.27500,3
24.28333,4
24.29167,4
24.30000,4
24.30833,4
24.31667,5
24.32500,5
24.33333,6
24.34167,6
24.35000,6
24.35833,6
24.36667,7
24.37500,7
24.38333,8
24.39167,8
24.40000,8
24.40833,9
24.41667,10
24.42500,11
24.43333,12
24.44167,13
24.45000,15
24.45833,17
24.46667,18
24.47500,20
24.48333,23
24.49167,25
24.50000,27
24.50833,30
24.51667,33
24.52500,37
24.53333,41
24.54167,46
24.55000,51
24.55833,57
24.56667,63
24.57500,70
24.58333,78
24.59167,86
24.60000,95
24.60833,105
24.61667,116
24.62500,128
24.63333,141
24.64167,156
24.65000,171
24.65833,188
24.66667,206
24.67500,226
24.68333,247
24.69167,269
24.70000,293
24.70833,319
24.71667,347
24.72500,376
24.73333,407
24.74167,440
24.75000,475
24.75833,512
24.76667,550
24.77500,591
24.78333,633
24.79167,677
24.80000,722
24.80833,769
24.81667,817
24.82500,867
24.83333,918
24.84167,970
24.85000,1023
24.85833,1076
24.86667,1130
24.87500,1184
24.88333,1238
24.89167,1292
24.90000,1347
24.90833,1400
24.91667,1453
24.92500,1505
24.93333,1555
24.94167,1603
24.95000,1651
24.95833,1696
24.96667,1739
24.97500,1780
24.98333,1817
24.99167,1851
25.00000,1883
25.00833,1910
25.01667,1935
25.02500,1956
25.03333,1974
25.04167,1988
25.05000,1999
25.05833,2005
25.06667,2008
25.07500,2007
25.08333,2002
25.09167,1993
25.10000,1981
25.10833,1965
25.11667,1945
25.12500,1922
25.13333,1897
25.14167,1868
25.15000,1836
25.15833,1802
25.16667,1765
25.17500,1726
25.18333,1684
25.19167,1641
25.20000,1597
25.20833,1551
25.21667,1504
25.22500,1456
25.23333,1407
25.24167,1357
25.25000,1308
25.25833,1258
25.26667,1208
25.27500,1158
25.28333,1109
25.29167,1060
25.30000,1012
25.30833,964
25.31667,918
25.32500,873
25.33333,829
25.34167,786
25.35000,744
25.35833,703
25.36667,663
25.37500,625
25.38333,588
25.39167,553
25.40000,519
25.40833,487
25.41667,457
25.42500,428
25.43333,400
25.44167,374
25.45000,350
25.45833,326
25.46667,304
25.47500,282
25.48333,263
25.49167,244
25.50000,227
25.50833,211
25.51667,196
25.52500,182
25.53333,169
25.54167,157
25.55000,145
25.55833,134
25.56667,124
25.57500,114
25.58333,106
25.59167,98
25.60000,91
25.60833,84
25.61667,78
25.62500,72
25.63333,67
25.64167,63
25.65000,58
25.65833,54
25.66667,50
25.67500,47
25.68333,43
25.69167,40
25.70000,37
25.70833,35
25.71667,33
25.72500,31
25.73333,29
25.74167,27
25.75000,26
25.75833,24
25.76667,23
25.77500,22
25.78333,21
25.79167,20
25.80000,19
25.80833,18
25.81667,17
25.82500,16
25.83333,15
25.84167,14
25.85000,14
25.85833,13
25.86667,12
25.87500,12
25.88333,11
25.89167,11
25.90000,11
25.90833,10
25.91667,10
25.92500,10
25.93333,9
25.94167,9
25.95000,9
25.95833,8
25.96667,8
25.97500,8
25.98333,8
25.99167,8
26.00000,8
26.00833,8
26.01667,8
26.02500,8
26.03333,7
26.04167,7
26.05000,7
26.05833,7
26.06667,7
26.07500,7
26.08333,7
26.09167,6
26.10000,6
26.10833,6
26.11667,5
26.12500,5
26.13333,5
26.14167,5
26.15000,4
26.15833,4
26.16667,4
26.17500,4
26.18333,4
26.19167,4
26.20000,4
26.20833,4
26.21667,4
26.22500,4
26.23333,4
26.24167,4
26.25000,4
26.25833,4
26.26667,3
26.27500,3
26.28333,4
26.29167,4
26.30000,4
26.30833,4
26.31667,4
26.32500,4
26.33333,4
26.34167,3
26.35000,3
26.35833,3
26.36667,3
26.37500,3
26.38333,3
26.39167,3
26.40000,3
26.40833,3
26.41667,4
26.42500,4
26.43333,3
26.44167,3
26.45000,3
26.45833,3
26.46667,3
26.47500,3
26.48333,3
26.49167,3
26.50000,3
26.50833,3
26.51667,3
26.52500,3
26.53333,3
26.54167,3
26.55000,3
26.55833,3
26.56667,3
26.57500,3
26.58333,3
26.59167,2
26.60000,2
26.60833,2
26.61667,2
26.62500,3
26.63333,3
26.64167,3
26.65000,3
26.65833,4
26.66667,4
26.67500,4
26.68333,3
26.69167,3
26.70000,4
26.70833,4
26.71667,4
26.72500,3
26.73333,3
26.74167,3
26.75000,3
26.75833,3
26.76667,3
26.77500,3
26.78333,3
26.79167,3
26.80000,3
26.80833,2
26.81667,2
26.82500,3
26.83333,3
26.84167,3
26.85000,3
26.85833,3
26.86667,3
26.87500,3
26.88333,3
26.89167,3
26.90000,3
26.90833,2
26.91667,2
26.92500,2
26.93333,2
26.94167,2
26.95000,2
26.95833,2
26.96667,2
26.97500,2
26.98333,2
26.99167,1
27.00000,1
27.00833,1
27.01667,1
27.02500,1
27.03333,2
27.04167,2
27.05000,2
27.05833,2
27.06667,2
27.07500,2
27.08333,2
27.09167,2
27.10000,2
27.10833,2
27.11667,2
27.12500,2
27.13333,2
27.14167,2
27.15000,2
27.15833,2
27.16667,2
27.17500,2
27.18333,2
27.19167,2
27.20000,2
27.20833,2
27.21667,2
27.22500,2
27.23333,2
27.24167,2
27.25000,1
27.25833,1
27.26667,1
27.27500,1
27.28333,1
27.29167,1
27.30000,2
27.30833,2
27.31667,2
27.32500,2
27.33333,2
27.34167,2
27.35000,2
27.35833,2
27.36667,2
27.37500,1
27.38333,1
27.39167,1
27.40000,2
27.40833,1
27.41667,1
27.42500,1
27.43333,1
27.44167,1
27.45000,1
27.45833,1
27.46667,1
27.47500,1
27.48333,0
27.49167,0
27.50000,0
27.50833,0
27.51667,0
27.52500,1
27.53333,1
27.54167,0
27.55000,1
27.55833,1
27.56667,0
27.57500,0
27.58333,0
27.59167,0
27.60000,-0
27.60833,-0
27.61667,0
27.62500,1
27.63333,1
27.64167,1
27.65000,1
27.65833,1
27.66667,1
27.67500,0
27.68333,0
27.69167,0
27.70000,-0
27.70833,-0
27.71667,-1
27.72500,-1
27.73333,-1
27.74167,-1
27.75000,-1
27.75833,-1
27.76667,-1
27.77500,-1
27.78333,-2
27.79167,-2
27.80000,-3
27.80833,-3
27.81667,-3
27.82500,-4
27.83333,-5
27.84167,-5
27.85000,-6
27.85833,-6
27.86667,-7
27.87500,-7
27.88333,-8
27.89167,-9
27.90000,-10
27.90833,-11
27.91667,-11
27.92500,-12
27.93333,-13
27.94167,-14
27.95000,-15
27.95833,-17
27.96667,-19
27.97500,-20
27.98333,-22
27.99167,-23
28.00000,-24
28.00833,-26
28.01667,-28
28.02500,-30
28.03333,-32
28.04167,-34
28.05000,-36
28.05833,-38
28.06667,-40
28.07500,-42
28.08333,-45
28.09167,-47
28.10000,-50
28.10833,-53
28.11667,-55
28.12500,-58
28.13333,-61
28.14167,-64
28.15000,-67
28.15833,-69
28.16667,-72
28.17500,-75
28.18333,-78
28.19167,-81
28.20000,-84
28.20833,-87
28.21667,-90
28.22500,-93
28.23333,-96
28.24167,-99
28.25000,-101
28.25833,-104
28.26667,-106
28.27500,-109
28.28333,-112
28.29167,-115
28.30000,-117
28.30833,-120
28.31667,-122
28.32500,-124
28.33333,-126
28.34167,-128
28.35000,-130
28.35833,-132
28.36667,-134
28.37500,-135
28.38333,-137
28.39167,-138
28.40000,-139
28.40833,-139
28.41667,-140
28.42500,-140
28.43333,-141
28.44167,-141
28.45000,-141
28.45833,-141
28.46667,-140
28.47500,-139
28.48333,-139
28.49167,-138
28.50000,-137
28.50833,-136
28.51667,-136
28.52500,-135
28.53333,-134
28.54167,-132
28.55000,-131
28.55833,-128
28.56667,-126
28.57500,-124
28.58333,-122
28.59167,-120
28.60000,-117
28.60833,-115
28.61667,-113
28.62500,-110
28.63333,-108
28.64167,-105
28.65000,-103
28.65833,-101
28.66667,-99
28.67500,-96
28.68333,-94
28.69167,-91
28.70000,-88
28.70833,-86
28.71667,-83
28.72500,-80
28.73333,-78
28.74167,-76
28.75000,-74
28.75833,-72
28.76667,-69
28.77500,-67
28.78333,-65
28.79167,-63
28.80000,-60
28.80833,-58
28.81667,-56
28.82500,-54
28.83333,-52
28.84167,-50
28.85000,-48
28.85833,-46
28.86667,-44
28.87500,-43
28.88333,-41
28.89167,-40
28.90000,-39
28.90833,-37
28.91667,-35
28.92500,-34
28.93333,-33
28.94167,-32
28.95000,-31
28.95833,-30
28.96667,-29
28.97500,-28
28.98333,-27
28.99167,-26
29.00000,-25
29.00833,-24
29.01667,-23
29.02500,-22
29.03333,-21
29.04167,-21
29.05000,-20
29.05833,-20
29.06667,-19
29.07500,-18
29.08333,-18
29.09167,-18
29.10000,-17
29.10833,-16
29.11667,-16
29.12500,-16
29.13333,-15
29.14167,-15
29.15000,-14
29.15833,-14
29.16667,-14
29.17500,-13
29.18333,-13
29.19167,-13
29.20000,-13
29.20833,-13
29.21667,-13
29.22500,-13
29.23333,-13
29.24167,-13
29.25000,-13
29.25833,-13
29.26667,-12
29.27500,-12
29.28333,-12
29.29167,-12
29.30000,-12
29.30833,-12
29.31667,-12
29.32500,-12
29.33333,-12
29.34167,-12
29.35000,-12
29.35833,-11
29.36667,-11
29.37500,-11
29.38333,-11
29.39167,-11
29.40000,-11
29.40833,-11
29.41667,-11
29.42500,-11
29.43333,-11
29.44167,-11
29.45000,-11
29.45833,-10
29.46667,-10
29.47500,-10
29.48333,-10
29.49167,-10
29.50000,-10
29.50833,-10
29.51667,-10
29.52500,-10
29.53333,-11
29.54167,-11
29.55000,-12
29.55833,-12
29.56667,-12
29.57500,-13
29.58333,-13
29.59167,-13
29.60000,-13
29.60833,-13
29.61667,-14
29.62500,-14
29.63333,-14
29.64167,-15
29.65000,-15
29.65833,-16
29.66667,-16
29.67500,-17
29.68333,-17
29.69167,-17
29.70000,-17
29.70833,-18
29.71667,-19
29.72500,-19
29.73333,-20
29.74167,-21
29.75000,-21
29.75833,-22
29.76667,-23
29.77500,-24
29.78333,-25
29.79167,-26
29.80000,-26
29.80833,-27
29.81667,-28
29.82500,-29
29.83333,-30
29.84167,-30
29.85000,-31
29.85833,-32
29.86667,-33
29.87500,-34
29.88333,-35
29.89167,-36
29.90000,-37
29.90833,-38
29.91667,-39
29.92500,-39
29.93333,-40
29.94167,-41
29.95000,-42
29.95833,-43
29.96667,-44
29.97500,-44
29.98333,-45
29.99167,-46
30.00000,-47
30.00833,-48
30.01667,-49
30.02500,-50
30.03333,-51
30.04167,-52
30.05000,-53
30.05833,-54
30.06667,-55
30.07500,-55
30.08333,-56
30.09167,-56
30.10000,-57
30.10833,-57
30.11667,-57
30.12500,-58
30.13333,-58
30.14167,-59
30.15000,-59
30.15833,-60
30.16667,-60
30.17500,-60
30.18333,-61
30.19167,-61
30.20000,-61
30.20833,-61
30.21667,-60
30.22500,-60
30.23333,-60
30.24167,-59
30.25000,-59
30.25833,-59
30.26667,-58
30.27500,-58
30.28333,-58
30.29167,-58
30.30000,-58
30.30833,-57
30.31667,-57
30.32500,-56
30.33333,-55
30.34167,-55
30.35000,-54
30.35833,-53
30.36667,-53
30.37500,-52
30.38333,-51
30.39167,-50
30.40000,-49
30.40833,-48
30.41667,-47
30.42500,-46
30.43333,-45
30.44167,-44
30.45000,-44
30.45833,-43
30.46667,-42
30.47500,-41
30.48333,-40
30.49167,-39
30.50000,-38
30.50833,-38
30.51667,-37
30.52500,-37
30.53333,-36
30.54167,-35
30.55000,-34
30.55833,-33
30.56667,-33
30.57500,-32
30.58333,-31
30.59167,-30
30.60000,-30
30.60833,-29
30.61667,-29
30.62500,-28
30.63333,-28
30.64167,-27
30.65000,-27
30.65833,-26
30.66667,-25
30.67500,-25
30.68333,-24
30.69167,-24
30.70000,-23
30.70833,-23
30.71667,-23
30.72500,-22
30.73333,-22
30.74167,-22
30.75000,-22
30.75833,-21
30.76667,-21
30.77500,-20
30.78333,-20
30.79167,-19
30.80000,-19
30.80833,-19
30.81667,-19
30.82500,-19
30.83333,-19
30.84167,-18
30.85000,-18
30.85833,-19
30.86667,-19
30.87500,-19
30.88333,-18
30.89167,-18
30.90000,-18
30.90833,-18
30.91667,-17
30.92500,-18
30.93333,-17
30.94167,-18
30.95000,-18
30.95833,-18
30.96667,-18
30.97500,-17
30.98333,-17
30.99167,-17
31.00000,-16
31.00833,-16
31.01667,-16
31.02500,-16
31.03333,-16
31.04167,-16
31.05000,-16
31.05833,-16
31.06667,-15
31.07500,-15
31.08333,-15
31.09167,-15
31.10000,-15
31.10833,-15
31.11667,-15
31.12500,-15
31.13333,-16
31.14167,-16
31.15000,-16
31.15833,-16
31.16667,-17
31.17500,-16
31.18333,-16
31.19167,-16
31.20000,-16
31.20833,-15
31.21667,-15
31.22500,-15
31.23333,-15
31.24167,-15
31.25000,-15
31.25833,-15
31.26667,-15
31.27500,-14
31.28333,-14
31.29167,-15
31.30000,-15
31.30833,-16
31.31667,-16
31.32500,-16
31.33333,-16
31.34167,-16
31.35000,-16
31.35833,-15
31.36667,-15
31.37500,-15
31.38333,-15
31.39167,-15
31.40000,-15
31.40833,-15
31.41667,-15
31.42500,-15
31.43333,-15
31.44167,-15
31.45000,-15
31.45833,-15
31.46667,-15
31.47500,-15
31.48333,-15
31.49167,-15
31.50000,-14
31.50833,-14
31.51667,-14
31.52500,-14
31.53333,-14
31.54167,-14
31.55000,-14
31.55833,-14
31.56667,-14
31.57500,-14
31.58333,-14
31.59167,-14
31.60000,-14
31.60833,-14
31.61667,-14
31.62500,-14
31.63333,-14
31.64167,-14
31.65000,-15
31.65833,-15
31.66667,-15
31.67500,-15
31.68333,-14
31.69167,-14
31.70000,-14
31.70833,-15
31.71667,-15
31.72500,-15
31.73333,-15
31.74167,-15
31.75000,-15
31.75833,-15
31.76667,-15
31.77500,-15
31.78333,-15
31.79167,-15
31.80000,-15
31.80833,-15
31.81667,-15
31.82500,-15
31.83333,-15
31.84167,-15
31.85000,-15
31.85833,-14
31.86667,-14
31.87500,-14
31.88333,-14
31.89167,-15
31.90000,-15
31.90833,-15
31.91667,-15
31.92500,-15
31.93333,-15
31.94167,-15
31.95000,-15
31.95833,-15
31.96667,-15
31.97500,-15
31.98333,-15
31.99167,-15
32.00000,-15
32.00833,-15
32.01667,-15
32.02500,-15
32.03333,-15
32.04167,-15
32.05000,-15
32.05833,-14
32.06667,-14
32.07500,-14
32.08333,-15
32.09167,-15
32.10000,-15
32.10833,-16
32.11667,-16
32.12500,-16
32.13333,-16
32.14167,-16
32.15000,-15
32.15833,-15
32.16667,-15
32.17500,-14
32.18333,-14
32.19167,-14
32.20000,-14
32.20833,-14
32.21667,-13
32.22500,-13
32.23333,-14
32.24167,-14
32.25000,-14
32.25833,-14
32.26667,-14
32.27500,-15
32.28333,-15
32.29167,-15
32.30000,-14
32.30833,-14
32.31667,-14
32.32500,-14
32.33333,-14
32.34167,-14
32.35000,-14
32.35833,-14
32.36667,-14
32.37500,-14
32.38333,-14
32.39167,-15
32.40000,-14
32.40833,-15
32.41667,-15
32.42500,-15
32.43333,-15
32.44167,-15
32.45000,-15
32.45833,-15
32.46667,-15
32.47500,-15
32.48333,-15
32.49167,-15
32.50000,-15
32.50833,-15
32.51667,-15
32.52500,-15
32.53333,-15
32.54167,-15
32.55000,-15
32.55833,-15
32.56667,-15
32.57500,-15
32.58333,-15
32.59167,-15
32.60000,-15
32.60833,-15
32.61667,-15
32.62500,-14
32.63333,-14
32.64167,-14
32.65000,-14
32.65833,-15
32.66667,-15
32.67500,-15
32.68333,-15
32.69167,-15
32.70000,-15
32.70833,-15
32.71667,-15
32.72500,-14
32.73333,-14
32.74167,-15
32.75000,-15
32.75833,-15
32.76667,-16
32.77500,-16
32.78333,-16
32.79167,-16
32.80000,-16
32.80833,-16
32.81667,-16
32.82500,-16
32.83333,-16
32.84167,-16
32.85000,-16
32.85833,-16
32.86667,-16
32.87500,-16
32.88333,-16
32.89167,-16
32.90000,-16
32.90833,-16
32.91667,-16
32.92500,-15
32.93333,-16
32.94167,-16
32.95000,-15
32.95833,-15
32.96667,-15
32.97500,-15
32.98333,-16
32.99167,-16
33.00000,-16
33.00833,-16
33.01667,-16
33.02500,-16
33.03333,-16
33.04167,-17
33.05000,-17
33.05833,-17
33.06667,-17
33.07500,-17
33.08333,-17
33.09167,-17
33.10000,-17
33.10833,-17
33.11667,-17
33.12500,-17
33.13333,-17
33.14167,-17
33.15000,-16
33.15833,-16
33.16667,-16
33.17500,-16
33.18333,-16
33.19167,-16
33.20000,-16
33.20833,-16
33.21667,-17
33.22500,-17
33.23333,-17
33.24167,-17
33.25000,-17
33.25833,-17
33.26667,-17
33.27500,-17
33.28333,-17
33.29167,-16
33.30000,-16
33.30833,-16
33.31667,-16
33.32500,-17
33.33333,-17
33.34167,-17
33.35000,-16
33.35833,-16
33.36667,-16
33.37500,-17
33.38333,-17
33.39167,-17
33.40000,-17
33.40833,-17
33.41667,-17
33.42500,-17
33.43333,-17
33.44167,-17
33.45000,-17
33.45833,-17
33.46667,-17
33.47500,-17
33.48333,-17
33.49167,-17
33.50000,-17
33.50833,-17
33.51667,-17
33.52500,-17
33.53333,-17
33.54167,-17
33.55000,-17
33.55833,-17
33.56667,-17
33.57500,-18
33.58333,-18
33.59167,-18
33.60000,-18
33.60833,-18
33.61667,-18
33.62500,-18
33.63333,-18
33.64167,-18
33.65000,-17
33.65833,-17
33.66667,-18
33.67500,-18
33.68333,-18
33.69167,-18
33.70000,-18
33.70833,-18
33.71667,-18
33.72500,-18
33.73333,-18
33.74167,-18
33.75000,-18
33.75833,-18
33.76667,-18
33.77500,-18
33.78333,-18
33.79167,-18
33.80000,-18
33.80833,-18
33.81667,-18
33.82500,-18
33.83333,-18
33.84167,-18
33.85000,-18
33.85833,-19
33.86667,-18
33.87500,-18
33.88333,-18
33.89167,-18
33.90000,-18
33.90833,-18
33.91667,-18
33.92500,-18
33.93333,-18
33.94167,-18
33.95000,-18
33.95833,-18
33.96667,-19
33.97500,-19
33.98333,-19
33.99167,-19
34.00000,-19
34.00833,-18
34.01667,-18
34.02500,-18
34.03333,-19
34.04167,-19
34.05000,-19
34.05833,-19
34.06667,-18
34.07500,-18
34.08333,-18
34.09167,-19
34.10000,-19
34.10833,-19
34.11667,-18
34.12500,-19
34.13333,-19
34.14167,-19
34.15000,-19
34.15833,-19
34.16667,-19
34.17500,-19
34.18333,-19
34.19167,-19
34.20000,-19
34.20833,-19
34.21667,-19
34.22500,-19
34.23333,-19
34.24167,-19
34.25000,-20
34.25833,-19
34.26667,-19
34.27500,-19
34.28333,-19
34.29167,-19
34.30000,-18
34.30833,-18
34.31667,-18
34.32500,-18
34.33333,-18
34.34167,-18
34.35000,-18
34.35833,-18
34.36667,-19
34.37500,-19
34.38333,-19
34.39167,-19
34.40000,-19
34.40833,-19
34.41667,-19
34.42500,-18
34.43333,-18
34.44167,-18
34.45000,-19
34.45833,-19
34.46667,-19
34.47500,-19
34.48333,-19
34.49167,-19
34.50000,-19
34.50833,-19
34.51667,-19
34.52500,-19
34.53333,-19
34.54167,-19
34.55000,-19
34.55833,-19
34.56667,-19
34.57500,-19
34.58333,-19
34.59167,-19
34.60000,-19
34.60833,-19
34.61667,-19
34.62500,-18
34.63333,-18
34.64167,-18
34.65000,-18
34.65833,-18
34.66667,-18
34.67500,-18
34.68333,-18
34.69167,-18
34.70000,-18
34.70833,-18
34.71667,-18
34.72500,-18
34.73333,-18
34.74167,-18
34.75000,-18
34.75833,-18
34.76667,-18
34.77500,-19
34.78333,-19
34.79167,-20
34.80000,-20
34.80833,-20
34.81667,-19
34.82500,-19
34.83333,-18
34.84167,-18
34.85000,-19
34.85833,-19
34.86667,-19
34.87500,-20
34.88333,-20
34.89167,-19
34.90000,-19
34.90833,-19
34.91667,-20
34.92500,-20
34.93333,-20
34.94167,-20
34.95000,-20
34.95833,-20
34.96667,-20
34.97500,-20
34.98333,-20
34.99167,-20
35.00000,-20
35.00833,-20
35.01667,-20
35.02500,-20
35.03333,-20
35.04167,-20
35.05000,-20
35.05833,-20
35.06667,-20
35.07500,-20
35.08333,-20
35.09167,-20
35.10000,-20
35.10833,-19
35.11667,-19
35.12500,-19
35.13333,-19
35.14167,-20
35.15000,-19
35.15833,-19
35.16667,-19
35.17500,-19
35.18333,-19
35.19167,-19
35.20000,-19
35.20833,-19
35.21667,-19
35.22500,-19
35.23333,-19
35.24167,-19
35.25000,-19
35.25833,-19
35.26667,-19
35.27500,-19
35.28333,-20
35.29167,-19
35.30000,-20
35.30833,-20
35.31667,-20
35.32500,-20
35.33333,-20
35.34167,-20
35.35000,-20
35.35833,-20
35.36667,-20
35.37500,-20
35.38333,-20
35.39167,-20
35.40000,-20
35.40833,-20
35.41667,-20
35.42500,-20
35.43333,-20
35.44167,-20
35.45000,-20
35.45833,-20
35.46667,-20
35.47500,-20
35.48333,-20
35.49167,-19
35.50000,-20
35.50833,-20
35.51667,-20
35.52500,-21
35.53333,-21
35.54167,-21
35.55000,-21
35.55833,-20
35.56667,-20
35.57500,-20
35.58333,-20
35.59167,-20
35.60000,-19
35.60833,-19
35.61667,-20
35.62500,-20
35.63333,-20
35.64167,-20
35.65000,-19
35.65833,-19
35.66667,-20
35.67500,-20
35.68333,-20
35.69167,-20
35.70000,-20
35.70833,-20
35.71667,-20
35.72500,-20
35.73333,-20
35.74167,-20
35.75000,-20
35.75833,-20
35.76667,-20
35.77500,-20
35.78333,-20
35.79167,-20
35.80000,-20
35.80833,-20
35.81667,-20
35.82500,-20
35.83333,-21
35.84167,-21
35.85000,-22
35.85833,-22
35.86667,-22
35.87500,-22
35.88333,-21
35.89167,-21
35.90000,-21
35.90833,-22
35.91667,-22
35.92500,-21
35.93333,-21
35.94167,-21
35.95000,-21
35.95833,-21
35.96667,-21
35.97500,-21
35.98333,-21
35.99167,-21
36.00000,-21
36.00833,-21
36.01667,-21
36.02500,-21
36.03333,-21
36.04167,-21
36.05000,-21
36.05833,-21
36.06667,-21
36.07500,-21
36.08333,-21
36.09167,-21
36.10000,-21
36.10833,-21
36.11667,-21
36.12500,-21
36.13333,-21
36.14167,-21
36.15000,-21
36.15833,-21
36.16667,-21
36.17500,-21
36.18333,-22
36.19167,-22
36.20000,-22
36.20833,-22
36.21667,-22
36.22500,-22
36.23333,-22
36.24167,-22
36.25000,-22
36.25833,-22
36.26667,-22
36.27500,-22
36.28333,-22
36.29167,-22
36.30000,-22
36.30833,-22
36.31667,-22
36.32500,-22
36.33333,-22
36.34167,-21
36.35000,-21
36.35833,-21
36.36667,-22
36.37500,-22
36.38333,-22
36.39167,-22
36.40000,-22
36.40833,-22
36.41667,-22
36.42500,-22
36.43333,-22
36.44167,-22
36.45000,-22
36.45833,-23
36.46667,-22
36.47500,-22
36.48333,-22
36.49167,-22
36.50000,-23
36.50833,-23
36.51667,-23
36.52500,-23
36.53333,-23
36.54167,-22
36.55000,-22
36.55833,-22
36.56667,-22
36.57500,-22
36.58333,-22
36.59167,-22
36.60000,-22
36.60833,-22
36.61667,-21
36.62500,-21
36.63333,-21
36.64167,-21
36.65000,-21
36.65833,-21
36.66667,-22
36.67500,-22
36.68333,-22
36.69167,-23
36.70000,-23
36.70833,-22
36.71667,-22
36.72500,-22
36.73333,-22
36.74167,-22
36.75000,-22
36.75833,-22
36.76667,-22
36.77500,-22
36.78333,-22
36.79167,-22
36.80000,-22
36.80833,-21
36.81667,-21
36.82500,-21
36.83333,-21
36.84167,-22
36.85000,-22
36.85833,-22
36.86667,-22
36.87500,-21
36.88333,-21
36.89167,-21
36.90000,-21
36.90833,-21
36.91667,-21
36.92500,-21
36.93333,-21
36.94167,-21
36.95000,-21
36.95833,-21
36.96667,-21
36.97500,-21
36.98333,-22
36.99167,-22
37.00000,-22
37.00833,-22
37.01667,-22
37.02500,-22
37.03333,-21
37.04167,-21
37.05000,-22
37.05833,-22
37.06667,-22
37.07500,-22
37.08333,-22
37.09167,-22
37.10000,-21
37.10833,-21
37.11667,-21
37.12500,-22
37.13333,-22
37.14167,-22
37.15000,-23
37.15833,-23
37.16667,-23
37.17500,-23
37.18333,-23
37.19167,-23
37.20000,-23
37.20833,-23
37.21667,-23
37.22500,-23
37.23333,-23
37.24167,-23
37.25000,-23
37.25833,-23
37.26667,-23
37.27500,-23
37.28333,-23
37.29167,-23
37.30000,-24
37.30833,-24
37.31667,-24
37.32500,-24
37.33333,-24
37.34167,-23
37.35000,-23
37.35833,-22
37.36667,-22
37.37500,-22
37.38333,-22
37.39167,-22
37.40000,-22
37.40833,-23
37.41667,-23
37.42500,-23
37.43333,-23
37.44167,-23
37.45000,-23
37.45833,-23
37.46667,-23
37.47500,-23
37.48333,-23
37.49167,-23
37.50000,-23
37.50833,-22
37.51667,-22
37.52500,-22
37.53333,-21
37.54167,-21
37.55000,-21
37.55833,-21
37.56667,-21
37.57500,-21
37.58333,-22
37.59167,-22
37.60000,-22
37.60833,-23
37.61667,-23
37.62500,-23
37.63333,-23
37.64167,-23
37.65000,-22
37.65833,-22
37.66667,-23
37.67500,-23
37.68333,-23
37.69167,-23
37.70000,-23
37.70833,-22
37.71667,-22
37.72500,-22
37.73333,-22
37.74167,-22
37.75000,-22
37.75833,-22
37.76667,-22
37.77500,-21
37.78333,-21
37.79167,-22
37.80000,-22
37.80833,-22
37.81667,-22
37.82500,-22
37.83333,-22
37.84167,-23
37.85000,-23
37.85833,-23
37.86667,-23
37.87500,-23
37.88333,-23
37.89167,-23
37.90000,-23
37.90833,-23
37.91667,-23
37.92500,-23
37.93333,-24
37.94167,-24
37.95000,-24
37.95833,-24
37.96667,-24
37.97500,-24
37.98333,-23
37.99167,-24
38.00000,-24
38.00833,-24
38.01667,-24
38.02500,-24
38.03333,-24
38.04167,-24
38.05000,-24
38.05833,-23
38.06667,-23
38.07500,-24
38.08333,-24
38.09167,-23
38.10000,-23
38.10833,-23
38.11667,-23
38.12500,-24
38.13333,-24
38.14167,-24
38.15000,-24
38.15833,-23
38.16667,-23
38.17500,-23
38.18333,-23
38.19167,-24
38.20000,-24
38.20833,-24
38.21667,-24
38.22500,-23
38.23333,-23
38.24167,-23
38.25000,-23
38.25833,-23
38.26667,-23
38.27500,-23
38.28333,-24
38.29167,-24
38.30000,-24
38.30833,-24
38.31667,-24
38.32500,-24
38.33333,-24
38.34167,-24
38.35000,-24
38.35833,-24
38.36667,-24
38.37500,-24
38.38333,-24
38.39167,-24
38.40000,-24
38.40833,-24
38.41667,-25
38.42500,-25
38.43333,-25
38.44167,-24
38.45000,-24
38.45833,-24
38.46667,-24
38.47500,-24
38.48333,-24
38.49167,-23
38.50000,-23
38.50833,-23
38.51667,-23
38.52500,-23
38.53333,-24
38.54167,-24
38.55000,-24
38.55833,-24
38.56667,-25
38.57500,-25
38.58333,-25
38.59167,-24
38.60000,-25
38.60833,-25
38.61667,-25
38.62500,-25
38.63333,-25
38.64167,-25
38.65000,-25
38.65833,-25
38.66667,-24
38.67500,-24
38.68333,-25
38.69167,-25
38.70000,-25
38.70833,-25
38.71667,-25
38.72500,-25
38.73333,-25
38.74167,-25
38.75000,-25
38.75833,-25
38.76667,-25
38.77500,-25
38.78333,-25
38.79167,-25
38.80000,-25
38.80833,-25
38.81667,-25
38.82500,-25
38.83333,-26
38.84167,-26
38.85000,-26
38.85833,-26
38.86667,-26
38.87500,-25
38.88333,-25
38.89167,-25
38.90000,-25
38.90833,-25
38.91667,-25
38.92500,-25
38.93333,-25
38.94167,-25
38.95000,-25
38.95833,-25
38.96667,-25
38.97500,-25
38.98333,-25
38.99167,-25
39.00000,-25
39.00833,-25
39.01667,-25
39.02500,-25
39.03333,-25
39.04167,-25
39.05000,-25
39.05833,-25
39.06667,-25
39.07500,-25
39.08333,-25
39.09167,-25
39.10000,-25
39.10833,-25
39.11667,-25
39.12500,-25
39.13333,-25
39.14167,-26
39.15000,-26
39.15833,-26
39.16667,-26
39.17500,-26
39.18333,-26
39.19167,-26
39.20000,-26
39.20833,-26
39.21667,-26
39.22500,-27
39.23333,-27
39.24167,-27
39.25000,-27
39.25833,-27
39.26667,-27
39.27500,-26
39.28333,-26
39.29167,-27
39.30000,-27
39.30833,-27
39.31667,-27
39.32500,-27
39.33333,-27
39.34167,-27
39.35000,-27
39.35833,-27
39.36667,-26
39.37500,-26
39.38333,-26
39.39167,-25
39.40000,-25
39.40833,-26
39.41667,-26
39.42500,-26
39.43333,-27
39.44167,-27
39.45000,-27
39.45833,-27
39.46667,-27
39.47500,-27
39.48333,-27
39.49167,-26
39.50000,-26
39.50833,-26
39.51667,-26
39.52500,-26
39.53333,-26
39.54167,-26
39.55000,-26
39.55833,-25
39.56667,-26
39.57500,-26
39.58333,-26
39.59167,-27
39.60000,-27
39.60833,-27
39.61667,-27
39.62500,-27
39.63333,-27
39.64167,-27
39.65000,-27
39.65833,-27
39.66667,-27
39.67500,-27
39.68333,-27
39.69167,-26
39.70000,-27
39.70833,-27
39.71667,-27
39.72500,-27
39.73333,-27
39.74167,-27
39.75000,-27
39.75833,-27
39.76667,-27
39.77500,-27
39.78333,-27
39.79167,-27
39.80000,-27
39.80833,-26
39.81667,-26
39.82500,-26
39.83333,-26
39.84167,-26
39.85000,-26
39.85833,-26
39.86667,-27
39.87500,-27
39.88333,-27
39.89167,-27
39.90000,-27
39.90833,-27
39.91667,-27
39.92500,-27
39.93333,-27
39.94167,-27
39.95000,-27
39.95833,-26
39.96667,-26
39.97500,-27
39.98333,-27
39.99167,-27
40.00000,-27

