[Header]
Application Name,LabSolutions
Version,5.97 SP1
Data File Name,C:\Users\cremerlab\Desktop\griffin\2021-04-03_buffer_calibration\2021-04-03_buffer_calibration_432021_012_012.lcd
Output Date,4/3/2021
Output Time,10:06:39 PM

[File Information]
Type,Data File
Generated,4/3/2021 9:26:20 PM
Generated by,System Administrator
Modified,4/3/2021 10:06:39 PM
Modified by,System Administrator

[Sample Information]
Operator Name,System Administrator
Acquired,4/3/2021 9:26:38 PM
Sample Type,1:Standard
Level,3
Sample Name,2021-04-02_NC_glucose_glycerol_acetate_calibration_0.1mM
Sample ID,012
ISTD Amount1,1
ISTD Amount2,1
ISTD Amount3,1
ISTD Amount4,1
ISTD Amount5,1
ISTD Amount6,1
ISTD Amount7,1
ISTD Amount8,1
ISTD Amount9,1
ISTD Amount10,1
ISTD Amount11,1
ISTD Amount12,1
ISTD Amount13,1
ISTD Amount14,1
ISTD Amount15,1
ISTD Amount16,1
ISTD Amount17,1
ISTD Amount18,1
ISTD Amount19,1
ISTD Amount20,1
ISTD Amount21,1
ISTD Amount22,1
ISTD Amount23,1
ISTD Amount24,1
ISTD Amount25,1
ISTD Amount26,1
ISTD Amount27,1
ISTD Amount28,1
ISTD Amount29,1
ISTD Amount30,1
ISTD Amount31,1
ISTD Amount32,1
Sample Amount,1
Dilution Factor,1
Vial#,12
Injection Volume,20

[Original Files]
Data File,C:\Users\cremerlab\Desktop\griffin\2021-04-03_buffer_calibration\2021-04-03_buffer_calibration_432021_012_012.lcd
Method File,C:\LabSolutions\Data\Project1\organicacidsetc2.lcm
Batch File,C:\Users\cremerlab\Desktop\griffin\2021-04-03_buffer_calibration\2021-04-03_buffer_calibration.lcb
Report Format File,c:\LabSolutions\System\DEFAULT.lsr

[File Description]


[Configuration]
Instrument Name,HPLC-PC-Instrument1
Instrument #,1
Line #,1
# of Detectors,2
Detector ID,Detector A,Detector B
Detector Name,Detector A,Detector B
# of Channels,1,1

[Peak Table(Detector A)]
# of Peaks,0

[Peak Table(Detector B)]
# of Peaks,3
Peak#,R.Time,I.Time,F.Time,Area,Height,A/H,Conc.,Mark,ID#,Name,k',Plate #,Plate Ht.,Tailing,Resolution,Sep.Factor,Area Ratio,Height Ratio,Conc. %,Norm Conc.
1,11.065,10.758,12.917,1250467,69124,18.090,0.000,   ,,,0.000,10695,14.025,1.334,0.000,0.000,0,0,0.000,0.000
2,15.111,14.125,17.908,3160957,117405,26.923,0.000,   ,,,0.366,7138,21.014,0.765,7.078,0.000,0,0,0.000,0.000
3,22.072,21.717,22.633,2464,100,24.706,0.000,   ,,,0.995,17315,8.663,1.194,10.041,2.720,0,0,0.000,0.000

[LC Chromatogram(Detector B-Ch1)]
Interval(msec),500
# of Points,4801
Start Time(min),0.000
End Time(min),40.000
Intensity Units,mV
Intensity Multiplier,0.001
R.Time (min),Intensity
0.00000,-0
0.00833,-0
0.01667,0
0.02500,0
0.03333,0
0.04167,0
0.05000,0
0.05833,0
0.06667,0
0.07500,1
0.08333,1
0.09167,1
0.10000,1
0.10833,1
0.11667,1
0.12500,2
0.13333,2
0.14167,1
0.15000,1
0.15833,1
0.16667,1
0.17500,0
0.18333,0
0.19167,0
0.20000,0
0.20833,0
0.21667,0
0.22500,1
0.23333,1
0.24167,1
0.25000,1
0.25833,2
0.26667,2
0.27500,2
0.28333,2
0.29167,2
0.30000,1
0.30833,1
0.31667,1
0.32500,1
0.33333,1
0.34167,0
0.35000,0
0.35833,0
0.36667,0
0.37500,0
0.38333,1
0.39167,0
0.40000,0
0.40833,0
0.41667,0
0.42500,0
0.43333,1
0.44167,1
0.45000,1
0.45833,1
0.46667,1
0.47500,1
0.48333,1
0.49167,1
0.50000,1
0.50833,1
0.51667,1
0.52500,1
0.53333,1
0.54167,1
0.55000,2
0.55833,2
0.56667,2
0.57500,2
0.58333,2
0.59167,2
0.60000,2
0.60833,2
0.61667,3
0.62500,3
0.63333,2
0.64167,2
0.65000,2
0.65833,1
0.66667,1
0.67500,0
0.68333,0
0.69167,0
0.70000,-0
0.70833,-0
0.71667,-0
0.72500,-0
0.73333,-0
0.74167,-0
0.75000,-0
0.75833,-0
0.76667,-0
0.77500,-0
0.78333,-0
0.79167,-0
0.80000,-0
0.80833,-0
0.81667,-0
0.82500,-0
0.83333,-0
0.84167,0
0.85000,0
0.85833,1
0.86667,1
0.87500,1
0.88333,1
0.89167,1
0.90000,1
0.90833,2
0.91667,1
0.92500,1
0.93333,1
0.94167,1
0.95000,1
0.95833,1
0.96667,1
0.97500,1
0.98333,1
0.99167,1
1.00000,1
1.00833,1
1.01667,1
1.02500,1
1.03333,1
1.04167,1
1.05000,1
1.05833,1
1.06667,1
1.07500,1
1.08333,1
1.09167,1
1.10000,0
1.10833,0
1.11667,0
1.12500,-0
1.13333,-0
1.14167,-1
1.15000,-0
1.15833,-0
1.16667,-0
1.17500,-0
1.18333,-0
1.19167,0
1.20000,0
1.20833,-0
1.21667,-0
1.22500,-0
1.23333,-0
1.24167,-0
1.25000,-0
1.25833,0
1.26667,0
1.27500,0
1.28333,0
1.29167,0
1.30000,1
1.30833,1
1.31667,1
1.32500,1
1.33333,1
1.34167,1
1.35000,0
1.35833,0
1.36667,0
1.37500,1
1.38333,1
1.39167,0
1.40000,0
1.40833,0
1.41667,0
1.42500,0
1.43333,0
1.44167,0
1.45000,0
1.45833,0
1.46667,-0
1.47500,-0
1.48333,-0
1.49167,-0
1.50000,0
1.50833,0
1.51667,0
1.52500,0
1.53333,0
1.54167,0
1.55000,-0
1.55833,-0
1.56667,-0
1.57500,-0
1.58333,-0
1.59167,-0
1.60000,0
1.60833,0
1.61667,0
1.62500,0
1.63333,0
1.64167,0
1.65000,0
1.65833,0
1.66667,0
1.67500,0
1.68333,0
1.69167,1
1.70000,0
1.70833,0
1.71667,0
1.72500,-0
1.73333,-0
1.74167,-1
1.75000,-1
1.75833,-1
1.76667,-1
1.77500,-1
1.78333,-1
1.79167,-1
1.80000,-1
1.80833,-1
1.81667,-1
1.82500,-1
1.83333,-1
1.84167,-1
1.85000,-1
1.85833,-1
1.86667,-1
1.87500,-1
1.88333,-1
1.89167,-1
1.90000,-1
1.90833,-2
1.91667,-2
1.92500,-2
1.93333,-2
1.94167,-2
1.95000,-1
1.95833,-2
1.96667,-2
1.97500,-2
1.98333,-2
1.99167,-1
2.00000,-1
2.00833,-1
2.01667,-1
2.02500,-0
2.03333,-0
2.04167,0
2.05000,0
2.05833,-0
2.06667,-1
2.07500,-1
2.08333,-1
2.09167,-1
2.10000,-1
2.10833,-1
2.11667,-1
2.12500,-1
2.13333,-1
2.14167,-2
2.15000,-2
2.15833,-1
2.16667,-2
2.17500,-2
2.18333,-2
2.19167,-2
2.20000,-2
2.20833,-2
2.21667,-2
2.22500,-2
2.23333,-2
2.24167,-2
2.25000,-2
2.25833,-2
2.26667,-2
2.27500,-2
2.28333,-1
2.29167,-2
2.30000,-2
2.30833,-2
2.31667,-2
2.32500,-2
2.33333,-2
2.34167,-2
2.35000,-2
2.35833,-2
2.36667,-2
2.37500,-2
2.38333,-2
2.39167,-2
2.40000,-2
2.40833,-2
2.41667,-2
2.42500,-2
2.43333,-2
2.44167,-1
2.45000,-1
2.45833,-2
2.46667,-2
2.47500,-2
2.48333,-2
2.49167,-2
2.50000,-2
2.50833,-2
2.51667,-2
2.52500,-2
2.53333,-2
2.54167,-2
2.55000,-2
2.55833,-2
2.56667,-2
2.57500,-2
2.58333,-2
2.59167,-2
2.60000,-2
2.60833,-2
2.61667,-2
2.62500,-2
2.63333,-2
2.64167,-2
2.65000,-2
2.65833,-2
2.66667,-2
2.67500,-2
2.68333,-2
2.69167,-3
2.70000,-3
2.70833,-3
2.71667,-3
2.72500,-4
2.73333,-4
2.74167,-3
2.75000,-3
2.75833,-3
2.76667,-3
2.77500,-3
2.78333,-3
2.79167,-3
2.80000,-2
2.80833,-2
2.81667,-2
2.82500,-2
2.83333,-2
2.84167,-2
2.85000,-2
2.85833,-2
2.86667,-2
2.87500,-2
2.88333,-2
2.89167,-2
2.90000,-2
2.90833,-1
2.91667,-2
2.92500,-2
2.93333,-2
2.94167,-2
2.95000,-2
2.95833,-2
2.96667,-2
2.97500,-2
2.98333,-2
2.99167,-2
3.00000,-1
3.00833,-2
3.01667,-2
3.02500,-2
3.03333,-2
3.04167,-2
3.05000,-2
3.05833,-2
3.06667,-2
3.07500,-2
3.08333,-2
3.09167,-1
3.10000,-1
3.10833,-1
3.11667,-1
3.12500,-1
3.13333,-1
3.14167,-1
3.15000,-1
3.15833,-1
3.16667,-1
3.17500,-0
3.18333,-0
3.19167,-0
3.20000,-0
3.20833,-0
3.21667,-1
3.22500,-1
3.23333,-0
3.24167,-1
3.25000,-1
3.25833,-1
3.26667,-1
3.27500,-1
3.28333,-2
3.29167,-1
3.30000,-1
3.30833,-1
3.31667,-1
3.32500,-1
3.33333,-1
3.34167,-0
3.35000,0
3.35833,1
3.36667,1
3.37500,1
3.38333,1
3.39167,0
3.40000,0
3.40833,0
3.41667,0
3.42500,-0
3.43333,-0
3.44167,-0
3.45000,-0
3.45833,0
3.46667,0
3.47500,-0
3.48333,-0
3.49167,-0
3.50000,-0
3.50833,-0
3.51667,-0
3.52500,-1
3.53333,-1
3.54167,-1
3.55000,-1
3.55833,-1
3.56667,-1
3.57500,-0
3.58333,0
3.59167,0
3.60000,-0
3.60833,-0
3.61667,-0
3.62500,-1
3.63333,-1
3.64167,-1
3.65000,-1
3.65833,-1
3.66667,-1
3.67500,-0
3.68333,0
3.69167,0
3.70000,0
3.70833,0
3.71667,1
3.72500,1
3.73333,1
3.74167,1
3.75000,1
3.75833,1
3.76667,1
3.77500,0
3.78333,0
3.79167,-0
3.80000,-0
3.80833,-0
3.81667,-0
3.82500,0
3.83333,0
3.84167,1
3.85000,0
3.85833,0
3.86667,0
3.87500,0
3.88333,0
3.89167,1
3.90000,1
3.90833,1
3.91667,1
3.92500,1
3.93333,0
3.94167,-0
3.95000,-1
3.95833,-1
3.96667,-0
3.97500,-0
3.98333,-0
3.99167,-0
4.00000,-1
4.00833,-0
4.01667,-0
4.02500,-0
4.03333,-0
4.04167,-0
4.05000,-1
4.05833,-1
4.06667,-1
4.07500,-1
4.08333,-1
4.09167,-1
4.10000,-1
4.10833,-1
4.11667,-0
4.12500,-0
4.13333,-0
4.14167,0
4.15000,0
4.15833,0
4.16667,-0
4.17500,-0
4.18333,-1
4.19167,-1
4.20000,-1
4.20833,-1
4.21667,-1
4.22500,-1
4.23333,-0
4.24167,-0
4.25000,-0
4.25833,-0
4.26667,-1
4.27500,-1
4.28333,-1
4.29167,-1
4.30000,-1
4.30833,-1
4.31667,-1
4.32500,-0
4.33333,-0
4.34167,-1
4.35000,-1
4.35833,-1
4.36667,-1
4.37500,-1
4.38333,-1
4.39167,-1
4.40000,-1
4.40833,-1
4.41667,-1
4.42500,-1
4.43333,-1
4.44167,-0
4.45000,-0
4.45833,-0
4.46667,-0
4.47500,-1
4.48333,-1
4.49167,-0
4.50000,-0
4.50833,-1
4.51667,-1
4.52500,-1
4.53333,-1
4.54167,-1
4.55000,-1
4.55833,-1
4.56667,-1
4.57500,-1
4.58333,-2
4.59167,-2
4.60000,-2
4.60833,-2
4.61667,-1
4.62500,-2
4.63333,-1
4.64167,-1
4.65000,-1
4.65833,-2
4.66667,-2
4.67500,-2
4.68333,-2
4.69167,-2
4.70000,-2
4.70833,-2
4.71667,-1
4.72500,-1
4.73333,-1
4.74167,-1
4.75000,-1
4.75833,-1
4.76667,-1
4.77500,-2
4.78333,-2
4.79167,-2
4.80000,-2
4.80833,-2
4.81667,-1
4.82500,-1
4.83333,-1
4.84167,-1
4.85000,-1
4.85833,-1
4.86667,-1
4.87500,-1
4.88333,-1
4.89167,-1
4.90000,-1
4.90833,-1
4.91667,-1
4.92500,-1
4.93333,-1
4.94167,-1
4.95000,-1
4.95833,-1
4.96667,-1
4.97500,-1
4.98333,-1
4.99167,-1
5.00000,-2
5.00833,-1
5.01667,-1
5.02500,-1
5.03333,-1
5.04167,-1
5.05000,-1
5.05833,-1
5.06667,-1
5.07500,-1
5.08333,-1
5.09167,-1
5.10000,-1
5.10833,-1
5.11667,-1
5.12500,-1
5.13333,-1
5.14167,-1
5.15000,-1
5.15833,-1
5.16667,-1
5.17500,-2
5.18333,-2
5.19167,-2
5.20000,-2
5.20833,-2
5.21667,-2
5.22500,-1
5.23333,-1
5.24167,-1
5.25000,-2
5.25833,-2
5.26667,-2
5.27500,-2
5.28333,-1
5.29167,-1
5.30000,-1
5.30833,-1
5.31667,-2
5.32500,-2
5.33333,-2
5.34167,-2
5.35000,-1
5.35833,-1
5.36667,-1
5.37500,-1
5.38333,-1
5.39167,-2
5.40000,-2
5.40833,-2
5.41667,-2
5.42500,-2
5.43333,-2
5.44167,-2
5.45000,-2
5.45833,-1
5.46667,-2
5.47500,-2
5.48333,-2
5.49167,-2
5.50000,-2
5.50833,-2
5.51667,-2
5.52500,-2
5.53333,-2
5.54167,-2
5.55000,-2
5.55833,-2
5.56667,-2
5.57500,-2
5.58333,-2
5.59167,-2
5.60000,-2
5.60833,-2
5.61667,-1
5.62500,-1
5.63333,-1
5.64167,-1
5.65000,-1
5.65833,-1
5.66667,-2
5.67500,-2
5.68333,-2
5.69167,-2
5.70000,-2
5.70833,-2
5.71667,-2
5.72500,-2
5.73333,-2
5.74167,-2
5.75000,-2
5.75833,-2
5.76667,-2
5.77500,-2
5.78333,-2
5.79167,-2
5.80000,-2
5.80833,-1
5.81667,-1
5.82500,-1
5.83333,-1
5.84167,-2
5.85000,-1
5.85833,-1
5.86667,-1
5.87500,-1
5.88333,-1
5.89167,-1
5.90000,-1
5.90833,-1
5.91667,-1
5.92500,-1
5.93333,-1
5.94167,-1
5.95000,-1
5.95833,-2
5.96667,-2
5.97500,-2
5.98333,-2
5.99167,-2
6.00000,-2
6.00833,-2
6.01667,-2
6.02500,-2
6.03333,-2
6.04167,-1
6.05000,-1
6.05833,-1
6.06667,-1
6.07500,-1
6.08333,-1
6.09167,-1
6.10000,-0
6.10833,-0
6.11667,-0
6.12500,-0
6.13333,-0
6.14167,-1
6.15000,-1
6.15833,-1
6.16667,-1
6.17500,-1
6.18333,-1
6.19167,-0
6.20000,-0
6.20833,-0
6.21667,-0
6.22500,-1
6.23333,-1
6.24167,-1
6.25000,-1
6.25833,-1
6.26667,-2
6.27500,-2
6.28333,-2
6.29167,-2
6.30000,-2
6.30833,-2
6.31667,-2
6.32500,-2
6.33333,-1
6.34167,-1
6.35000,-1
6.35833,-1
6.36667,-1
6.37500,-1
6.38333,-2
6.39167,-2
6.40000,-1
6.40833,-1
6.41667,-1
6.42500,-1
6.43333,-2
6.44167,-1
6.45000,-1
6.45833,-1
6.46667,-1
6.47500,-1
6.48333,-1
6.49167,-1
6.50000,-1
6.50833,-1
6.51667,-0
6.52500,-0
6.53333,-1
6.54167,-1
6.55000,-1
6.55833,-1
6.56667,-1
6.57500,-1
6.58333,-1
6.59167,-1
6.60000,-1
6.60833,-1
6.61667,-1
6.62500,-0
6.63333,0
6.64167,0
6.65000,0
6.65833,-0
6.66667,-0
6.67500,-1
6.68333,-1
6.69167,-1
6.70000,-1
6.70833,-1
6.71667,-1
6.72500,-1
6.73333,-1
6.74167,-1
6.75000,-1
6.75833,-1
6.76667,-0
6.77500,-0
6.78333,-1
6.79167,-1
6.80000,-1
6.80833,-1
6.81667,-0
6.82500,-0
6.83333,-1
6.84167,-1
6.85000,-1
6.85833,-1
6.86667,-0
6.87500,-0
6.88333,-0
6.89167,-0
6.90000,-1
6.90833,-1
6.91667,-1
6.92500,-1
6.93333,-1
6.94167,-1
6.95000,-1
6.95833,-2
6.96667,-1
6.97500,-1
6.98333,-1
6.99167,-1
7.00000,-1
7.00833,-2
7.01667,-2
7.02500,-2
7.03333,-2
7.04167,-3
7.05000,-3
7.05833,-3
7.06667,-3
7.07500,-2
7.08333,-2
7.09167,-2
7.10000,-2
7.10833,-2
7.11667,-2
7.12500,-1
7.13333,-1
7.14167,-1
7.15000,-2
7.15833,-2
7.16667,-2
7.17500,-2
7.18333,-2
7.19167,-2
7.20000,-2
7.20833,-2
7.21667,-1
7.22500,-1
7.23333,-2
7.24167,-2
7.25000,-2
7.25833,-2
7.26667,-2
7.27500,-1
7.28333,-1
7.29167,-1
7.30000,-2
7.30833,-2
7.31667,-2
7.32500,-2
7.33333,-2
7.34167,-2
7.35000,-2
7.35833,-2
7.36667,-2
7.37500,-2
7.38333,-1
7.39167,-1
7.40000,-1
7.40833,-2
7.41667,-2
7.42500,-3
7.43333,-3
7.44167,-3
7.45000,-3
7.45833,-3
7.46667,-3
7.47500,-3
7.48333,-3
7.49167,-3
7.50000,-3
7.50833,-3
7.51667,-3
7.52500,-2
7.53333,-2
7.54167,-2
7.55000,-2
7.55833,-2
7.56667,-2
7.57500,-2
7.58333,-2
7.59167,-2
7.60000,-3
7.60833,-3
7.61667,-3
7.62500,-2
7.63333,-2
7.64167,-3
7.65000,-3
7.65833,-3
7.66667,-3
7.67500,-3
7.68333,-3
7.69167,-3
7.70000,-3
7.70833,-3
7.71667,-3
7.72500,-3
7.73333,-3
7.74167,-3
7.75000,-3
7.75833,-3
7.76667,-3
7.77500,-3
7.78333,-3
7.79167,-3
7.80000,-3
7.80833,-3
7.81667,-3
7.82500,-3
7.83333,-3
7.84167,-3
7.85000,-3
7.85833,-4
7.86667,-4
7.87500,-4
7.88333,-4
7.89167,-3
7.90000,-3
7.90833,-3
7.91667,-3
7.92500,-3
7.93333,-3
7.94167,-3
7.95000,-3
7.95833,-3
7.96667,-3
7.97500,-3
7.98333,-3
7.99167,-3
8.00000,-3
8.00833,-3
8.01667,-3
8.02500,-3
8.03333,-3
8.04167,-3
8.05000,-3
8.05833,-4
8.06667,-4
8.07500,-4
8.08333,-4
8.09167,-4
8.10000,-3
8.10833,-3
8.11667,-3
8.12500,-3
8.13333,-3
8.14167,-3
8.15000,-2
8.15833,-2
8.16667,-3
8.17500,-3
8.18333,-3
8.19167,-3
8.20000,-3
8.20833,-3
8.21667,-3
8.22500,-2
8.23333,-3
8.24167,-3
8.25000,-3
8.25833,-2
8.26667,-2
8.27500,-3
8.28333,-3
8.29167,-3
8.30000,-4
8.30833,-4
8.31667,-3
8.32500,-3
8.33333,-3
8.34167,-3
8.35000,-3
8.35833,-3
8.36667,-3
8.37500,-3
8.38333,-3
8.39167,-3
8.40000,-3
8.40833,-3
8.41667,-3
8.42500,-3
8.43333,-3
8.44167,-3
8.45000,-3
8.45833,-3
8.46667,-3
8.47500,-4
8.48333,-4
8.49167,-3
8.50000,-3
8.50833,-3
8.51667,-3
8.52500,-3
8.53333,-3
8.54167,-3
8.55000,-3
8.55833,-3
8.56667,-3
8.57500,-3
8.58333,-3
8.59167,-3
8.60000,-3
8.60833,-2
8.61667,-3
8.62500,-3
8.63333,-4
8.64167,-4
8.65000,-4
8.65833,-4
8.66667,-4
8.67500,-3
8.68333,-3
8.69167,-3
8.70000,-3
8.70833,-3
8.71667,-3
8.72500,-3
8.73333,-3
8.74167,-3
8.75000,-3
8.75833,-3
8.76667,-3
8.77500,-3
8.78333,-3
8.79167,-3
8.80000,-3
8.80833,-3
8.81667,-3
8.82500,-3
8.83333,-3
8.84167,-4
8.85000,-4
8.85833,-4
8.86667,-4
8.87500,-4
8.88333,-4
8.89167,-4
8.90000,-4
8.90833,-4
8.91667,-4
8.92500,-4
8.93333,-4
8.94167,-4
8.95000,-4
8.95833,-4
8.96667,-4
8.97500,-4
8.98333,-4
8.99167,-3
9.00000,-3
9.00833,-4
9.01667,-4
9.02500,-4
9.03333,-4
9.04167,-4
9.05000,-4
9.05833,-4
9.06667,-4
9.07500,-3
9.08333,-3
9.09167,-3
9.10000,-3
9.10833,-3
9.11667,-3
9.12500,-3
9.13333,-3
9.14167,-3
9.15000,-3
9.15833,-4
9.16667,-4
9.17500,-4
9.18333,-3
9.19167,-3
9.20000,-3
9.20833,-3
9.21667,-3
9.22500,-3
9.23333,-4
9.24167,-4
9.25000,-4
9.25833,-4
9.26667,-4
9.27500,-4
9.28333,-4
9.29167,-4
9.30000,-4
9.30833,-4
9.31667,-4
9.32500,-4
9.33333,-5
9.34167,-5
9.35000,-5
9.35833,-5
9.36667,-5
9.37500,-5
9.38333,-5
9.39167,-5
9.40000,-5
9.40833,-5
9.41667,-4
9.42500,-4
9.43333,-3
9.44167,-3
9.45000,-3
9.45833,-3
9.46667,-4
9.47500,-4
9.48333,-4
9.49167,-3
9.50000,-4
9.50833,-3
9.51667,-3
9.52500,-3
9.53333,-4
9.54167,-4
9.55000,-4
9.55833,-4
9.56667,-4
9.57500,-4
9.58333,-4
9.59167,-4
9.60000,-4
9.60833,-4
9.61667,-4
9.62500,-4
9.63333,-3
9.64167,-3
9.65000,-4
9.65833,-3
9.66667,-3
9.67500,-3
9.68333,-3
9.69167,-4
9.70000,-4
9.70833,-3
9.71667,-3
9.72500,-3
9.73333,-3
9.74167,-3
9.75000,-3
9.75833,-3
9.76667,-3
9.77500,-3
9.78333,-3
9.79167,-3
9.80000,-3
9.80833,-3
9.81667,-3
9.82500,-3
9.83333,-3
9.84167,-3
9.85000,-3
9.85833,-3
9.86667,-3
9.87500,-3
9.88333,-3
9.89167,-3
9.90000,-3
9.90833,-3
9.91667,-4
9.92500,-4
9.93333,-4
9.94167,-3
9.95000,-3
9.95833,-3
9.96667,-3
9.97500,-3
9.98333,-3
9.99167,-3
10.00000,-3
10.00833,-3
10.01667,-4
10.02500,-4
10.03333,-4
10.04167,-4
10.05000,-4
10.05833,-4
10.06667,-4
10.07500,-4
10.08333,-4
10.09167,-4
10.10000,-4
10.10833,-4
10.11667,-3
10.12500,-3
10.13333,-3
10.14167,-3
10.15000,-3
10.15833,-4
10.16667,-3
10.17500,-3
10.18333,-3
10.19167,-3
10.20000,-3
10.20833,-3
10.21667,-3
10.22500,-3
10.23333,-3
10.24167,-3
10.25000,-4
10.25833,-4
10.26667,-4
10.27500,-3
10.28333,-3
10.29167,-3
10.30000,-3
10.30833,-3
10.31667,-2
10.32500,-2
10.33333,-2
10.34167,-2
10.35000,-2
10.35833,-2
10.36667,-2
10.37500,-2
10.38333,-2
10.39167,-2
10.40000,-1
10.40833,-1
10.41667,-0
10.42500,0
10.43333,1
10.44167,1
10.45000,1
10.45833,2
10.46667,2
10.47500,2
10.48333,1
10.49167,0
10.50000,-1
10.50833,-3
10.51667,-5
10.52500,-10
10.53333,-16
10.54167,-24
10.55000,-35
10.55833,-51
10.56667,-72
10.57500,-100
10.58333,-137
10.59167,-184
10.60000,-244
10.60833,-318
10.61667,-409
10.62500,-519
10.63333,-650
10.64167,-803
10.65000,-979
10.65833,-1178
10.66667,-1400
10.67500,-1641
10.68333,-1900
10.69167,-2170
10.70000,-2447
10.70833,-2721
10.71667,-2985
10.72500,-3228
10.73333,-3438
10.74167,-3603
10.75000,-3711
10.75833,-3747
10.76667,-3699
10.77500,-3554
10.78333,-3298
10.79167,-2919
10.80000,-2407
10.80833,-1751
10.81667,-943
10.82500,24
10.83333,1157
10.84167,2461
10.85000,3938
10.85833,5590
10.86667,7417
10.87500,9417
10.88333,11587
10.89167,13921
10.90000,16415
10.90833,19059
10.91667,21844
10.92500,24756
10.93333,27781
10.94167,30900
10.95000,34094
10.95833,37336
10.96667,40599
10.97500,43850
10.98333,47050
10.99167,50157
11.00000,53125
11.00833,55904
11.01667,58441
11.02500,60685
11.03333,62584
11.04167,64093
11.05000,65170
11.05833,65785
11.06667,65918
11.07500,65563
11.08333,64728
11.09167,63433
11.10000,61711
11.10833,59606
11.11667,57172
11.12500,54466
11.13333,51551
11.14167,48488
11.15000,45337
11.15833,42155
11.16667,38991
11.17500,35888
11.18333,32882
11.19167,30002
11.20000,27271
11.20833,24702
11.21667,22306
11.22500,20086
11.23333,18042
11.24167,16172
11.25000,14469
11.25833,12926
11.26667,11532
11.27500,10279
11.28333,9155
11.29167,8151
11.30000,7255
11.30833,6458
11.31667,5751
11.32500,5124
11.33333,4569
11.34167,4079
11.35000,3646
11.35833,3264
11.36667,2928
11.37500,2631
11.38333,2369
11.39167,2139
11.40000,1937
11.40833,1758
11.41667,1600
11.42500,1460
11.43333,1337
11.44167,1227
11.45000,1131
11.45833,1045
11.46667,968
11.47500,900
11.48333,839
11.49167,785
11.50000,736
11.50833,692
11.51667,653
11.52500,617
11.53333,584
11.54167,554
11.55000,527
11.55833,502
11.56667,479
11.57500,459
11.58333,440
11.59167,422
11.60000,405
11.60833,390
11.61667,375
11.62500,362
11.63333,350
11.64167,338
11.65000,327
11.65833,317
11.66667,307
11.67500,298
11.68333,289
11.69167,281
11.70000,273
11.70833,266
11.71667,259
11.72500,253
11.73333,247
11.74167,241
11.75000,236
11.75833,230
11.76667,225
11.77500,220
11.78333,216
11.79167,212
11.80000,208
11.80833,204
11.81667,200
11.82500,196
11.83333,193
11.84167,190
11.85000,186
11.85833,183
11.86667,180
11.87500,178
11.88333,175
11.89167,173
11.90000,170
11.90833,168
11.91667,166
11.92500,164
11.93333,163
11.94167,161
11.95000,159
11.95833,158
11.96667,156
11.97500,155
11.98333,153
11.99167,152
12.00000,150
12.00833,149
12.01667,148
12.02500,146
12.03333,145
12.04167,144
12.05000,143
12.05833,142
12.06667,141
12.07500,140
12.08333,139
12.09167,138
12.10000,137
12.10833,136
12.11667,135
12.12500,135
12.13333,134
12.14167,133
12.15000,132
12.15833,131
12.16667,130
12.17500,129
12.18333,129
12.19167,128
12.20000,127
12.20833,126
12.21667,125
12.22500,124
12.23333,123
12.24167,123
12.25000,122
12.25833,121
12.26667,120
12.27500,120
12.28333,119
12.29167,118
12.30000,117
12.30833,116
12.31667,115
12.32500,115
12.33333,114
12.34167,113
12.35000,112
12.35833,111
12.36667,110
12.37500,109
12.38333,109
12.39167,109
12.40000,108
12.40833,108
12.41667,107
12.42500,107
12.43333,106
12.44167,106
12.45000,105
12.45833,104
12.46667,103
12.47500,102
12.48333,101
12.49167,100
12.50000,100
12.50833,99
12.51667,99
12.52500,98
12.53333,97
12.54167,96
12.55000,95
12.55833,94
12.56667,93
12.57500,93
12.58333,92
12.59167,91
12.60000,90
12.60833,89
12.61667,89
12.62500,88
12.63333,87
12.64167,87
12.65000,86
12.65833,85
12.66667,84
12.67500,83
12.68333,82
12.69167,82
12.70000,81
12.70833,80
12.71667,79
12.72500,78
12.73333,78
12.74167,77
12.75000,76
12.75833,76
12.76667,75
12.77500,74
12.78333,74
12.79167,73
12.80000,72
12.80833,72
12.81667,71
12.82500,70
12.83333,70
12.84167,69
12.85000,69
12.85833,68
12.86667,68
12.87500,67
12.88333,67
12.89167,66
12.90000,65
12.90833,65
12.91667,65
12.92500,65
12.93333,64
12.94167,64
12.95000,63
12.95833,62
12.96667,62
12.97500,62
12.98333,62
12.99167,61
13.00000,61
13.00833,61
13.01667,60
13.02500,60
13.03333,60
13.04167,59
13.05000,59
13.05833,59
13.06667,58
13.07500,58
13.08333,58
13.09167,58
13.10000,58
13.10833,57
13.11667,57
13.12500,57
13.13333,57
13.14167,57
13.15000,56
13.15833,56
13.16667,55
13.17500,55
13.18333,55
13.19167,54
13.20000,54
13.20833,53
13.21667,52
13.22500,52
13.23333,51
13.24167,51
13.25000,51
13.25833,51
13.26667,51
13.27500,51
13.28333,51
13.29167,50
13.30000,50
13.30833,49
13.31667,49
13.32500,48
13.33333,48
13.34167,48
13.35000,48
13.35833,47
13.36667,47
13.37500,47
13.38333,47
13.39167,47
13.40000,46
13.40833,46
13.41667,46
13.42500,46
13.43333,46
13.44167,45
13.45000,45
13.45833,45
13.46667,44
13.47500,44
13.48333,44
13.49167,43
13.50000,43
13.50833,43
13.51667,42
13.52500,42
13.53333,42
13.54167,42
13.55000,41
13.55833,41
13.56667,40
13.57500,40
13.58333,40
13.59167,39
13.60000,39
13.60833,38
13.61667,38
13.62500,38
13.63333,37
13.64167,37
13.65000,36
13.65833,36
13.66667,36
13.67500,36
13.68333,36
13.69167,35
13.70000,35
13.70833,35
13.71667,35
13.72500,35
13.73333,35
13.74167,34
13.75000,34
13.75833,33
13.76667,33
13.77500,33
13.78333,32
13.79167,32
13.80000,33
13.80833,33
13.81667,32
13.82500,32
13.83333,32
13.84167,32
13.85000,32
13.85833,32
13.86667,33
13.87500,33
13.88333,33
13.89167,33
13.90000,33
13.90833,33
13.91667,33
13.92500,33
13.93333,33
13.94167,34
13.95000,34
13.95833,34
13.96667,34
13.97500,34
13.98333,34
13.99167,34
14.00000,34
14.00833,35
14.01667,35
14.02500,35
14.03333,36
14.04167,36
14.05000,36
14.05833,36
14.06667,37
14.07500,37
14.08333,38
14.09167,38
14.10000,39
14.10833,40
14.11667,41
14.12500,42
14.13333,43
14.14167,44
14.15000,45
14.15833,47
14.16667,49
14.17500,51
14.18333,54
14.19167,57
14.20000,62
14.20833,67
14.21667,74
14.22500,81
14.23333,89
14.24167,99
14.25000,112
14.25833,127
14.26667,145
14.27500,167
14.28333,193
14.29167,225
14.30000,262
14.30833,306
14.31667,358
14.32500,420
14.33333,493
14.34167,578
14.35000,677
14.35833,791
14.36667,921
14.37500,1070
14.38333,1240
14.39167,1431
14.40000,1646
14.40833,1887
14.41667,2154
14.42500,2450
14.43333,2775
14.44167,3132
14.45000,3521
14.45833,3944
14.46667,4400
14.47500,4892
14.48333,5419
14.49167,5984
14.50000,6584
14.50833,7222
14.51667,7896
14.52500,8606
14.53333,9354
14.54167,10138
14.55000,10959
14.55833,11816
14.56667,12707
14.57500,13633
14.58333,14594
14.59167,15589
14.60000,16616
14.60833,17677
14.61667,18769
14.62500,19892
14.63333,21046
14.64167,22231
14.65000,23445
14.65833,24689
14.66667,25961
14.67500,27261
14.68333,28587
14.69167,29941
14.70000,31322
14.70833,32728
14.71667,34160
14.72500,35618
14.73333,37100
14.74167,38606
14.75000,40137
14.75833,41693
14.76667,43271
14.77500,44874
14.78333,46499
14.79167,48148
14.80000,49820
14.80833,51514
14.81667,53231
14.82500,54970
14.83333,56731
14.84167,58514
14.85000,60318
14.85833,62144
14.86667,63992
14.87500,65860
14.88333,67749
14.89167,69658
14.90000,71587
14.90833,73536
14.91667,75504
14.92500,77491
14.93333,79496
14.94167,81518
14.95000,83556
14.95833,85610
14.96667,87679
14.97500,89761
14.98333,91855
14.99167,93957
15.00000,96065
15.00833,98176
15.01667,100283
15.02500,102379
15.03333,104453
15.04167,106489
15.05000,108468
15.05833,110362
15.06667,112136
15.07500,113748
15.08333,115147
15.09167,116274
15.10000,117068
15.10833,117462
15.11667,117395
15.12500,116810
15.13333,115661
15.14167,113917
15.15000,111564
15.15833,108612
15.16667,105086
15.17500,101033
15.18333,96521
15.19167,91627
15.20000,86440
15.20833,81056
15.21667,75569
15.22500,70067
15.23333,64635
15.24167,59345
15.25000,54257
15.25833,49419
15.26667,44867
15.27500,40622
15.28333,36698
15.29167,33097
15.30000,29812
15.30833,26835
15.31667,24148
15.32500,21734
15.33333,19572
15.34167,17640
15.35000,15918
15.35833,14385
15.36667,13021
15.37500,11810
15.38333,10733
15.39167,9776
15.40000,8924
15.40833,8166
15.41667,7491
15.42500,6888
15.43333,6350
15.44167,5868
15.45000,5437
15.45833,5050
15.46667,4702
15.47500,4389
15.48333,4106
15.49167,3851
15.50000,3621
15.50833,3412
15.51667,3223
15.52500,3051
15.53333,2894
15.54167,2751
15.55000,2621
15.55833,2501
15.56667,2391
15.57500,2290
15.58333,2196
15.59167,2110
15.60000,2029
15.60833,1955
15.61667,1885
15.62500,1819
15.63333,1757
15.64167,1699
15.65000,1644
15.65833,1592
15.66667,1543
15.67500,1495
15.68333,1449
15.69167,1405
15.70000,1363
15.70833,1322
15.71667,1282
15.72500,1244
15.73333,1207
15.74167,1171
15.75000,1136
15.75833,1103
15.76667,1070
15.77500,1038
15.78333,1007
15.79167,977
15.80000,948
15.80833,920
15.81667,893
15.82500,867
15.83333,841
15.84167,817
15.85000,793
15.85833,771
15.86667,750
15.87500,729
15.88333,709
15.89167,690
15.90000,672
15.90833,654
15.91667,638
15.92500,622
15.93333,607
15.94167,593
15.95000,579
15.95833,567
15.96667,554
15.97500,543
15.98333,531
15.99167,521
16.00000,511
16.00833,502
16.01667,494
16.02500,485
16.03333,478
16.04167,470
16.05000,463
16.05833,456
16.06667,450
16.07500,444
16.08333,439
16.09167,433
16.10000,428
16.10833,423
16.11667,418
16.12500,414
16.13333,409
16.14167,405
16.15000,401
16.15833,397
16.16667,393
16.17500,389
16.18333,386
16.19167,382
16.20000,379
16.20833,376
16.21667,373
16.22500,371
16.23333,368
16.24167,365
16.25000,362
16.25833,359
16.26667,356
16.27500,353
16.28333,350
16.29167,347
16.30000,344
16.30833,342
16.31667,339
16.32500,337
16.33333,334
16.34167,331
16.35000,329
16.35833,327
16.36667,324
16.37500,322
16.38333,319
16.39167,317
16.40000,315
16.40833,313
16.41667,310
16.42500,308
16.43333,306
16.44167,304
16.45000,302
16.45833,300
16.46667,297
16.47500,295
16.48333,292
16.49167,290
16.50000,287
16.50833,285
16.51667,283
16.52500,281
16.53333,279
16.54167,277
16.55000,275
16.55833,273
16.56667,271
16.57500,269
16.58333,268
16.59167,266
16.60000,264
16.60833,262
16.61667,260
16.62500,258
16.63333,257
16.64167,255
16.65000,253
16.65833,252
16.66667,250
16.67500,249
16.68333,247
16.69167,246
16.70000,244
16.70833,243
16.71667,241
16.72500,240
16.73333,238
16.74167,236
16.75000,235
16.75833,234
16.76667,233
16.77500,231
16.78333,230
16.79167,228
16.80000,227
16.80833,225
16.81667,224
16.82500,223
16.83333,221
16.84167,220
16.85000,219
16.85833,218
16.86667,216
16.87500,215
16.88333,213
16.89167,212
16.90000,211
16.90833,210
16.91667,208
16.92500,207
16.93333,206
16.94167,205
16.95000,205
16.95833,204
16.96667,203
16.97500,202
16.98333,201
16.99167,200
17.00000,198
17.00833,197
17.01667,196
17.02500,194
17.03333,194
17.04167,193
17.05000,192
17.05833,191
17.06667,190
17.07500,189
17.08333,188
17.09167,187
17.10000,186
17.10833,185
17.11667,184
17.12500,183
17.13333,182
17.14167,181
17.15000,180
17.15833,179
17.16667,178
17.17500,177
17.18333,176
17.19167,175
17.20000,174
17.20833,173
17.21667,172
17.22500,171
17.23333,170
17.24167,169
17.25000,168
17.25833,167
17.26667,166
17.27500,164
17.28333,163
17.29167,162
17.30000,161
17.30833,160
17.31667,160
17.32500,159
17.33333,158
17.34167,157
17.35000,156
17.35833,155
17.36667,155
17.37500,154
17.38333,153
17.39167,151
17.40000,150
17.40833,149
17.41667,148
17.42500,148
17.43333,147
17.44167,146
17.45000,145
17.45833,144
17.46667,144
17.47500,143
17.48333,142
17.49167,141
17.50000,140
17.50833,139
17.51667,138
17.52500,137
17.53333,136
17.54167,135
17.55000,134
17.55833,133
17.56667,132
17.57500,132
17.58333,131
17.59167,130
17.60000,130
17.60833,129
17.61667,128
17.62500,127
17.63333,126
17.64167,125
17.65000,124
17.65833,124
17.66667,123
17.67500,122
17.68333,121
17.69167,120
17.70000,119
17.70833,118
17.71667,118
17.72500,117
17.73333,116
17.74167,115
17.75000,115
17.75833,114
17.76667,113
17.77500,112
17.78333,111
17.79167,110
17.80000,109
17.80833,108
17.81667,108
17.82500,107
17.83333,107
17.84167,106
17.85000,105
17.85833,105
17.86667,104
17.87500,103
17.88333,102
17.89167,102
17.90000,101
17.90833,101
17.91667,101
17.92500,100
17.93333,100
17.94167,99
17.95000,99
17.95833,98
17.96667,97
17.97500,96
17.98333,95
17.99167,95
18.00000,94
18.00833,93
18.01667,93
18.02500,92
18.03333,91
18.04167,90
18.05000,90
18.05833,89
18.06667,88
18.07500,88
18.08333,88
18.09167,88
18.10000,87
18.10833,87
18.11667,86
18.12500,85
18.13333,85
18.14167,84
18.15000,83
18.15833,83
18.16667,82
18.17500,81
18.18333,80
18.19167,79
18.20000,79
18.20833,78
18.21667,78
18.22500,78
18.23333,77
18.24167,77
18.25000,77
18.25833,76
18.26667,76
18.27500,75
18.28333,75
18.29167,75
18.30000,74
18.30833,74
18.31667,73
18.32500,73
18.33333,72
18.34167,72
18.35000,71
18.35833,71
18.36667,70
18.37500,69
18.38333,68
18.39167,68
18.40000,67
18.40833,67
18.41667,67
18.42500,67
18.43333,67
18.44167,66
18.45000,66
18.45833,65
18.46667,65
18.47500,65
18.48333,64
18.49167,64
18.50000,64
18.50833,63
18.51667,63
18.52500,62
18.53333,61
18.54167,61
18.55000,60
18.55833,60
18.56667,59
18.57500,59
18.58333,59
18.59167,59
18.60000,58
18.60833,58
18.61667,58
18.62500,58
18.63333,57
18.64167,57
18.65000,57
18.65833,57
18.66667,56
18.67500,56
18.68333,56
18.69167,56
18.70000,56
18.70833,56
18.71667,56
18.72500,57
18.73333,57
18.74167,57
18.75000,57
18.75833,57
18.76667,57
18.77500,57
18.78333,58
18.79167,58
18.80000,58
18.80833,59
18.81667,60
18.82500,60
18.83333,61
18.84167,63
18.85000,64
18.85833,64
18.86667,65
18.87500,66
18.88333,67
18.89167,68
18.90000,69
18.90833,70
18.91667,71
18.92500,71
18.93333,72
18.94167,73
18.95000,73
18.95833,74
18.96667,74
18.97500,75
18.98333,75
18.99167,76
19.00000,76
19.00833,76
19.01667,76
19.02500,75
19.03333,75
19.04167,74
19.05000,74
19.05833,74
19.06667,73
19.07500,72
19.08333,72
19.09167,71
19.10000,70
19.10833,69
19.11667,68
19.12500,67
19.13333,65
19.14167,64
19.15000,63
19.15833,62
19.16667,61
19.17500,60
19.18333,59
19.19167,58
19.20000,56
19.20833,55
19.21667,54
19.22500,52
19.23333,51
19.24167,50
19.25000,49
19.25833,48
19.26667,47
19.27500,46
19.28333,45
19.29167,44
19.30000,43
19.30833,42
19.31667,41
19.32500,40
19.33333,39
19.34167,39
19.35000,38
19.35833,37
19.36667,36
19.37500,35
19.38333,34
19.39167,34
19.40000,33
19.40833,32
19.41667,32
19.42500,31
19.43333,30
19.44167,30
19.45000,29
19.45833,29
19.46667,29
19.47500,30
19.48333,29
19.49167,29
19.50000,28
19.50833,27
19.51667,27
19.52500,27
19.53333,27
19.54167,27
19.55000,27
19.55833,27
19.56667,27
19.57500,26
19.58333,26
19.59167,26
19.60000,26
19.60833,25
19.61667,25
19.62500,24
19.63333,24
19.64167,24
19.65000,24
19.65833,24
19.66667,24
19.67500,23
19.68333,23
19.69167,23
19.70000,23
19.70833,22
19.71667,22
19.72500,22
19.73333,22
19.74167,22
19.75000,22
19.75833,21
19.76667,21
19.77500,21
19.78333,21
19.79167,20
19.80000,20
19.80833,21
19.81667,21
19.82500,21
19.83333,21
19.84167,20
19.85000,20
19.85833,20
19.86667,19
19.87500,19
19.88333,19
19.89167,19
19.90000,19
19.90833,18
19.91667,18
19.92500,18
19.93333,18
19.94167,19
19.95000,19
19.95833,19
19.96667,18
19.97500,18
19.98333,18
19.99167,18
20.00000,17
20.00833,18
20.01667,18
20.02500,17
20.03333,17
20.04167,17
20.05000,17
20.05833,16
20.06667,16
20.07500,16
20.08333,16
20.09167,15
20.10000,15
20.10833,14
20.11667,14
20.12500,14
20.13333,14
20.14167,14
20.15000,14
20.15833,14
20.16667,14
20.17500,14
20.18333,14
20.19167,13
20.20000,13
20.20833,13
20.21667,13
20.22500,13
20.23333,13
20.24167,13
20.25000,13
20.25833,13
20.26667,13
20.27500,13
20.28333,13
20.29167,12
20.30000,12
20.30833,12
20.31667,13
20.32500,13
20.33333,13
20.34167,13
20.35000,13
20.35833,12
20.36667,12
20.37500,12
20.38333,12
20.39167,12
20.40000,12
20.40833,11
20.41667,11
20.42500,11
20.43333,11
20.44167,11
20.45000,11
20.45833,11
20.46667,11
20.47500,10
20.48333,10
20.49167,9
20.50000,9
20.50833,9
20.51667,9
20.52500,9
20.53333,9
20.54167,9
20.55000,9
20.55833,9
20.56667,9
20.57500,9
20.58333,9
20.59167,9
20.60000,9
20.60833,9
20.61667,9
20.62500,9
20.63333,9
20.64167,9
20.65000,8
20.65833,8
20.66667,8
20.67500,7
20.68333,7
20.69167,7
20.70000,7
20.70833,7
20.71667,7
20.72500,7
20.73333,7
20.74167,7
20.75000,7
20.75833,7
20.76667,7
20.77500,7
20.78333,7
20.79167,7
20.80000,6
20.80833,6
20.81667,6
20.82500,6
20.83333,6
20.84167,6
20.85000,6
20.85833,6
20.86667,6
20.87500,6
20.88333,6
20.89167,6
20.90000,5
20.90833,5
20.91667,5
20.92500,5
20.93333,5
20.94167,5
20.95000,5
20.95833,5
20.96667,5
20.97500,4
20.98333,4
20.99167,4
21.00000,4
21.00833,3
21.01667,3
21.02500,3
21.03333,3
21.04167,3
21.05000,3
21.05833,3
21.06667,3
21.07500,3
21.08333,3
21.09167,3
21.10000,2
21.10833,2
21.11667,2
21.12500,2
21.13333,2
21.14167,2
21.15000,2
21.15833,2
21.16667,2
21.17500,2
21.18333,2
21.19167,2
21.20000,2
21.20833,2
21.21667,1
21.22500,1
21.23333,1
21.24167,1
21.25000,1
21.25833,2
21.26667,2
21.27500,2
21.28333,2
21.29167,2
21.30000,2
21.30833,2
21.31667,2
21.32500,1
21.33333,0
21.34167,0
21.35000,0
21.35833,0
21.36667,0
21.37500,0
21.38333,0
21.39167,0
21.40000,0
21.40833,-0
21.41667,-1
21.42500,-1
21.43333,-1
21.44167,-1
21.45000,-1
21.45833,-1
21.46667,-1
21.47500,-1
21.48333,-1
21.49167,-1
21.50000,-0
21.50833,-0
21.51667,0
21.52500,0
21.53333,0
21.54167,0
21.55000,0
21.55833,0
21.56667,0
21.57500,1
21.58333,1
21.59167,1
21.60000,1
21.60833,2
21.61667,2
21.62500,2
21.63333,3
21.64167,3
21.65000,3
21.65833,4
21.66667,4
21.67500,5
21.68333,6
21.69167,7
21.70000,8
21.70833,9
21.71667,10
21.72500,11
21.73333,12
21.74167,13
21.75000,15
21.75833,16
21.76667,18
21.77500,20
21.78333,22
21.79167,24
21.80000,27
21.80833,29
21.81667,32
21.82500,35
21.83333,37
21.84167,40
21.85000,43
21.85833,46
21.86667,50
21.87500,53
21.88333,56
21.89167,59
21.90000,62
21.90833,65
21.91667,68
21.92500,71
21.93333,74
21.94167,77
21.95000,80
21.95833,83
21.96667,86
21.97500,88
21.98333,91
21.99167,93
22.00000,95
22.00833,97
22.01667,99
22.02500,101
22.03333,102
22.04167,103
22.05000,104
22.05833,104
22.06667,105
22.07500,105
22.08333,104
22.09167,104
22.10000,103
22.10833,103
22.11667,102
22.12500,101
22.13333,100
22.14167,98
22.15000,96
22.15833,94
22.16667,92
22.17500,89
22.18333,86
22.19167,84
22.20000,81
22.20833,79
22.21667,76
22.22500,73
22.23333,70
22.24167,67
22.25000,64
22.25833,61
22.26667,58
22.27500,55
22.28333,52
22.29167,49
22.30000,46
22.30833,44
22.31667,41
22.32500,38
22.33333,35
22.34167,33
22.35000,31
22.35833,29
22.36667,27
22.37500,25
22.38333,23
22.39167,21
22.40000,20
22.40833,18
22.41667,17
22.42500,15
22.43333,14
22.44167,12
22.45000,11
22.45833,10
22.46667,9
22.47500,8
22.48333,7
22.49167,6
22.50000,5
22.50833,5
22.51667,4
22.52500,4
22.53333,3
22.54167,2
22.55000,2
22.55833,2
22.56667,1
22.57500,1
22.58333,0
22.59167,-0
22.60000,-1
22.60833,-2
22.61667,-2
22.62500,-2
22.63333,-3
22.64167,-3
22.65000,-3
22.65833,-3
22.66667,-3
22.67500,-3
22.68333,-4
22.69167,-4
22.70000,-4
22.70833,-4
22.71667,-4
22.72500,-4
22.73333,-4
22.74167,-4
22.75000,-5
22.75833,-5
22.76667,-5
22.77500,-5
22.78333,-5
22.79167,-5
22.80000,-5
22.80833,-5
22.81667,-5
22.82500,-5
22.83333,-5
22.84167,-5
22.85000,-5
22.85833,-5
22.86667,-6
22.87500,-6
22.88333,-6
22.89167,-6
22.90000,-6
22.90833,-6
22.91667,-6
22.92500,-6
22.93333,-6
22.94167,-6
22.95000,-6
22.95833,-6
22.96667,-6
22.97500,-6
22.98333,-6
22.99167,-6
23.00000,-6
23.00833,-7
23.01667,-6
23.02500,-6
23.03333,-6
23.04167,-6
23.05000,-6
23.05833,-6
23.06667,-7
23.07500,-7
23.08333,-7
23.09167,-7
23.10000,-7
23.10833,-7
23.11667,-7
23.12500,-7
23.13333,-7
23.14167,-7
23.15000,-7
23.15833,-7
23.16667,-7
23.17500,-7
23.18333,-7
23.19167,-7
23.20000,-7
23.20833,-7
23.21667,-7
23.22500,-7
23.23333,-7
23.24167,-7
23.25000,-7
23.25833,-7
23.26667,-7
23.27500,-7
23.28333,-7
23.29167,-7
23.30000,-7
23.30833,-7
23.31667,-7
23.32500,-7
23.33333,-7
23.34167,-7
23.35000,-7
23.35833,-7
23.36667,-7
23.37500,-7
23.38333,-8
23.39167,-8
23.40000,-8
23.40833,-8
23.41667,-7
23.42500,-7
23.43333,-7
23.44167,-8
23.45000,-8
23.45833,-8
23.46667,-8
23.47500,-8
23.48333,-9
23.49167,-8
23.50000,-8
23.50833,-8
23.51667,-8
23.52500,-8
23.53333,-8
23.54167,-7
23.55000,-7
23.55833,-7
23.56667,-7
23.57500,-7
23.58333,-7
23.59167,-8
23.60000,-8
23.60833,-8
23.61667,-8
23.62500,-8
23.63333,-8
23.64167,-8
23.65000,-9
23.65833,-9
23.66667,-9
23.67500,-9
23.68333,-9
23.69167,-8
23.70000,-9
23.70833,-9
23.71667,-9
23.72500,-9
23.73333,-9
23.74167,-9
23.75000,-9
23.75833,-9
23.76667,-9
23.77500,-9
23.78333,-10
23.79167,-10
23.80000,-10
23.80833,-10
23.81667,-9
23.82500,-9
23.83333,-9
23.84167,-9
23.85000,-9
23.85833,-9
23.86667,-10
23.87500,-10
23.88333,-10
23.89167,-9
23.90000,-9
23.90833,-10
23.91667,-10
23.92500,-10
23.93333,-9
23.94167,-9
23.95000,-10
23.95833,-10
23.96667,-10
23.97500,-10
23.98333,-10
23.99167,-10
24.00000,-10
24.00833,-10
24.01667,-10
24.02500,-10
24.03333,-10
24.04167,-10
24.05000,-10
24.05833,-10
24.06667,-9
24.07500,-9
24.08333,-9
24.09167,-9
24.10000,-9
24.10833,-9
24.11667,-10
24.12500,-10
24.13333,-10
24.14167,-10
24.15000,-10
24.15833,-10
24.16667,-10
24.17500,-10
24.18333,-10
24.19167,-10
24.20000,-10
24.20833,-10
24.21667,-10
24.22500,-10
24.23333,-10
24.24167,-10
24.25000,-10
24.25833,-10
24.26667,-10
24.27500,-10
24.28333,-11
24.29167,-11
24.30000,-11
24.30833,-10
24.31667,-10
24.32500,-10
24.33333,-10
24.34167,-10
24.35000,-11
24.35833,-11
24.36667,-11
24.37500,-11
24.38333,-11
24.39167,-11
24.40000,-11
24.40833,-11
24.41667,-11
24.42500,-11
24.43333,-11
24.44167,-11
24.45000,-11
24.45833,-11
24.46667,-10
24.47500,-10
24.48333,-10
24.49167,-10
24.50000,-10
24.50833,-10
24.51667,-10
24.52500,-10
24.53333,-10
24.54167,-9
24.55000,-9
24.55833,-9
24.56667,-9
24.57500,-9
24.58333,-9
24.59167,-9
24.60000,-10
24.60833,-10
24.61667,-10
24.62500,-10
24.63333,-10
24.64167,-9
24.65000,-9
24.65833,-8
24.66667,-8
24.67500,-8
24.68333,-8
24.69167,-7
24.70000,-7
24.70833,-6
24.71667,-5
24.72500,-4
24.73333,-4
24.74167,-3
24.75000,-3
24.75833,-2
24.76667,-1
24.77500,-0
24.78333,1
24.79167,2
24.80000,2
24.80833,3
24.81667,4
24.82500,5
24.83333,6
24.84167,7
24.85000,9
24.85833,10
24.86667,11
24.87500,12
24.88333,13
24.89167,15
24.90000,16
24.90833,17
24.91667,18
24.92500,19
24.93333,20
24.94167,21
24.95000,21
24.95833,22
24.96667,23
24.97500,24
24.98333,25
24.99167,26
25.00000,27
25.00833,27
25.01667,28
25.02500,28
25.03333,29
25.04167,29
25.05000,29
25.05833,29
25.06667,29
25.07500,30
25.08333,30
25.09167,30
25.10000,29
25.10833,29
25.11667,29
25.12500,28
25.13333,28
25.14167,27
25.15000,26
25.15833,26
25.16667,25
25.17500,25
25.18333,24
25.19167,23
25.20000,22
25.20833,21
25.21667,21
25.22500,20
25.23333,19
25.24167,18
25.25000,17
25.25833,16
25.26667,15
25.27500,14
25.28333,13
25.29167,11
25.30000,10
25.30833,9
25.31667,8
25.32500,7
25.33333,6
25.34167,5
25.35000,4
25.35833,4
25.36667,3
25.37500,2
25.38333,2
25.39167,1
25.40000,0
25.40833,-1
25.41667,-1
25.42500,-2
25.43333,-3
25.44167,-4
25.45000,-4
25.45833,-4
25.46667,-4
25.47500,-4
25.48333,-5
25.49167,-5
25.50000,-6
25.50833,-7
25.51667,-7
25.52500,-7
25.53333,-8
25.54167,-8
25.55000,-9
25.55833,-9
25.56667,-9
25.57500,-9
25.58333,-9
25.59167,-9
25.60000,-9
25.60833,-10
25.61667,-10
25.62500,-10
25.63333,-10
25.64167,-10
25.65000,-9
25.65833,-9
25.66667,-9
25.67500,-9
25.68333,-9
25.69167,-10
25.70000,-10
25.70833,-11
25.71667,-11
25.72500,-11
25.73333,-11
25.74167,-11
25.75000,-12
25.75833,-12
25.76667,-12
25.77500,-12
25.78333,-12
25.79167,-12
25.80000,-12
25.80833,-12
25.81667,-11
25.82500,-11
25.83333,-11
25.84167,-11
25.85000,-11
25.85833,-11
25.86667,-11
25.87500,-11
25.88333,-11
25.89167,-11
25.90000,-11
25.90833,-11
25.91667,-11
25.92500,-11
25.93333,-11
25.94167,-11
25.95000,-11
25.95833,-11
25.96667,-11
25.97500,-11
25.98333,-11
25.99167,-11
26.00000,-11
26.00833,-11
26.01667,-11
26.02500,-11
26.03333,-11
26.04167,-11
26.05000,-11
26.05833,-11
26.06667,-11
26.07500,-10
26.08333,-10
26.09167,-10
26.10000,-10
26.10833,-10
26.11667,-10
26.12500,-10
26.13333,-10
26.14167,-10
26.15000,-10
26.15833,-11
26.16667,-11
26.17500,-11
26.18333,-11
26.19167,-10
26.20000,-10
26.20833,-10
26.21667,-10
26.22500,-10
26.23333,-10
26.24167,-11
26.25000,-11
26.25833,-11
26.26667,-12
26.27500,-12
26.28333,-11
26.29167,-11
26.30000,-11
26.30833,-10
26.31667,-11
26.32500,-11
26.33333,-11
26.34167,-11
26.35000,-11
26.35833,-12
26.36667,-11
26.37500,-11
26.38333,-11
26.39167,-11
26.40000,-11
26.40833,-11
26.41667,-11
26.42500,-11
26.43333,-11
26.44167,-11
26.45000,-11
26.45833,-10
26.46667,-10
26.47500,-10
26.48333,-10
26.49167,-10
26.50000,-10
26.50833,-10
26.51667,-10
26.52500,-10
26.53333,-10
26.54167,-10
26.55000,-10
26.55833,-10
26.56667,-10
26.57500,-10
26.58333,-10
26.59167,-9
26.60000,-9
26.60833,-9
26.61667,-8
26.62500,-9
26.63333,-9
26.64167,-9
26.65000,-9
26.65833,-9
26.66667,-9
26.67500,-9
26.68333,-9
26.69167,-9
26.70000,-9
26.70833,-9
26.71667,-9
26.72500,-9
26.73333,-9
26.74167,-9
26.75000,-9
26.75833,-9
26.76667,-9
26.77500,-9
26.78333,-9
26.79167,-9
26.80000,-9
26.80833,-9
26.81667,-9
26.82500,-9
26.83333,-9
26.84167,-9
26.85000,-9
26.85833,-9
26.86667,-9
26.87500,-9
26.88333,-9
26.89167,-9
26.90000,-9
26.90833,-9
26.91667,-9
26.92500,-9
26.93333,-9
26.94167,-9
26.95000,-9
26.95833,-9
26.96667,-9
26.97500,-9
26.98333,-9
26.99167,-9
27.00000,-9
27.00833,-10
27.01667,-10
27.02500,-10
27.03333,-9
27.04167,-9
27.05000,-9
27.05833,-9
27.06667,-9
27.07500,-8
27.08333,-8
27.09167,-9
27.10000,-9
27.10833,-9
27.11667,-9
27.12500,-9
27.13333,-9
27.14167,-9
27.15000,-9
27.15833,-9
27.16667,-9
27.17500,-9
27.18333,-9
27.19167,-9
27.20000,-9
27.20833,-9
27.21667,-9
27.22500,-10
27.23333,-10
27.24167,-10
27.25000,-10
27.25833,-10
27.26667,-10
27.27500,-10
27.28333,-10
27.29167,-9
27.30000,-9
27.30833,-9
27.31667,-9
27.32500,-9
27.33333,-9
27.34167,-10
27.35000,-10
27.35833,-10
27.36667,-10
27.37500,-10
27.38333,-10
27.39167,-10
27.40000,-10
27.40833,-10
27.41667,-10
27.42500,-10
27.43333,-10
27.44167,-10
27.45000,-10
27.45833,-10
27.46667,-10
27.47500,-10
27.48333,-10
27.49167,-10
27.50000,-10
27.50833,-9
27.51667,-9
27.52500,-9
27.53333,-9
27.54167,-9
27.55000,-9
27.55833,-9
27.56667,-10
27.57500,-10
27.58333,-10
27.59167,-10
27.60000,-10
27.60833,-10
27.61667,-10
27.62500,-10
27.63333,-10
27.64167,-10
27.65000,-10
27.65833,-10
27.66667,-10
27.67500,-10
27.68333,-10
27.69167,-10
27.70000,-10
27.70833,-10
27.71667,-10
27.72500,-10
27.73333,-10
27.74167,-9
27.75000,-9
27.75833,-9
27.76667,-10
27.77500,-11
27.78333,-11
27.79167,-12
27.80000,-12
27.80833,-13
27.81667,-13
27.82500,-13
27.83333,-14
27.84167,-14
27.85000,-15
27.85833,-16
27.86667,-16
27.87500,-17
27.88333,-18
27.89167,-19
27.90000,-20
27.90833,-20
27.91667,-21
27.92500,-22
27.93333,-23
27.94167,-25
27.95000,-26
27.95833,-27
27.96667,-28
27.97500,-29
27.98333,-31
27.99167,-32
28.00000,-34
28.00833,-35
28.01667,-37
28.02500,-39
28.03333,-40
28.04167,-42
28.05000,-44
28.05833,-46
28.06667,-49
28.07500,-51
28.08333,-54
28.09167,-56
28.10000,-59
28.10833,-62
28.11667,-65
28.12500,-67
28.13333,-70
28.14167,-73
28.15000,-76
28.15833,-79
28.16667,-82
28.17500,-85
28.18333,-88
28.19167,-91
28.20000,-94
28.20833,-98
28.21667,-101
28.22500,-103
28.23333,-106
28.24167,-109
28.25000,-112
28.25833,-115
28.26667,-118
28.27500,-120
28.28333,-123
28.29167,-126
28.30000,-129
28.30833,-131
28.31667,-134
28.32500,-136
28.33333,-138
28.34167,-140
28.35000,-141
28.35833,-143
28.36667,-145
28.37500,-147
28.38333,-148
28.39167,-149
28.40000,-150
28.40833,-151
28.41667,-152
28.42500,-152
28.43333,-152
28.44167,-152
28.45000,-152
28.45833,-152
28.46667,-151
28.47500,-151
28.48333,-150
28.49167,-149
28.50000,-148
28.50833,-147
28.51667,-146
28.52500,-145
28.53333,-143
28.54167,-142
28.55000,-140
28.55833,-139
28.56667,-137
28.57500,-135
28.58333,-132
28.59167,-130
28.60000,-127
28.60833,-125
28.61667,-123
28.62500,-120
28.63333,-118
28.64167,-116
28.65000,-113
28.65833,-111
28.66667,-108
28.67500,-105
28.68333,-102
28.69167,-100
28.70000,-97
28.70833,-94
28.71667,-92
28.72500,-89
28.73333,-86
28.74167,-84
28.75000,-81
28.75833,-79
28.76667,-77
28.77500,-75
28.78333,-72
28.79167,-70
28.80000,-68
28.80833,-66
28.81667,-64
28.82500,-62
28.83333,-60
28.84167,-59
28.85000,-57
28.85833,-55
28.86667,-53
28.87500,-52
28.88333,-50
28.89167,-48
28.90000,-47
28.90833,-45
28.91667,-44
28.92500,-43
28.93333,-41
28.94167,-40
28.95000,-39
28.95833,-38
28.96667,-37
28.97500,-36
28.98333,-35
28.99167,-34
29.00000,-33
29.00833,-32
29.01667,-31
29.02500,-31
29.03333,-30
29.04167,-29
29.05000,-29
29.05833,-28
29.06667,-27
29.07500,-27
29.08333,-26
29.09167,-26
29.10000,-25
29.10833,-25
29.11667,-24
29.12500,-24
29.13333,-24
29.14167,-23
29.15000,-23
29.15833,-22
29.16667,-22
29.17500,-21
29.18333,-21
29.19167,-21
29.20000,-21
29.20833,-20
29.21667,-20
29.22500,-20
29.23333,-20
29.24167,-20
29.25000,-20
29.25833,-20
29.26667,-20
29.27500,-19
29.28333,-19
29.29167,-19
29.30000,-19
29.30833,-19
29.31667,-19
29.32500,-19
29.33333,-19
29.34167,-19
29.35000,-19
29.35833,-19
29.36667,-19
29.37500,-19
29.38333,-19
29.39167,-18
29.40000,-18
29.40833,-18
29.41667,-18
29.42500,-18
29.43333,-18
29.44167,-18
29.45000,-18
29.45833,-18
29.46667,-18
29.47500,-19
29.48333,-19
29.49167,-19
29.50000,-19
29.50833,-19
29.51667,-19
29.52500,-19
29.53333,-19
29.54167,-19
29.55000,-19
29.55833,-19
29.56667,-20
29.57500,-20
29.58333,-21
29.59167,-21
29.60000,-21
29.60833,-21
29.61667,-21
29.62500,-22
29.63333,-22
29.64167,-22
29.65000,-23
29.65833,-24
29.66667,-24
29.67500,-24
29.68333,-25
29.69167,-25
29.70000,-26
29.70833,-26
29.71667,-27
29.72500,-28
29.73333,-28
29.74167,-29
29.75000,-29
29.75833,-30
29.76667,-30
29.77500,-31
29.78333,-32
29.79167,-33
29.80000,-34
29.80833,-35
29.81667,-35
29.82500,-36
29.83333,-37
29.84167,-38
29.85000,-39
29.85833,-40
29.86667,-40
29.87500,-41
29.88333,-42
29.89167,-43
29.90000,-45
29.90833,-46
29.91667,-47
29.92500,-48
29.93333,-49
29.94167,-50
29.95000,-51
29.95833,-52
29.96667,-53
29.97500,-54
29.98333,-55
29.99167,-56
30.00000,-57
30.00833,-58
30.01667,-59
30.02500,-60
30.03333,-61
30.04167,-61
30.05000,-62
30.05833,-63
30.06667,-63
30.07500,-64
30.08333,-64
30.09167,-65
30.10000,-66
30.10833,-66
30.11667,-66
30.12500,-67
30.13333,-67
30.14167,-68
30.15000,-68
30.15833,-68
30.16667,-68
30.17500,-69
30.18333,-69
30.19167,-68
30.20000,-68
30.20833,-68
30.21667,-68
30.22500,-68
30.23333,-68
30.24167,-68
30.25000,-68
30.25833,-68
30.26667,-67
30.27500,-67
30.28333,-66
30.29167,-65
30.30000,-65
30.30833,-65
30.31667,-64
30.32500,-63
30.33333,-62
30.34167,-61
30.35000,-61
30.35833,-60
30.36667,-59
30.37500,-58
30.38333,-57
30.39167,-56
30.40000,-55
30.40833,-54
30.41667,-54
30.42500,-53
30.43333,-52
30.44167,-51
30.45000,-50
30.45833,-50
30.46667,-49
30.47500,-48
30.48333,-48
30.49167,-47
30.50000,-46
30.50833,-45
30.51667,-45
30.52500,-44
30.53333,-43
30.54167,-42
30.55000,-41
30.55833,-40
30.56667,-39
30.57500,-38
30.58333,-37
30.59167,-37
30.60000,-36
30.60833,-35
30.61667,-34
30.62500,-34
30.63333,-33
30.64167,-33
30.65000,-33
30.65833,-33
30.66667,-32
30.67500,-31
30.68333,-31
30.69167,-30
30.70000,-29
30.70833,-28
30.71667,-28
30.72500,-27
30.73333,-27
30.74167,-26
30.75000,-26
30.75833,-26
30.76667,-25
30.77500,-25
30.78333,-25
30.79167,-25
30.80000,-25
30.80833,-25
30.81667,-24
30.82500,-24
30.83333,-24
30.84167,-24
30.85000,-24
30.85833,-24
30.86667,-24
30.87500,-24
30.88333,-24
30.89167,-24
30.90000,-24
30.90833,-24
30.91667,-23
30.92500,-23
30.93333,-23
30.94167,-22
30.95000,-22
30.95833,-22
30.96667,-22
30.97500,-22
30.98333,-22
30.99167,-22
31.00000,-22
31.00833,-22
31.01667,-22
31.02500,-22
31.03333,-22
31.04167,-22
31.05000,-22
31.05833,-22
31.06667,-22
31.07500,-22
31.08333,-22
31.09167,-22
31.10000,-22
31.10833,-23
31.11667,-23
31.12500,-23
31.13333,-22
31.14167,-22
31.15000,-22
31.15833,-22
31.16667,-21
31.17500,-21
31.18333,-21
31.19167,-21
31.20000,-21
31.20833,-21
31.21667,-21
31.22500,-21
31.23333,-21
31.24167,-21
31.25000,-21
31.25833,-22
31.26667,-22
31.27500,-22
31.28333,-21
31.29167,-22
31.30000,-21
31.30833,-21
31.31667,-21
31.32500,-21
31.33333,-22
31.34167,-22
31.35000,-21
31.35833,-21
31.36667,-21
31.37500,-21
31.38333,-21
31.39167,-21
31.40000,-21
31.40833,-21
31.41667,-21
31.42500,-20
31.43333,-20
31.44167,-20
31.45000,-20
31.45833,-20
31.46667,-20
31.47500,-20
31.48333,-20
31.49167,-19
31.50000,-19
31.50833,-19
31.51667,-19
31.52500,-19
31.53333,-19
31.54167,-19
31.55000,-19
31.55833,-19
31.56667,-19
31.57500,-19
31.58333,-19
31.59167,-19
31.60000,-19
31.60833,-19
31.61667,-19
31.62500,-19
31.63333,-19
31.64167,-19
31.65000,-19
31.65833,-19
31.66667,-19
31.67500,-19
31.68333,-19
31.69167,-19
31.70000,-20
31.70833,-20
31.71667,-20
31.72500,-20
31.73333,-20
31.74167,-20
31.75000,-19
31.75833,-19
31.76667,-19
31.77500,-19
31.78333,-19
31.79167,-19
31.80000,-18
31.80833,-18
31.81667,-18
31.82500,-18
31.83333,-18
31.84167,-18
31.85000,-18
31.85833,-19
31.86667,-19
31.87500,-19
31.88333,-19
31.89167,-19
31.90000,-19
31.90833,-19
31.91667,-19
31.92500,-19
31.93333,-20
31.94167,-20
31.95000,-20
31.95833,-20
31.96667,-20
31.97500,-20
31.98333,-20
31.99167,-20
32.00000,-20
32.00833,-20
32.01667,-20
32.02500,-20
32.03333,-20
32.04167,-20
32.05000,-19
32.05833,-19
32.06667,-19
32.07500,-19
32.08333,-19
32.09167,-19
32.10000,-19
32.10833,-19
32.11667,-19
32.12500,-19
32.13333,-19
32.14167,-19
32.15000,-20
32.15833,-20
32.16667,-20
32.17500,-19
32.18333,-19
32.19167,-19
32.20000,-19
32.20833,-18
32.21667,-18
32.22500,-19
32.23333,-19
32.24167,-19
32.25000,-20
32.25833,-20
32.26667,-20
32.27500,-20
32.28333,-19
32.29167,-19
32.30000,-19
32.30833,-19
32.31667,-19
32.32500,-19
32.33333,-19
32.34167,-19
32.35000,-19
32.35833,-19
32.36667,-19
32.37500,-19
32.38333,-19
32.39167,-19
32.40000,-19
32.40833,-19
32.41667,-19
32.42500,-19
32.43333,-19
32.44167,-19
32.45000,-19
32.45833,-19
32.46667,-19
32.47500,-19
32.48333,-19
32.49167,-18
32.50000,-18
32.50833,-19
32.51667,-19
32.52500,-19
32.53333,-19
32.54167,-19
32.55000,-19
32.55833,-19
32.56667,-19
32.57500,-19
32.58333,-20
32.59167,-20
32.60000,-20
32.60833,-20
32.61667,-20
32.62500,-20
32.63333,-20
32.64167,-20
32.65000,-20
32.65833,-20
32.66667,-20
32.67500,-20
32.68333,-20
32.69167,-20
32.70000,-20
32.70833,-20
32.71667,-20
32.72500,-20
32.73333,-20
32.74167,-20
32.75000,-20
32.75833,-20
32.76667,-20
32.77500,-20
32.78333,-20
32.79167,-20
32.80000,-20
32.80833,-20
32.81667,-20
32.82500,-20
32.83333,-20
32.84167,-20
32.85000,-20
32.85833,-20
32.86667,-19
32.87500,-20
32.88333,-20
32.89167,-20
32.90000,-20
32.90833,-20
32.91667,-19
32.92500,-19
32.93333,-19
32.94167,-19
32.95000,-20
32.95833,-20
32.96667,-20
32.97500,-20
32.98333,-21
32.99167,-21
33.00000,-21
33.00833,-21
33.01667,-21
33.02500,-21
33.03333,-20
33.04167,-20
33.05000,-20
33.05833,-20
33.06667,-20
33.07500,-20
33.08333,-20
33.09167,-20
33.10000,-20
33.10833,-20
33.11667,-19
33.12500,-19
33.13333,-20
33.14167,-19
33.15000,-19
33.15833,-19
33.16667,-19
33.17500,-19
33.18333,-19
33.19167,-20
33.20000,-20
33.20833,-20
33.21667,-20
33.22500,-20
33.23333,-20
33.24167,-20
33.25000,-20
33.25833,-21
33.26667,-21
33.27500,-21
33.28333,-21
33.29167,-20
33.30000,-20
33.30833,-20
33.31667,-20
33.32500,-20
33.33333,-20
33.34167,-20
33.35000,-20
33.35833,-20
33.36667,-20
33.37500,-20
33.38333,-20
33.39167,-19
33.40000,-19
33.40833,-20
33.41667,-20
33.42500,-20
33.43333,-20
33.44167,-20
33.45000,-20
33.45833,-21
33.46667,-21
33.47500,-21
33.48333,-21
33.49167,-21
33.50000,-20
33.50833,-21
33.51667,-21
33.52500,-21
33.53333,-21
33.54167,-20
33.55000,-20
33.55833,-20
33.56667,-20
33.57500,-20
33.58333,-20
33.59167,-20
33.60000,-21
33.60833,-20
33.61667,-20
33.62500,-20
33.63333,-20
33.64167,-21
33.65000,-20
33.65833,-21
33.66667,-20
33.67500,-20
33.68333,-20
33.69167,-20
33.70000,-21
33.70833,-21
33.71667,-21
33.72500,-21
33.73333,-21
33.74167,-20
33.75000,-21
33.75833,-21
33.76667,-21
33.77500,-21
33.78333,-21
33.79167,-21
33.80000,-20
33.80833,-20
33.81667,-21
33.82500,-21
33.83333,-21
33.84167,-20
33.85000,-20
33.85833,-20
33.86667,-20
33.87500,-21
33.88333,-21
33.89167,-21
33.90000,-21
33.90833,-21
33.91667,-21
33.92500,-21
33.93333,-21
33.94167,-21
33.95000,-21
33.95833,-21
33.96667,-22
33.97500,-22
33.98333,-22
33.99167,-22
34.00000,-22
34.00833,-22
34.01667,-22
34.02500,-22
34.03333,-22
34.04167,-22
34.05000,-22
34.05833,-22
34.06667,-22
34.07500,-22
34.08333,-21
34.09167,-21
34.10000,-21
34.10833,-21
34.11667,-21
34.12500,-21
34.13333,-21
34.14167,-21
34.15000,-21
34.15833,-21
34.16667,-21
34.17500,-22
34.18333,-22
34.19167,-22
34.20000,-22
34.20833,-21
34.21667,-21
34.22500,-21
34.23333,-21
34.24167,-21
34.25000,-21
34.25833,-21
34.26667,-21
34.27500,-21
34.28333,-20
34.29167,-20
34.30000,-20
34.30833,-20
34.31667,-21
34.32500,-21
34.33333,-21
34.34167,-21
34.35000,-20
34.35833,-20
34.36667,-20
34.37500,-20
34.38333,-20
34.39167,-20
34.40000,-20
34.40833,-20
34.41667,-21
34.42500,-21
34.43333,-21
34.44167,-21
34.45000,-21
34.45833,-21
34.46667,-21
34.47500,-21
34.48333,-21
34.49167,-21
34.50000,-21
34.50833,-21
34.51667,-21
34.52500,-21
34.53333,-21
34.54167,-21
34.55000,-21
34.55833,-21
34.56667,-21
34.57500,-21
34.58333,-20
34.59167,-20
34.60000,-20
34.60833,-20
34.61667,-20
34.62500,-21
34.63333,-21
34.64167,-21
34.65000,-20
34.65833,-20
34.66667,-21
34.67500,-21
34.68333,-21
34.69167,-20
34.70000,-21
34.70833,-21
34.71667,-21
34.72500,-21
34.73333,-21
34.74167,-21
34.75000,-21
34.75833,-21
34.76667,-21
34.77500,-21
34.78333,-21
34.79167,-21
34.80000,-21
34.80833,-21
34.81667,-21
34.82500,-21
34.83333,-21
34.84167,-21
34.85000,-21
34.85833,-21
34.86667,-21
34.87500,-22
34.88333,-22
34.89167,-22
34.90000,-22
34.90833,-22
34.91667,-22
34.92500,-22
34.93333,-22
34.94167,-22
34.95000,-22
34.95833,-23
34.96667,-23
34.97500,-23
34.98333,-23
34.99167,-22
35.00000,-22
35.00833,-22
35.01667,-22
35.02500,-22
35.03333,-22
35.04167,-23
35.05000,-23
35.05833,-23
35.06667,-22
35.07500,-22
35.08333,-22
35.09167,-22
35.10000,-23
35.10833,-23
35.11667,-23
35.12500,-23
35.13333,-22
35.14167,-22
35.15000,-22
35.15833,-22
35.16667,-23
35.17500,-23
35.18333,-23
35.19167,-23
35.20000,-23
35.20833,-23
35.21667,-23
35.22500,-24
35.23333,-24
35.24167,-24
35.25000,-24
35.25833,-24
35.26667,-24
35.27500,-24
35.28333,-24
35.29167,-25
35.30000,-25
35.30833,-24
35.31667,-24
35.32500,-24
35.33333,-24
35.34167,-24
35.35000,-25
35.35833,-24
35.36667,-24
35.37500,-24
35.38333,-23
35.39167,-23
35.40000,-23
35.40833,-23
35.41667,-23
35.42500,-23
35.43333,-24
35.44167,-24
35.45000,-24
35.45833,-24
35.46667,-24
35.47500,-24
35.48333,-24
35.49167,-25
35.50000,-25
35.50833,-25
35.51667,-25
35.52500,-25
35.53333,-25
35.54167,-25
35.55000,-25
35.55833,-25
35.56667,-25
35.57500,-25
35.58333,-25
35.59167,-25
35.60000,-25
35.60833,-25
35.61667,-25
35.62500,-25
35.63333,-25
35.64167,-25
35.65000,-25
35.65833,-25
35.66667,-24
35.67500,-24
35.68333,-25
35.69167,-25
35.70000,-25
35.70833,-25
35.71667,-25
35.72500,-25
35.73333,-25
35.74167,-25
35.75000,-25
35.75833,-25
35.76667,-25
35.77500,-25
35.78333,-25
35.79167,-25
35.80000,-25
35.80833,-25
35.81667,-25
35.82500,-25
35.83333,-24
35.84167,-24
35.85000,-24
35.85833,-25
35.86667,-25
35.87500,-24
35.88333,-24
35.89167,-25
35.90000,-25
35.90833,-25
35.91667,-25
35.92500,-25
35.93333,-25
35.94167,-25
35.95000,-25
35.95833,-25
35.96667,-25
35.97500,-25
35.98333,-25
35.99167,-25
36.00000,-25
36.00833,-25
36.01667,-26
36.02500,-26
36.03333,-25
36.04167,-25
36.05000,-25
36.05833,-25
36.06667,-25
36.07500,-25
36.08333,-25
36.09167,-25
36.10000,-25
36.10833,-25
36.11667,-25
36.12500,-25
36.13333,-25
36.14167,-26
36.15000,-26
36.15833,-26
36.16667,-26
36.17500,-26
36.18333,-26
36.19167,-26
36.20000,-26
36.20833,-26
36.21667,-26
36.22500,-27
36.23333,-26
36.24167,-26
36.25000,-26
36.25833,-26
36.26667,-26
36.27500,-26
36.28333,-26
36.29167,-26
36.30000,-27
36.30833,-27
36.31667,-27
36.32500,-27
36.33333,-26
36.34167,-27
36.35000,-27
36.35833,-27
36.36667,-27
36.37500,-27
36.38333,-27
36.39167,-27
36.40000,-27
36.40833,-27
36.41667,-27
36.42500,-27
36.43333,-27
36.44167,-27
36.45000,-26
36.45833,-26
36.46667,-26
36.47500,-26
36.48333,-26
36.49167,-26
36.50000,-26
36.50833,-26
36.51667,-26
36.52500,-26
36.53333,-26
36.54167,-26
36.55000,-26
36.55833,-26
36.56667,-25
36.57500,-26
36.58333,-26
36.59167,-26
36.60000,-26
36.60833,-26
36.61667,-26
36.62500,-26
36.63333,-25
36.64167,-25
36.65000,-25
36.65833,-26
36.66667,-26
36.67500,-26
36.68333,-26
36.69167,-27
36.70000,-27
36.70833,-26
36.71667,-26
36.72500,-26
36.73333,-26
36.74167,-26
36.75000,-26
36.75833,-26
36.76667,-25
36.77500,-25
36.78333,-25
36.79167,-25
36.80000,-25
36.80833,-25
36.81667,-25
36.82500,-26
36.83333,-26
36.84167,-26
36.85000,-26
36.85833,-26
36.86667,-26
36.87500,-25
36.88333,-25
36.89167,-25
36.90000,-25
36.90833,-25
36.91667,-25
36.92500,-25
36.93333,-25
36.94167,-25
36.95000,-25
36.95833,-26
36.96667,-26
36.97500,-26
36.98333,-26
36.99167,-26
37.00000,-26
37.00833,-26
37.01667,-26
37.02500,-26
37.03333,-26
37.04167,-27
37.05000,-27
37.05833,-27
37.06667,-27
37.07500,-27
37.08333,-26
37.09167,-26
37.10000,-26
37.10833,-26
37.11667,-26
37.12500,-26
37.13333,-26
37.14167,-26
37.15000,-26
37.15833,-27
37.16667,-27
37.17500,-26
37.18333,-26
37.19167,-26
37.20000,-26
37.20833,-26
37.21667,-26
37.22500,-26
37.23333,-26
37.24167,-25
37.25000,-25
37.25833,-25
37.26667,-26
37.27500,-26
37.28333,-26
37.29167,-26
37.30000,-26
37.30833,-27
37.31667,-27
37.32500,-27
37.33333,-27
37.34167,-27
37.35000,-27
37.35833,-27
37.36667,-27
37.37500,-27
37.38333,-27
37.39167,-27
37.40000,-27
37.40833,-28
37.41667,-27
37.42500,-27
37.43333,-28
37.44167,-28
37.45000,-28
37.45833,-28
37.46667,-28
37.47500,-27
37.48333,-27
37.49167,-27
37.50000,-27
37.50833,-27
37.51667,-27
37.52500,-27
37.53333,-27
37.54167,-27
37.55000,-27
37.55833,-27
37.56667,-27
37.57500,-27
37.58333,-27
37.59167,-27
37.60000,-27
37.60833,-27
37.61667,-27
37.62500,-27
37.63333,-27
37.64167,-28
37.65000,-28
37.65833,-28
37.66667,-28
37.67500,-28
37.68333,-28
37.69167,-28
37.70000,-28
37.70833,-28
37.71667,-28
37.72500,-28
37.73333,-27
37.74167,-27
37.75000,-27
37.75833,-27
37.76667,-27
37.77500,-27
37.78333,-27
37.79167,-27
37.80000,-27
37.80833,-27
37.81667,-27
37.82500,-27
37.83333,-27
37.84167,-27
37.85000,-28
37.85833,-28
37.86667,-28
37.87500,-28
37.88333,-28
37.89167,-28
37.90000,-28
37.90833,-28
37.91667,-28
37.92500,-28
37.93333,-28
37.94167,-28
37.95000,-27
37.95833,-27
37.96667,-27
37.97500,-28
37.98333,-28
37.99167,-28
38.00000,-27
38.00833,-27
38.01667,-27
38.02500,-27
38.03333,-28
38.04167,-28
38.05000,-28
38.05833,-28
38.06667,-28
38.07500,-28
38.08333,-28
38.09167,-28
38.10000,-28
38.10833,-28
38.11667,-28
38.12500,-28
38.13333,-28
38.14167,-28
38.15000,-28
38.15833,-28
38.16667,-28
38.17500,-28
38.18333,-28
38.19167,-28
38.20000,-28
38.20833,-28
38.21667,-28
38.22500,-28
38.23333,-28
38.24167,-28
38.25000,-28
38.25833,-28
38.26667,-28
38.27500,-28
38.28333,-28
38.29167,-27
38.30000,-27
38.30833,-27
38.31667,-27
38.32500,-28
38.33333,-28
38.34167,-28
38.35000,-28
38.35833,-28
38.36667,-28
38.37500,-28
38.38333,-28
38.39167,-28
38.40000,-28
38.40833,-28
38.41667,-28
38.42500,-28
38.43333,-28
38.44167,-28
38.45000,-28
38.45833,-28
38.46667,-28
38.47500,-27
38.48333,-27
38.49167,-27
38.50000,-28
38.50833,-28
38.51667,-28
38.52500,-28
38.53333,-28
38.54167,-28
38.55000,-28
38.55833,-28
38.56667,-28
38.57500,-28
38.58333,-27
38.59167,-27
38.60000,-27
38.60833,-27
38.61667,-27
38.62500,-27
38.63333,-27
38.64167,-27
38.65000,-27
38.65833,-27
38.66667,-27
38.67500,-28
38.68333,-28
38.69167,-28
38.70000,-28
38.70833,-28
38.71667,-28
38.72500,-28
38.73333,-28
38.74167,-28
38.75000,-29
38.75833,-29
38.76667,-29
38.77500,-29
38.78333,-29
38.79167,-29
38.80000,-29
38.80833,-29
38.81667,-29
38.82500,-29
38.83333,-29
38.84167,-29
38.85000,-29
38.85833,-29
38.86667,-29
38.87500,-29
38.88333,-29
38.89167,-29
38.90000,-29
38.90833,-29
38.91667,-29
38.92500,-29
38.93333,-29
38.94167,-28
38.95000,-28
38.95833,-27
38.96667,-27
38.97500,-27
38.98333,-27
38.99167,-28
39.00000,-28
39.00833,-28
39.01667,-28
39.02500,-28
39.03333,-28
39.04167,-28
39.05000,-28
39.05833,-28
39.06667,-28
39.07500,-28
39.08333,-28
39.09167,-28
39.10000,-28
39.10833,-28
39.11667,-28
39.12500,-28
39.13333,-28
39.14167,-28
39.15000,-28
39.15833,-28
39.16667,-28
39.17500,-28
39.18333,-27
39.19167,-27
39.20000,-27
39.20833,-28
39.21667,-28
39.22500,-28
39.23333,-28
39.24167,-28
39.25000,-28
39.25833,-28
39.26667,-28
39.27500,-28
39.28333,-29
39.29167,-29
39.30000,-29
39.30833,-29
39.31667,-29
39.32500,-29
39.33333,-29
39.34167,-29
39.35000,-29
39.35833,-28
39.36667,-28
39.37500,-28
39.38333,-28
39.39167,-28
39.40000,-28
39.40833,-28
39.41667,-28
39.42500,-28
39.43333,-28
39.44167,-28
39.45000,-28
39.45833,-28
39.46667,-28
39.47500,-28
39.48333,-28
39.49167,-28
39.50000,-28
39.50833,-29
39.51667,-29
39.52500,-30
39.53333,-30
39.54167,-29
39.55000,-29
39.55833,-29
39.56667,-28
39.57500,-28
39.58333,-28
39.59167,-28
39.60000,-29
39.60833,-29
39.61667,-29
39.62500,-29
39.63333,-29
39.64167,-29
39.65000,-29
39.65833,-30
39.66667,-29
39.67500,-30
39.68333,-30
39.69167,-30
39.70000,-30
39.70833,-30
39.71667,-30
39.72500,-30
39.73333,-30
39.74167,-30
39.75000,-30
39.75833,-29
39.76667,-30
39.77500,-30
39.78333,-30
39.79167,-29
39.80000,-29
39.80833,-29
39.81667,-29
39.82500,-29
39.83333,-29
39.84167,-29
39.85000,-29
39.85833,-29
39.86667,-29
39.87500,-29
39.88333,-29
39.89167,-28
39.90000,-29
39.90833,-29
39.91667,-29
39.92500,-29
39.93333,-29
39.94167,-29
39.95000,-29
39.95833,-29
39.96667,-30
39.97500,-30
39.98333,-30
39.99167,-30
40.00000,-30

