[Header]
Application Name,LabSolutions
Version,5.97 SP1
Data File Name,C:\Users\cremerlab\Desktop\griffin\2021-04-03_buffer_calibration\2021-04-03_buffer_calibration_432021_004_017.lcd
Output Date,4/4/2021
Output Time,2:08:57 AM

[File Information]
Type,Data File
Generated,4/4/2021 1:28:38 AM
Generated by,System Administrator
Modified,4/4/2021 2:08:57 AM
Modified by,System Administrator

[Sample Information]
Operator Name,System Administrator
Acquired,4/4/2021 1:28:56 AM
Sample Type,1:Standard
Level,4
Sample Name,2021-04-02_DM_glucose_glycerol_acetate_calibration_15mM
Sample ID,004
ISTD Amount1,1
ISTD Amount2,1
ISTD Amount3,1
ISTD Amount4,1
ISTD Amount5,1
ISTD Amount6,1
ISTD Amount7,1
ISTD Amount8,1
ISTD Amount9,1
ISTD Amount10,1
ISTD Amount11,1
ISTD Amount12,1
ISTD Amount13,1
ISTD Amount14,1
ISTD Amount15,1
ISTD Amount16,1
ISTD Amount17,1
ISTD Amount18,1
ISTD Amount19,1
ISTD Amount20,1
ISTD Amount21,1
ISTD Amount22,1
ISTD Amount23,1
ISTD Amount24,1
ISTD Amount25,1
ISTD Amount26,1
ISTD Amount27,1
ISTD Amount28,1
ISTD Amount29,1
ISTD Amount30,1
ISTD Amount31,1
ISTD Amount32,1
Sample Amount,1
Dilution Factor,1
Vial#,22
Injection Volume,20

[Original Files]
Data File,C:\Users\cremerlab\Desktop\griffin\2021-04-03_buffer_calibration\2021-04-03_buffer_calibration_432021_004_017.lcd
Method File,C:\LabSolutions\Data\Project1\organicacidsetc2.lcm
Batch File,C:\Users\cremerlab\Desktop\griffin\2021-04-03_buffer_calibration\2021-04-03_buffer_calibration.lcb
Report Format File,c:\LabSolutions\System\DEFAULT.lsr

[File Description]


[Configuration]
Instrument Name,HPLC-PC-Instrument1
Instrument #,1
Line #,1
# of Detectors,2
Detector ID,Detector A,Detector B
Detector Name,Detector A,Detector B
# of Channels,1,1

[Peak Table(Detector A)]
# of Peaks,0

[Peak Table(Detector B)]
# of Peaks,6
Peak#,R.Time,I.Time,F.Time,Area,Height,A/H,Conc.,Mark,ID#,Name,k',Plate #,Plate Ht.,Tailing,Resolution,Sep.Factor,Area Ratio,Height Ratio,Conc. %,Norm Conc.
1,10.750,10.533,10.975,47424,3241,14.631,0.000,   ,,,0.000,12186,12.309,0.985,0.000,0.000,0,0,0.000,0.000
2,11.308,11.017,11.458,44072,1996,22.080,0.000,   ,,,0.052,11618,12.911,0.759,1.378,0.000,0,0,0.000,0.000
3,14.918,14.100,15.275,1502121,60497,24.830,0.000,   ,,,0.388,7460,20.107,0.000,6.501,7.476,0,0,0.000,0.000
4,15.666,15.275,17.900,1431809,58658,24.410,0.000, V ,,,0.457,9734,15.410,0.000,1.129,1.180,0,0,0.000,0.000
5,22.080,21.350,23.392,418220,15451,27.067,0.000,   ,,,1.054,15397,9.742,1.092,9.525,2.305,0,0,0.000,0.000
6,25.083,24.367,26.108,176815,6025,29.346,0.000,   ,,,1.333,16724,8.969,1.066,4.037,1.265,0,0,0.000,0.000

[LC Chromatogram(Detector B-Ch1)]
Interval(msec),500
# of Points,4801
Start Time(min),0.000
End Time(min),40.000
Intensity Units,mV
Intensity Multiplier,0.001
R.Time (min),Intensity
0.00000,-0
0.00833,-0
0.01667,-0
0.02500,0
0.03333,-0
0.04167,-0
0.05000,-0
0.05833,-0
0.06667,-0
0.07500,-0
0.08333,-0
0.09167,-0
0.10000,-0
0.10833,-0
0.11667,0
0.12500,0
0.13333,1
0.14167,1
0.15000,1
0.15833,0
0.16667,0
0.17500,0
0.18333,1
0.19167,1
0.20000,2
0.20833,2
0.21667,1
0.22500,1
0.23333,1
0.24167,0
0.25000,0
0.25833,0
0.26667,0
0.27500,0
0.28333,1
0.29167,1
0.30000,1
0.30833,1
0.31667,1
0.32500,1
0.33333,1
0.34167,1
0.35000,1
0.35833,0
0.36667,0
0.37500,0
0.38333,1
0.39167,0
0.40000,0
0.40833,1
0.41667,1
0.42500,1
0.43333,1
0.44167,1
0.45000,1
0.45833,1
0.46667,1
0.47500,2
0.48333,2
0.49167,2
0.50000,2
0.50833,1
0.51667,1
0.52500,1
0.53333,1
0.54167,1
0.55000,1
0.55833,1
0.56667,1
0.57500,1
0.58333,2
0.59167,2
0.60000,2
0.60833,2
0.61667,2
0.62500,1
0.63333,1
0.64167,1
0.65000,1
0.65833,1
0.66667,0
0.67500,-0
0.68333,-0
0.69167,-0
0.70000,-0
0.70833,-0
0.71667,0
0.72500,0
0.73333,0
0.74167,0
0.75000,-0
0.75833,-0
0.76667,-0
0.77500,-0
0.78333,-0
0.79167,-1
0.80000,-1
0.80833,-1
0.81667,-0
0.82500,-0
0.83333,-0
0.84167,0
0.85000,0
0.85833,0
0.86667,0
0.87500,0
0.88333,0
0.89167,1
0.90000,1
0.90833,1
0.91667,1
0.92500,0
0.93333,1
0.94167,1
0.95000,1
0.95833,1
0.96667,1
0.97500,1
0.98333,1
0.99167,1
1.00000,1
1.00833,1
1.01667,2
1.02500,2
1.03333,1
1.04167,1
1.05000,1
1.05833,1
1.06667,1
1.07500,1
1.08333,1
1.09167,1
1.10000,1
1.10833,0
1.11667,0
1.12500,1
1.13333,1
1.14167,1
1.15000,1
1.15833,1
1.16667,1
1.17500,1
1.18333,1
1.19167,1
1.20000,2
1.20833,1
1.21667,1
1.22500,2
1.23333,2
1.24167,2
1.25000,2
1.25833,2
1.26667,3
1.27500,3
1.28333,3
1.29167,3
1.30000,3
1.30833,3
1.31667,3
1.32500,3
1.33333,3
1.34167,3
1.35000,3
1.35833,3
1.36667,3
1.37500,3
1.38333,3
1.39167,3
1.40000,3
1.40833,2
1.41667,2
1.42500,2
1.43333,2
1.44167,2
1.45000,2
1.45833,3
1.46667,3
1.47500,3
1.48333,3
1.49167,3
1.50000,2
1.50833,2
1.51667,3
1.52500,3
1.53333,3
1.54167,3
1.55000,3
1.55833,2
1.56667,2
1.57500,2
1.58333,2
1.59167,2
1.60000,2
1.60833,3
1.61667,3
1.62500,3
1.63333,3
1.64167,4
1.65000,4
1.65833,4
1.66667,4
1.67500,4
1.68333,4
1.69167,3
1.70000,3
1.70833,3
1.71667,3
1.72500,3
1.73333,3
1.74167,3
1.75000,3
1.75833,3
1.76667,3
1.77500,3
1.78333,3
1.79167,3
1.80000,3
1.80833,3
1.81667,3
1.82500,3
1.83333,3
1.84167,3
1.85000,3
1.85833,3
1.86667,3
1.87500,4
1.88333,4
1.89167,4
1.90000,4
1.90833,4
1.91667,4
1.92500,4
1.93333,3
1.94167,3
1.95000,3
1.95833,3
1.96667,3
1.97500,3
1.98333,3
1.99167,3
2.00000,3
2.00833,4
2.01667,4
2.02500,3
2.03333,4
2.04167,3
2.05000,3
2.05833,3
2.06667,2
2.07500,3
2.08333,3
2.09167,3
2.10000,3
2.10833,3
2.11667,3
2.12500,4
2.13333,4
2.14167,4
2.15000,3
2.15833,3
2.16667,3
2.17500,3
2.18333,3
2.19167,3
2.20000,3
2.20833,3
2.21667,3
2.22500,4
2.23333,4
2.24167,4
2.25000,4
2.25833,4
2.26667,4
2.27500,4
2.28333,4
2.29167,4
2.30000,3
2.30833,4
2.31667,4
2.32500,4
2.33333,4
2.34167,5
2.35000,5
2.35833,5
2.36667,5
2.37500,5
2.38333,5
2.39167,4
2.40000,4
2.40833,4
2.41667,4
2.42500,4
2.43333,4
2.44167,4
2.45000,4
2.45833,4
2.46667,4
2.47500,3
2.48333,4
2.49167,4
2.50000,4
2.50833,5
2.51667,5
2.52500,5
2.53333,5
2.54167,5
2.55000,5
2.55833,5
2.56667,4
2.57500,4
2.58333,4
2.59167,4
2.60000,4
2.60833,4
2.61667,4
2.62500,4
2.63333,4
2.64167,5
2.65000,5
2.65833,5
2.66667,5
2.67500,5
2.68333,5
2.69167,5
2.70000,5
2.70833,5
2.71667,4
2.72500,5
2.73333,5
2.74167,5
2.75000,5
2.75833,5
2.76667,5
2.77500,5
2.78333,5
2.79167,5
2.80000,5
2.80833,6
2.81667,6
2.82500,6
2.83333,6
2.84167,6
2.85000,6
2.85833,6
2.86667,6
2.87500,6
2.88333,6
2.89167,6
2.90000,6
2.90833,6
2.91667,6
2.92500,6
2.93333,6
2.94167,6
2.95000,6
2.95833,6
2.96667,6
2.97500,6
2.98333,6
2.99167,6
3.00000,6
3.00833,6
3.01667,5
3.02500,5
3.03333,5
3.04167,5
3.05000,6
3.05833,6
3.06667,6
3.07500,6
3.08333,6
3.09167,6
3.10000,6
3.10833,6
3.11667,6
3.12500,6
3.13333,6
3.14167,6
3.15000,6
3.15833,6
3.16667,7
3.17500,7
3.18333,6
3.19167,7
3.20000,7
3.20833,6
3.21667,6
3.22500,6
3.23333,6
3.24167,6
3.25000,6
3.25833,6
3.26667,6
3.27500,6
3.28333,6
3.29167,6
3.30000,6
3.30833,6
3.31667,6
3.32500,6
3.33333,6
3.34167,7
3.35000,7
3.35833,7
3.36667,7
3.37500,8
3.38333,8
3.39167,7
3.40000,7
3.40833,7
3.41667,7
3.42500,7
3.43333,6
3.44167,6
3.45000,6
3.45833,6
3.46667,7
3.47500,7
3.48333,7
3.49167,7
3.50000,7
3.50833,7
3.51667,7
3.52500,7
3.53333,7
3.54167,8
3.55000,8
3.55833,8
3.56667,8
3.57500,8
3.58333,8
3.59167,8
3.60000,8
3.60833,8
3.61667,8
3.62500,8
3.63333,8
3.64167,7
3.65000,7
3.65833,8
3.66667,8
3.67500,7
3.68333,7
3.69167,7
3.70000,7
3.70833,7
3.71667,8
3.72500,8
3.73333,8
3.74167,8
3.75000,8
3.75833,9
3.76667,8
3.77500,8
3.78333,8
3.79167,8
3.80000,8
3.80833,7
3.81667,7
3.82500,7
3.83333,7
3.84167,7
3.85000,7
3.85833,7
3.86667,7
3.87500,7
3.88333,8
3.89167,8
3.90000,8
3.90833,9
3.91667,9
3.92500,8
3.93333,8
3.94167,8
3.95000,8
3.95833,8
3.96667,8
3.97500,9
3.98333,9
3.99167,9
4.00000,9
4.00833,9
4.01667,9
4.02500,9
4.03333,9
4.04167,9
4.05000,9
4.05833,9
4.06667,9
4.07500,9
4.08333,9
4.09167,9
4.10000,9
4.10833,9
4.11667,9
4.12500,9
4.13333,9
4.14167,10
4.15000,10
4.15833,9
4.16667,9
4.17500,9
4.18333,9
4.19167,9
4.20000,9
4.20833,9
4.21667,9
4.22500,9
4.23333,9
4.24167,9
4.25000,10
4.25833,10
4.26667,10
4.27500,10
4.28333,10
4.29167,10
4.30000,10
4.30833,10
4.31667,10
4.32500,10
4.33333,10
4.34167,10
4.35000,9
4.35833,9
4.36667,9
4.37500,10
4.38333,10
4.39167,10
4.40000,10
4.40833,10
4.41667,10
4.42500,10
4.43333,10
4.44167,11
4.45000,11
4.45833,11
4.46667,11
4.47500,11
4.48333,11
4.49167,11
4.50000,11
4.50833,10
4.51667,11
4.52500,11
4.53333,11
4.54167,11
4.55000,11
4.55833,11
4.56667,11
4.57500,11
4.58333,11
4.59167,11
4.60000,11
4.60833,11
4.61667,11
4.62500,10
4.63333,10
4.64167,10
4.65000,10
4.65833,11
4.66667,11
4.67500,10
4.68333,11
4.69167,11
4.70000,11
4.70833,11
4.71667,11
4.72500,11
4.73333,11
4.74167,11
4.75000,11
4.75833,11
4.76667,11
4.77500,11
4.78333,11
4.79167,11
4.80000,11
4.80833,11
4.81667,11
4.82500,11
4.83333,11
4.84167,11
4.85000,11
4.85833,11
4.86667,11
4.87500,11
4.88333,11
4.89167,11
4.90000,11
4.90833,11
4.91667,11
4.92500,11
4.93333,11
4.94167,11
4.95000,11
4.95833,12
4.96667,12
4.97500,12
4.98333,11
4.99167,11
5.00000,11
5.00833,12
5.01667,12
5.02500,12
5.03333,12
5.04167,12
5.05000,12
5.05833,12
5.06667,12
5.07500,12
5.08333,12
5.09167,12
5.10000,12
5.10833,12
5.11667,12
5.12500,12
5.13333,12
5.14167,12
5.15000,12
5.15833,12
5.16667,12
5.17500,13
5.18333,13
5.19167,13
5.20000,13
5.20833,12
5.21667,12
5.22500,12
5.23333,12
5.24167,12
5.25000,12
5.25833,12
5.26667,12
5.27500,12
5.28333,12
5.29167,12
5.30000,12
5.30833,12
5.31667,12
5.32500,12
5.33333,12
5.34167,12
5.35000,12
5.35833,12
5.36667,12
5.37500,12
5.38333,12
5.39167,12
5.40000,12
5.40833,12
5.41667,12
5.42500,12
5.43333,12
5.44167,12
5.45000,11
5.45833,12
5.46667,12
5.47500,12
5.48333,13
5.49167,13
5.50000,13
5.50833,13
5.51667,12
5.52500,12
5.53333,13
5.54167,13
5.55000,12
5.55833,12
5.56667,12
5.57500,12
5.58333,13
5.59167,13
5.60000,13
5.60833,13
5.61667,13
5.62500,13
5.63333,13
5.64167,13
5.65000,13
5.65833,13
5.66667,13
5.67500,13
5.68333,13
5.69167,13
5.70000,14
5.70833,14
5.71667,14
5.72500,13
5.73333,13
5.74167,13
5.75000,13
5.75833,13
5.76667,13
5.77500,13
5.78333,13
5.79167,13
5.80000,14
5.80833,14
5.81667,14
5.82500,14
5.83333,14
5.84167,14
5.85000,14
5.85833,14
5.86667,14
5.87500,14
5.88333,15
5.89167,15
5.90000,14
5.90833,14
5.91667,14
5.92500,14
5.93333,14
5.94167,14
5.95000,15
5.95833,15
5.96667,15
5.97500,15
5.98333,15
5.99167,16
6.00000,16
6.00833,16
6.01667,16
6.02500,16
6.03333,16
6.04167,16
6.05000,16
6.05833,16
6.06667,16
6.07500,16
6.08333,15
6.09167,15
6.10000,15
6.10833,15
6.11667,15
6.12500,16
6.13333,16
6.14167,16
6.15000,15
6.15833,15
6.16667,15
6.17500,15
6.18333,16
6.19167,16
6.20000,16
6.20833,16
6.21667,16
6.22500,16
6.23333,16
6.24167,15
6.25000,15
6.25833,15
6.26667,15
6.27500,16
6.28333,16
6.29167,16
6.30000,16
6.30833,16
6.31667,16
6.32500,15
6.33333,15
6.34167,15
6.35000,15
6.35833,15
6.36667,15
6.37500,15
6.38333,15
6.39167,15
6.40000,16
6.40833,16
6.41667,16
6.42500,16
6.43333,16
6.44167,16
6.45000,15
6.45833,15
6.46667,15
6.47500,16
6.48333,16
6.49167,16
6.50000,16
6.50833,16
6.51667,16
6.52500,16
6.53333,16
6.54167,16
6.55000,16
6.55833,15
6.56667,15
6.57500,15
6.58333,15
6.59167,15
6.60000,15
6.60833,15
6.61667,15
6.62500,15
6.63333,15
6.64167,15
6.65000,15
6.65833,16
6.66667,16
6.67500,15
6.68333,15
6.69167,15
6.70000,16
6.70833,16
6.71667,16
6.72500,16
6.73333,16
6.74167,15
6.75000,15
6.75833,16
6.76667,16
6.77500,16
6.78333,16
6.79167,16
6.80000,16
6.80833,16
6.81667,15
6.82500,15
6.83333,15
6.84167,16
6.85000,16
6.85833,16
6.86667,16
6.87500,17
6.88333,17
6.89167,17
6.90000,17
6.90833,17
6.91667,17
6.92500,16
6.93333,16
6.94167,16
6.95000,16
6.95833,16
6.96667,16
6.97500,16
6.98333,17
6.99167,17
7.00000,17
7.00833,17
7.01667,17
7.02500,17
7.03333,17
7.04167,17
7.05000,17
7.05833,17
7.06667,17
7.07500,16
7.08333,16
7.09167,16
7.10000,16
7.10833,16
7.11667,17
7.12500,17
7.13333,17
7.14167,17
7.15000,17
7.15833,17
7.16667,17
7.17500,17
7.18333,17
7.19167,17
7.20000,17
7.20833,17
7.21667,17
7.22500,17
7.23333,17
7.24167,18
7.25000,18
7.25833,18
7.26667,18
7.27500,18
7.28333,17
7.29167,17
7.30000,17
7.30833,17
7.31667,17
7.32500,17
7.33333,17
7.34167,18
7.35000,18
7.35833,18
7.36667,18
7.37500,18
7.38333,18
7.39167,18
7.40000,18
7.40833,18
7.41667,17
7.42500,17
7.43333,18
7.44167,18
7.45000,17
7.45833,17
7.46667,17
7.47500,17
7.48333,17
7.49167,18
7.50000,18
7.50833,18
7.51667,18
7.52500,18
7.53333,18
7.54167,18
7.55000,18
7.55833,18
7.56667,19
7.57500,18
7.58333,18
7.59167,18
7.60000,18
7.60833,18
7.61667,18
7.62500,18
7.63333,17
7.64167,17
7.65000,17
7.65833,18
7.66667,18
7.67500,18
7.68333,17
7.69167,17
7.70000,17
7.70833,17
7.71667,17
7.72500,18
7.73333,18
7.74167,17
7.75000,18
7.75833,18
7.76667,18
7.77500,18
7.78333,18
7.79167,18
7.80000,18
7.80833,18
7.81667,18
7.82500,18
7.83333,18
7.84167,18
7.85000,18
7.85833,18
7.86667,17
7.87500,17
7.88333,18
7.89167,18
7.90000,18
7.90833,18
7.91667,18
7.92500,18
7.93333,18
7.94167,18
7.95000,18
7.95833,18
7.96667,18
7.97500,18
7.98333,18
7.99167,18
8.00000,17
8.00833,18
8.01667,18
8.02500,18
8.03333,18
8.04167,18
8.05000,18
8.05833,19
8.06667,19
8.07500,19
8.08333,19
8.09167,19
8.10000,19
8.10833,19
8.11667,19
8.12500,19
8.13333,19
8.14167,18
8.15000,18
8.15833,18
8.16667,18
8.17500,18
8.18333,18
8.19167,18
8.20000,18
8.20833,18
8.21667,18
8.22500,18
8.23333,18
8.24167,18
8.25000,18
8.25833,17
8.26667,17
8.27500,18
8.28333,18
8.29167,18
8.30000,18
8.30833,19
8.31667,19
8.32500,18
8.33333,18
8.34167,18
8.35000,18
8.35833,19
8.36667,19
8.37500,19
8.38333,19
8.39167,19
8.40000,19
8.40833,19
8.41667,19
8.42500,19
8.43333,19
8.44167,19
8.45000,19
8.45833,19
8.46667,19
8.47500,19
8.48333,19
8.49167,19
8.50000,19
8.50833,20
8.51667,20
8.52500,21
8.53333,21
8.54167,20
8.55000,20
8.55833,20
8.56667,21
8.57500,20
8.58333,20
8.59167,20
8.60000,20
8.60833,20
8.61667,20
8.62500,20
8.63333,20
8.64167,20
8.65000,20
8.65833,20
8.66667,20
8.67500,20
8.68333,20
8.69167,20
8.70000,19
8.70833,19
8.71667,19
8.72500,19
8.73333,20
8.74167,20
8.75000,20
8.75833,21
8.76667,21
8.77500,21
8.78333,20
8.79167,20
8.80000,20
8.80833,20
8.81667,20
8.82500,20
8.83333,20
8.84167,20
8.85000,20
8.85833,20
8.86667,20
8.87500,20
8.88333,20
8.89167,20
8.90000,20
8.90833,20
8.91667,21
8.92500,21
8.93333,21
8.94167,21
8.95000,21
8.95833,21
8.96667,21
8.97500,21
8.98333,21
8.99167,21
9.00000,21
9.00833,21
9.01667,21
9.02500,21
9.03333,21
9.04167,21
9.05000,21
9.05833,21
9.06667,21
9.07500,21
9.08333,21
9.09167,21
9.10000,22
9.10833,22
9.11667,22
9.12500,22
9.13333,22
9.14167,22
9.15000,22
9.15833,22
9.16667,22
9.17500,21
9.18333,21
9.19167,21
9.20000,21
9.20833,21
9.21667,21
9.22500,21
9.23333,21
9.24167,21
9.25000,21
9.25833,21
9.26667,21
9.27500,21
9.28333,21
9.29167,21
9.30000,22
9.30833,22
9.31667,22
9.32500,21
9.33333,21
9.34167,22
9.35000,22
9.35833,22
9.36667,22
9.37500,22
9.38333,22
9.39167,21
9.40000,21
9.40833,21
9.41667,21
9.42500,21
9.43333,21
9.44167,21
9.45000,21
9.45833,21
9.46667,21
9.47500,22
9.48333,22
9.49167,22
9.50000,22
9.50833,22
9.51667,22
9.52500,22
9.53333,22
9.54167,21
9.55000,21
9.55833,21
9.56667,21
9.57500,22
9.58333,22
9.59167,22
9.60000,22
9.60833,23
9.61667,23
9.62500,23
9.63333,23
9.64167,23
9.65000,23
9.65833,23
9.66667,23
9.67500,23
9.68333,23
9.69167,23
9.70000,23
9.70833,23
9.71667,23
9.72500,23
9.73333,23
9.74167,23
9.75000,23
9.75833,23
9.76667,23
9.77500,23
9.78333,24
9.79167,24
9.80000,23
9.80833,23
9.81667,23
9.82500,23
9.83333,23
9.84167,23
9.85000,23
9.85833,23
9.86667,23
9.87500,23
9.88333,23
9.89167,24
9.90000,24
9.90833,23
9.91667,23
9.92500,23
9.93333,23
9.94167,23
9.95000,23
9.95833,23
9.96667,23
9.97500,23
9.98333,24
9.99167,24
10.00000,24
10.00833,24
10.01667,24
10.02500,24
10.03333,24
10.04167,24
10.05000,24
10.05833,24
10.06667,25
10.07500,25
10.08333,25
10.09167,25
10.10000,25
10.10833,25
10.11667,24
10.12500,25
10.13333,25
10.14167,25
10.15000,25
10.15833,25
10.16667,25
10.17500,25
10.18333,25
10.19167,25
10.20000,25
10.20833,25
10.21667,25
10.22500,25
10.23333,25
10.24167,26
10.25000,26
10.25833,25
10.26667,25
10.27500,25
10.28333,25
10.29167,25
10.30000,25
10.30833,25
10.31667,25
10.32500,25
10.33333,24
10.34167,24
10.35000,24
10.35833,25
10.36667,25
10.37500,25
10.38333,25
10.39167,26
10.40000,26
10.40833,26
10.41667,27
10.42500,27
10.43333,27
10.44167,27
10.45000,26
10.45833,26
10.46667,26
10.47500,26
10.48333,25
10.49167,26
10.50000,26
10.50833,26
10.51667,26
10.52500,27
10.53333,27
10.54167,27
10.55000,28
10.55833,29
10.56667,30
10.57500,32
10.58333,34
10.59167,37
10.60000,41
10.60833,46
10.61667,53
10.62500,61
10.63333,71
10.64167,84
10.65000,99
10.65833,118
10.66667,140
10.67500,164
10.68333,192
10.69167,222
10.70000,254
10.70833,286
10.71667,318
10.72500,347
10.73333,372
10.74167,389
10.75000,396
10.75833,390
10.76667,368
10.77500,326
10.78333,260
10.79167,169
10.80000,49
10.80833,-100
10.81667,-282
10.82500,-495
10.83333,-740
10.84167,-1014
10.85000,-1316
10.85833,-1642
10.86667,-1988
10.87500,-2349
10.88333,-2720
10.89167,-3096
10.90000,-3470
10.90833,-3837
10.91667,-4189
10.92500,-4520
10.93333,-4826
10.94167,-5102
10.95000,-5342
10.95833,-5544
10.96667,-5704
10.97500,-5820
10.98333,-5891
10.99167,-5916
11.00000,-5896
11.00833,-5833
11.01667,-5726
11.02500,-5581
11.03333,-5399
11.04167,-5185
11.05000,-4943
11.05833,-4679
11.06667,-4395
11.07500,-4099
11.08333,-3794
11.09167,-3484
11.10000,-3175
11.10833,-2870
11.11667,-2573
11.12500,-2287
11.13333,-2015
11.14167,-1760
11.15000,-1522
11.15833,-1303
11.16667,-1103
11.17500,-923
11.18333,-762
11.19167,-620
11.20000,-497
11.20833,-390
11.21667,-300
11.22500,-224
11.23333,-161
11.24167,-110
11.25000,-70
11.25833,-38
11.26667,-15
11.27500,3
11.28333,14
11.29167,22
11.30000,25
11.30833,26
11.31667,25
11.32500,22
11.33333,18
11.34167,14
11.35000,9
11.35833,4
11.36667,-0
11.37500,-5
11.38333,-9
11.39167,-12
11.40000,-16
11.40833,-18
11.41667,-21
11.42500,-22
11.43333,-24
11.44167,-25
11.45000,-26
11.45833,-26
11.46667,-26
11.47500,-25
11.48333,-25
11.49167,-24
11.50000,-23
11.50833,-22
11.51667,-21
11.52500,-20
11.53333,-19
11.54167,-18
11.55000,-16
11.55833,-15
11.56667,-14
11.57500,-13
11.58333,-12
11.59167,-11
11.60000,-10
11.60833,-9
11.61667,-8
11.62500,-7
11.63333,-7
11.64167,-6
11.65000,-5
11.65833,-5
11.66667,-4
11.67500,-4
11.68333,-3
11.69167,-2
11.70000,-1
11.70833,-1
11.71667,0
11.72500,1
11.73333,2
11.74167,2
11.75000,3
11.75833,4
11.76667,5
11.77500,5
11.78333,5
11.79167,6
11.80000,7
11.80833,7
11.81667,8
11.82500,9
11.83333,10
11.84167,10
11.85000,11
11.85833,12
11.86667,13
11.87500,14
11.88333,15
11.89167,15
11.90000,16
11.90833,16
11.91667,16
11.92500,17
11.93333,18
11.94167,18
11.95000,19
11.95833,19
11.96667,19
11.97500,20
11.98333,20
11.99167,20
12.00000,20
12.00833,20
12.01667,21
12.02500,20
12.03333,21
12.04167,21
12.05000,21
12.05833,21
12.06667,21
12.07500,21
12.08333,21
12.09167,21
12.10000,21
12.10833,21
12.11667,21
12.12500,21
12.13333,21
12.14167,21
12.15000,21
12.15833,21
12.16667,21
12.17500,21
12.18333,20
12.19167,20
12.20000,20
12.20833,20
12.21667,20
12.22500,19
12.23333,19
12.24167,19
12.25000,19
12.25833,19
12.26667,20
12.27500,20
12.28333,20
12.29167,20
12.30000,20
12.30833,20
12.31667,20
12.32500,20
12.33333,20
12.34167,20
12.35000,20
12.35833,20
12.36667,21
12.37500,21
12.38333,21
12.39167,21
12.40000,21
12.40833,21
12.41667,21
12.42500,21
12.43333,21
12.44167,21
12.45000,21
12.45833,21
12.46667,21
12.47500,22
12.48333,22
12.49167,22
12.50000,22
12.50833,22
12.51667,22
12.52500,22
12.53333,23
12.54167,23
12.55000,23
12.55833,23
12.56667,23
12.57500,23
12.58333,23
12.59167,24
12.60000,25
12.60833,25
12.61667,24
12.62500,24
12.63333,24
12.64167,24
12.65000,24
12.65833,24
12.66667,24
12.67500,24
12.68333,24
12.69167,24
12.70000,25
12.70833,25
12.71667,25
12.72500,26
12.73333,26
12.74167,26
12.75000,26
12.75833,27
12.76667,27
12.77500,28
12.78333,28
12.79167,29
12.80000,29
12.80833,29
12.81667,29
12.82500,30
12.83333,31
12.84167,32
12.85000,32
12.85833,33
12.86667,34
12.87500,35
12.88333,35
12.89167,36
12.90000,37
12.90833,37
12.91667,38
12.92500,39
12.93333,40
12.94167,41
12.95000,42
12.95833,43
12.96667,44
12.97500,45
12.98333,46
12.99167,47
13.00000,48
13.00833,49
13.01667,50
13.02500,51
13.03333,52
13.04167,53
13.05000,54
13.05833,55
13.06667,55
13.07500,56
13.08333,57
13.09167,57
13.10000,58
13.10833,59
13.11667,59
13.12500,60
13.13333,60
13.14167,61
13.15000,62
13.15833,62
13.16667,62
13.17500,63
13.18333,64
13.19167,65
13.20000,65
13.20833,65
13.21667,65
13.22500,65
13.23333,65
13.24167,66
13.25000,66
13.25833,66
13.26667,66
13.27500,66
13.28333,66
13.29167,66
13.30000,66
13.30833,66
13.31667,66
13.32500,65
13.33333,65
13.34167,64
13.35000,63
13.35833,63
13.36667,62
13.37500,62
13.38333,61
13.39167,60
13.40000,60
13.40833,59
13.41667,58
13.42500,57
13.43333,56
13.44167,55
13.45000,55
13.45833,54
13.46667,53
13.47500,52
13.48333,51
13.49167,50
13.50000,50
13.50833,49
13.51667,49
13.52500,48
13.53333,48
13.54167,47
13.55000,47
13.55833,46
13.56667,45
13.57500,44
13.58333,43
13.59167,43
13.60000,43
13.60833,42
13.61667,42
13.62500,42
13.63333,41
13.64167,41
13.65000,40
13.65833,40
13.66667,40
13.67500,40
13.68333,39
13.69167,39
13.70000,38
13.70833,38
13.71667,38
13.72500,38
13.73333,38
13.74167,38
13.75000,38
13.75833,37
13.76667,37
13.77500,37
13.78333,37
13.79167,37
13.80000,37
13.80833,37
13.81667,37
13.82500,37
13.83333,36
13.84167,37
13.85000,37
13.85833,37
13.86667,37
13.87500,37
13.88333,37
13.89167,37
13.90000,38
13.90833,38
13.91667,39
13.92500,39
13.93333,40
13.94167,40
13.95000,40
13.95833,39
13.96667,39
13.97500,39
13.98333,39
13.99167,39
14.00000,39
14.00833,40
14.01667,40
14.02500,40
14.03333,41
14.04167,41
14.05000,42
14.05833,42
14.06667,42
14.07500,42
14.08333,43
14.09167,43
14.10000,44
14.10833,45
14.11667,46
14.12500,48
14.13333,49
14.14167,51
14.15000,54
14.15833,56
14.16667,59
14.17500,62
14.18333,67
14.19167,73
14.20000,79
14.20833,87
14.21667,97
14.22500,108
14.23333,122
14.24167,138
14.25000,158
14.25833,183
14.26667,213
14.27500,248
14.28333,291
14.29167,340
14.30000,399
14.30833,469
14.31667,550
14.32500,646
14.33333,756
14.34167,884
14.35000,1030
14.35833,1197
14.36667,1386
14.37500,1599
14.38333,1838
14.39167,2106
14.40000,2404
14.40833,2733
14.41667,3095
14.42500,3492
14.43333,3925
14.44167,4394
14.45000,4901
14.45833,5447
14.46667,6032
14.47500,6655
14.48333,7318
14.49167,8021
14.50000,8762
14.50833,9541
14.51667,10357
14.52500,11210
14.53333,12099
14.54167,13021
14.55000,13977
14.55833,14963
14.56667,15979
14.57500,17023
14.58333,18093
14.59167,19186
14.60000,20302
14.60833,21438
14.61667,22592
14.62500,23762
14.63333,24947
14.64167,26144
14.65000,27351
14.65833,28568
14.66667,29792
14.67500,31022
14.68333,32255
14.69167,33492
14.70000,34730
14.70833,35968
14.71667,37205
14.72500,38439
14.73333,39670
14.74167,40896
14.75000,42116
14.75833,43329
14.76667,44535
14.77500,45731
14.78333,46916
14.79167,48089
14.80000,49248
14.80833,50390
14.81667,51513
14.82500,52612
14.83333,53684
14.84167,54721
14.85000,55718
14.85833,56664
14.86667,57547
14.87500,58354
14.88333,59067
14.89167,59668
14.90000,60134
14.90833,60442
14.91667,60568
14.92500,60489
14.93333,60184
14.94167,59634
14.95000,58826
14.95833,57753
14.96667,56416
14.97500,54821
14.98333,52985
14.99167,50929
15.00000,48683
15.00833,46279
15.01667,43755
15.02500,41149
15.03333,38499
15.04167,35843
15.05000,33215
15.05833,30646
15.06667,28162
15.07500,25784
15.08333,23529
15.09167,21409
15.10000,19431
15.10833,17599
15.11667,15913
15.12500,14370
15.13333,12966
15.14167,11695
15.15000,10550
15.15833,9522
15.16667,8603
15.17500,7786
15.18333,7063
15.19167,6426
15.20000,5870
15.20833,5387
15.21667,4972
15.22500,4622
15.23333,4332
15.24167,4100
15.25000,3923
15.25833,3800
15.26667,3731
15.27500,3715
15.28333,3755
15.29167,3850
15.30000,4003
15.30833,4217
15.31667,4494
15.32500,4838
15.33333,5251
15.34167,5739
15.35000,6304
15.35833,6951
15.36667,7683
15.37500,8504
15.38333,9416
15.39167,10421
15.40000,11522
15.40833,12720
15.41667,14015
15.42500,15406
15.43333,16892
15.44167,18468
15.45000,20131
15.45833,21876
15.46667,23695
15.47500,25580
15.48333,27521
15.49167,29509
15.50000,31532
15.50833,33578
15.51667,35633
15.52500,37683
15.53333,39715
15.54167,41712
15.55000,43660
15.55833,45544
15.56667,47350
15.57500,49062
15.58333,50668
15.59167,52156
15.60000,53513
15.60833,54730
15.61667,55797
15.62500,56708
15.63333,57455
15.64167,58036
15.65000,58446
15.65833,58684
15.66667,58752
15.67500,58652
15.68333,58386
15.69167,57960
15.70000,57379
15.70833,56652
15.71667,55786
15.72500,54791
15.73333,53677
15.74167,52454
15.75000,51132
15.75833,49724
15.76667,48241
15.77500,46694
15.78333,45095
15.79167,43454
15.80000,41782
15.80833,40089
15.81667,38386
15.82500,36681
15.83333,34983
15.84167,33300
15.85000,31639
15.85833,30006
15.86667,28408
15.87500,26849
15.88333,25334
15.89167,23867
15.90000,22450
15.90833,21086
15.91667,19778
15.92500,18525
15.93333,17330
15.94167,16192
15.95000,15112
15.95833,14088
15.96667,13120
15.97500,12207
15.98333,11347
15.99167,10539
16.00000,9782
16.00833,9074
16.01667,8413
16.02500,7796
16.03333,7221
16.04167,6687
16.05000,6192
16.05833,5732
16.06667,5307
16.07500,4914
16.08333,4550
16.09167,4215
16.10000,3906
16.10833,3622
16.11667,3360
16.12500,3120
16.13333,2899
16.14167,2697
16.15000,2511
16.15833,2340
16.16667,2184
16.17500,2040
16.18333,1909
16.19167,1789
16.20000,1679
16.20833,1578
16.21667,1485
16.22500,1400
16.23333,1322
16.24167,1251
16.25000,1185
16.25833,1125
16.26667,1070
16.27500,1020
16.28333,973
16.29167,930
16.30000,891
16.30833,854
16.31667,821
16.32500,790
16.33333,761
16.34167,734
16.35000,710
16.35833,687
16.36667,666
16.37500,646
16.38333,628
16.39167,611
16.40000,595
16.40833,581
16.41667,567
16.42500,553
16.43333,541
16.44167,529
16.45000,519
16.45833,508
16.46667,499
16.47500,490
16.48333,482
16.49167,474
16.50000,466
16.50833,459
16.51667,451
16.52500,445
16.53333,439
16.54167,433
16.55000,428
16.55833,423
16.56667,417
16.57500,412
16.58333,408
16.59167,404
16.60000,399
16.60833,395
16.61667,391
16.62500,387
16.63333,383
16.64167,380
16.65000,376
16.65833,373
16.66667,370
16.67500,367
16.68333,364
16.69167,361
16.70000,358
16.70833,355
16.71667,352
16.72500,349
16.73333,346
16.74167,344
16.75000,341
16.75833,339
16.76667,336
16.77500,334
16.78333,331
16.79167,329
16.80000,326
16.80833,324
16.81667,322
16.82500,319
16.83333,317
16.84167,315
16.85000,313
16.85833,311
16.86667,310
16.87500,308
16.88333,306
16.89167,304
16.90000,302
16.90833,300
16.91667,298
16.92500,296
16.93333,294
16.94167,292
16.95000,290
16.95833,288
16.96667,286
16.97500,284
16.98333,282
16.99167,280
17.00000,278
17.00833,277
17.01667,275
17.02500,273
17.03333,272
17.04167,270
17.05000,268
17.05833,267
17.06667,265
17.07500,263
17.08333,262
17.09167,260
17.10000,259
17.10833,257
17.11667,255
17.12500,254
17.13333,252
17.14167,251
17.15000,250
17.15833,248
17.16667,246
17.17500,245
17.18333,243
17.19167,242
17.20000,240
17.20833,238
17.21667,237
17.22500,236
17.23333,234
17.24167,233
17.25000,233
17.25833,231
17.26667,230
17.27500,229
17.28333,228
17.29167,226
17.30000,225
17.30833,224
17.31667,222
17.32500,221
17.33333,219
17.34167,218
17.35000,217
17.35833,216
17.36667,215
17.37500,214
17.38333,213
17.39167,212
17.40000,211
17.40833,210
17.41667,209
17.42500,208
17.43333,207
17.44167,206
17.45000,205
17.45833,204
17.46667,203
17.47500,202
17.48333,201
17.49167,201
17.50000,200
17.50833,199
17.51667,198
17.52500,197
17.53333,197
17.54167,196
17.55000,196
17.55833,195
17.56667,194
17.57500,193
17.58333,192
17.59167,191
17.60000,190
17.60833,189
17.61667,189
17.62500,188
17.63333,188
17.64167,187
17.65000,187
17.65833,186
17.66667,185
17.67500,184
17.68333,183
17.69167,183
17.70000,182
17.70833,181
17.71667,180
17.72500,180
17.73333,180
17.74167,179
17.75000,179
17.75833,178
17.76667,178
17.77500,177
17.78333,176
17.79167,176
17.80000,176
17.80833,175
17.81667,174
17.82500,173
17.83333,172
17.84167,171
17.85000,170
17.85833,170
17.86667,169
17.87500,169
17.88333,169
17.89167,168
17.90000,168
17.90833,167
17.91667,167
17.92500,166
17.93333,166
17.94167,165
17.95000,165
17.95833,164
17.96667,164
17.97500,163
17.98333,162
17.99167,161
18.00000,161
18.00833,161
18.01667,160
18.02500,160
18.03333,160
18.04167,160
18.05000,159
18.05833,159
18.06667,158
18.07500,158
18.08333,157
18.09167,156
18.10000,156
18.10833,155
18.11667,154
18.12500,154
18.13333,153
18.14167,153
18.15000,152
18.15833,151
18.16667,150
18.17500,150
18.18333,150
18.19167,150
18.20000,149
18.20833,149
18.21667,148
18.22500,147
18.23333,147
18.24167,146
18.25000,146
18.25833,145
18.26667,145
18.27500,144
18.28333,144
18.29167,143
18.30000,142
18.30833,142
18.31667,141
18.32500,141
18.33333,141
18.34167,140
18.35000,140
18.35833,140
18.36667,140
18.37500,140
18.38333,139
18.39167,139
18.40000,138
18.40833,137
18.41667,137
18.42500,137
18.43333,136
18.44167,135
18.45000,135
18.45833,135
18.46667,134
18.47500,134
18.48333,134
18.49167,134
18.50000,134
18.50833,134
18.51667,133
18.52500,133
18.53333,133
18.54167,133
18.55000,133
18.55833,132
18.56667,132
18.57500,132
18.58333,131
18.59167,131
18.60000,131
18.60833,130
18.61667,130
18.62500,130
18.63333,129
18.64167,129
18.65000,129
18.65833,128
18.66667,128
18.67500,127
18.68333,128
18.69167,128
18.70000,128
18.70833,128
18.71667,128
18.72500,127
18.73333,127
18.74167,127
18.75000,127
18.75833,127
18.76667,127
18.77500,127
18.78333,128
18.79167,129
18.80000,129
18.80833,130
18.81667,130
18.82500,130
18.83333,131
18.84167,132
18.85000,132
18.85833,133
18.86667,134
18.87500,135
18.88333,135
18.89167,136
18.90000,137
18.90833,138
18.91667,138
18.92500,139
18.93333,140
18.94167,141
18.95000,142
18.95833,143
18.96667,143
18.97500,143
18.98333,143
18.99167,144
19.00000,144
19.00833,144
19.01667,144
19.02500,144
19.03333,145
19.04167,145
19.05000,144
19.05833,144
19.06667,143
19.07500,143
19.08333,142
19.09167,141
19.10000,140
19.10833,140
19.11667,139
19.12500,137
19.13333,136
19.14167,135
19.15000,134
19.15833,133
19.16667,131
19.17500,130
19.18333,129
19.19167,128
19.20000,126
19.20833,125
19.21667,124
19.22500,122
19.23333,121
19.24167,119
19.25000,117
19.25833,116
19.26667,115
19.27500,114
19.28333,113
19.29167,111
19.30000,110
19.30833,109
19.31667,108
19.32500,107
19.33333,107
19.34167,106
19.35000,105
19.35833,104
19.36667,103
19.37500,102
19.38333,102
19.39167,101
19.40000,101
19.40833,100
19.41667,99
19.42500,99
19.43333,98
19.44167,97
19.45000,97
19.45833,96
19.46667,96
19.47500,95
19.48333,95
19.49167,95
19.50000,94
19.50833,94
19.51667,94
19.52500,93
19.53333,93
19.54167,93
19.55000,92
19.55833,92
19.56667,92
19.57500,92
19.58333,92
19.59167,92
19.60000,92
19.60833,91
19.61667,91
19.62500,91
19.63333,90
19.64167,90
19.65000,89
19.65833,89
19.66667,89
19.67500,88
19.68333,88
19.69167,88
19.70000,88
19.70833,88
19.71667,87
19.72500,87
19.73333,87
19.74167,87
19.75000,87
19.75833,86
19.76667,86
19.77500,85
19.78333,85
19.79167,86
19.80000,85
19.80833,85
19.81667,85
19.82500,84
19.83333,84
19.84167,84
19.85000,84
19.85833,84
19.86667,84
19.87500,84
19.88333,83
19.89167,83
19.90000,84
19.90833,83
19.91667,83
19.92500,83
19.93333,82
19.94167,82
19.95000,82
19.95833,82
19.96667,82
19.97500,82
19.98333,82
19.99167,82
20.00000,81
20.00833,81
20.01667,81
20.02500,81
20.03333,81
20.04167,81
20.05000,80
20.05833,80
20.06667,81
20.07500,81
20.08333,81
20.09167,81
20.10000,81
20.10833,81
20.11667,81
20.12500,81
20.13333,80
20.14167,80
20.15000,80
20.15833,79
20.16667,79
20.17500,79
20.18333,78
20.19167,78
20.20000,78
20.20833,78
20.21667,78
20.22500,78
20.23333,78
20.24167,78
20.25000,78
20.25833,77
20.26667,77
20.27500,77
20.28333,77
20.29167,77
20.30000,77
20.30833,77
20.31667,77
20.32500,77
20.33333,77
20.34167,77
20.35000,77
20.35833,76
20.36667,76
20.37500,76
20.38333,76
20.39167,76
20.40000,76
20.40833,76
20.41667,76
20.42500,76
20.43333,76
20.44167,76
20.45000,75
20.45833,75
20.46667,74
20.47500,74
20.48333,74
20.49167,74
20.50000,74
20.50833,73
20.51667,73
20.52500,73
20.53333,73
20.54167,73
20.55000,73
20.55833,74
20.56667,73
20.57500,73
20.58333,73
20.59167,73
20.60000,73
20.60833,73
20.61667,73
20.62500,73
20.63333,72
20.64167,72
20.65000,72
20.65833,72
20.66667,72
20.67500,72
20.68333,72
20.69167,72
20.70000,72
20.70833,72
20.71667,71
20.72500,71
20.73333,71
20.74167,71
20.75000,71
20.75833,71
20.76667,71
20.77500,71
20.78333,71
20.79167,71
20.80000,70
20.80833,70
20.81667,70
20.82500,70
20.83333,70
20.84167,70
20.85000,70
20.85833,70
20.86667,70
20.87500,70
20.88333,69
20.89167,69
20.90000,69
20.90833,69
20.91667,69
20.92500,69
20.93333,69
20.94167,70
20.95000,70
20.95833,69
20.96667,69
20.97500,69
20.98333,69
20.99167,69
21.00000,69
21.00833,69
21.01667,69
21.02500,69
21.03333,68
21.04167,68
21.05000,68
21.05833,69
21.06667,69
21.07500,69
21.08333,68
21.09167,68
21.10000,68
21.10833,68
21.11667,68
21.12500,68
21.13333,68
21.14167,68
21.15000,68
21.15833,68
21.16667,69
21.17500,69
21.18333,69
21.19167,68
21.20000,68
21.20833,68
21.21667,68
21.22500,68
21.23333,68
21.24167,69
21.25000,69
21.25833,69
21.26667,68
21.27500,68
21.28333,69
21.29167,69
21.30000,69
21.30833,69
21.31667,70
21.32500,70
21.33333,71
21.34167,72
21.35000,73
21.35833,74
21.36667,75
21.37500,76
21.38333,77
21.39167,79
21.40000,81
21.40833,83
21.41667,85
21.42500,88
21.43333,91
21.44167,94
21.45000,98
21.45833,102
21.46667,107
21.47500,113
21.48333,119
21.49167,126
21.50000,135
21.50833,144
21.51667,155
21.52500,167
21.53333,180
21.54167,195
21.55000,213
21.55833,232
21.56667,254
21.57500,278
21.58333,306
21.59167,338
21.60000,374
21.60833,414
21.61667,459
21.62500,509
21.63333,566
21.64167,629
21.65000,699
21.65833,777
21.66667,864
21.67500,960
21.68333,1066
21.69167,1182
21.70000,1311
21.70833,1451
21.71667,1605
21.72500,1772
21.73333,1953
21.74167,2150
21.75000,2363
21.75833,2591
21.76667,2837
21.77500,3100
21.78333,3380
21.79167,3678
21.80000,3993
21.80833,4325
21.81667,4674
21.82500,5040
21.83333,5422
21.84167,5819
21.85000,6230
21.85833,6654
21.86667,7090
21.87500,7535
21.88333,7989
21.89167,8449
21.90000,8914
21.90833,9380
21.91667,9847
21.92500,10311
21.93333,10769
21.94167,11220
21.95000,11661
21.95833,12089
21.96667,12503
21.97500,12899
21.98333,13274
21.99167,13627
22.00000,13956
22.00833,14257
22.01667,14531
22.02500,14773
22.03333,14985
22.04167,15163
22.05000,15308
22.05833,15418
22.06667,15494
22.07500,15534
22.08333,15538
22.09167,15508
22.10000,15443
22.10833,15344
22.11667,15213
22.12500,15050
22.13333,14857
22.14167,14635
22.15000,14386
22.15833,14113
22.16667,13816
22.17500,13498
22.18333,13162
22.19167,12808
22.20000,12439
22.20833,12058
22.21667,11666
22.22500,11266
22.23333,10860
22.24167,10450
22.25000,10037
22.25833,9624
22.26667,9212
22.27500,8803
22.28333,8399
22.29167,8000
22.30000,7608
22.30833,7224
22.31667,6849
22.32500,6484
22.33333,6130
22.34167,5788
22.35000,5457
22.35833,5139
22.36667,4833
22.37500,4540
22.38333,4260
22.39167,3994
22.40000,3739
22.40833,3498
22.41667,3269
22.42500,3053
22.43333,2849
22.44167,2656
22.45000,2475
22.45833,2305
22.46667,2146
22.47500,1997
22.48333,1857
22.49167,1727
22.50000,1605
22.50833,1492
22.51667,1388
22.52500,1291
22.53333,1201
22.54167,1117
22.55000,1040
22.55833,968
22.56667,902
22.57500,842
22.58333,786
22.59167,734
22.60000,687
22.60833,644
22.61667,604
22.62500,567
22.63333,533
22.64167,502
22.65000,473
22.65833,447
22.66667,423
22.67500,401
22.68333,380
22.69167,362
22.70000,344
22.70833,329
22.71667,314
22.72500,301
22.73333,289
22.74167,278
22.75000,267
22.75833,258
22.76667,249
22.77500,240
22.78333,233
22.79167,226
22.80000,220
22.80833,214
22.81667,208
22.82500,203
22.83333,198
22.84167,194
22.85000,190
22.85833,186
22.86667,182
22.87500,179
22.88333,176
22.89167,174
22.90000,171
22.90833,168
22.91667,166
22.92500,164
22.93333,162
22.94167,160
22.95000,158
22.95833,156
22.96667,154
22.97500,152
22.98333,150
22.99167,148
23.00000,147
23.00833,146
23.01667,145
23.02500,143
23.03333,142
23.04167,141
23.05000,140
23.05833,139
23.06667,138
23.07500,138
23.08333,137
23.09167,136
23.10000,135
23.10833,134
23.11667,133
23.12500,132
23.13333,131
23.14167,130
23.15000,130
23.15833,129
23.16667,128
23.17500,127
23.18333,127
23.19167,126
23.20000,125
23.20833,125
23.21667,125
23.22500,124
23.23333,124
23.24167,123
23.25000,122
23.25833,121
23.26667,121
23.27500,120
23.28333,120
23.29167,119
23.30000,119
23.30833,118
23.31667,117
23.32500,117
23.33333,116
23.34167,115
23.35000,115
23.35833,114
23.36667,113
23.37500,112
23.38333,112
23.39167,112
23.40000,112
23.40833,112
23.41667,112
23.42500,111
23.43333,111
23.44167,110
23.45000,110
23.45833,109
23.46667,109
23.47500,108
23.48333,108
23.49167,107
23.50000,106
23.50833,105
23.51667,104
23.52500,104
23.53333,104
23.54167,104
23.55000,104
23.55833,104
23.56667,104
23.57500,104
23.58333,103
23.59167,102
23.60000,102
23.60833,102
23.61667,101
23.62500,101
23.63333,101
23.64167,100
23.65000,100
23.65833,100
23.66667,99
23.67500,99
23.68333,99
23.69167,99
23.70000,98
23.70833,98
23.71667,98
23.72500,98
23.73333,98
23.74167,98
23.75000,98
23.75833,97
23.76667,97
23.77500,97
23.78333,96
23.79167,96
23.80000,96
23.80833,96
23.81667,96
23.82500,95
23.83333,95
23.84167,96
23.85000,96
23.85833,96
23.86667,96
23.87500,96
23.88333,96
23.89167,96
23.90000,96
23.90833,95
23.91667,95
23.92500,95
23.93333,94
23.94167,94
23.95000,95
23.95833,95
23.96667,94
23.97500,94
23.98333,94
23.99167,94
24.00000,93
24.00833,93
24.01667,93
24.02500,92
24.03333,93
24.04167,93
24.05000,92
24.05833,92
24.06667,92
24.07500,92
24.08333,92
24.09167,92
24.10000,92
24.10833,91
24.11667,91
24.12500,91
24.13333,91
24.14167,91
24.15000,91
24.15833,91
24.16667,91
24.17500,91
24.18333,91
24.19167,91
24.20000,91
24.20833,91
24.21667,91
24.22500,91
24.23333,91
24.24167,91
24.25000,91
24.25833,92
24.26667,92
24.27500,92
24.28333,92
24.29167,93
24.30000,93
24.30833,94
24.31667,94
24.32500,94
24.33333,95
24.34167,95
24.35000,96
24.35833,97
24.36667,98
24.37500,99
24.38333,100
24.39167,102
24.40000,103
24.40833,105
24.41667,108
24.42500,110
24.43333,113
24.44167,116
24.45000,120
24.45833,123
24.46667,128
24.47500,133
24.48333,138
24.49167,144
24.50000,150
24.50833,158
24.51667,166
24.52500,175
24.53333,185
24.54167,197
24.55000,209
24.55833,223
24.56667,239
24.57500,256
24.58333,274
24.59167,295
24.60000,318
24.60833,343
24.61667,371
24.62500,402
24.63333,436
24.64167,473
24.65000,512
24.65833,556
24.66667,603
24.67500,655
24.68333,710
24.69167,770
24.70000,834
24.70833,903
24.71667,977
24.72500,1056
24.73333,1140
24.74167,1230
24.75000,1325
24.75833,1425
24.76667,1531
24.77500,1643
24.78333,1760
24.79167,1882
24.80000,2010
24.80833,2143
24.81667,2281
24.82500,2424
24.83333,2571
24.84167,2722
24.85000,2877
24.85833,3034
24.86667,3195
24.87500,3357
24.88333,3520
24.89167,3684
24.90000,3849
24.90833,4012
24.91667,4175
24.92500,4336
24.93333,4495
24.94167,4650
24.95000,4800
24.95833,4946
24.96667,5087
24.97500,5221
24.98333,5348
24.99167,5466
25.00000,5577
25.00833,5679
25.01667,5771
25.02500,5854
25.03333,5926
25.04167,5987
25.05000,6037
25.05833,6077
25.06667,6104
25.07500,6121
25.08333,6126
25.09167,6119
25.10000,6101
25.10833,6072
25.11667,6032
25.12500,5982
25.13333,5921
25.14167,5851
25.15000,5771
25.15833,5682
25.16667,5585
25.17500,5480
25.18333,5368
25.19167,5250
25.20000,5125
25.20833,4995
25.21667,4861
25.22500,4722
25.23333,4580
25.24167,4435
25.25000,4288
25.25833,4140
25.26667,3990
25.27500,3840
25.28333,3691
25.29167,3542
25.30000,3394
25.30833,3248
25.31667,3104
25.32500,2962
25.33333,2823
25.34167,2687
25.35000,2555
25.35833,2426
25.36667,2301
25.37500,2180
25.38333,2063
25.39167,1950
25.40000,1842
25.40833,1738
25.41667,1638
25.42500,1543
25.43333,1451
25.44167,1365
25.45000,1282
25.45833,1204
25.46667,1130
25.47500,1060
25.48333,994
25.49167,932
25.50000,874
25.50833,819
25.51667,767
25.52500,718
25.53333,673
25.54167,631
25.55000,591
25.55833,555
25.56667,521
25.57500,489
25.58333,459
25.59167,432
25.60000,406
25.60833,383
25.61667,362
25.62500,342
25.63333,323
25.64167,306
25.65000,290
25.65833,275
25.66667,262
25.67500,250
25.68333,239
25.69167,228
25.70000,218
25.70833,209
25.71667,200
25.72500,193
25.73333,186
25.74167,180
25.75000,174
25.75833,169
25.76667,165
25.77500,160
25.78333,156
25.79167,152
25.80000,149
25.80833,146
25.81667,143
25.82500,140
25.83333,137
25.84167,135
25.85000,133
25.85833,131
25.86667,129
25.87500,127
25.88333,126
25.89167,125
25.90000,123
25.90833,122
25.91667,121
25.92500,120
25.93333,119
25.94167,118
25.95000,117
25.95833,116
25.96667,115
25.97500,114
25.98333,114
25.99167,113
26.00000,112
26.00833,111
26.01667,110
26.02500,110
26.03333,109
26.04167,108
26.05000,108
26.05833,107
26.06667,106
26.07500,106
26.08333,105
26.09167,105
26.10000,105
26.10833,104
26.11667,104
26.12500,104
26.13333,104
26.14167,103
26.15000,103
26.15833,102
26.16667,102
26.17500,102
26.18333,101
26.19167,101
26.20000,101
26.20833,101
26.21667,101
26.22500,100
26.23333,100
26.24167,100
26.25000,100
26.25833,100
26.26667,99
26.27500,99
26.28333,98
26.29167,98
26.30000,98
26.30833,97
26.31667,97
26.32500,97
26.33333,97
26.34167,96
26.35000,96
26.35833,96
26.36667,96
26.37500,96
26.38333,96
26.39167,96
26.40000,95
26.40833,95
26.41667,95
26.42500,95
26.43333,95
26.44167,95
26.45000,95
26.45833,94
26.46667,94
26.47500,94
26.48333,93
26.49167,93
26.50000,93
26.50833,94
26.51667,94
26.52500,94
26.53333,94
26.54167,94
26.55000,94
26.55833,94
26.56667,94
26.57500,94
26.58333,94
26.59167,93
26.60000,93
26.60833,93
26.61667,93
26.62500,93
26.63333,94
26.64167,93
26.65000,94
26.65833,94
26.66667,94
26.67500,94
26.68333,94
26.69167,94
26.70000,94
26.70833,94
26.71667,94
26.72500,94
26.73333,94
26.74167,94
26.75000,94
26.75833,94
26.76667,94
26.77500,94
26.78333,93
26.79167,93
26.80000,93
26.80833,92
26.81667,92
26.82500,92
26.83333,92
26.84167,92
26.85000,92
26.85833,92
26.86667,92
26.87500,92
26.88333,92
26.89167,92
26.90000,92
26.90833,92
26.91667,92
26.92500,92
26.93333,92
26.94167,92
26.95000,91
26.95833,91
26.96667,91
26.97500,90
26.98333,90
26.99167,90
27.00000,90
27.00833,89
27.01667,89
27.02500,89
27.03333,89
27.04167,89
27.05000,89
27.05833,89
27.06667,89
27.07500,88
27.08333,88
27.09167,88
27.10000,89
27.10833,89
27.11667,89
27.12500,89
27.13333,89
27.14167,88
27.15000,88
27.15833,88
27.16667,87
27.17500,87
27.18333,88
27.19167,88
27.20000,88
27.20833,88
27.21667,87
27.22500,87
27.23333,87
27.24167,87
27.25000,86
27.25833,86
27.26667,86
27.27500,86
27.28333,86
27.29167,87
27.30000,87
27.30833,87
27.31667,86
27.32500,86
27.33333,86
27.34167,86
27.35000,87
27.35833,87
27.36667,86
27.37500,86
27.38333,86
27.39167,86
27.40000,86
27.40833,86
27.41667,87
27.42500,87
27.43333,86
27.44167,86
27.45000,86
27.45833,87
27.46667,87
27.47500,87
27.48333,87
27.49167,87
27.50000,87
27.50833,86
27.51667,86
27.52500,86
27.53333,86
27.54167,85
27.55000,85
27.55833,86
27.56667,86
27.57500,86
27.58333,86
27.59167,85
27.60000,85
27.60833,85
27.61667,85
27.62500,85
27.63333,85
27.64167,85
27.65000,85
27.65833,85
27.66667,84
27.67500,84
27.68333,84
27.69167,84
27.70000,84
27.70833,84
27.71667,84
27.72500,83
27.73333,83
27.74167,83
27.75000,83
27.75833,84
27.76667,84
27.77500,83
27.78333,83
27.79167,82
27.80000,82
27.80833,81
27.81667,81
27.82500,81
27.83333,80
27.84167,79
27.85000,79
27.85833,78
27.86667,78
27.87500,77
27.88333,76
27.89167,75
27.90000,74
27.90833,73
27.91667,72
27.92500,71
27.93333,70
27.94167,69
27.95000,67
27.95833,66
27.96667,64
27.97500,63
27.98333,61
27.99167,60
28.00000,59
28.00833,57
28.01667,55
28.02500,54
28.03333,52
28.04167,50
28.05000,47
28.05833,45
28.06667,43
28.07500,40
28.08333,37
28.09167,35
28.10000,32
28.10833,29
28.11667,26
28.12500,23
28.13333,20
28.14167,17
28.15000,14
28.15833,11
28.16667,9
28.17500,6
28.18333,2
28.19167,-1
28.20000,-4
28.20833,-8
28.21667,-11
28.22500,-15
28.23333,-18
28.24167,-21
28.25000,-24
28.25833,-27
28.26667,-30
28.27500,-33
28.28333,-36
28.29167,-39
28.30000,-42
28.30833,-44
28.31667,-47
28.32500,-50
28.33333,-52
28.34167,-54
28.35000,-56
28.35833,-58
28.36667,-60
28.37500,-61
28.38333,-63
28.39167,-64
28.40000,-64
28.40833,-66
28.41667,-67
28.42500,-67
28.43333,-68
28.44167,-68
28.45000,-68
28.45833,-68
28.46667,-68
28.47500,-67
28.48333,-67
28.49167,-66
28.50000,-65
28.50833,-64
28.51667,-63
28.52500,-61
28.53333,-60
28.54167,-58
28.55000,-56
28.55833,-55
28.56667,-53
28.57500,-51
28.58333,-49
28.59167,-47
28.60000,-44
28.60833,-42
28.61667,-39
28.62500,-36
28.63333,-34
28.64167,-31
28.65000,-28
28.65833,-26
28.66667,-23
28.67500,-20
28.68333,-17
28.69167,-14
28.70000,-11
28.70833,-8
28.71667,-6
28.72500,-4
28.73333,-1
28.74167,1
28.75000,4
28.75833,7
28.76667,10
28.77500,12
28.78333,15
28.79167,17
28.80000,20
28.80833,22
28.81667,24
28.82500,27
28.83333,29
28.84167,31
28.85000,33
28.85833,35
28.86667,36
28.87500,38
28.88333,40
28.89167,41
28.90000,43
28.90833,44
28.91667,45
28.92500,47
28.93333,48
28.94167,50
28.95000,51
28.95833,52
28.96667,53
28.97500,55
28.98333,56
28.99167,57
29.00000,58
29.00833,60
29.01667,61
29.02500,61
29.03333,62
29.04167,63
29.05000,64
29.05833,64
29.06667,65
29.07500,66
29.08333,66
29.09167,67
29.10000,68
29.10833,69
29.11667,69
29.12500,69
29.13333,69
29.14167,69
29.15000,69
29.15833,70
29.16667,70
29.17500,70
29.18333,71
29.19167,71
29.20000,71
29.20833,72
29.21667,72
29.22500,72
29.23333,73
29.24167,73
29.25000,73
29.25833,74
29.26667,74
29.27500,74
29.28333,74
29.29167,74
29.30000,74
29.30833,74
29.31667,74
29.32500,75
29.33333,74
29.34167,74
29.35000,74
29.35833,75
29.36667,75
29.37500,75
29.38333,76
29.39167,76
29.40000,76
29.40833,76
29.41667,76
29.42500,76
29.43333,75
29.44167,75
29.45000,75
29.45833,75
29.46667,75
29.47500,75
29.48333,74
29.49167,74
29.50000,74
29.50833,74
29.51667,75
29.52500,74
29.53333,74
29.54167,74
29.55000,74
29.55833,74
29.56667,73
29.57500,73
29.58333,73
29.59167,72
29.60000,72
29.60833,72
29.61667,71
29.62500,71
29.63333,71
29.64167,70
29.65000,70
29.65833,69
29.66667,69
29.67500,69
29.68333,69
29.69167,68
29.70000,67
29.70833,67
29.71667,66
29.72500,66
29.73333,66
29.74167,65
29.75000,64
29.75833,64
29.76667,63
29.77500,63
29.78333,62
29.79167,61
29.80000,60
29.80833,59
29.81667,58
29.82500,57
29.83333,57
29.84167,55
29.85000,54
29.85833,53
29.86667,52
29.87500,51
29.88333,50
29.89167,49
29.90000,49
29.90833,48
29.91667,47
29.92500,46
29.93333,45
29.94167,43
29.95000,42
29.95833,41
29.96667,40
29.97500,39
29.98333,38
29.99167,37
30.00000,36
30.00833,34
30.01667,33
30.02500,33
30.03333,32
30.04167,31
30.05000,30
30.05833,30
30.06667,29
30.07500,28
30.08333,28
30.09167,27
30.10000,26
30.10833,25
30.11667,25
30.12500,25
30.13333,24
30.14167,24
30.15000,24
30.15833,23
30.16667,23
30.17500,23
30.18333,23
30.19167,23
30.20000,23
30.20833,23
30.21667,23
30.22500,23
30.23333,24
30.24167,24
30.25000,24
30.25833,24
30.26667,24
30.27500,25
30.28333,25
30.29167,26
30.30000,26
30.30833,27
30.31667,27
30.32500,28
30.33333,29
30.34167,30
30.35000,31
30.35833,32
30.36667,32
30.37500,33
30.38333,34
30.39167,35
30.40000,36
30.40833,37
30.41667,38
30.42500,39
30.43333,40
30.44167,40
30.45000,41
30.45833,42
30.46667,43
30.47500,44
30.48333,45
30.49167,46
30.50000,47
30.50833,48
30.51667,49
30.52500,49
30.53333,50
30.54167,51
30.55000,52
30.55833,53
30.56667,54
30.57500,55
30.58333,56
30.59167,57
30.60000,58
30.60833,59
30.61667,59
30.62500,60
30.63333,60
30.64167,60
30.65000,61
30.65833,61
30.66667,62
30.67500,63
30.68333,63
30.69167,64
30.70000,65
30.70833,65
30.71667,66
30.72500,67
30.73333,68
30.74167,68
30.75000,69
30.75833,69
30.76667,69
30.77500,69
30.78333,69
30.79167,69
30.80000,69
30.80833,69
30.81667,70
30.82500,70
30.83333,70
30.84167,71
30.85000,71
30.85833,72
30.86667,72
30.87500,72
30.88333,72
30.89167,72
30.90000,72
30.90833,72
30.91667,72
30.92500,72
30.93333,73
30.94167,73
30.95000,73
30.95833,73
30.96667,73
30.97500,73
30.98333,73
30.99167,73
31.00000,73
31.00833,73
31.01667,73
31.02500,73
31.03333,73
31.04167,73
31.05000,73
31.05833,73
31.06667,73
31.07500,74
31.08333,74
31.09167,74
31.10000,74
31.10833,74
31.11667,74
31.12500,74
31.13333,75
31.14167,75
31.15000,75
31.15833,75
31.16667,75
31.17500,75
31.18333,76
31.19167,76
31.20000,76
31.20833,76
31.21667,76
31.22500,76
31.23333,76
31.24167,76
31.25000,76
31.25833,76
31.26667,76
31.27500,76
31.28333,76
31.29167,76
31.30000,76
31.30833,76
31.31667,76
31.32500,77
31.33333,77
31.34167,77
31.35000,77
31.35833,77
31.36667,77
31.37500,77
31.38333,77
31.39167,77
31.40000,77
31.40833,77
31.41667,77
31.42500,77
31.43333,77
31.44167,77
31.45000,78
31.45833,78
31.46667,78
31.47500,78
31.48333,78
31.49167,78
31.50000,78
31.50833,79
31.51667,79
31.52500,79
31.53333,79
31.54167,79
31.55000,79
31.55833,79
31.56667,80
31.57500,80
31.58333,80
31.59167,80
31.60000,80
31.60833,80
31.61667,79
31.62500,79
31.63333,80
31.64167,80
31.65000,80
31.65833,80
31.66667,80
31.67500,80
31.68333,80
31.69167,80
31.70000,80
31.70833,81
31.71667,81
31.72500,81
31.73333,81
31.74167,81
31.75000,80
31.75833,80
31.76667,81
31.77500,81
31.78333,81
31.79167,81
31.80000,81
31.80833,81
31.81667,81
31.82500,82
31.83333,82
31.84167,82
31.85000,82
31.85833,82
31.86667,83
31.87500,83
31.88333,83
31.89167,82
31.90000,82
31.90833,82
31.91667,81
31.92500,81
31.93333,81
31.94167,81
31.95000,80
31.95833,80
31.96667,81
31.97500,81
31.98333,81
31.99167,81
32.00000,81
32.00833,81
32.01667,81
32.02500,81
32.03333,82
32.04167,82
32.05000,82
32.05833,82
32.06667,81
32.07500,81
32.08333,81
32.09167,82
32.10000,81
32.10833,81
32.11667,81
32.12500,81
32.13333,81
32.14167,82
32.15000,82
32.15833,82
32.16667,82
32.17500,82
32.18333,82
32.19167,83
32.20000,82
32.20833,83
32.21667,83
32.22500,83
32.23333,83
32.24167,83
32.25000,83
32.25833,83
32.26667,83
32.27500,83
32.28333,82
32.29167,82
32.30000,82
32.30833,82
32.31667,83
32.32500,83
32.33333,83
32.34167,83
32.35000,83
32.35833,83
32.36667,83
32.37500,83
32.38333,83
32.39167,83
32.40000,83
32.40833,83
32.41667,83
32.42500,83
32.43333,83
32.44167,83
32.45000,83
32.45833,83
32.46667,83
32.47500,83
32.48333,82
32.49167,82
32.50000,83
32.50833,83
32.51667,83
32.52500,83
32.53333,83
32.54167,83
32.55000,83
32.55833,83
32.56667,83
32.57500,83
32.58333,83
32.59167,83
32.60000,83
32.60833,83
32.61667,83
32.62500,83
32.63333,82
32.64167,82
32.65000,82
32.65833,83
32.66667,83
32.67500,82
32.68333,82
32.69167,82
32.70000,82
32.70833,82
32.71667,82
32.72500,82
32.73333,82
32.74167,82
32.75000,82
32.75833,82
32.76667,82
32.77500,82
32.78333,82
32.79167,83
32.80000,83
32.80833,83
32.81667,83
32.82500,83
32.83333,82
32.84167,82
32.85000,82
32.85833,82
32.86667,82
32.87500,82
32.88333,82
32.89167,83
32.90000,83
32.90833,83
32.91667,84
32.92500,84
32.93333,83
32.94167,83
32.95000,83
32.95833,82
32.96667,82
32.97500,82
32.98333,82
32.99167,83
33.00000,82
33.00833,82
33.01667,82
33.02500,82
33.03333,83
33.04167,83
33.05000,83
33.05833,83
33.06667,83
33.07500,83
33.08333,84
33.09167,84
33.10000,83
33.10833,83
33.11667,83
33.12500,83
33.13333,83
33.14167,83
33.15000,83
33.15833,83
33.16667,83
33.17500,83
33.18333,83
33.19167,83
33.20000,83
33.20833,83
33.21667,83
33.22500,83
33.23333,83
33.24167,83
33.25000,82
33.25833,83
33.26667,83
33.27500,83
33.28333,83
33.29167,83
33.30000,83
33.30833,83
33.31667,83
33.32500,83
33.33333,83
33.34167,83
33.35000,83
33.35833,83
33.36667,83
33.37500,83
33.38333,83
33.39167,84
33.40000,84
33.40833,84
33.41667,84
33.42500,84
33.43333,84
33.44167,84
33.45000,84
33.45833,84
33.46667,84
33.47500,84
33.48333,83
33.49167,83
33.50000,83
33.50833,83
33.51667,84
33.52500,84
33.53333,84
33.54167,84
33.55000,84
33.55833,84
33.56667,84
33.57500,84
33.58333,85
33.59167,85
33.60000,85
33.60833,85
33.61667,84
33.62500,84
33.63333,84
33.64167,84
33.65000,84
33.65833,85
33.66667,85
33.67500,85
33.68333,85
33.69167,85
33.70000,85
33.70833,84
33.71667,84
33.72500,84
33.73333,84
33.74167,85
33.75000,85
33.75833,85
33.76667,85
33.77500,85
33.78333,84
33.79167,84
33.80000,84
33.80833,84
33.81667,84
33.82500,84
33.83333,85
33.84167,85
33.85000,85
33.85833,85
33.86667,85
33.87500,85
33.88333,85
33.89167,85
33.90000,85
33.90833,85
33.91667,84
33.92500,84
33.93333,84
33.94167,84
33.95000,84
33.95833,84
33.96667,84
33.97500,84
33.98333,84
33.99167,85
34.00000,85
34.00833,85
34.01667,85
34.02500,85
34.03333,85
34.04167,85
34.05000,86
34.05833,86
34.06667,86
34.07500,87
34.08333,87
34.09167,87
34.10000,87
34.10833,86
34.11667,86
34.12500,86
34.13333,85
34.14167,85
34.15000,85
34.15833,85
34.16667,86
34.17500,86
34.18333,86
34.19167,86
34.20000,86
34.20833,86
34.21667,86
34.22500,86
34.23333,86
34.24167,86
34.25000,86
34.25833,86
34.26667,86
34.27500,86
34.28333,86
34.29167,86
34.30000,86
34.30833,86
34.31667,86
34.32500,86
34.33333,86
34.34167,86
34.35000,86
34.35833,85
34.36667,85
34.37500,85
34.38333,85
34.39167,85
34.40000,85
34.40833,86
34.41667,86
34.42500,86
34.43333,86
34.44167,86
34.45000,86
34.45833,86
34.46667,86
34.47500,86
34.48333,86
34.49167,86
34.50000,86
34.50833,86
34.51667,86
34.52500,86
34.53333,86
34.54167,86
34.55000,86
34.55833,87
34.56667,87
34.57500,86
34.58333,86
34.59167,86
34.60000,86
34.60833,86
34.61667,86
34.62500,86
34.63333,86
34.64167,86
34.65000,85
34.65833,86
34.66667,86
34.67500,86
34.68333,86
34.69167,86
34.70000,86
34.70833,86
34.71667,86
34.72500,86
34.73333,86
34.74167,86
34.75000,86
34.75833,87
34.76667,87
34.77500,86
34.78333,86
34.79167,87
34.80000,87
34.80833,87
34.81667,87
34.82500,87
34.83333,87
34.84167,87
34.85000,87
34.85833,87
34.86667,87
34.87500,87
34.88333,87
34.89167,87
34.90000,87
34.90833,87
34.91667,87
34.92500,87
34.93333,87
34.94167,86
34.95000,86
34.95833,86
34.96667,86
34.97500,86
34.98333,87
34.99167,87
35.00000,87
35.00833,87
35.01667,86
35.02500,86
35.03333,86
35.04167,86
35.05000,86
35.05833,86
35.06667,86
35.07500,86
35.08333,86
35.09167,86
35.10000,86
35.10833,86
35.11667,86
35.12500,86
35.13333,86
35.14167,86
35.15000,86
35.15833,86
35.16667,86
35.17500,86
35.18333,87
35.19167,87
35.20000,87
35.20833,87
35.21667,87
35.22500,87
35.23333,87
35.24167,87
35.25000,87
35.25833,87
35.26667,87
35.27500,87
35.28333,87
35.29167,87
35.30000,87
35.30833,88
35.31667,87
35.32500,87
35.33333,87
35.34167,87
35.35000,88
35.35833,88
35.36667,88
35.37500,88
35.38333,88
35.39167,88
35.40000,88
35.40833,88
35.41667,88
35.42500,88
35.43333,88
35.44167,88
35.45000,88
35.45833,87
35.46667,87
35.47500,87
35.48333,87
35.49167,87
35.50000,87
35.50833,87
35.51667,87
35.52500,87
35.53333,87
35.54167,87
35.55000,86
35.55833,86
35.56667,86
35.57500,87
35.58333,87
35.59167,87
35.60000,87
35.60833,87
35.61667,87
35.62500,88
35.63333,88
35.64167,88
35.65000,89
35.65833,89
35.66667,89
35.67500,88
35.68333,88
35.69167,88
35.70000,88
35.70833,87
35.71667,87
35.72500,88
35.73333,88
35.74167,88
35.75000,88
35.75833,88
35.76667,87
35.77500,87
35.78333,87
35.79167,87
35.80000,87
35.80833,87
35.81667,87
35.82500,87
35.83333,87
35.84167,87
35.85000,87
35.85833,87
35.86667,88
35.87500,88
35.88333,88
35.89167,87
35.90000,88
35.90833,88
35.91667,88
35.92500,88
35.93333,88
35.94167,88
35.95000,88
35.95833,88
35.96667,88
35.97500,88
35.98333,88
35.99167,88
36.00000,88
36.00833,88
36.01667,88
36.02500,88
36.03333,88
36.04167,88
36.05000,88
36.05833,88
36.06667,87
36.07500,87
36.08333,87
36.09167,87
36.10000,87
36.10833,87
36.11667,87
36.12500,87
36.13333,87
36.14167,86
36.15000,86
36.15833,86
36.16667,87
36.17500,87
36.18333,87
36.19167,87
36.20000,87
36.20833,86
36.21667,86
36.22500,86
36.23333,86
36.24167,86
36.25000,87
36.25833,87
36.26667,87
36.27500,87
36.28333,87
36.29167,87
36.30000,87
36.30833,87
36.31667,88
36.32500,88
36.33333,88
36.34167,88
36.35000,88
36.35833,88
36.36667,88
36.37500,88
36.38333,88
36.39167,87
36.40000,87
36.40833,87
36.41667,87
36.42500,87
36.43333,87
36.44167,87
36.45000,88
36.45833,88
36.46667,88
36.47500,88
36.48333,88
36.49167,88
36.50000,89
36.50833,89
36.51667,89
36.52500,88
36.53333,88
36.54167,88
36.55000,87
36.55833,87
36.56667,87
36.57500,88
36.58333,88
36.59167,88
36.60000,88
36.60833,88
36.61667,89
36.62500,89
36.63333,88
36.64167,88
36.65000,89
36.65833,88
36.66667,89
36.67500,89
36.68333,89
36.69167,89
36.70000,89
36.70833,89
36.71667,90
36.72500,90
36.73333,90
36.74167,90
36.75000,90
36.75833,90
36.76667,90
36.77500,90
36.78333,90
36.79167,90
36.80000,89
36.80833,89
36.81667,89
36.82500,89
36.83333,89
36.84167,89
36.85000,89
36.85833,89
36.86667,90
36.87500,90
36.88333,90
36.89167,90
36.90000,90
36.90833,90
36.91667,91
36.92500,91
36.93333,91
36.94167,91
36.95000,91
36.95833,91
36.96667,91
36.97500,91
36.98333,91
36.99167,91
37.00000,91
37.00833,90
37.01667,90
37.02500,90
37.03333,90
37.04167,90
37.05000,90
37.05833,89
37.06667,90
37.07500,90
37.08333,90
37.09167,90
37.10000,90
37.10833,90
37.11667,90
37.12500,90
37.13333,90
37.14167,90
37.15000,90
37.15833,90
37.16667,90
37.17500,90
37.18333,90
37.19167,90
37.20000,90
37.20833,90
37.21667,90
37.22500,91
37.23333,91
37.24167,91
37.25000,91
37.25833,91
37.26667,91
37.27500,91
37.28333,91
37.29167,91
37.30000,91
37.30833,91
37.31667,90
37.32500,90
37.33333,90
37.34167,90
37.35000,90
37.35833,90
37.36667,90
37.37500,90
37.38333,90
37.39167,90
37.40000,90
37.40833,90
37.41667,90
37.42500,91
37.43333,91
37.44167,91
37.45000,91
37.45833,91
37.46667,91
37.47500,91
37.48333,90
37.49167,90
37.50000,90
37.50833,90
37.51667,90
37.52500,90
37.53333,90
37.54167,90
37.55000,90
37.55833,91
37.56667,91
37.57500,91
37.58333,91
37.59167,90
37.60000,90
37.60833,90
37.61667,90
37.62500,90
37.63333,90
37.64167,90
37.65000,90
37.65833,90
37.66667,91
37.67500,91
37.68333,91
37.69167,91
37.70000,91
37.70833,91
37.71667,91
37.72500,91
37.73333,91
37.74167,91
37.75000,91
37.75833,91
37.76667,91
37.77500,91
37.78333,91
37.79167,91
37.80000,91
37.80833,91
37.81667,91
37.82500,91
37.83333,91
37.84167,91
37.85000,91
37.85833,91
37.86667,91
37.87500,91
37.88333,91
37.89167,91
37.90000,91
37.90833,91
37.91667,91
37.92500,91
37.93333,91
37.94167,91
37.95000,91
37.95833,91
37.96667,91
37.97500,91
37.98333,91
37.99167,91
38.00000,91
38.00833,91
38.01667,91
38.02500,92
38.03333,92
38.04167,92
38.05000,92
38.05833,92
38.06667,92
38.07500,92
38.08333,92
38.09167,92
38.10000,92
38.10833,93
38.11667,93
38.12500,93
38.13333,93
38.14167,93
38.15000,93
38.15833,93
38.16667,93
38.17500,93
38.18333,93
38.19167,93
38.20000,93
38.20833,93
38.21667,93
38.22500,92
38.23333,92
38.24167,92
38.25000,92
38.25833,92
38.26667,92
38.27500,93
38.28333,92
38.29167,92
38.30000,93
38.30833,93
38.31667,93
38.32500,93
38.33333,93
38.34167,94
38.35000,94
38.35833,94
38.36667,94
38.37500,94
38.38333,94
38.39167,94
38.40000,94
38.40833,94
38.41667,94
38.42500,94
38.43333,94
38.44167,93
38.45000,94
38.45833,94
38.46667,94
38.47500,93
38.48333,94
38.49167,94
38.50000,94
38.50833,94
38.51667,94
38.52500,94
38.53333,94
38.54167,94
38.55000,94
38.55833,94
38.56667,94
38.57500,94
38.58333,93
38.59167,93
38.60000,93
38.60833,93
38.61667,93
38.62500,93
38.63333,93
38.64167,93
38.65000,93
38.65833,93
38.66667,93
38.67500,94
38.68333,93
38.69167,94
38.70000,94
38.70833,94
38.71667,94
38.72500,94
38.73333,94
38.74167,94
38.75000,94
38.75833,94
38.76667,94
38.77500,94
38.78333,94
38.79167,94
38.80000,94
38.80833,94
38.81667,94
38.82500,94
38.83333,94
38.84167,94
38.85000,93
38.85833,93
38.86667,93
38.87500,93
38.88333,93
38.89167,93
38.90000,93
38.90833,93
38.91667,94
38.92500,94
38.93333,94
38.94167,93
38.95000,93
38.95833,94
38.96667,94
38.97500,94
38.98333,94
38.99167,94
39.00000,94
39.00833,93
39.01667,93
39.02500,93
39.03333,93
39.04167,93
39.05000,93
39.05833,93
39.06667,93
39.07500,94
39.08333,94
39.09167,94
39.10000,94
39.10833,94
39.11667,94
39.12500,94
39.13333,93
39.14167,93
39.15000,93
39.15833,93
39.16667,93
39.17500,93
39.18333,93
39.19167,93
39.20000,93
39.20833,93
39.21667,92
39.22500,92
39.23333,92
39.24167,92
39.25000,93
39.25833,93
39.26667,93
39.27500,93
39.28333,93
39.29167,93
39.30000,94
39.30833,94
39.31667,94
39.32500,94
39.33333,94
39.34167,94
39.35000,94
39.35833,94
39.36667,94
39.37500,94
39.38333,94
39.39167,94
39.40000,93
39.40833,93
39.41667,94
39.42500,94
39.43333,94
39.44167,94
39.45000,94
39.45833,94
39.46667,94
39.47500,94
39.48333,94
39.49167,94
39.50000,93
39.50833,93
39.51667,93
39.52500,93
39.53333,94
39.54167,94
39.55000,94
39.55833,94
39.56667,94
39.57500,94
39.58333,94
39.59167,94
39.60000,94
39.60833,94
39.61667,94
39.62500,94
39.63333,94
39.64167,94
39.65000,94
39.65833,94
39.66667,95
39.67500,95
39.68333,95
39.69167,95
39.70000,95
39.70833,95
39.71667,95
39.72500,95
39.73333,95
39.74167,95
39.75000,95
39.75833,95
39.76667,95
39.77500,95
39.78333,95
39.79167,95
39.80000,95
39.80833,95
39.81667,94
39.82500,94
39.83333,94
39.84167,94
39.85000,95
39.85833,95
39.86667,95
39.87500,95
39.88333,95
39.89167,95
39.90000,95
39.90833,95
39.91667,95
39.92500,95
39.93333,95
39.94167,95
39.95000,95
39.95833,95
39.96667,94
39.97500,94
39.98333,94
39.99167,94
40.00000,95

