[Header]
Application Name,LabSolutions
Version,5.97 SP1
Data File Name,C:\Users\cremerlab\Desktop\griffin\2021-04-03_buffer_calibration\2021-04-03_buffer_calibration_432021_011_024.lcd
Output Date,4/4/2021
Output Time,6:51:21 AM

[File Information]
Type,Data File
Generated,4/4/2021 6:11:01 AM
Generated by,System Administrator
Modified,4/4/2021 6:51:20 AM
Modified by,System Administrator

[Sample Information]
Operator Name,System Administrator
Acquired,4/4/2021 6:11:20 AM
Sample Type,1:Standard
Level,2
Sample Name,2021-04-02_DM_glucose_glycerol_acetate_calibration_0.3mM
Sample ID,011
ISTD Amount1,1
ISTD Amount2,1
ISTD Amount3,1
ISTD Amount4,1
ISTD Amount5,1
ISTD Amount6,1
ISTD Amount7,1
ISTD Amount8,1
ISTD Amount9,1
ISTD Amount10,1
ISTD Amount11,1
ISTD Amount12,1
ISTD Amount13,1
ISTD Amount14,1
ISTD Amount15,1
ISTD Amount16,1
ISTD Amount17,1
ISTD Amount18,1
ISTD Amount19,1
ISTD Amount20,1
ISTD Amount21,1
ISTD Amount22,1
ISTD Amount23,1
ISTD Amount24,1
ISTD Amount25,1
ISTD Amount26,1
ISTD Amount27,1
ISTD Amount28,1
ISTD Amount29,1
ISTD Amount30,1
ISTD Amount31,1
ISTD Amount32,1
Sample Amount,1
Dilution Factor,1
Vial#,29
Injection Volume,20

[Original Files]
Data File,C:\Users\cremerlab\Desktop\griffin\2021-04-03_buffer_calibration\2021-04-03_buffer_calibration_432021_011_024.lcd
Method File,C:\LabSolutions\Data\Project1\organicacidsetc2.lcm
Batch File,C:\Users\cremerlab\Desktop\griffin\2021-04-03_buffer_calibration\2021-04-03_buffer_calibration.lcb
Report Format File,c:\LabSolutions\System\DEFAULT.lsr

[File Description]


[Configuration]
Instrument Name,HPLC-PC-Instrument1
Instrument #,1
Line #,1
# of Detectors,2
Detector ID,Detector A,Detector B
Detector Name,Detector A,Detector B
# of Channels,1,1

[Peak Table(Detector A)]
# of Peaks,0

[Peak Table(Detector B)]
# of Peaks,5
Peak#,R.Time,I.Time,F.Time,Area,Height,A/H,Conc.,Mark,ID#,Name,k',Plate #,Plate Ht.,Tailing,Resolution,Sep.Factor,Area Ratio,Height Ratio,Conc. %,Norm Conc.
1,10.744,10.542,10.967,42780,2903,14.737,0.000,   ,,,0.000,12445,12.053,1.028,0.000,0.000,0,0,0.000,0.000
2,14.918,14.108,15.425,1508641,60889,24.777,0.000,   ,,,0.389,7550,19.869,0.829,7.788,0.000,0,0,0.000,0.000
3,15.652,15.425,16.792,39138,1461,26.783,0.000, V ,,,0.457,5485,27.345,0.000,0.958,1.176,0,0,0.000,0.000
4,22.082,21.617,22.683,8074,311,25.955,0.000,   ,,,1.055,16209,9.254,1.087,8.356,2.310,0,0,0.000,0.000
5,25.075,24.700,25.633,2921,111,26.212,0.000,   ,,,1.334,20006,7.498,1.173,4.266,1.264,0,0,0.000,0.000

[LC Chromatogram(Detector B-Ch1)]
Interval(msec),500
# of Points,4801
Start Time(min),0.000
End Time(min),40.000
Intensity Units,mV
Intensity Multiplier,0.001
R.Time (min),Intensity
0.00000,-0
0.00833,-0
0.01667,0
0.02500,0
0.03333,-0
0.04167,-0
0.05000,-0
0.05833,-0
0.06667,-0
0.07500,0
0.08333,0
0.09167,0
0.10000,0
0.10833,1
0.11667,1
0.12500,2
0.13333,2
0.14167,2
0.15000,2
0.15833,1
0.16667,1
0.17500,1
0.18333,1
0.19167,1
0.20000,1
0.20833,1
0.21667,1
0.22500,1
0.23333,1
0.24167,2
0.25000,2
0.25833,1
0.26667,1
0.27500,1
0.28333,0
0.29167,0
0.30000,0
0.30833,0
0.31667,0
0.32500,0
0.33333,1
0.34167,1
0.35000,1
0.35833,1
0.36667,1
0.37500,1
0.38333,1
0.39167,1
0.40000,1
0.40833,1
0.41667,1
0.42500,2
0.43333,2
0.44167,2
0.45000,2
0.45833,2
0.46667,2
0.47500,2
0.48333,2
0.49167,2
0.50000,2
0.50833,2
0.51667,2
0.52500,2
0.53333,2
0.54167,2
0.55000,2
0.55833,3
0.56667,3
0.57500,3
0.58333,3
0.59167,3
0.60000,3
0.60833,3
0.61667,3
0.62500,3
0.63333,3
0.64167,3
0.65000,3
0.65833,2
0.66667,2
0.67500,2
0.68333,2
0.69167,2
0.70000,2
0.70833,2
0.71667,2
0.72500,1
0.73333,1
0.74167,1
0.75000,2
0.75833,2
0.76667,2
0.77500,2
0.78333,3
0.79167,3
0.80000,3
0.80833,2
0.81667,2
0.82500,2
0.83333,2
0.84167,3
0.85000,3
0.85833,3
0.86667,3
0.87500,3
0.88333,2
0.89167,2
0.90000,2
0.90833,2
0.91667,3
0.92500,3
0.93333,3
0.94167,4
0.95000,4
0.95833,4
0.96667,4
0.97500,3
0.98333,3
0.99167,3
1.00000,3
1.00833,3
1.01667,3
1.02500,3
1.03333,3
1.04167,3
1.05000,4
1.05833,4
1.06667,4
1.07500,4
1.08333,4
1.09167,4
1.10000,3
1.10833,3
1.11667,3
1.12500,3
1.13333,4
1.14167,4
1.15000,4
1.15833,4
1.16667,4
1.17500,4
1.18333,3
1.19167,3
1.20000,3
1.20833,3
1.21667,3
1.22500,3
1.23333,3
1.24167,3
1.25000,3
1.25833,3
1.26667,3
1.27500,3
1.28333,3
1.29167,3
1.30000,3
1.30833,3
1.31667,3
1.32500,3
1.33333,3
1.34167,3
1.35000,4
1.35833,4
1.36667,4
1.37500,5
1.38333,4
1.39167,4
1.40000,4
1.40833,3
1.41667,3
1.42500,3
1.43333,4
1.44167,4
1.45000,4
1.45833,4
1.46667,4
1.47500,4
1.48333,4
1.49167,4
1.50000,4
1.50833,4
1.51667,3
1.52500,3
1.53333,4
1.54167,4
1.55000,4
1.55833,4
1.56667,3
1.57500,3
1.58333,3
1.59167,3
1.60000,3
1.60833,4
1.61667,4
1.62500,4
1.63333,4
1.64167,4
1.65000,4
1.65833,4
1.66667,4
1.67500,4
1.68333,4
1.69167,4
1.70000,5
1.70833,5
1.71667,5
1.72500,5
1.73333,5
1.74167,6
1.75000,6
1.75833,6
1.76667,6
1.77500,6
1.78333,5
1.79167,5
1.80000,5
1.80833,5
1.81667,5
1.82500,4
1.83333,4
1.84167,4
1.85000,4
1.85833,4
1.86667,4
1.87500,5
1.88333,4
1.89167,4
1.90000,4
1.90833,4
1.91667,5
1.92500,4
1.93333,4
1.94167,5
1.95000,5
1.95833,5
1.96667,6
1.97500,6
1.98333,6
1.99167,6
2.00000,6
2.00833,6
2.01667,6
2.02500,5
2.03333,5
2.04167,5
2.05000,4
2.05833,4
2.06667,5
2.07500,5
2.08333,5
2.09167,5
2.10000,5
2.10833,5
2.11667,5
2.12500,5
2.13333,5
2.14167,5
2.15000,5
2.15833,5
2.16667,6
2.17500,5
2.18333,5
2.19167,5
2.20000,5
2.20833,5
2.21667,5
2.22500,5
2.23333,5
2.24167,5
2.25000,5
2.25833,4
2.26667,4
2.27500,4
2.28333,4
2.29167,4
2.30000,4
2.30833,4
2.31667,4
2.32500,4
2.33333,4
2.34167,4
2.35000,4
2.35833,5
2.36667,5
2.37500,5
2.38333,5
2.39167,5
2.40000,5
2.40833,5
2.41667,5
2.42500,5
2.43333,5
2.44167,5
2.45000,5
2.45833,5
2.46667,5
2.47500,5
2.48333,5
2.49167,5
2.50000,5
2.50833,5
2.51667,5
2.52500,5
2.53333,4
2.54167,4
2.55000,4
2.55833,4
2.56667,4
2.57500,4
2.58333,5
2.59167,5
2.60000,5
2.60833,5
2.61667,5
2.62500,5
2.63333,5
2.64167,5
2.65000,5
2.65833,5
2.66667,5
2.67500,4
2.68333,4
2.69167,5
2.70000,5
2.70833,5
2.71667,5
2.72500,5
2.73333,5
2.74167,5
2.75000,5
2.75833,5
2.76667,5
2.77500,5
2.78333,5
2.79167,6
2.80000,6
2.80833,5
2.81667,5
2.82500,6
2.83333,6
2.84167,6
2.85000,6
2.85833,6
2.86667,6
2.87500,6
2.88333,5
2.89167,5
2.90000,5
2.90833,5
2.91667,5
2.92500,5
2.93333,5
2.94167,5
2.95000,5
2.95833,5
2.96667,5
2.97500,5
2.98333,5
2.99167,5
3.00000,5
3.00833,5
3.01667,5
3.02500,5
3.03333,5
3.04167,5
3.05000,5
3.05833,5
3.06667,5
3.07500,4
3.08333,4
3.09167,4
3.10000,4
3.10833,4
3.11667,4
3.12500,4
3.13333,4
3.14167,4
3.15000,4
3.15833,5
3.16667,5
3.17500,5
3.18333,4
3.19167,5
3.20000,5
3.20833,5
3.21667,5
3.22500,4
3.23333,4
3.24167,4
3.25000,4
3.25833,4
3.26667,4
3.27500,4
3.28333,4
3.29167,5
3.30000,5
3.30833,5
3.31667,5
3.32500,5
3.33333,5
3.34167,4
3.35000,4
3.35833,4
3.36667,4
3.37500,4
3.38333,4
3.39167,4
3.40000,4
3.40833,4
3.41667,5
3.42500,5
3.43333,5
3.44167,5
3.45000,5
3.45833,5
3.46667,5
3.47500,5
3.48333,5
3.49167,5
3.50000,5
3.50833,5
3.51667,5
3.52500,5
3.53333,6
3.54167,6
3.55000,6
3.55833,5
3.56667,5
3.57500,5
3.58333,5
3.59167,5
3.60000,6
3.60833,5
3.61667,5
3.62500,5
3.63333,5
3.64167,5
3.65000,5
3.65833,5
3.66667,5
3.67500,5
3.68333,5
3.69167,5
3.70000,5
3.70833,6
3.71667,6
3.72500,6
3.73333,6
3.74167,5
3.75000,5
3.75833,5
3.76667,5
3.77500,6
3.78333,6
3.79167,6
3.80000,6
3.80833,6
3.81667,6
3.82500,6
3.83333,6
3.84167,6
3.85000,6
3.85833,5
3.86667,5
3.87500,5
3.88333,6
3.89167,6
3.90000,6
3.90833,6
3.91667,6
3.92500,6
3.93333,6
3.94167,6
3.95000,6
3.95833,6
3.96667,6
3.97500,6
3.98333,6
3.99167,6
4.00000,6
4.00833,6
4.01667,6
4.02500,6
4.03333,6
4.04167,6
4.05000,6
4.05833,6
4.06667,6
4.07500,7
4.08333,7
4.09167,7
4.10000,6
4.10833,6
4.11667,6
4.12500,6
4.13333,6
4.14167,6
4.15000,6
4.15833,7
4.16667,7
4.17500,7
4.18333,7
4.19167,6
4.20000,6
4.20833,6
4.21667,6
4.22500,6
4.23333,6
4.24167,6
4.25000,6
4.25833,7
4.26667,7
4.27500,7
4.28333,7
4.29167,7
4.30000,7
4.30833,7
4.31667,7
4.32500,7
4.33333,6
4.34167,6
4.35000,6
4.35833,6
4.36667,6
4.37500,6
4.38333,6
4.39167,6
4.40000,6
4.40833,6
4.41667,6
4.42500,6
4.43333,6
4.44167,6
4.45000,7
4.45833,7
4.46667,7
4.47500,7
4.48333,6
4.49167,6
4.50000,6
4.50833,6
4.51667,7
4.52500,7
4.53333,7
4.54167,7
4.55000,7
4.55833,7
4.56667,6
4.57500,7
4.58333,7
4.59167,7
4.60000,7
4.60833,7
4.61667,7
4.62500,7
4.63333,7
4.64167,7
4.65000,7
4.65833,7
4.66667,7
4.67500,7
4.68333,6
4.69167,6
4.70000,7
4.70833,7
4.71667,7
4.72500,7
4.73333,7
4.74167,7
4.75000,7
4.75833,7
4.76667,7
4.77500,7
4.78333,8
4.79167,8
4.80000,7
4.80833,7
4.81667,7
4.82500,7
4.83333,7
4.84167,7
4.85000,7
4.85833,7
4.86667,7
4.87500,7
4.88333,7
4.89167,7
4.90000,7
4.90833,7
4.91667,7
4.92500,7
4.93333,7
4.94167,7
4.95000,7
4.95833,7
4.96667,7
4.97500,7
4.98333,7
4.99167,7
5.00000,7
5.00833,7
5.01667,7
5.02500,7
5.03333,7
5.04167,7
5.05000,7
5.05833,7
5.06667,8
5.07500,8
5.08333,8
5.09167,8
5.10000,8
5.10833,8
5.11667,8
5.12500,8
5.13333,8
5.14167,8
5.15000,9
5.15833,9
5.16667,9
5.17500,9
5.18333,8
5.19167,8
5.20000,8
5.20833,8
5.21667,7
5.22500,7
5.23333,7
5.24167,7
5.25000,6
5.25833,6
5.26667,6
5.27500,6
5.28333,7
5.29167,7
5.30000,7
5.30833,7
5.31667,7
5.32500,7
5.33333,7
5.34167,6
5.35000,7
5.35833,7
5.36667,7
5.37500,8
5.38333,8
5.39167,8
5.40000,8
5.40833,8
5.41667,8
5.42500,8
5.43333,8
5.44167,9
5.45000,9
5.45833,9
5.46667,9
5.47500,9
5.48333,8
5.49167,7
5.50000,7
5.50833,7
5.51667,7
5.52500,7
5.53333,7
5.54167,7
5.55000,7
5.55833,7
5.56667,7
5.57500,7
5.58333,7
5.59167,7
5.60000,7
5.60833,8
5.61667,8
5.62500,8
5.63333,8
5.64167,8
5.65000,8
5.65833,8
5.66667,8
5.67500,8
5.68333,8
5.69167,8
5.70000,7
5.70833,7
5.71667,7
5.72500,7
5.73333,8
5.74167,8
5.75000,8
5.75833,8
5.76667,8
5.77500,8
5.78333,8
5.79167,8
5.80000,8
5.80833,8
5.81667,8
5.82500,8
5.83333,8
5.84167,8
5.85000,8
5.85833,8
5.86667,8
5.87500,8
5.88333,8
5.89167,8
5.90000,8
5.90833,7
5.91667,7
5.92500,7
5.93333,7
5.94167,7
5.95000,7
5.95833,7
5.96667,7
5.97500,7
5.98333,7
5.99167,7
6.00000,7
6.00833,7
6.01667,7
6.02500,7
6.03333,7
6.04167,7
6.05000,7
6.05833,7
6.06667,8
6.07500,8
6.08333,8
6.09167,8
6.10000,8
6.10833,8
6.11667,8
6.12500,8
6.13333,8
6.14167,8
6.15000,8
6.15833,9
6.16667,9
6.17500,9
6.18333,9
6.19167,9
6.20000,9
6.20833,9
6.21667,8
6.22500,8
6.23333,8
6.24167,8
6.25000,8
6.25833,8
6.26667,8
6.27500,8
6.28333,8
6.29167,8
6.30000,8
6.30833,8
6.31667,8
6.32500,8
6.33333,8
6.34167,8
6.35000,8
6.35833,8
6.36667,7
6.37500,7
6.38333,7
6.39167,7
6.40000,7
6.40833,7
6.41667,7
6.42500,7
6.43333,7
6.44167,8
6.45000,7
6.45833,8
6.46667,8
6.47500,8
6.48333,8
6.49167,9
6.50000,9
6.50833,9
6.51667,9
6.52500,9
6.53333,9
6.54167,9
6.55000,9
6.55833,9
6.56667,8
6.57500,8
6.58333,8
6.59167,8
6.60000,8
6.60833,8
6.61667,7
6.62500,7
6.63333,7
6.64167,7
6.65000,7
6.65833,7
6.66667,7
6.67500,7
6.68333,7
6.69167,8
6.70000,8
6.70833,8
6.71667,8
6.72500,8
6.73333,8
6.74167,8
6.75000,8
6.75833,8
6.76667,8
6.77500,8
6.78333,8
6.79167,9
6.80000,9
6.80833,9
6.81667,9
6.82500,9
6.83333,8
6.84167,8
6.85000,7
6.85833,7
6.86667,7
6.87500,7
6.88333,8
6.89167,8
6.90000,8
6.90833,8
6.91667,7
6.92500,7
6.93333,8
6.94167,8
6.95000,7
6.95833,7
6.96667,8
6.97500,7
6.98333,7
6.99167,7
7.00000,7
7.00833,8
7.01667,8
7.02500,9
7.03333,9
7.04167,9
7.05000,9
7.05833,9
7.06667,8
7.07500,8
7.08333,8
7.09167,8
7.10000,8
7.10833,8
7.11667,8
7.12500,7
7.13333,7
7.14167,8
7.15000,8
7.15833,8
7.16667,8
7.17500,8
7.18333,8
7.19167,8
7.20000,7
7.20833,7
7.21667,7
7.22500,7
7.23333,7
7.24167,7
7.25000,7
7.25833,7
7.26667,7
7.27500,7
7.28333,7
7.29167,7
7.30000,8
7.30833,8
7.31667,8
7.32500,8
7.33333,8
7.34167,8
7.35000,8
7.35833,8
7.36667,8
7.37500,8
7.38333,8
7.39167,8
7.40000,8
7.40833,8
7.41667,8
7.42500,8
7.43333,8
7.44167,8
7.45000,8
7.45833,9
7.46667,9
7.47500,9
7.48333,9
7.49167,9
7.50000,9
7.50833,9
7.51667,8
7.52500,8
7.53333,8
7.54167,8
7.55000,8
7.55833,8
7.56667,7
7.57500,7
7.58333,7
7.59167,7
7.60000,8
7.60833,8
7.61667,8
7.62500,8
7.63333,8
7.64167,8
7.65000,7
7.65833,7
7.66667,7
7.67500,7
7.68333,7
7.69167,7
7.70000,7
7.70833,7
7.71667,7
7.72500,7
7.73333,7
7.74167,7
7.75000,7
7.75833,7
7.76667,7
7.77500,7
7.78333,8
7.79167,8
7.80000,8
7.80833,8
7.81667,8
7.82500,8
7.83333,8
7.84167,8
7.85000,8
7.85833,8
7.86667,8
7.87500,8
7.88333,8
7.89167,7
7.90000,7
7.90833,7
7.91667,7
7.92500,7
7.93333,7
7.94167,7
7.95000,8
7.95833,8
7.96667,8
7.97500,8
7.98333,8
7.99167,8
8.00000,8
8.00833,8
8.01667,8
8.02500,9
8.03333,9
8.04167,9
8.05000,9
8.05833,9
8.06667,8
8.07500,8
8.08333,8
8.09167,8
8.10000,8
8.10833,8
8.11667,8
8.12500,8
8.13333,8
8.14167,8
8.15000,8
8.15833,8
8.16667,8
8.17500,8
8.18333,8
8.19167,8
8.20000,8
8.20833,8
8.21667,8
8.22500,8
8.23333,8
8.24167,8
8.25000,8
8.25833,8
8.26667,8
8.27500,8
8.28333,8
8.29167,8
8.30000,8
8.30833,8
8.31667,8
8.32500,8
8.33333,8
8.34167,8
8.35000,9
8.35833,9
8.36667,9
8.37500,9
8.38333,9
8.39167,9
8.40000,9
8.40833,9
8.41667,9
8.42500,8
8.43333,8
8.44167,8
8.45000,8
8.45833,8
8.46667,9
8.47500,9
8.48333,9
8.49167,9
8.50000,9
8.50833,9
8.51667,9
8.52500,9
8.53333,9
8.54167,9
8.55000,9
8.55833,9
8.56667,9
8.57500,9
8.58333,9
8.59167,9
8.60000,9
8.60833,9
8.61667,10
8.62500,9
8.63333,9
8.64167,9
8.65000,9
8.65833,9
8.66667,9
8.67500,9
8.68333,9
8.69167,9
8.70000,9
8.70833,9
8.71667,9
8.72500,9
8.73333,9
8.74167,8
8.75000,8
8.75833,8
8.76667,8
8.77500,9
8.78333,9
8.79167,9
8.80000,9
8.80833,9
8.81667,9
8.82500,9
8.83333,9
8.84167,9
8.85000,9
8.85833,9
8.86667,9
8.87500,9
8.88333,9
8.89167,10
8.90000,10
8.90833,10
8.91667,10
8.92500,10
8.93333,9
8.94167,9
8.95000,9
8.95833,9
8.96667,9
8.97500,9
8.98333,9
8.99167,10
9.00000,9
9.00833,9
9.01667,9
9.02500,8
9.03333,9
9.04167,9
9.05000,9
9.05833,9
9.06667,9
9.07500,10
9.08333,10
9.09167,9
9.10000,9
9.10833,9
9.11667,10
9.12500,10
9.13333,10
9.14167,10
9.15000,10
9.15833,9
9.16667,9
9.17500,9
9.18333,9
9.19167,9
9.20000,9
9.20833,10
9.21667,10
9.22500,10
9.23333,10
9.24167,10
9.25000,10
9.25833,9
9.26667,9
9.27500,9
9.28333,10
9.29167,9
9.30000,9
9.30833,10
9.31667,10
9.32500,10
9.33333,10
9.34167,10
9.35000,10
9.35833,10
9.36667,10
9.37500,10
9.38333,10
9.39167,10
9.40000,10
9.40833,10
9.41667,10
9.42500,10
9.43333,10
9.44167,10
9.45000,10
9.45833,10
9.46667,10
9.47500,10
9.48333,10
9.49167,10
9.50000,10
9.50833,10
9.51667,10
9.52500,10
9.53333,10
9.54167,11
9.55000,11
9.55833,11
9.56667,10
9.57500,10
9.58333,10
9.59167,9
9.60000,9
9.60833,9
9.61667,9
9.62500,9
9.63333,9
9.64167,10
9.65000,10
9.65833,10
9.66667,10
9.67500,9
9.68333,9
9.69167,9
9.70000,9
9.70833,8
9.71667,9
9.72500,9
9.73333,9
9.74167,9
9.75000,9
9.75833,9
9.76667,9
9.77500,9
9.78333,9
9.79167,9
9.80000,9
9.80833,9
9.81667,9
9.82500,9
9.83333,9
9.84167,9
9.85000,9
9.85833,9
9.86667,9
9.87500,9
9.88333,9
9.89167,9
9.90000,9
9.90833,9
9.91667,9
9.92500,9
9.93333,9
9.94167,10
9.95000,10
9.95833,10
9.96667,10
9.97500,10
9.98333,10
9.99167,10
10.00000,10
10.00833,10
10.01667,10
10.02500,10
10.03333,10
10.04167,10
10.05000,11
10.05833,11
10.06667,11
10.07500,11
10.08333,11
10.09167,11
10.10000,11
10.10833,11
10.11667,10
10.12500,10
10.13333,9
10.14167,9
10.15000,9
10.15833,9
10.16667,9
10.17500,9
10.18333,9
10.19167,9
10.20000,9
10.20833,8
10.21667,8
10.22500,9
10.23333,9
10.24167,9
10.25000,9
10.25833,9
10.26667,9
10.27500,9
10.28333,10
10.29167,10
10.30000,10
10.30833,10
10.31667,10
10.32500,10
10.33333,9
10.34167,10
10.35000,10
10.35833,9
10.36667,9
10.37500,10
10.38333,10
10.39167,10
10.40000,10
10.40833,10
10.41667,10
10.42500,10
10.43333,11
10.44167,11
10.45000,11
10.45833,11
10.46667,11
10.47500,11
10.48333,11
10.49167,11
10.50000,11
10.50833,11
10.51667,11
10.52500,11
10.53333,11
10.54167,11
10.55000,12
10.55833,13
10.56667,14
10.57500,15
10.58333,17
10.59167,19
10.60000,22
10.60833,26
10.61667,31
10.62500,37
10.63333,44
10.64167,53
10.65000,64
10.65833,77
10.66667,93
10.67500,111
10.68333,131
10.69167,152
10.70000,175
10.70833,197
10.71667,218
10.72500,237
10.73333,251
10.74167,258
10.75000,256
10.75833,241
10.76667,211
10.77500,162
10.78333,93
10.79167,-1
10.80000,-121
10.80833,-269
10.81667,-446
10.82500,-654
10.83333,-891
10.84167,-1156
10.85000,-1448
10.85833,-1763
10.86667,-2097
10.87500,-2445
10.88333,-2802
10.89167,-3162
10.90000,-3519
10.90833,-3866
10.91667,-4199
10.92500,-4509
10.93333,-4793
10.94167,-5045
10.95000,-5261
10.95833,-5438
10.96667,-5571
10.97500,-5661
10.98333,-5707
10.99167,-5708
11.00000,-5666
11.00833,-5582
11.01667,-5460
11.02500,-5302
11.03333,-5112
11.04167,-4894
11.05000,-4654
11.05833,-4394
11.06667,-4121
11.07500,-3838
11.08333,-3551
11.09167,-3262
11.10000,-2977
11.10833,-2698
11.11667,-2429
11.12500,-2172
11.13333,-1928
11.14167,-1701
11.15000,-1490
11.15833,-1297
11.16667,-1121
11.17500,-963
11.18333,-822
11.19167,-697
11.20000,-588
11.20833,-493
11.21667,-413
11.22500,-344
11.23333,-287
11.24167,-239
11.25000,-200
11.25833,-168
11.26667,-143
11.27500,-123
11.28333,-108
11.29167,-97
11.30000,-88
11.30833,-82
11.31667,-78
11.32500,-75
11.33333,-73
11.34167,-72
11.35000,-71
11.35833,-70
11.36667,-70
11.37500,-69
11.38333,-68
11.39167,-68
11.40000,-67
11.40833,-66
11.41667,-65
11.42500,-64
11.43333,-62
11.44167,-60
11.45000,-59
11.45833,-57
11.46667,-56
11.47500,-54
11.48333,-52
11.49167,-50
11.50000,-48
11.50833,-47
11.51667,-45
11.52500,-43
11.53333,-41
11.54167,-39
11.55000,-37
11.55833,-36
11.56667,-34
11.57500,-32
11.58333,-31
11.59167,-29
11.60000,-28
11.60833,-27
11.61667,-26
11.62500,-25
11.63333,-24
11.64167,-23
11.65000,-22
11.65833,-21
11.66667,-21
11.67500,-20
11.68333,-20
11.69167,-19
11.70000,-18
11.70833,-18
11.71667,-17
11.72500,-17
11.73333,-16
11.74167,-15
11.75000,-15
11.75833,-14
11.76667,-14
11.77500,-13
11.78333,-13
11.79167,-13
11.80000,-13
11.80833,-12
11.81667,-12
11.82500,-11
11.83333,-11
11.84167,-10
11.85000,-10
11.85833,-10
11.86667,-10
11.87500,-9
11.88333,-9
11.89167,-8
11.90000,-7
11.90833,-7
11.91667,-6
11.92500,-6
11.93333,-6
11.94167,-6
11.95000,-6
11.95833,-5
11.96667,-5
11.97500,-4
11.98333,-4
11.99167,-3
12.00000,-3
12.00833,-3
12.01667,-3
12.02500,-2
12.03333,-2
12.04167,-2
12.05000,-2
12.05833,-2
12.06667,-3
12.07500,-3
12.08333,-3
12.09167,-3
12.10000,-3
12.10833,-3
12.11667,-2
12.12500,-2
12.13333,-2
12.14167,-3
12.15000,-3
12.15833,-3
12.16667,-3
12.17500,-2
12.18333,-2
12.19167,-2
12.20000,-2
12.20833,-2
12.21667,-1
12.22500,-1
12.23333,-1
12.24167,-1
12.25000,-1
12.25833,-1
12.26667,-1
12.27500,-1
12.28333,-1
12.29167,-1
12.30000,-1
12.30833,-1
12.31667,-1
12.32500,-0
12.33333,-0
12.34167,0
12.35000,0
12.35833,0
12.36667,1
12.37500,1
12.38333,1
12.39167,1
12.40000,2
12.40833,2
12.41667,2
12.42500,2
12.43333,2
12.44167,2
12.45000,2
12.45833,2
12.46667,2
12.47500,2
12.48333,3
12.49167,3
12.50000,3
12.50833,3
12.51667,3
12.52500,3
12.53333,3
12.54167,3
12.55000,3
12.55833,3
12.56667,4
12.57500,4
12.58333,4
12.59167,4
12.60000,4
12.60833,4
12.61667,4
12.62500,5
12.63333,5
12.64167,5
12.65000,4
12.65833,4
12.66667,4
12.67500,5
12.68333,5
12.69167,5
12.70000,5
12.70833,5
12.71667,5
12.72500,5
12.73333,5
12.74167,5
12.75000,5
12.75833,5
12.76667,5
12.77500,5
12.78333,5
12.79167,6
12.80000,6
12.80833,6
12.81667,6
12.82500,6
12.83333,6
12.84167,6
12.85000,6
12.85833,6
12.86667,6
12.87500,6
12.88333,7
12.89167,7
12.90000,7
12.90833,7
12.91667,7
12.92500,7
12.93333,7
12.94167,7
12.95000,7
12.95833,7
12.96667,6
12.97500,6
12.98333,6
12.99167,6
13.00000,7
13.00833,7
13.01667,7
13.02500,7
13.03333,7
13.04167,7
13.05000,7
13.05833,7
13.06667,8
13.07500,8
13.08333,9
13.09167,9
13.10000,9
13.10833,9
13.11667,9
13.12500,9
13.13333,9
13.14167,9
13.15000,9
13.15833,9
13.16667,9
13.17500,9
13.18333,9
13.19167,9
13.20000,9
13.20833,9
13.21667,9
13.22500,10
13.23333,10
13.24167,10
13.25000,10
13.25833,10
13.26667,10
13.27500,10
13.28333,10
13.29167,10
13.30000,10
13.30833,11
13.31667,11
13.32500,11
13.33333,11
13.34167,11
13.35000,11
13.35833,11
13.36667,11
13.37500,11
13.38333,11
13.39167,11
13.40000,11
13.40833,11
13.41667,11
13.42500,11
13.43333,11
13.44167,11
13.45000,11
13.45833,11
13.46667,11
13.47500,11
13.48333,12
13.49167,12
13.50000,13
13.50833,13
13.51667,12
13.52500,13
13.53333,13
13.54167,13
13.55000,13
13.55833,13
13.56667,13
13.57500,13
13.58333,13
13.59167,13
13.60000,13
13.60833,13
13.61667,13
13.62500,13
13.63333,13
13.64167,13
13.65000,13
13.65833,13
13.66667,13
13.67500,13
13.68333,13
13.69167,13
13.70000,13
13.70833,13
13.71667,14
13.72500,14
13.73333,14
13.74167,13
13.75000,13
13.75833,14
13.76667,14
13.77500,14
13.78333,14
13.79167,14
13.80000,14
13.80833,14
13.81667,14
13.82500,14
13.83333,15
13.84167,15
13.85000,15
13.85833,15
13.86667,15
13.87500,15
13.88333,15
13.89167,15
13.90000,15
13.90833,15
13.91667,15
13.92500,15
13.93333,15
13.94167,16
13.95000,16
13.95833,16
13.96667,16
13.97500,17
13.98333,17
13.99167,17
14.00000,17
14.00833,18
14.01667,18
14.02500,19
14.03333,19
14.04167,20
14.05000,20
14.05833,21
14.06667,21
14.07500,22
14.08333,23
14.09167,23
14.10000,24
14.10833,25
14.11667,26
14.12500,26
14.13333,27
14.14167,29
14.15000,31
14.15833,33
14.16667,37
14.17500,40
14.18333,45
14.19167,50
14.20000,56
14.20833,64
14.21667,73
14.22500,84
14.23333,98
14.24167,114
14.25000,134
14.25833,157
14.26667,186
14.27500,220
14.28333,260
14.29167,309
14.30000,366
14.30833,434
14.31667,513
14.32500,606
14.33333,713
14.34167,837
14.35000,980
14.35833,1142
14.36667,1327
14.37500,1536
14.38333,1771
14.39167,2033
14.40000,2326
14.40833,2649
14.41667,3006
14.42500,3397
14.43333,3823
14.44167,4286
14.45000,4787
14.45833,5326
14.46667,5905
14.47500,6523
14.48333,7180
14.49167,7877
14.50000,8613
14.50833,9388
14.51667,10201
14.52500,11050
14.53333,11935
14.54167,12855
14.55000,13808
14.55833,14793
14.56667,15808
14.57500,16851
14.58333,17920
14.59167,19014
14.60000,20131
14.60833,21268
14.61667,22424
14.62500,23597
14.63333,24785
14.64167,25986
14.65000,27198
14.65833,28420
14.66667,29649
14.67500,30885
14.68333,32125
14.69167,33368
14.70000,34614
14.70833,35859
14.71667,37104
14.72500,38347
14.73333,39587
14.74167,40824
14.75000,42055
14.75833,43281
14.76667,44499
14.77500,45709
14.78333,46910
14.79167,48099
14.80000,49275
14.80833,50436
14.81667,51578
14.82500,52699
14.83333,53793
14.84167,54855
14.85000,55877
14.85833,56850
14.86667,57762
14.87500,58597
14.88333,59340
14.89167,59968
14.90000,60461
14.90833,60794
14.91667,60942
14.92500,60880
14.93333,60587
14.94167,60042
14.95000,59232
14.95833,58150
14.96667,56795
14.97500,55175
14.98333,53307
14.99167,51213
15.00000,48923
15.00833,46472
15.01667,43898
15.02500,41241
15.03333,38540
15.04167,35835
15.05000,33162
15.05833,30550
15.06667,28027
15.07500,25615
15.08333,23330
15.09167,21185
15.10000,19185
15.10833,17335
15.11667,15634
15.12500,14078
15.13333,12663
15.14167,11381
15.15000,10224
15.15833,9183
15.16667,8251
15.17500,7416
15.18333,6670
15.19167,6005
15.20000,5414
15.20833,4888
15.21667,4420
15.22500,4005
15.23333,3636
15.24167,3308
15.25000,3017
15.25833,2759
15.26667,2529
15.27500,2325
15.28333,2145
15.29167,1984
15.30000,1842
15.30833,1716
15.31667,1605
15.32500,1507
15.33333,1421
15.34167,1346
15.35000,1280
15.35833,1224
15.36667,1175
15.37500,1135
15.38333,1101
15.39167,1075
15.40000,1055
15.40833,1040
15.41667,1031
15.42500,1027
15.43333,1027
15.44167,1031
15.45000,1040
15.45833,1052
15.46667,1067
15.47500,1086
15.48333,1107
15.49167,1131
15.50000,1157
15.50833,1184
15.51667,1212
15.52500,1242
15.53333,1272
15.54167,1301
15.55000,1330
15.55833,1358
15.56667,1386
15.57500,1412
15.58333,1437
15.59167,1459
15.60000,1478
15.60833,1496
15.61667,1511
15.62500,1523
15.63333,1532
15.64167,1537
15.65000,1540
15.65833,1539
15.66667,1535
15.67500,1528
15.68333,1517
15.69167,1503
15.70000,1487
15.70833,1467
15.71667,1444
15.72500,1419
15.73333,1392
15.74167,1363
15.75000,1332
15.75833,1300
15.76667,1266
15.77500,1231
15.78333,1196
15.79167,1159
15.80000,1122
15.80833,1084
15.81667,1047
15.82500,1009
15.83333,971
15.84167,933
15.85000,896
15.85833,860
15.86667,824
15.87500,790
15.88333,756
15.89167,723
15.90000,692
15.90833,662
15.91667,633
15.92500,606
15.93333,579
15.94167,554
15.95000,529
15.95833,507
15.96667,485
15.97500,464
15.98333,445
15.99167,426
16.00000,409
16.00833,393
16.01667,378
16.02500,363
16.03333,350
16.04167,338
16.05000,326
16.05833,315
16.06667,305
16.07500,295
16.08333,286
16.09167,278
16.10000,270
16.10833,263
16.11667,257
16.12500,250
16.13333,243
16.14167,237
16.15000,232
16.15833,227
16.16667,222
16.17500,218
16.18333,214
16.19167,210
16.20000,206
16.20833,202
16.21667,199
16.22500,196
16.23333,193
16.24167,191
16.25000,188
16.25833,186
16.26667,184
16.27500,182
16.28333,180
16.29167,177
16.30000,175
16.30833,173
16.31667,171
16.32500,169
16.33333,168
16.34167,166
16.35000,164
16.35833,163
16.36667,161
16.37500,160
16.38333,158
16.39167,157
16.40000,156
16.40833,155
16.41667,154
16.42500,153
16.43333,152
16.44167,150
16.45000,149
16.45833,148
16.46667,146
16.47500,145
16.48333,144
16.49167,143
16.50000,143
16.50833,142
16.51667,141
16.52500,140
16.53333,139
16.54167,139
16.55000,138
16.55833,137
16.56667,135
16.57500,134
16.58333,133
16.59167,132
16.60000,131
16.60833,130
16.61667,130
16.62500,130
16.63333,129
16.64167,128
16.65000,127
16.65833,127
16.66667,126
16.67500,126
16.68333,125
16.69167,125
16.70000,124
16.70833,124
16.71667,123
16.72500,122
16.73333,122
16.74167,121
16.75000,120
16.75833,120
16.76667,119
16.77500,119
16.78333,119
16.79167,118
16.80000,118
16.80833,117
16.81667,116
16.82500,116
16.83333,116
16.84167,115
16.85000,115
16.85833,115
16.86667,114
16.87500,114
16.88333,113
16.89167,113
16.90000,112
16.90833,112
16.91667,111
16.92500,110
16.93333,110
16.94167,109
16.95000,109
16.95833,108
16.96667,108
16.97500,107
16.98333,107
16.99167,106
17.00000,106
17.00833,105
17.01667,105
17.02500,105
17.03333,105
17.04167,105
17.05000,105
17.05833,104
17.06667,104
17.07500,104
17.08333,104
17.09167,103
17.10000,103
17.10833,103
17.11667,102
17.12500,102
17.13333,101
17.14167,100
17.15000,100
17.15833,100
17.16667,99
17.17500,99
17.18333,98
17.19167,98
17.20000,97
17.20833,96
17.21667,96
17.22500,96
17.23333,95
17.24167,95
17.25000,94
17.25833,94
17.26667,93
17.27500,93
17.28333,92
17.29167,92
17.30000,92
17.30833,92
17.31667,92
17.32500,91
17.33333,91
17.34167,91
17.35000,90
17.35833,89
17.36667,89
17.37500,88
17.38333,88
17.39167,87
17.40000,87
17.40833,86
17.41667,86
17.42500,86
17.43333,86
17.44167,85
17.45000,85
17.45833,85
17.46667,84
17.47500,84
17.48333,84
17.49167,84
17.50000,83
17.50833,83
17.51667,83
17.52500,83
17.53333,83
17.54167,82
17.55000,82
17.55833,82
17.56667,81
17.57500,81
17.58333,80
17.59167,80
17.60000,80
17.60833,80
17.61667,80
17.62500,79
17.63333,79
17.64167,79
17.65000,78
17.65833,78
17.66667,77
17.67500,77
17.68333,77
17.69167,77
17.70000,76
17.70833,76
17.71667,76
17.72500,75
17.73333,75
17.74167,75
17.75000,74
17.75833,74
17.76667,74
17.77500,74
17.78333,73
17.79167,73
17.80000,73
17.80833,73
17.81667,73
17.82500,73
17.83333,73
17.84167,72
17.85000,72
17.85833,71
17.86667,71
17.87500,71
17.88333,71
17.89167,70
17.90000,70
17.90833,69
17.91667,69
17.92500,69
17.93333,69
17.94167,68
17.95000,68
17.95833,68
17.96667,68
17.97500,68
17.98333,68
17.99167,68
18.00000,68
18.00833,68
18.01667,68
18.02500,67
18.03333,67
18.04167,67
18.05000,67
18.05833,67
18.06667,67
18.07500,67
18.08333,66
18.09167,66
18.10000,66
18.10833,65
18.11667,65
18.12500,65
18.13333,65
18.14167,65
18.15000,64
18.15833,64
18.16667,64
18.17500,64
18.18333,63
18.19167,63
18.20000,63
18.20833,63
18.21667,62
18.22500,62
18.23333,62
18.24167,62
18.25000,61
18.25833,61
18.26667,61
18.27500,61
18.28333,61
18.29167,61
18.30000,61
18.30833,61
18.31667,61
18.32500,60
18.33333,60
18.34167,60
18.35000,61
18.35833,61
18.36667,61
18.37500,60
18.38333,60
18.39167,60
18.40000,60
18.40833,60
18.41667,60
18.42500,59
18.43333,59
18.44167,59
18.45000,59
18.45833,59
18.46667,59
18.47500,59
18.48333,59
18.49167,59
18.50000,59
18.50833,59
18.51667,58
18.52500,58
18.53333,58
18.54167,58
18.55000,58
18.55833,59
18.56667,59
18.57500,59
18.58333,59
18.59167,59
18.60000,59
18.60833,59
18.61667,59
18.62500,59
18.63333,59
18.64167,59
18.65000,59
18.65833,59
18.66667,59
18.67500,59
18.68333,60
18.69167,60
18.70000,60
18.70833,60
18.71667,60
18.72500,60
18.73333,61
18.74167,61
18.75000,61
18.75833,62
18.76667,62
18.77500,63
18.78333,64
18.79167,65
18.80000,65
18.80833,66
18.81667,67
18.82500,68
18.83333,69
18.84167,70
18.85000,71
18.85833,72
18.86667,74
18.87500,75
18.88333,76
18.89167,77
18.90000,79
18.90833,80
18.91667,81
18.92500,82
18.93333,84
18.94167,85
18.95000,85
18.95833,86
18.96667,87
18.97500,89
18.98333,90
18.99167,90
19.00000,90
19.00833,90
19.01667,90
19.02500,91
19.03333,91
19.04167,90
19.05000,90
19.05833,90
19.06667,90
19.07500,90
19.08333,89
19.09167,88
19.10000,88
19.10833,87
19.11667,86
19.12500,85
19.13333,84
19.14167,83
19.15000,81
19.15833,80
19.16667,79
19.17500,77
19.18333,76
19.19167,75
19.20000,74
19.20833,73
19.21667,71
19.22500,70
19.23333,68
19.24167,67
19.25000,65
19.25833,64
19.26667,62
19.27500,61
19.28333,60
19.29167,60
19.30000,59
19.30833,58
19.31667,57
19.32500,56
19.33333,55
19.34167,54
19.35000,53
19.35833,52
19.36667,52
19.37500,52
19.38333,51
19.39167,51
19.40000,50
19.40833,49
19.41667,49
19.42500,48
19.43333,47
19.44167,47
19.45000,46
19.45833,45
19.46667,45
19.47500,45
19.48333,45
19.49167,45
19.50000,44
19.50833,44
19.51667,44
19.52500,43
19.53333,43
19.54167,43
19.55000,43
19.55833,43
19.56667,43
19.57500,43
19.58333,43
19.59167,42
19.60000,42
19.60833,42
19.61667,42
19.62500,41
19.63333,41
19.64167,41
19.65000,41
19.65833,41
19.66667,41
19.67500,41
19.68333,41
19.69167,41
19.70000,41
19.70833,41
19.71667,41
19.72500,41
19.73333,40
19.74167,40
19.75000,40
19.75833,40
19.76667,40
19.77500,40
19.78333,40
19.79167,40
19.80000,40
19.80833,40
19.81667,40
19.82500,39
19.83333,39
19.84167,39
19.85000,39
19.85833,39
19.86667,39
19.87500,39
19.88333,39
19.89167,40
19.90000,40
19.90833,40
19.91667,40
19.92500,39
19.93333,39
19.94167,39
19.95000,39
19.95833,39
19.96667,39
19.97500,39
19.98333,39
19.99167,39
20.00000,39
20.00833,39
20.01667,39
20.02500,39
20.03333,39
20.04167,39
20.05000,39
20.05833,38
20.06667,38
20.07500,38
20.08333,38
20.09167,39
20.10000,39
20.10833,39
20.11667,39
20.12500,39
20.13333,38
20.14167,38
20.15000,38
20.15833,38
20.16667,38
20.17500,38
20.18333,38
20.19167,38
20.20000,37
20.20833,37
20.21667,37
20.22500,37
20.23333,37
20.24167,37
20.25000,37
20.25833,37
20.26667,37
20.27500,37
20.28333,37
20.29167,37
20.30000,37
20.30833,36
20.31667,36
20.32500,36
20.33333,36
20.34167,36
20.35000,36
20.35833,36
20.36667,35
20.37500,35
20.38333,35
20.39167,35
20.40000,35
20.40833,35
20.41667,35
20.42500,34
20.43333,34
20.44167,34
20.45000,35
20.45833,35
20.46667,35
20.47500,35
20.48333,35
20.49167,35
20.50000,36
20.50833,36
20.51667,36
20.52500,36
20.53333,36
20.54167,35
20.55000,35
20.55833,35
20.56667,35
20.57500,35
20.58333,35
20.59167,35
20.60000,34
20.60833,35
20.61667,35
20.62500,35
20.63333,35
20.64167,35
20.65000,35
20.65833,35
20.66667,35
20.67500,35
20.68333,34
20.69167,34
20.70000,34
20.70833,33
20.71667,33
20.72500,33
20.73333,33
20.74167,33
20.75000,33
20.75833,33
20.76667,33
20.77500,33
20.78333,33
20.79167,33
20.80000,33
20.80833,33
20.81667,33
20.82500,33
20.83333,33
20.84167,33
20.85000,33
20.85833,33
20.86667,33
20.87500,33
20.88333,33
20.89167,33
20.90000,33
20.90833,33
20.91667,33
20.92500,33
20.93333,33
20.94167,34
20.95000,33
20.95833,33
20.96667,33
20.97500,33
20.98333,33
20.99167,33
21.00000,33
21.00833,32
21.01667,32
21.02500,32
21.03333,32
21.04167,32
21.05000,32
21.05833,32
21.06667,32
21.07500,32
21.08333,32
21.09167,32
21.10000,32
21.10833,32
21.11667,31
21.12500,31
21.13333,31
21.14167,31
21.15000,31
21.15833,31
21.16667,31
21.17500,31
21.18333,31
21.19167,31
21.20000,31
21.20833,31
21.21667,31
21.22500,31
21.23333,31
21.24167,31
21.25000,32
21.25833,32
21.26667,32
21.27500,32
21.28333,32
21.29167,32
21.30000,32
21.30833,32
21.31667,32
21.32500,32
21.33333,32
21.34167,32
21.35000,32
21.35833,31
21.36667,31
21.37500,31
21.38333,31
21.39167,31
21.40000,31
21.40833,31
21.41667,31
21.42500,31
21.43333,31
21.44167,31
21.45000,31
21.45833,31
21.46667,31
21.47500,32
21.48333,32
21.49167,32
21.50000,32
21.50833,32
21.51667,32
21.52500,32
21.53333,33
21.54167,33
21.55000,34
21.55833,35
21.56667,35
21.57500,35
21.58333,36
21.59167,37
21.60000,37
21.60833,38
21.61667,39
21.62500,41
21.63333,42
21.64167,43
21.65000,44
21.65833,46
21.66667,48
21.67500,50
21.68333,52
21.69167,54
21.70000,57
21.70833,59
21.71667,63
21.72500,67
21.73333,70
21.74167,74
21.75000,79
21.75833,84
21.76667,89
21.77500,94
21.78333,100
21.79167,106
21.80000,113
21.80833,119
21.81667,126
21.82500,134
21.83333,142
21.84167,150
21.85000,158
21.85833,167
21.86667,176
21.87500,186
21.88333,195
21.89167,205
21.90000,214
21.90833,224
21.91667,233
21.92500,243
21.93333,253
21.94167,262
21.95000,271
21.95833,279
21.96667,288
21.97500,296
21.98333,304
21.99167,312
22.00000,318
22.00833,324
22.01667,330
22.02500,334
22.03333,338
22.04167,342
22.05000,344
22.05833,346
22.06667,348
22.07500,349
22.08333,349
22.09167,348
22.10000,347
22.10833,344
22.11667,341
22.12500,338
22.13333,334
22.14167,329
22.15000,324
22.15833,319
22.16667,312
22.17500,306
22.18333,298
22.19167,291
22.20000,283
22.20833,276
22.21667,268
22.22500,259
22.23333,251
22.24167,242
22.25000,234
22.25833,225
22.26667,216
22.27500,208
22.28333,199
22.29167,191
22.30000,183
22.30833,176
22.31667,168
22.32500,161
22.33333,154
22.34167,146
22.35000,139
22.35833,133
22.36667,126
22.37500,121
22.38333,116
22.39167,110
22.40000,105
22.40833,100
22.41667,95
22.42500,91
22.43333,87
22.44167,83
22.45000,79
22.45833,76
22.46667,73
22.47500,69
22.48333,66
22.49167,64
22.50000,61
22.50833,59
22.51667,57
22.52500,55
22.53333,53
22.54167,52
22.55000,50
22.55833,49
22.56667,48
22.57500,47
22.58333,45
22.59167,44
22.60000,43
22.60833,42
22.61667,41
22.62500,39
22.63333,39
22.64167,38
22.65000,38
22.65833,37
22.66667,37
22.67500,36
22.68333,36
22.69167,36
22.70000,36
22.70833,36
22.71667,35
22.72500,35
22.73333,35
22.74167,34
22.75000,33
22.75833,33
22.76667,33
22.77500,33
22.78333,33
22.79167,33
22.80000,33
22.80833,33
22.81667,33
22.82500,33
22.83333,33
22.84167,33
22.85000,32
22.85833,32
22.86667,32
22.87500,32
22.88333,33
22.89167,33
22.90000,33
22.90833,32
22.91667,32
22.92500,32
22.93333,32
22.94167,32
22.95000,32
22.95833,32
22.96667,32
22.97500,32
22.98333,32
22.99167,32
23.00000,32
23.00833,32
23.01667,32
23.02500,32
23.03333,32
23.04167,32
23.05000,32
23.05833,31
23.06667,32
23.07500,32
23.08333,31
23.09167,31
23.10000,31
23.10833,31
23.11667,32
23.12500,32
23.13333,32
23.14167,32
23.15000,32
23.15833,32
23.16667,31
23.17500,31
23.18333,31
23.19167,31
23.20000,31
23.20833,32
23.21667,32
23.22500,32
23.23333,31
23.24167,31
23.25000,31
23.25833,31
23.26667,31
23.27500,30
23.28333,31
23.29167,31
23.30000,31
23.30833,31
23.31667,31
23.32500,31
23.33333,31
23.34167,31
23.35000,31
23.35833,31
23.36667,31
23.37500,31
23.38333,30
23.39167,30
23.40000,30
23.40833,30
23.41667,30
23.42500,30
23.43333,31
23.44167,31
23.45000,31
23.45833,31
23.46667,31
23.47500,31
23.48333,31
23.49167,31
23.50000,30
23.50833,30
23.51667,30
23.52500,30
23.53333,30
23.54167,30
23.55000,30
23.55833,30
23.56667,30
23.57500,30
23.58333,30
23.59167,30
23.60000,30
23.60833,30
23.61667,30
23.62500,30
23.63333,30
23.64167,30
23.65000,30
23.65833,30
23.66667,30
23.67500,30
23.68333,29
23.69167,29
23.70000,29
23.70833,29
23.71667,29
23.72500,29
23.73333,30
23.74167,30
23.75000,30
23.75833,30
23.76667,30
23.77500,30
23.78333,30
23.79167,30
23.80000,30
23.80833,30
23.81667,30
23.82500,30
23.83333,30
23.84167,30
23.85000,31
23.85833,31
23.86667,31
23.87500,31
23.88333,31
23.89167,31
23.90000,31
23.90833,31
23.91667,31
23.92500,31
23.93333,31
23.94167,31
23.95000,31
23.95833,30
23.96667,30
23.97500,30
23.98333,30
23.99167,30
24.00000,30
24.00833,30
24.01667,31
24.02500,31
24.03333,31
24.04167,31
24.05000,31
24.05833,31
24.06667,31
24.07500,31
24.08333,31
24.09167,31
24.10000,30
24.10833,30
24.11667,31
24.12500,31
24.13333,31
24.14167,31
24.15000,31
24.15833,31
24.16667,31
24.17500,31
24.18333,32
24.19167,32
24.20000,32
24.20833,31
24.21667,31
24.22500,31
24.23333,31
24.24167,31
24.25000,31
24.25833,31
24.26667,31
24.27500,31
24.28333,31
24.29167,31
24.30000,31
24.30833,31
24.31667,31
24.32500,32
24.33333,32
24.34167,32
24.35000,32
24.35833,32
24.36667,33
24.37500,33
24.38333,33
24.39167,33
24.40000,34
24.40833,34
24.41667,34
24.42500,34
24.43333,34
24.44167,33
24.45000,33
24.45833,33
24.46667,33
24.47500,33
24.48333,33
24.49167,33
24.50000,33
24.50833,34
24.51667,34
24.52500,34
24.53333,35
24.54167,35
24.55000,36
24.55833,37
24.56667,37
24.57500,37
24.58333,37
24.59167,37
24.60000,37
24.60833,38
24.61667,38
24.62500,39
24.63333,40
24.64167,41
24.65000,42
24.65833,43
24.66667,44
24.67500,45
24.68333,46
24.69167,48
24.70000,49
24.70833,50
24.71667,51
24.72500,52
24.73333,54
24.74167,56
24.75000,58
24.75833,60
24.76667,63
24.77500,65
24.78333,67
24.79167,70
24.80000,73
24.80833,75
24.81667,77
24.82500,80
24.83333,83
24.84167,85
24.85000,88
24.85833,92
24.86667,95
24.87500,99
24.88333,102
24.89167,105
24.90000,108
24.90833,112
24.91667,115
24.92500,119
24.93333,122
24.94167,125
24.95000,128
24.95833,131
24.96667,134
24.97500,137
24.98333,139
24.99167,142
25.00000,144
25.00833,146
25.01667,148
25.02500,150
25.03333,152
25.04167,153
25.05000,154
25.05833,155
25.06667,155
25.07500,156
25.08333,155
25.09167,155
25.10000,155
25.10833,154
25.11667,154
25.12500,153
25.13333,152
25.14167,150
25.15000,149
25.15833,147
25.16667,145
25.17500,143
25.18333,141
25.19167,139
25.20000,136
25.20833,133
25.21667,130
25.22500,127
25.23333,124
25.24167,121
25.25000,118
25.25833,115
25.26667,112
25.27500,108
25.28333,105
25.29167,102
25.30000,99
25.30833,97
25.31667,94
25.32500,91
25.33333,87
25.34167,85
25.35000,82
25.35833,80
25.36667,77
25.37500,75
25.38333,72
25.39167,70
25.40000,68
25.40833,66
25.41667,64
25.42500,61
25.43333,59
25.44167,58
25.45000,56
25.45833,55
25.46667,53
25.47500,52
25.48333,51
25.49167,50
25.50000,48
25.50833,47
25.51667,46
25.52500,45
25.53333,44
25.54167,43
25.55000,43
25.55833,42
25.56667,41
25.57500,41
25.58333,40
25.59167,39
25.60000,39
25.60833,38
25.61667,38
25.62500,38
25.63333,37
25.64167,37
25.65000,37
25.65833,37
25.66667,37
25.67500,37
25.68333,37
25.69167,37
25.70000,36
25.70833,36
25.71667,35
25.72500,35
25.73333,35
25.74167,35
25.75000,35
25.75833,35
25.76667,35
25.77500,35
25.78333,35
25.79167,36
25.80000,36
25.80833,35
25.81667,35
25.82500,34
25.83333,34
25.84167,34
25.85000,34
25.85833,35
25.86667,35
25.87500,35
25.88333,35
25.89167,35
25.90000,34
25.90833,34
25.91667,35
25.92500,35
25.93333,35
25.94167,35
25.95000,35
25.95833,35
25.96667,35
25.97500,35
25.98333,35
25.99167,35
26.00000,35
26.00833,35
26.01667,35
26.02500,35
26.03333,35
26.04167,35
26.05000,35
26.05833,35
26.06667,35
26.07500,35
26.08333,35
26.09167,35
26.10000,34
26.10833,34
26.11667,34
26.12500,34
26.13333,35
26.14167,35
26.15000,35
26.15833,34
26.16667,34
26.17500,35
26.18333,35
26.19167,35
26.20000,35
26.20833,35
26.21667,35
26.22500,35
26.23333,35
26.24167,35
26.25000,35
26.25833,35
26.26667,35
26.27500,36
26.28333,36
26.29167,36
26.30000,36
26.30833,36
26.31667,36
26.32500,36
26.33333,36
26.34167,36
26.35000,36
26.35833,36
26.36667,36
26.37500,36
26.38333,37
26.39167,37
26.40000,37
26.40833,37
26.41667,37
26.42500,36
26.43333,36
26.44167,36
26.45000,36
26.45833,36
26.46667,36
26.47500,37
26.48333,37
26.49167,37
26.50000,37
26.50833,37
26.51667,37
26.52500,37
26.53333,37
26.54167,37
26.55000,37
26.55833,37
26.56667,37
26.57500,37
26.58333,37
26.59167,37
26.60000,38
26.60833,38
26.61667,38
26.62500,37
26.63333,37
26.64167,37
26.65000,37
26.65833,37
26.66667,37
26.67500,37
26.68333,38
26.69167,37
26.70000,37
26.70833,37
26.71667,37
26.72500,37
26.73333,37
26.74167,37
26.75000,37
26.75833,37
26.76667,37
26.77500,37
26.78333,37
26.79167,37
26.80000,37
26.80833,37
26.81667,37
26.82500,37
26.83333,37
26.84167,38
26.85000,37
26.85833,38
26.86667,38
26.87500,38
26.88333,38
26.89167,38
26.90000,38
26.90833,38
26.91667,38
26.92500,38
26.93333,38
26.94167,38
26.95000,38
26.95833,38
26.96667,39
26.97500,39
26.98333,39
26.99167,39
27.00000,39
27.00833,39
27.01667,39
27.02500,39
27.03333,39
27.04167,38
27.05000,38
27.05833,38
27.06667,38
27.07500,38
27.08333,38
27.09167,38
27.10000,38
27.10833,38
27.11667,38
27.12500,38
27.13333,38
27.14167,38
27.15000,38
27.15833,38
27.16667,39
27.17500,39
27.18333,39
27.19167,39
27.20000,39
27.20833,39
27.21667,39
27.22500,39
27.23333,38
27.24167,38
27.25000,38
27.25833,38
27.26667,39
27.27500,39
27.28333,38
27.29167,38
27.30000,39
27.30833,39
27.31667,39
27.32500,39
27.33333,39
27.34167,39
27.35000,39
27.35833,39
27.36667,39
27.37500,39
27.38333,39
27.39167,39
27.40000,39
27.40833,39
27.41667,40
27.42500,40
27.43333,40
27.44167,40
27.45000,40
27.45833,41
27.46667,40
27.47500,40
27.48333,40
27.49167,39
27.50000,39
27.50833,39
27.51667,39
27.52500,39
27.53333,39
27.54167,39
27.55000,39
27.55833,39
27.56667,39
27.57500,39
27.58333,39
27.59167,39
27.60000,39
27.60833,39
27.61667,39
27.62500,39
27.63333,39
27.64167,39
27.65000,39
27.65833,39
27.66667,39
27.67500,39
27.68333,39
27.69167,38
27.70000,38
27.70833,38
27.71667,38
27.72500,38
27.73333,38
27.74167,38
27.75000,38
27.75833,37
27.76667,37
27.77500,36
27.78333,36
27.79167,36
27.80000,37
27.80833,37
27.81667,36
27.82500,35
27.83333,35
27.84167,34
27.85000,33
27.85833,32
27.86667,32
27.87500,31
27.88333,30
27.89167,29
27.90000,28
27.90833,27
27.91667,27
27.92500,26
27.93333,25
27.94167,24
27.95000,23
27.95833,22
27.96667,20
27.97500,18
27.98333,17
27.99167,15
28.00000,13
28.00833,11
28.01667,9
28.02500,8
28.03333,6
28.04167,4
28.05000,1
28.05833,-1
28.06667,-4
28.07500,-6
28.08333,-8
28.09167,-11
28.10000,-14
28.10833,-16
28.11667,-19
28.12500,-22
28.13333,-25
28.14167,-28
28.15000,-31
28.15833,-34
28.16667,-38
28.17500,-41
28.18333,-45
28.19167,-48
28.20000,-51
28.20833,-54
28.21667,-58
28.22500,-61
28.23333,-64
28.24167,-67
28.25000,-70
28.25833,-74
28.26667,-77
28.27500,-80
28.28333,-83
28.29167,-86
28.30000,-88
28.30833,-91
28.31667,-93
28.32500,-96
28.33333,-98
28.34167,-100
28.35000,-102
28.35833,-104
28.36667,-106
28.37500,-108
28.38333,-109
28.39167,-110
28.40000,-111
28.40833,-112
28.41667,-113
28.42500,-113
28.43333,-114
28.44167,-114
28.45000,-114
28.45833,-114
28.46667,-113
28.47500,-113
28.48333,-112
28.49167,-111
28.50000,-110
28.50833,-109
28.51667,-108
28.52500,-106
28.53333,-105
28.54167,-103
28.55000,-101
28.55833,-99
28.56667,-97
28.57500,-95
28.58333,-94
28.59167,-91
28.60000,-88
28.60833,-86
28.61667,-83
28.62500,-80
28.63333,-77
28.64167,-74
28.65000,-71
28.65833,-68
28.66667,-66
28.67500,-63
28.68333,-60
28.69167,-57
28.70000,-55
28.70833,-52
28.71667,-49
28.72500,-47
28.73333,-44
28.74167,-41
28.75000,-39
28.75833,-36
28.76667,-33
28.77500,-30
28.78333,-27
28.79167,-25
28.80000,-23
28.80833,-20
28.81667,-18
28.82500,-16
28.83333,-13
28.84167,-11
28.85000,-9
28.85833,-7
28.86667,-5
28.87500,-3
28.88333,-2
28.89167,-0
28.90000,1
28.90833,3
28.91667,4
28.92500,5
28.93333,7
28.94167,8
28.95000,9
28.95833,10
28.96667,12
28.97500,13
28.98333,14
28.99167,15
29.00000,16
29.00833,17
29.01667,18
29.02500,19
29.03333,20
29.04167,20
29.05000,21
29.05833,22
29.06667,22
29.07500,23
29.08333,24
29.09167,24
29.10000,25
29.10833,25
29.11667,26
29.12500,27
29.13333,28
29.14167,28
29.15000,28
29.15833,29
29.16667,29
29.17500,30
29.18333,30
29.19167,31
29.20000,31
29.20833,31
29.21667,31
29.22500,31
29.23333,32
29.24167,32
29.25000,33
29.25833,33
29.26667,34
29.27500,34
29.28333,33
29.29167,33
29.30000,33
29.30833,33
29.31667,33
29.32500,33
29.33333,33
29.34167,33
29.35000,33
29.35833,33
29.36667,33
29.37500,33
29.38333,33
29.39167,33
29.40000,33
29.40833,34
29.41667,34
29.42500,34
29.43333,34
29.44167,34
29.45000,34
29.45833,34
29.46667,34
29.47500,34
29.48333,34
29.49167,34
29.50000,34
29.50833,35
29.51667,34
29.52500,34
29.53333,34
29.54167,33
29.55000,33
29.55833,33
29.56667,33
29.57500,32
29.58333,32
29.59167,32
29.60000,31
29.60833,31
29.61667,31
29.62500,31
29.63333,31
29.64167,30
29.65000,30
29.65833,30
29.66667,29
29.67500,29
29.68333,29
29.69167,29
29.70000,28
29.70833,27
29.71667,26
29.72500,25
29.73333,24
29.74167,24
29.75000,23
29.75833,23
29.76667,22
29.77500,21
29.78333,20
29.79167,19
29.80000,18
29.80833,17
29.81667,16
29.82500,15
29.83333,14
29.84167,14
29.85000,13
29.85833,12
29.86667,11
29.87500,10
29.88333,9
29.89167,8
29.90000,6
29.90833,5
29.91667,4
29.92500,3
29.93333,3
29.94167,1
29.95000,0
29.95833,-1
29.96667,-2
29.97500,-3
29.98333,-4
29.99167,-5
30.00000,-6
30.00833,-7
30.01667,-8
30.02500,-9
30.03333,-10
30.04167,-10
30.05000,-11
30.05833,-12
30.06667,-13
30.07500,-14
30.08333,-15
30.09167,-16
30.10000,-16
30.10833,-17
30.11667,-18
30.12500,-18
30.13333,-18
30.14167,-18
30.15000,-18
30.15833,-18
30.16667,-18
30.17500,-18
30.18333,-18
30.19167,-18
30.20000,-18
30.20833,-18
30.21667,-18
30.22500,-18
30.23333,-18
30.24167,-18
30.25000,-17
30.25833,-17
30.26667,-16
30.27500,-15
30.28333,-14
30.29167,-14
30.30000,-13
30.30833,-13
30.31667,-13
30.32500,-12
30.33333,-12
30.34167,-11
30.35000,-10
30.35833,-9
30.36667,-9
30.37500,-8
30.38333,-7
30.39167,-6
30.40000,-5
30.40833,-4
30.41667,-3
30.42500,-2
30.43333,-0
30.44167,1
30.45000,2
30.45833,3
30.46667,4
30.47500,5
30.48333,6
30.49167,7
30.50000,8
30.50833,9
30.51667,10
30.52500,11
30.53333,12
30.54167,13
30.55000,13
30.55833,14
30.56667,15
30.57500,16
30.58333,17
30.59167,18
30.60000,19
30.60833,20
30.61667,21
30.62500,21
30.63333,22
30.64167,22
30.65000,23
30.65833,24
30.66667,25
30.67500,25
30.68333,26
30.69167,27
30.70000,28
30.70833,28
30.71667,29
30.72500,29
30.73333,29
30.74167,30
30.75000,30
30.75833,30
30.76667,31
30.77500,31
30.78333,31
30.79167,32
30.80000,32
30.80833,33
30.81667,33
30.82500,33
30.83333,33
30.84167,33
30.85000,33
30.85833,33
30.86667,33
30.87500,34
30.88333,34
30.89167,35
30.90000,35
30.90833,35
30.91667,35
30.92500,36
30.93333,36
30.94167,36
30.95000,36
30.95833,36
30.96667,37
30.97500,37
30.98333,37
30.99167,37
31.00000,37
31.00833,37
31.01667,37
31.02500,37
31.03333,37
31.04167,37
31.05000,37
31.05833,37
31.06667,38
31.07500,38
31.08333,39
31.09167,39
31.10000,39
31.10833,39
31.11667,39
31.12500,39
31.13333,39
31.14167,39
31.15000,39
31.15833,39
31.16667,39
31.17500,39
31.18333,39
31.19167,39
31.20000,39
31.20833,39
31.21667,39
31.22500,39
31.23333,39
31.24167,39
31.25000,39
31.25833,40
31.26667,40
31.27500,40
31.28333,40
31.29167,40
31.30000,41
31.30833,41
31.31667,40
31.32500,40
31.33333,40
31.34167,40
31.35000,41
31.35833,41
31.36667,41
31.37500,41
31.38333,41
31.39167,41
31.40000,41
31.40833,41
31.41667,41
31.42500,41
31.43333,42
31.44167,42
31.45000,42
31.45833,42
31.46667,42
31.47500,42
31.48333,42
31.49167,42
31.50000,42
31.50833,42
31.51667,42
31.52500,42
31.53333,42
31.54167,42
31.55000,42
31.55833,42
31.56667,42
31.57500,42
31.58333,43
31.59167,43
31.60000,43
31.60833,43
31.61667,43
31.62500,43
31.63333,43
31.64167,44
31.65000,43
31.65833,43
31.66667,43
31.67500,43
31.68333,43
31.69167,43
31.70000,43
31.70833,43
31.71667,43
31.72500,44
31.73333,44
31.74167,44
31.75000,44
31.75833,44
31.76667,44
31.77500,44
31.78333,45
31.79167,45
31.80000,46
31.80833,46
31.81667,45
31.82500,45
31.83333,45
31.84167,45
31.85000,45
31.85833,45
31.86667,45
31.87500,45
31.88333,45
31.89167,45
31.90000,45
31.90833,44
31.91667,44
31.92500,45
31.93333,45
31.94167,46
31.95000,46
31.95833,46
31.96667,45
31.97500,45
31.98333,45
31.99167,45
32.00000,45
32.00833,45
32.01667,45
32.02500,45
32.03333,46
32.04167,46
32.05000,46
32.05833,46
32.06667,46
32.07500,46
32.08333,46
32.09167,46
32.10000,46
32.10833,46
32.11667,46
32.12500,46
32.13333,47
32.14167,47
32.15000,47
32.15833,47
32.16667,47
32.17500,47
32.18333,47
32.19167,47
32.20000,47
32.20833,47
32.21667,47
32.22500,47
32.23333,47
32.24167,47
32.25000,47
32.25833,46
32.26667,46
32.27500,47
32.28333,47
32.29167,47
32.30000,47
32.30833,46
32.31667,46
32.32500,46
32.33333,46
32.34167,46
32.35000,46
32.35833,46
32.36667,46
32.37500,46
32.38333,46
32.39167,46
32.40000,46
32.40833,46
32.41667,46
32.42500,46
32.43333,46
32.44167,46
32.45000,46
32.45833,46
32.46667,47
32.47500,47
32.48333,47
32.49167,46
32.50000,46
32.50833,46
32.51667,46
32.52500,46
32.53333,46
32.54167,47
32.55000,47
32.55833,47
32.56667,47
32.57500,47
32.58333,47
32.59167,48
32.60000,47
32.60833,47
32.61667,48
32.62500,48
32.63333,48
32.64167,48
32.65000,48
32.65833,48
32.66667,48
32.67500,48
32.68333,48
32.69167,47
32.70000,48
32.70833,48
32.71667,48
32.72500,48
32.73333,48
32.74167,48
32.75000,48
32.75833,48
32.76667,48
32.77500,48
32.78333,48
32.79167,48
32.80000,48
32.80833,48
32.81667,48
32.82500,48
32.83333,49
32.84167,49
32.85000,49
32.85833,49
32.86667,49
32.87500,49
32.88333,49
32.89167,49
32.90000,48
32.90833,48
32.91667,48
32.92500,48
32.93333,48
32.94167,48
32.95000,48
32.95833,48
32.96667,48
32.97500,48
32.98333,48
32.99167,49
33.00000,49
33.00833,49
33.01667,49
33.02500,49
33.03333,49
33.04167,49
33.05000,48
33.05833,48
33.06667,48
33.07500,48
33.08333,48
33.09167,48
33.10000,48
33.10833,48
33.11667,49
33.12500,49
33.13333,49
33.14167,49
33.15000,50
33.15833,50
33.16667,50
33.17500,49
33.18333,49
33.19167,49
33.20000,49
33.20833,49
33.21667,48
33.22500,48
33.23333,48
33.24167,48
33.25000,48
33.25833,48
33.26667,48
33.27500,48
33.28333,48
33.29167,48
33.30000,48
33.30833,48
33.31667,48
33.32500,49
33.33333,49
33.34167,49
33.35000,48
33.35833,49
33.36667,49
33.37500,49
33.38333,49
33.39167,49
33.40000,49
33.40833,49
33.41667,49
33.42500,49
33.43333,49
33.44167,49
33.45000,49
33.45833,49
33.46667,49
33.47500,49
33.48333,48
33.49167,48
33.50000,48
33.50833,48
33.51667,48
33.52500,49
33.53333,49
33.54167,49
33.55000,50
33.55833,50
33.56667,50
33.57500,49
33.58333,49
33.59167,49
33.60000,49
33.60833,49
33.61667,49
33.62500,49
33.63333,49
33.64167,49
33.65000,49
33.65833,49
33.66667,49
33.67500,49
33.68333,49
33.69167,49
33.70000,49
33.70833,49
33.71667,49
33.72500,49
33.73333,50
33.74167,50
33.75000,50
33.75833,50
33.76667,50
33.77500,50
33.78333,50
33.79167,50
33.80000,50
33.80833,50
33.81667,50
33.82500,49
33.83333,49
33.84167,50
33.85000,50
33.85833,50
33.86667,50
33.87500,50
33.88333,50
33.89167,50
33.90000,50
33.90833,50
33.91667,50
33.92500,50
33.93333,50
33.94167,50
33.95000,50
33.95833,49
33.96667,49
33.97500,49
33.98333,50
33.99167,50
34.00000,50
34.00833,50
34.01667,50
34.02500,50
34.03333,50
34.04167,50
34.05000,50
34.05833,50
34.06667,50
34.07500,50
34.08333,50
34.09167,50
34.10000,50
34.10833,50
34.11667,50
34.12500,50
34.13333,50
34.14167,49
34.15000,49
34.15833,49
34.16667,49
34.17500,49
34.18333,49
34.19167,50
34.20000,50
34.20833,49
34.21667,49
34.22500,49
34.23333,49
34.24167,49
34.25000,50
34.25833,50
34.26667,50
34.27500,50
34.28333,50
34.29167,50
34.30000,50
34.30833,49
34.31667,49
34.32500,49
34.33333,49
34.34167,49
34.35000,49
34.35833,49
34.36667,49
34.37500,49
34.38333,49
34.39167,49
34.40000,49
34.40833,49
34.41667,49
34.42500,49
34.43333,49
34.44167,49
34.45000,49
34.45833,50
34.46667,50
34.47500,50
34.48333,49
34.49167,49
34.50000,50
34.50833,50
34.51667,50
34.52500,50
34.53333,50
34.54167,50
34.55000,50
34.55833,50
34.56667,50
34.57500,50
34.58333,50
34.59167,50
34.60000,50
34.60833,50
34.61667,50
34.62500,50
34.63333,50
34.64167,50
34.65000,49
34.65833,50
34.66667,49
34.67500,49
34.68333,49
34.69167,50
34.70000,50
34.70833,50
34.71667,50
34.72500,50
34.73333,50
34.74167,50
34.75000,50
34.75833,50
34.76667,50
34.77500,50
34.78333,50
34.79167,50
34.80000,50
34.80833,50
34.81667,50
34.82500,50
34.83333,50
34.84167,50
34.85000,50
34.85833,50
34.86667,50
34.87500,50
34.88333,49
34.89167,49
34.90000,50
34.90833,50
34.91667,50
34.92500,49
34.93333,50
34.94167,50
34.95000,50
34.95833,51
34.96667,50
34.97500,50
34.98333,50
34.99167,50
35.00000,50
35.00833,50
35.01667,49
35.02500,49
35.03333,49
35.04167,50
35.05000,50
35.05833,50
35.06667,50
35.07500,50
35.08333,50
35.09167,50
35.10000,50
35.10833,50
35.11667,50
35.12500,49
35.13333,49
35.14167,49
35.15000,49
35.15833,50
35.16667,50
35.17500,50
35.18333,50
35.19167,50
35.20000,50
35.20833,51
35.21667,51
35.22500,51
35.23333,50
35.24167,50
35.25000,50
35.25833,50
35.26667,50
35.27500,50
35.28333,50
35.29167,50
35.30000,50
35.30833,50
35.31667,50
35.32500,51
35.33333,51
35.34167,51
35.35000,51
35.35833,51
35.36667,51
35.37500,50
35.38333,50
35.39167,50
35.40000,50
35.40833,49
35.41667,49
35.42500,49
35.43333,50
35.44167,50
35.45000,50
35.45833,51
35.46667,51
35.47500,51
35.48333,51
35.49167,51
35.50000,52
35.50833,52
35.51667,51
35.52500,51
35.53333,51
35.54167,51
35.55000,51
35.55833,51
35.56667,51
35.57500,51
35.58333,51
35.59167,51
35.60000,51
35.60833,51
35.61667,51
35.62500,51
35.63333,51
35.64167,52
35.65000,52
35.65833,52
35.66667,51
35.67500,51
35.68333,51
35.69167,52
35.70000,52
35.70833,51
35.71667,52
35.72500,52
35.73333,52
35.74167,52
35.75000,52
35.75833,52
35.76667,52
35.77500,52
35.78333,52
35.79167,51
35.80000,51
35.80833,51
35.81667,51
35.82500,51
35.83333,52
35.84167,52
35.85000,52
35.85833,52
35.86667,52
35.87500,52
35.88333,52
35.89167,52
35.90000,52
35.90833,52
35.91667,52
35.92500,51
35.93333,51
35.94167,51
35.95000,51
35.95833,52
35.96667,52
35.97500,52
35.98333,51
35.99167,51
36.00000,51
36.00833,50
36.01667,50
36.02500,50
36.03333,50
36.04167,50
36.05000,50
36.05833,50
36.06667,50
36.07500,50
36.08333,50
36.09167,50
36.10000,50
36.10833,50
36.11667,50
36.12500,50
36.13333,51
36.14167,51
36.15000,51
36.15833,51
36.16667,51
36.17500,51
36.18333,50
36.19167,50
36.20000,50
36.20833,50
36.21667,50
36.22500,50
36.23333,50
36.24167,50
36.25000,50
36.25833,50
36.26667,50
36.27500,50
36.28333,50
36.29167,51
36.30000,51
36.30833,51
36.31667,51
36.32500,51
36.33333,51
36.34167,51
36.35000,51
36.35833,51
36.36667,51
36.37500,51
36.38333,50
36.39167,50
36.40000,50
36.40833,50
36.41667,50
36.42500,51
36.43333,51
36.44167,51
36.45000,51
36.45833,51
36.46667,51
36.47500,51
36.48333,51
36.49167,51
36.50000,52
36.50833,52
36.51667,52
36.52500,52
36.53333,52
36.54167,52
36.55000,52
36.55833,52
36.56667,52
36.57500,52
36.58333,52
36.59167,52
36.60000,52
36.60833,52
36.61667,52
36.62500,52
36.63333,52
36.64167,52
36.65000,52
36.65833,52
36.66667,52
36.67500,52
36.68333,52
36.69167,52
36.70000,52
36.70833,53
36.71667,53
36.72500,52
36.73333,53
36.74167,53
36.75000,53
36.75833,53
36.76667,53
36.77500,53
36.78333,53
36.79167,53
36.80000,53
36.80833,52
36.81667,52
36.82500,53
36.83333,53
36.84167,53
36.85000,54
36.85833,54
36.86667,54
36.87500,54
36.88333,54
36.89167,54
36.90000,54
36.90833,54
36.91667,54
36.92500,54
36.93333,53
36.94167,53
36.95000,54
36.95833,54
36.96667,54
36.97500,54
36.98333,54
36.99167,54
37.00000,55
37.00833,55
37.01667,55
37.02500,55
37.03333,55
37.04167,55
37.05000,54
37.05833,54
37.06667,54
37.07500,55
37.08333,55
37.09167,55
37.10000,55
37.10833,55
37.11667,55
37.12500,55
37.13333,55
37.14167,55
37.15000,55
37.15833,55
37.16667,55
37.17500,55
37.18333,54
37.19167,54
37.20000,54
37.20833,54
37.21667,54
37.22500,54
37.23333,54
37.24167,54
37.25000,54
37.25833,54
37.26667,54
37.27500,55
37.28333,55
37.29167,55
37.30000,55
37.30833,55
37.31667,55
37.32500,55
37.33333,55
37.34167,54
37.35000,54
37.35833,54
37.36667,54
37.37500,54
37.38333,54
37.39167,54
37.40000,54
37.40833,54
37.41667,54
37.42500,54
37.43333,55
37.44167,55
37.45000,55
37.45833,55
37.46667,55
37.47500,55
37.48333,55
37.49167,55
37.50000,55
37.50833,55
37.51667,55
37.52500,55
37.53333,55
37.54167,55
37.55000,54
37.55833,54
37.56667,54
37.57500,55
37.58333,55
37.59167,55
37.60000,55
37.60833,55
37.61667,55
37.62500,55
37.63333,55
37.64167,55
37.65000,55
37.65833,55
37.66667,55
37.67500,55
37.68333,55
37.69167,55
37.70000,55
37.70833,55
37.71667,55
37.72500,55
37.73333,55
37.74167,55
37.75000,55
37.75833,55
37.76667,56
37.77500,56
37.78333,56
37.79167,56
37.80000,56
37.80833,55
37.81667,55
37.82500,55
37.83333,55
37.84167,55
37.85000,54
37.85833,54
37.86667,54
37.87500,54
37.88333,55
37.89167,55
37.90000,55
37.90833,55
37.91667,56
37.92500,56
37.93333,56
37.94167,56
37.95000,56
37.95833,56
37.96667,56
37.97500,56
37.98333,56
37.99167,55
38.00000,55
38.00833,55
38.01667,55
38.02500,54
38.03333,54
38.04167,54
38.05000,54
38.05833,54
38.06667,55
38.07500,55
38.08333,55
38.09167,55
38.10000,55
38.10833,55
38.11667,56
38.12500,56
38.13333,56
38.14167,56
38.15000,56
38.15833,55
38.16667,55
38.17500,55
38.18333,55
38.19167,55
38.20000,55
38.20833,55
38.21667,55
38.22500,55
38.23333,55
38.24167,55
38.25000,55
38.25833,55
38.26667,55
38.27500,56
38.28333,56
38.29167,56
38.30000,56
38.30833,56
38.31667,56
38.32500,56
38.33333,56
38.34167,57
38.35000,57
38.35833,57
38.36667,58
38.37500,58
38.38333,58
38.39167,58
38.40000,59
38.40833,59
38.41667,58
38.42500,58
38.43333,58
38.44167,57
38.45000,57
38.45833,57
38.46667,57
38.47500,56
38.48333,56
38.49167,56
38.50000,56
38.50833,56
38.51667,57
38.52500,57
38.53333,56
38.54167,56
38.55000,56
38.55833,56
38.56667,56
38.57500,56
38.58333,56
38.59167,56
38.60000,56
38.60833,57
38.61667,57
38.62500,58
38.63333,58
38.64167,58
38.65000,58
38.65833,58
38.66667,58
38.67500,57
38.68333,57
38.69167,56
38.70000,56
38.70833,57
38.71667,57
38.72500,57
38.73333,57
38.74167,57
38.75000,58
38.75833,58
38.76667,58
38.77500,58
38.78333,58
38.79167,58
38.80000,58
38.80833,58
38.81667,58
38.82500,58
38.83333,57
38.84167,57
38.85000,57
38.85833,57
38.86667,58
38.87500,58
38.88333,58
38.89167,58
38.90000,58
38.90833,58
38.91667,58
38.92500,58
38.93333,58
38.94167,58
38.95000,59
38.95833,59
38.96667,59
38.97500,59
38.98333,58
38.99167,58
39.00000,58
39.00833,58
39.01667,58
39.02500,58
39.03333,58
39.04167,58
39.05000,58
39.05833,58
39.06667,58
39.07500,58
39.08333,59
39.09167,59
39.10000,59
39.10833,59
39.11667,59
39.12500,58
39.13333,58
39.14167,58
39.15000,58
39.15833,58
39.16667,58
39.17500,58
39.18333,59
39.19167,59
39.20000,59
39.20833,59
39.21667,59
39.22500,59
39.23333,59
39.24167,59
39.25000,59
39.25833,58
39.26667,58
39.27500,59
39.28333,59
39.29167,59
39.30000,59
39.30833,59
39.31667,59
39.32500,59
39.33333,59
39.34167,59
39.35000,59
39.35833,59
39.36667,59
39.37500,59
39.38333,58
39.39167,58
39.40000,58
39.40833,59
39.41667,59
39.42500,59
39.43333,59
39.44167,59
39.45000,59
39.45833,59
39.46667,59
39.47500,58
39.48333,58
39.49167,58
39.50000,58
39.50833,58
39.51667,59
39.52500,59
39.53333,60
39.54167,60
39.55000,60
39.55833,60
39.56667,60
39.57500,60
39.58333,60
39.59167,60
39.60000,60
39.60833,60
39.61667,60
39.62500,60
39.63333,60
39.64167,60
39.65000,60
39.65833,60
39.66667,60
39.67500,60
39.68333,60
39.69167,59
39.70000,59
39.70833,59
39.71667,59
39.72500,59
39.73333,59
39.74167,59
39.75000,59
39.75833,59
39.76667,59
39.77500,59
39.78333,59
39.79167,59
39.80000,59
39.80833,59
39.81667,59
39.82500,59
39.83333,59
39.84167,60
39.85000,60
39.85833,60
39.86667,60
39.87500,61
39.88333,61
39.89167,61
39.90000,61
39.90833,61
39.91667,61
39.92500,61
39.93333,61
39.94167,61
39.95000,60
39.95833,60
39.96667,60
39.97500,60
39.98333,60
39.99167,60
40.00000,61

