[Header]
Application Name,LabSolutions
Version,5.97 SP1
Data File Name,C:\Users\cremerlab\Desktop\griffin\2021-04-03_buffer_calibration\2021-04-03_buffer_calibration_432021_008_021.lcd
Output Date,4/4/2021
Output Time,4:50:17 AM

[File Information]
Type,Data File
Generated,4/4/2021 4:09:57 AM
Generated by,System Administrator
Modified,4/4/2021 4:50:17 AM
Modified by,System Administrator

[Sample Information]
Operator Name,System Administrator
Acquired,4/4/2021 4:10:17 AM
Sample Type,1:Standard
Level,8
Sample Name,2021-04-02_DM_glucose_glycerol_acetate_calibration_02mM
Sample ID,008
ISTD Amount1,1
ISTD Amount2,1
ISTD Amount3,1
ISTD Amount4,1
ISTD Amount5,1
ISTD Amount6,1
ISTD Amount7,1
ISTD Amount8,1
ISTD Amount9,1
ISTD Amount10,1
ISTD Amount11,1
ISTD Amount12,1
ISTD Amount13,1
ISTD Amount14,1
ISTD Amount15,1
ISTD Amount16,1
ISTD Amount17,1
ISTD Amount18,1
ISTD Amount19,1
ISTD Amount20,1
ISTD Amount21,1
ISTD Amount22,1
ISTD Amount23,1
ISTD Amount24,1
ISTD Amount25,1
ISTD Amount26,1
ISTD Amount27,1
ISTD Amount28,1
ISTD Amount29,1
ISTD Amount30,1
ISTD Amount31,1
ISTD Amount32,1
Sample Amount,1
Dilution Factor,1
Vial#,26
Injection Volume,20

[Original Files]
Data File,C:\Users\cremerlab\Desktop\griffin\2021-04-03_buffer_calibration\2021-04-03_buffer_calibration_432021_008_021.lcd
Method File,C:\LabSolutions\Data\Project1\organicacidsetc2.lcm
Batch File,C:\Users\cremerlab\Desktop\griffin\2021-04-03_buffer_calibration\2021-04-03_buffer_calibration.lcb
Report Format File,c:\LabSolutions\System\DEFAULT.lsr

[File Description]


[Configuration]
Instrument Name,HPLC-PC-Instrument1
Instrument #,1
Line #,1
# of Detectors,2
Detector ID,Detector A,Detector B
Detector Name,Detector A,Detector B
# of Channels,1,1

[Peak Table(Detector A)]
# of Peaks,0

[Peak Table(Detector B)]
# of Peaks,6
Peak#,R.Time,I.Time,F.Time,Area,Height,A/H,Conc.,Mark,ID#,Name,k',Plate #,Plate Ht.,Tailing,Resolution,Sep.Factor,Area Ratio,Height Ratio,Conc. %,Norm Conc.
1,10.747,10.542,10.967,43407,2948,14.725,2.311,   ,,,0.000,12392,12.104,1.019,0.000,0.000,0,0,0.000,0.000
2,11.333,11.008,11.467,42746,1608,26.586,2.276,   ,,,0.055,10979,13.662,0.707,1.433,0.000,0,0,0.000,0.000
3,14.920,14.100,15.342,1505973,60890,24.733,80.195,   ,,,0.388,7546,19.878,0.831,6.407,7.112,0,0,0.000,0.000
4,15.665,15.342,17.100,206151,8205,25.124,10.978, V ,,,0.458,9112,16.461,0.000,1.109,1.179,0,0,0.000,0.000
5,22.083,21.483,22.925,56229,2098,26.803,2.994,   ,,,1.055,15508,9.672,1.089,9.399,2.305,0,0,0.000,0.000
6,25.089,24.508,25.825,23390,812,28.815,1.246,   ,,,1.335,17081,8.782,1.063,4.070,1.265,0,0,0.000,0.000

[LC Chromatogram(Detector B-Ch1)]
Interval(msec),500
# of Points,4801
Start Time(min),0.000
End Time(min),40.000
Intensity Units,mV
Intensity Multiplier,0.001
R.Time (min),Intensity
0.00000,1
0.00833,1
0.01667,1
0.02500,0
0.03333,0
0.04167,0
0.05000,0
0.05833,1
0.06667,1
0.07500,1
0.08333,1
0.09167,1
0.10000,1
0.10833,1
0.11667,1
0.12500,1
0.13333,1
0.14167,1
0.15000,0
0.15833,0
0.16667,0
0.17500,0
0.18333,0
0.19167,0
0.20000,0
0.20833,1
0.21667,1
0.22500,1
0.23333,2
0.24167,1
0.25000,1
0.25833,1
0.26667,1
0.27500,1
0.28333,1
0.29167,1
0.30000,1
0.30833,1
0.31667,1
0.32500,1
0.33333,1
0.34167,2
0.35000,2
0.35833,2
0.36667,2
0.37500,2
0.38333,2
0.39167,2
0.40000,3
0.40833,3
0.41667,3
0.42500,3
0.43333,3
0.44167,3
0.45000,3
0.45833,2
0.46667,2
0.47500,2
0.48333,3
0.49167,2
0.50000,3
0.50833,3
0.51667,3
0.52500,3
0.53333,3
0.54167,4
0.55000,4
0.55833,4
0.56667,4
0.57500,4
0.58333,4
0.59167,4
0.60000,4
0.60833,4
0.61667,4
0.62500,3
0.63333,3
0.64167,3
0.65000,2
0.65833,2
0.66667,2
0.67500,2
0.68333,2
0.69167,2
0.70000,2
0.70833,2
0.71667,2
0.72500,2
0.73333,2
0.74167,3
0.75000,3
0.75833,3
0.76667,3
0.77500,3
0.78333,4
0.79167,4
0.80000,4
0.80833,3
0.81667,3
0.82500,4
0.83333,4
0.84167,3
0.85000,3
0.85833,3
0.86667,3
0.87500,3
0.88333,3
0.89167,4
0.90000,4
0.90833,5
0.91667,5
0.92500,4
0.93333,4
0.94167,4
0.95000,4
0.95833,4
0.96667,4
0.97500,4
0.98333,4
0.99167,4
1.00000,4
1.00833,4
1.01667,4
1.02500,4
1.03333,3
1.04167,3
1.05000,3
1.05833,3
1.06667,3
1.07500,3
1.08333,3
1.09167,3
1.10000,3
1.10833,3
1.11667,4
1.12500,4
1.13333,3
1.14167,3
1.15000,3
1.15833,3
1.16667,3
1.17500,3
1.18333,3
1.19167,3
1.20000,3
1.20833,3
1.21667,2
1.22500,2
1.23333,2
1.24167,2
1.25000,2
1.25833,2
1.26667,2
1.27500,2
1.28333,2
1.29167,3
1.30000,3
1.30833,3
1.31667,3
1.32500,3
1.33333,3
1.34167,3
1.35000,3
1.35833,3
1.36667,3
1.37500,3
1.38333,3
1.39167,3
1.40000,3
1.40833,3
1.41667,3
1.42500,3
1.43333,3
1.44167,3
1.45000,3
1.45833,3
1.46667,3
1.47500,3
1.48333,3
1.49167,3
1.50000,3
1.50833,3
1.51667,3
1.52500,3
1.53333,3
1.54167,3
1.55000,3
1.55833,3
1.56667,3
1.57500,3
1.58333,3
1.59167,3
1.60000,3
1.60833,3
1.61667,3
1.62500,3
1.63333,3
1.64167,3
1.65000,3
1.65833,3
1.66667,2
1.67500,2
1.68333,3
1.69167,3
1.70000,3
1.70833,2
1.71667,2
1.72500,3
1.73333,3
1.74167,3
1.75000,3
1.75833,3
1.76667,3
1.77500,3
1.78333,3
1.79167,3
1.80000,3
1.80833,3
1.81667,3
1.82500,3
1.83333,3
1.84167,4
1.85000,3
1.85833,3
1.86667,4
1.87500,4
1.88333,4
1.89167,3
1.90000,3
1.90833,3
1.91667,4
1.92500,4
1.93333,4
1.94167,4
1.95000,4
1.95833,4
1.96667,4
1.97500,4
1.98333,4
1.99167,4
2.00000,4
2.00833,3
2.01667,3
2.02500,3
2.03333,3
2.04167,3
2.05000,3
2.05833,3
2.06667,3
2.07500,3
2.08333,3
2.09167,3
2.10000,3
2.10833,3
2.11667,3
2.12500,3
2.13333,2
2.14167,2
2.15000,2
2.15833,2
2.16667,2
2.17500,3
2.18333,3
2.19167,3
2.20000,3
2.20833,2
2.21667,2
2.22500,3
2.23333,3
2.24167,3
2.25000,3
2.25833,3
2.26667,3
2.27500,3
2.28333,3
2.29167,3
2.30000,4
2.30833,4
2.31667,4
2.32500,4
2.33333,4
2.34167,4
2.35000,4
2.35833,4
2.36667,4
2.37500,4
2.38333,4
2.39167,5
2.40000,5
2.40833,5
2.41667,5
2.42500,5
2.43333,5
2.44167,5
2.45000,5
2.45833,5
2.46667,4
2.47500,4
2.48333,4
2.49167,4
2.50000,4
2.50833,4
2.51667,4
2.52500,5
2.53333,5
2.54167,5
2.55000,5
2.55833,5
2.56667,5
2.57500,5
2.58333,5
2.59167,6
2.60000,6
2.60833,6
2.61667,6
2.62500,6
2.63333,6
2.64167,6
2.65000,6
2.65833,6
2.66667,6
2.67500,6
2.68333,6
2.69167,6
2.70000,6
2.70833,6
2.71667,6
2.72500,5
2.73333,5
2.74167,6
2.75000,6
2.75833,7
2.76667,7
2.77500,7
2.78333,7
2.79167,6
2.80000,6
2.80833,6
2.81667,6
2.82500,6
2.83333,6
2.84167,6
2.85000,6
2.85833,6
2.86667,6
2.87500,6
2.88333,6
2.89167,7
2.90000,7
2.90833,7
2.91667,7
2.92500,7
2.93333,7
2.94167,7
2.95000,7
2.95833,7
2.96667,7
2.97500,7
2.98333,7
2.99167,7
3.00000,6
3.00833,7
3.01667,6
3.02500,7
3.03333,7
3.04167,7
3.05000,7
3.05833,7
3.06667,7
3.07500,8
3.08333,8
3.09167,7
3.10000,7
3.10833,7
3.11667,7
3.12500,7
3.13333,7
3.14167,7
3.15000,7
3.15833,6
3.16667,6
3.17500,7
3.18333,7
3.19167,7
3.20000,7
3.20833,7
3.21667,7
3.22500,7
3.23333,7
3.24167,6
3.25000,6
3.25833,7
3.26667,7
3.27500,7
3.28333,7
3.29167,7
3.30000,7
3.30833,7
3.31667,7
3.32500,7
3.33333,7
3.34167,7
3.35000,7
3.35833,7
3.36667,6
3.37500,6
3.38333,6
3.39167,6
3.40000,6
3.40833,6
3.41667,7
3.42500,7
3.43333,7
3.44167,7
3.45000,7
3.45833,7
3.46667,7
3.47500,7
3.48333,7
3.49167,7
3.50000,7
3.50833,7
3.51667,7
3.52500,7
3.53333,7
3.54167,7
3.55000,7
3.55833,7
3.56667,7
3.57500,7
3.58333,7
3.59167,7
3.60000,7
3.60833,8
3.61667,8
3.62500,7
3.63333,7
3.64167,7
3.65000,7
3.65833,7
3.66667,7
3.67500,7
3.68333,7
3.69167,7
3.70000,8
3.70833,7
3.71667,7
3.72500,8
3.73333,8
3.74167,8
3.75000,8
3.75833,8
3.76667,8
3.77500,8
3.78333,8
3.79167,8
3.80000,8
3.80833,7
3.81667,7
3.82500,7
3.83333,7
3.84167,7
3.85000,6
3.85833,6
3.86667,6
3.87500,6
3.88333,6
3.89167,6
3.90000,6
3.90833,6
3.91667,6
3.92500,7
3.93333,7
3.94167,7
3.95000,7
3.95833,7
3.96667,7
3.97500,7
3.98333,7
3.99167,7
4.00000,7
4.00833,7
4.01667,7
4.02500,7
4.03333,8
4.04167,8
4.05000,8
4.05833,8
4.06667,8
4.07500,7
4.08333,7
4.09167,7
4.10000,7
4.10833,7
4.11667,7
4.12500,7
4.13333,7
4.14167,7
4.15000,7
4.15833,7
4.16667,7
4.17500,7
4.18333,7
4.19167,7
4.20000,7
4.20833,7
4.21667,8
4.22500,8
4.23333,8
4.24167,8
4.25000,8
4.25833,8
4.26667,8
4.27500,8
4.28333,8
4.29167,8
4.30000,8
4.30833,8
4.31667,9
4.32500,9
4.33333,8
4.34167,8
4.35000,9
4.35833,9
4.36667,9
4.37500,9
4.38333,9
4.39167,9
4.40000,9
4.40833,9
4.41667,9
4.42500,9
4.43333,9
4.44167,8
4.45000,8
4.45833,8
4.46667,8
4.47500,8
4.48333,8
4.49167,8
4.50000,8
4.50833,8
4.51667,8
4.52500,8
4.53333,8
4.54167,8
4.55000,8
4.55833,7
4.56667,7
4.57500,7
4.58333,8
4.59167,8
4.60000,8
4.60833,8
4.61667,8
4.62500,8
4.63333,8
4.64167,8
4.65000,8
4.65833,7
4.66667,8
4.67500,8
4.68333,8
4.69167,8
4.70000,8
4.70833,8
4.71667,8
4.72500,9
4.73333,9
4.74167,9
4.75000,9
4.75833,9
4.76667,9
4.77500,8
4.78333,8
4.79167,8
4.80000,8
4.80833,8
4.81667,8
4.82500,8
4.83333,8
4.84167,9
4.85000,9
4.85833,8
4.86667,9
4.87500,9
4.88333,9
4.89167,9
4.90000,8
4.90833,8
4.91667,8
4.92500,8
4.93333,8
4.94167,8
4.95000,9
4.95833,9
4.96667,9
4.97500,9
4.98333,9
4.99167,9
5.00000,9
5.00833,8
5.01667,9
5.02500,9
5.03333,9
5.04167,9
5.05000,9
5.05833,9
5.06667,9
5.07500,9
5.08333,9
5.09167,9
5.10000,9
5.10833,9
5.11667,9
5.12500,9
5.13333,9
5.14167,9
5.15000,9
5.15833,9
5.16667,9
5.17500,9
5.18333,10
5.19167,10
5.20000,10
5.20833,10
5.21667,10
5.22500,10
5.23333,10
5.24167,10
5.25000,10
5.25833,10
5.26667,10
5.27500,9
5.28333,9
5.29167,9
5.30000,9
5.30833,9
5.31667,10
5.32500,10
5.33333,10
5.34167,10
5.35000,9
5.35833,9
5.36667,9
5.37500,9
5.38333,9
5.39167,9
5.40000,10
5.40833,10
5.41667,10
5.42500,11
5.43333,10
5.44167,10
5.45000,10
5.45833,10
5.46667,10
5.47500,9
5.48333,10
5.49167,10
5.50000,10
5.50833,10
5.51667,11
5.52500,11
5.53333,11
5.54167,11
5.55000,11
5.55833,11
5.56667,11
5.57500,11
5.58333,12
5.59167,12
5.60000,12
5.60833,12
5.61667,11
5.62500,11
5.63333,11
5.64167,11
5.65000,11
5.65833,11
5.66667,11
5.67500,11
5.68333,11
5.69167,11
5.70000,11
5.70833,11
5.71667,12
5.72500,12
5.73333,12
5.74167,12
5.75000,12
5.75833,12
5.76667,11
5.77500,11
5.78333,11
5.79167,11
5.80000,11
5.80833,11
5.81667,11
5.82500,11
5.83333,11
5.84167,11
5.85000,11
5.85833,11
5.86667,12
5.87500,12
5.88333,12
5.89167,12
5.90000,12
5.90833,12
5.91667,12
5.92500,12
5.93333,11
5.94167,12
5.95000,12
5.95833,12
5.96667,12
5.97500,12
5.98333,12
5.99167,12
6.00000,13
6.00833,13
6.01667,13
6.02500,13
6.03333,13
6.04167,12
6.05000,12
6.05833,12
6.06667,12
6.07500,11
6.08333,12
6.09167,11
6.10000,11
6.10833,11
6.11667,12
6.12500,12
6.13333,12
6.14167,12
6.15000,12
6.15833,12
6.16667,12
6.17500,12
6.18333,12
6.19167,12
6.20000,12
6.20833,12
6.21667,12
6.22500,11
6.23333,11
6.24167,12
6.25000,12
6.25833,12
6.26667,12
6.27500,12
6.28333,12
6.29167,12
6.30000,12
6.30833,12
6.31667,12
6.32500,11
6.33333,11
6.34167,11
6.35000,11
6.35833,11
6.36667,11
6.37500,11
6.38333,11
6.39167,11
6.40000,11
6.40833,11
6.41667,11
6.42500,11
6.43333,11
6.44167,11
6.45000,11
6.45833,11
6.46667,11
6.47500,11
6.48333,10
6.49167,10
6.50000,11
6.50833,11
6.51667,12
6.52500,12
6.53333,11
6.54167,12
6.55000,12
6.55833,12
6.56667,12
6.57500,12
6.58333,12
6.59167,12
6.60000,12
6.60833,12
6.61667,12
6.62500,12
6.63333,12
6.64167,12
6.65000,12
6.65833,12
6.66667,12
6.67500,12
6.68333,12
6.69167,12
6.70000,12
6.70833,12
6.71667,12
6.72500,12
6.73333,12
6.74167,12
6.75000,11
6.75833,11
6.76667,12
6.77500,12
6.78333,12
6.79167,12
6.80000,12
6.80833,11
6.81667,11
6.82500,12
6.83333,11
6.84167,11
6.85000,11
6.85833,11
6.86667,12
6.87500,12
6.88333,12
6.89167,12
6.90000,12
6.90833,12
6.91667,12
6.92500,12
6.93333,13
6.94167,12
6.95000,12
6.95833,12
6.96667,12
6.97500,12
6.98333,12
6.99167,12
7.00000,12
7.00833,13
7.01667,13
7.02500,13
7.03333,13
7.04167,13
7.05000,12
7.05833,12
7.06667,12
7.07500,12
7.08333,12
7.09167,12
7.10000,12
7.10833,12
7.11667,13
7.12500,13
7.13333,13
7.14167,13
7.15000,13
7.15833,13
7.16667,13
7.17500,13
7.18333,13
7.19167,13
7.20000,13
7.20833,13
7.21667,13
7.22500,12
7.23333,12
7.24167,12
7.25000,13
7.25833,13
7.26667,13
7.27500,13
7.28333,13
7.29167,13
7.30000,13
7.30833,14
7.31667,14
7.32500,14
7.33333,13
7.34167,13
7.35000,13
7.35833,13
7.36667,13
7.37500,13
7.38333,13
7.39167,13
7.40000,12
7.40833,13
7.41667,13
7.42500,13
7.43333,13
7.44167,13
7.45000,13
7.45833,14
7.46667,14
7.47500,14
7.48333,14
7.49167,14
7.50000,14
7.50833,14
7.51667,14
7.52500,14
7.53333,14
7.54167,14
7.55000,15
7.55833,15
7.56667,15
7.57500,14
7.58333,14
7.59167,14
7.60000,14
7.60833,14
7.61667,13
7.62500,14
7.63333,13
7.64167,13
7.65000,13
7.65833,13
7.66667,13
7.67500,13
7.68333,14
7.69167,14
7.70000,14
7.70833,13
7.71667,13
7.72500,13
7.73333,13
7.74167,13
7.75000,13
7.75833,13
7.76667,14
7.77500,14
7.78333,14
7.79167,14
7.80000,14
7.80833,14
7.81667,15
7.82500,15
7.83333,15
7.84167,15
7.85000,15
7.85833,15
7.86667,15
7.87500,14
7.88333,14
7.89167,15
7.90000,15
7.90833,15
7.91667,15
7.92500,16
7.93333,16
7.94167,16
7.95000,17
7.95833,17
7.96667,17
7.97500,17
7.98333,16
7.99167,16
8.00000,16
8.00833,16
8.01667,16
8.02500,16
8.03333,16
8.04167,16
8.05000,16
8.05833,16
8.06667,16
8.07500,16
8.08333,16
8.09167,16
8.10000,16
8.10833,17
8.11667,17
8.12500,17
8.13333,17
8.14167,17
8.15000,17
8.15833,16
8.16667,16
8.17500,16
8.18333,16
8.19167,16
8.20000,16
8.20833,16
8.21667,16
8.22500,16
8.23333,16
8.24167,15
8.25000,15
8.25833,15
8.26667,15
8.27500,16
8.28333,16
8.29167,16
8.30000,15
8.30833,15
8.31667,15
8.32500,15
8.33333,15
8.34167,16
8.35000,16
8.35833,15
8.36667,15
8.37500,15
8.38333,15
8.39167,16
8.40000,16
8.40833,15
8.41667,15
8.42500,15
8.43333,16
8.44167,16
8.45000,16
8.45833,16
8.46667,16
8.47500,15
8.48333,15
8.49167,15
8.50000,15
8.50833,15
8.51667,15
8.52500,16
8.53333,16
8.54167,16
8.55000,16
8.55833,16
8.56667,16
8.57500,16
8.58333,15
8.59167,15
8.60000,15
8.60833,15
8.61667,15
8.62500,15
8.63333,14
8.64167,14
8.65000,14
8.65833,14
8.66667,14
8.67500,15
8.68333,15
8.69167,15
8.70000,15
8.70833,15
8.71667,15
8.72500,15
8.73333,15
8.74167,14
8.75000,14
8.75833,14
8.76667,14
8.77500,14
8.78333,14
8.79167,14
8.80000,14
8.80833,15
8.81667,15
8.82500,15
8.83333,15
8.84167,15
8.85000,15
8.85833,15
8.86667,14
8.87500,14
8.88333,14
8.89167,14
8.90000,14
8.90833,14
8.91667,14
8.92500,14
8.93333,14
8.94167,14
8.95000,15
8.95833,15
8.96667,15
8.97500,14
8.98333,14
8.99167,14
9.00000,14
9.00833,14
9.01667,14
9.02500,14
9.03333,14
9.04167,14
9.05000,14
9.05833,15
9.06667,15
9.07500,15
9.08333,15
9.09167,14
9.10000,14
9.10833,14
9.11667,14
9.12500,14
9.13333,14
9.14167,14
9.15000,14
9.15833,14
9.16667,14
9.17500,14
9.18333,14
9.19167,14
9.20000,15
9.20833,15
9.21667,15
9.22500,15
9.23333,15
9.24167,15
9.25000,15
9.25833,15
9.26667,15
9.27500,16
9.28333,16
9.29167,16
9.30000,16
9.30833,16
9.31667,16
9.32500,15
9.33333,15
9.34167,15
9.35000,16
9.35833,16
9.36667,16
9.37500,16
9.38333,16
9.39167,16
9.40000,16
9.40833,16
9.41667,16
9.42500,16
9.43333,16
9.44167,16
9.45000,16
9.45833,17
9.46667,17
9.47500,17
9.48333,16
9.49167,17
9.50000,17
9.50833,17
9.51667,17
9.52500,17
9.53333,17
9.54167,17
9.55000,17
9.55833,17
9.56667,16
9.57500,16
9.58333,16
9.59167,16
9.60000,16
9.60833,16
9.61667,16
9.62500,16
9.63333,16
9.64167,16
9.65000,16
9.65833,16
9.66667,16
9.67500,16
9.68333,17
9.69167,17
9.70000,16
9.70833,16
9.71667,16
9.72500,16
9.73333,16
9.74167,17
9.75000,17
9.75833,17
9.76667,16
9.77500,16
9.78333,16
9.79167,16
9.80000,16
9.80833,17
9.81667,17
9.82500,17
9.83333,17
9.84167,17
9.85000,17
9.85833,17
9.86667,17
9.87500,16
9.88333,17
9.89167,17
9.90000,17
9.90833,17
9.91667,17
9.92500,17
9.93333,17
9.94167,17
9.95000,17
9.95833,17
9.96667,17
9.97500,17
9.98333,17
9.99167,17
10.00000,17
10.00833,16
10.01667,16
10.02500,16
10.03333,16
10.04167,16
10.05000,17
10.05833,17
10.06667,17
10.07500,17
10.08333,17
10.09167,17
10.10000,18
10.10833,18
10.11667,18
10.12500,18
10.13333,18
10.14167,18
10.15000,18
10.15833,17
10.16667,17
10.17500,17
10.18333,17
10.19167,17
10.20000,17
10.20833,17
10.21667,17
10.22500,17
10.23333,17
10.24167,17
10.25000,17
10.25833,17
10.26667,17
10.27500,18
10.28333,18
10.29167,18
10.30000,18
10.30833,18
10.31667,18
10.32500,18
10.33333,18
10.34167,18
10.35000,18
10.35833,18
10.36667,18
10.37500,18
10.38333,18
10.39167,18
10.40000,18
10.40833,18
10.41667,18
10.42500,18
10.43333,19
10.44167,19
10.45000,19
10.45833,19
10.46667,19
10.47500,19
10.48333,19
10.49167,19
10.50000,18
10.50833,19
10.51667,18
10.52500,18
10.53333,19
10.54167,19
10.55000,19
10.55833,20
10.56667,21
10.57500,22
10.58333,24
10.59167,26
10.60000,29
10.60833,33
10.61667,37
10.62500,44
10.63333,51
10.64167,60
10.65000,72
10.65833,85
10.66667,101
10.67500,120
10.68333,140
10.69167,163
10.70000,186
10.70833,210
10.71667,234
10.72500,254
10.73333,271
10.74167,281
10.75000,282
10.75833,271
10.76667,245
10.77500,202
10.78333,137
10.79167,49
10.80000,-64
10.80833,-206
10.81667,-378
10.82500,-580
10.83333,-812
10.84167,-1072
10.85000,-1360
10.85833,-1672
10.86667,-2003
10.87500,-2351
10.88333,-2708
10.89167,-3070
10.90000,-3430
10.90833,-3782
10.91667,-4120
10.92500,-4439
10.93333,-4731
10.94167,-4992
10.95000,-5218
10.95833,-5406
10.96667,-5551
10.97500,-5653
10.98333,-5709
10.99167,-5722
11.00000,-5690
11.00833,-5616
11.01667,-5502
11.02500,-5352
11.03333,-5169
11.04167,-4957
11.05000,-4720
11.05833,-4463
11.06667,-4191
11.07500,-3908
11.08333,-3620
11.09167,-3329
11.10000,-3041
11.10833,-2758
11.11667,-2484
11.12500,-2222
11.13333,-1974
11.14167,-1740
11.15000,-1524
11.15833,-1324
11.16667,-1143
11.17500,-980
11.18333,-834
11.19167,-705
11.20000,-592
11.20833,-494
11.21667,-410
11.22500,-339
11.23333,-279
11.24167,-229
11.25000,-188
11.25833,-156
11.26667,-129
11.27500,-109
11.28333,-93
11.29167,-81
11.30000,-73
11.30833,-67
11.31667,-63
11.32500,-61
11.33333,-59
11.34167,-58
11.35000,-58
11.35833,-57
11.36667,-57
11.37500,-57
11.38333,-57
11.39167,-57
11.40000,-57
11.40833,-56
11.41667,-55
11.42500,-54
11.43333,-52
11.44167,-51
11.45000,-50
11.45833,-48
11.46667,-47
11.47500,-45
11.48333,-43
11.49167,-42
11.50000,-40
11.50833,-38
11.51667,-37
11.52500,-35
11.53333,-34
11.54167,-32
11.55000,-31
11.55833,-29
11.56667,-28
11.57500,-27
11.58333,-25
11.59167,-24
11.60000,-23
11.60833,-21
11.61667,-20
11.62500,-19
11.63333,-18
11.64167,-17
11.65000,-16
11.65833,-15
11.66667,-14
11.67500,-14
11.68333,-13
11.69167,-12
11.70000,-11
11.70833,-11
11.71667,-10
11.72500,-10
11.73333,-9
11.74167,-8
11.75000,-8
11.75833,-7
11.76667,-7
11.77500,-6
11.78333,-6
11.79167,-5
11.80000,-5
11.80833,-4
11.81667,-4
11.82500,-4
11.83333,-4
11.84167,-3
11.85000,-3
11.85833,-3
11.86667,-2
11.87500,-2
11.88333,-1
11.89167,-1
11.90000,-0
11.90833,-0
11.91667,0
11.92500,1
11.93333,2
11.94167,2
11.95000,3
11.95833,3
11.96667,3
11.97500,3
11.98333,3
11.99167,3
12.00000,4
12.00833,4
12.01667,4
12.02500,4
12.03333,4
12.04167,4
12.05000,3
12.05833,4
12.06667,4
12.07500,4
12.08333,5
12.09167,5
12.10000,5
12.10833,5
12.11667,5
12.12500,5
12.13333,5
12.14167,6
12.15000,5
12.15833,5
12.16667,5
12.17500,5
12.18333,5
12.19167,5
12.20000,5
12.20833,5
12.21667,5
12.22500,5
12.23333,5
12.24167,6
12.25000,6
12.25833,6
12.26667,7
12.27500,7
12.28333,7
12.29167,7
12.30000,7
12.30833,7
12.31667,7
12.32500,8
12.33333,8
12.34167,8
12.35000,9
12.35833,9
12.36667,9
12.37500,9
12.38333,9
12.39167,9
12.40000,9
12.40833,10
12.41667,10
12.42500,10
12.43333,10
12.44167,10
12.45000,11
12.45833,11
12.46667,11
12.47500,11
12.48333,10
12.49167,10
12.50000,11
12.50833,11
12.51667,12
12.52500,12
12.53333,12
12.54167,12
12.55000,12
12.55833,12
12.56667,12
12.57500,13
12.58333,13
12.59167,13
12.60000,13
12.60833,13
12.61667,13
12.62500,12
12.63333,12
12.64167,12
12.65000,12
12.65833,12
12.66667,12
12.67500,12
12.68333,12
12.69167,12
12.70000,13
12.70833,13
12.71667,13
12.72500,13
12.73333,12
12.74167,13
12.75000,13
12.75833,13
12.76667,13
12.77500,13
12.78333,14
12.79167,14
12.80000,14
12.80833,14
12.81667,14
12.82500,14
12.83333,15
12.84167,15
12.85000,15
12.85833,15
12.86667,15
12.87500,16
12.88333,16
12.89167,16
12.90000,16
12.90833,16
12.91667,16
12.92500,17
12.93333,17
12.94167,17
12.95000,17
12.95833,18
12.96667,18
12.97500,18
12.98333,18
12.99167,18
13.00000,18
13.00833,18
13.01667,18
13.02500,18
13.03333,19
13.04167,19
13.05000,19
13.05833,20
13.06667,19
13.07500,19
13.08333,19
13.09167,19
13.10000,20
13.10833,20
13.11667,20
13.12500,21
13.13333,21
13.14167,21
13.15000,21
13.15833,22
13.16667,22
13.17500,21
13.18333,22
13.19167,22
13.20000,22
13.20833,22
13.21667,23
13.22500,23
13.23333,23
13.24167,23
13.25000,23
13.25833,23
13.26667,23
13.27500,23
13.28333,23
13.29167,23
13.30000,23
13.30833,23
13.31667,23
13.32500,23
13.33333,23
13.34167,23
13.35000,23
13.35833,22
13.36667,22
13.37500,22
13.38333,22
13.39167,22
13.40000,22
13.40833,22
13.41667,22
13.42500,22
13.43333,22
13.44167,22
13.45000,22
13.45833,22
13.46667,23
13.47500,22
13.48333,22
13.49167,22
13.50000,22
13.50833,22
13.51667,22
13.52500,22
13.53333,22
13.54167,22
13.55000,22
13.55833,22
13.56667,22
13.57500,22
13.58333,22
13.59167,22
13.60000,22
13.60833,22
13.61667,21
13.62500,22
13.63333,22
13.64167,22
13.65000,21
13.65833,21
13.66667,22
13.67500,22
13.68333,22
13.69167,22
13.70000,22
13.70833,22
13.71667,22
13.72500,22
13.73333,22
13.74167,23
13.75000,23
13.75833,23
13.76667,24
13.77500,24
13.78333,24
13.79167,24
13.80000,24
13.80833,24
13.81667,24
13.82500,23
13.83333,23
13.84167,23
13.85000,23
13.85833,23
13.86667,23
13.87500,24
13.88333,24
13.89167,24
13.90000,24
13.90833,25
13.91667,25
13.92500,25
13.93333,24
13.94167,25
13.95000,25
13.95833,25
13.96667,25
13.97500,25
13.98333,26
13.99167,26
14.00000,27
14.00833,27
14.01667,27
14.02500,27
14.03333,28
14.04167,28
14.05000,29
14.05833,29
14.06667,30
14.07500,30
14.08333,30
14.09167,31
14.10000,32
14.10833,33
14.11667,34
14.12500,35
14.13333,37
14.14167,38
14.15000,40
14.15833,43
14.16667,45
14.17500,49
14.18333,53
14.19167,58
14.20000,64
14.20833,71
14.21667,80
14.22500,91
14.23333,104
14.24167,120
14.25000,139
14.25833,162
14.26667,190
14.27500,223
14.28333,262
14.29167,309
14.30000,365
14.30833,431
14.31667,508
14.32500,598
14.33333,703
14.34167,825
14.35000,964
14.35833,1124
14.36667,1305
14.37500,1509
14.38333,1740
14.39167,1998
14.40000,2286
14.40833,2604
14.41667,2955
14.42500,3341
14.43333,3762
14.44167,4219
14.45000,4714
14.45833,5248
14.46667,5820
14.47500,6432
14.48333,7083
14.49167,7774
14.50000,8504
14.50833,9273
14.51667,10080
14.52500,10924
14.53333,11803
14.54167,12717
14.55000,13665
14.55833,14645
14.56667,15656
14.57500,16694
14.58333,17760
14.59167,18850
14.60000,19963
14.60833,21097
14.61667,22251
14.62500,23420
14.63333,24606
14.64167,25805
14.65000,27015
14.65833,28235
14.66667,29463
14.67500,30697
14.68333,31936
14.69167,33179
14.70000,34423
14.70833,35668
14.71667,36913
14.72500,38156
14.73333,39396
14.74167,40632
14.75000,41864
14.75833,43090
14.76667,44309
14.77500,45519
14.78333,46721
14.79167,47911
14.80000,49088
14.80833,50251
14.81667,51396
14.82500,52520
14.83333,53618
14.84167,54685
14.85000,55714
14.85833,56696
14.86667,57619
14.87500,58468
14.88333,59229
14.89167,59880
14.90000,60400
14.90833,60764
14.91667,60948
14.92500,60926
14.93333,60677
14.94167,60179
14.95000,59418
14.95833,58386
14.96667,57080
14.97500,55507
14.98333,53682
14.99167,51626
15.00000,49368
15.00833,46942
15.01667,44386
15.02500,41741
15.03333,39045
15.04167,36339
15.05000,33657
15.05833,31032
15.06667,28492
15.07500,26059
15.08333,23751
15.09167,21580
15.10000,19555
15.10833,17679
15.11667,15951
15.12500,14370
15.13333,12931
15.14167,11626
15.15000,10448
15.15833,9388
15.16667,8438
15.17500,7589
15.18333,6831
15.19167,6156
15.20000,5556
15.20833,5024
15.21667,4552
15.22500,4135
15.23333,3768
15.24167,3444
15.25000,3160
15.25833,2912
15.26667,2696
15.27500,2509
15.28333,2350
15.29167,2215
15.30000,2104
15.30833,2015
15.31667,1946
15.32500,1897
15.33333,1867
15.34167,1856
15.35000,1862
15.35833,1886
15.36667,1927
15.37500,1986
15.38333,2061
15.39167,2154
15.40000,2264
15.40833,2391
15.41667,2534
15.42500,2693
15.43333,2867
15.44167,3055
15.45000,3258
15.45833,3474
15.46667,3701
15.47500,3940
15.48333,4188
15.49167,4444
15.50000,4705
15.50833,4971
15.51667,5239
15.52500,5507
15.53333,5774
15.54167,6036
15.55000,6293
15.55833,6542
15.56667,6781
15.57500,7008
15.58333,7221
15.59167,7419
15.60000,7598
15.60833,7760
15.61667,7901
15.62500,8021
15.63333,8120
15.64167,8196
15.65000,8249
15.65833,8278
15.66667,8286
15.67500,8270
15.68333,8232
15.69167,8173
15.70000,8092
15.70833,7992
15.71667,7872
15.72500,7736
15.73333,7583
15.74167,7415
15.75000,7234
15.75833,7041
15.76667,6837
15.77500,6625
15.78333,6405
15.79167,6180
15.80000,5950
15.80833,5717
15.81667,5483
15.82500,5248
15.83333,5014
15.84167,4783
15.85000,4555
15.85833,4330
15.86667,4111
15.87500,3896
15.88333,3688
15.89167,3485
15.90000,3290
15.90833,3101
15.91667,2920
15.92500,2747
15.93333,2582
15.94167,2424
15.95000,2274
15.95833,2132
15.96667,1998
15.97500,1871
15.98333,1751
15.99167,1639
16.00000,1534
16.00833,1435
16.01667,1343
16.02500,1257
16.03333,1176
16.04167,1101
16.05000,1032
16.05833,968
16.06667,908
16.07500,853
16.08333,801
16.09167,753
16.10000,709
16.10833,669
16.11667,631
16.12500,597
16.13333,565
16.14167,536
16.15000,509
16.15833,485
16.16667,462
16.17500,441
16.18333,422
16.19167,404
16.20000,387
16.20833,372
16.21667,358
16.22500,345
16.23333,333
16.24167,322
16.25000,312
16.25833,303
16.26667,294
16.27500,286
16.28333,279
16.29167,272
16.30000,266
16.30833,259
16.31667,254
16.32500,248
16.33333,243
16.34167,239
16.35000,234
16.35833,230
16.36667,226
16.37500,223
16.38333,219
16.39167,216
16.40000,213
16.40833,210
16.41667,207
16.42500,204
16.43333,202
16.44167,200
16.45000,198
16.45833,196
16.46667,193
16.47500,191
16.48333,189
16.49167,187
16.50000,186
16.50833,184
16.51667,182
16.52500,181
16.53333,180
16.54167,178
16.55000,177
16.55833,175
16.56667,174
16.57500,173
16.58333,172
16.59167,170
16.60000,169
16.60833,168
16.61667,167
16.62500,166
16.63333,165
16.64167,163
16.65000,163
16.65833,161
16.66667,160
16.67500,159
16.68333,159
16.69167,158
16.70000,157
16.70833,156
16.71667,156
16.72500,155
16.73333,154
16.74167,153
16.75000,152
16.75833,152
16.76667,151
16.77500,150
16.78333,149
16.79167,149
16.80000,148
16.80833,147
16.81667,146
16.82500,145
16.83333,144
16.84167,144
16.85000,143
16.85833,142
16.86667,142
16.87500,141
16.88333,141
16.89167,140
16.90000,139
16.90833,139
16.91667,138
16.92500,137
16.93333,136
16.94167,136
16.95000,135
16.95833,134
16.96667,134
16.97500,133
16.98333,132
16.99167,132
17.00000,132
17.00833,131
17.01667,130
17.02500,129
17.03333,129
17.04167,128
17.05000,128
17.05833,127
17.06667,127
17.07500,126
17.08333,126
17.09167,125
17.10000,125
17.10833,125
17.11667,124
17.12500,124
17.13333,124
17.14167,123
17.15000,123
17.15833,122
17.16667,122
17.17500,121
17.18333,121
17.19167,120
17.20000,120
17.20833,119
17.21667,118
17.22500,118
17.23333,117
17.24167,117
17.25000,116
17.25833,116
17.26667,116
17.27500,115
17.28333,114
17.29167,114
17.30000,113
17.30833,112
17.31667,112
17.32500,111
17.33333,111
17.34167,110
17.35000,110
17.35833,109
17.36667,109
17.37500,108
17.38333,108
17.39167,107
17.40000,106
17.40833,106
17.41667,105
17.42500,105
17.43333,105
17.44167,104
17.45000,104
17.45833,104
17.46667,103
17.47500,103
17.48333,102
17.49167,102
17.50000,101
17.50833,101
17.51667,101
17.52500,102
17.53333,102
17.54167,101
17.55000,101
17.55833,100
17.56667,100
17.57500,99
17.58333,99
17.59167,99
17.60000,99
17.60833,98
17.61667,98
17.62500,98
17.63333,97
17.64167,97
17.65000,96
17.65833,96
17.66667,95
17.67500,95
17.68333,95
17.69167,95
17.70000,94
17.70833,94
17.71667,94
17.72500,93
17.73333,93
17.74167,92
17.75000,91
17.75833,91
17.76667,91
17.77500,91
17.78333,91
17.79167,91
17.80000,90
17.80833,90
17.81667,90
17.82500,89
17.83333,89
17.84167,88
17.85000,88
17.85833,88
17.86667,88
17.87500,88
17.88333,87
17.89167,87
17.90000,87
17.90833,86
17.91667,86
17.92500,85
17.93333,85
17.94167,84
17.95000,84
17.95833,84
17.96667,84
17.97500,84
17.98333,84
17.99167,83
18.00000,83
18.00833,83
18.01667,83
18.02500,82
18.03333,82
18.04167,81
18.05000,81
18.05833,81
18.06667,81
18.07500,80
18.08333,80
18.09167,80
18.10000,80
18.10833,80
18.11667,79
18.12500,79
18.13333,79
18.14167,79
18.15000,79
18.15833,79
18.16667,78
18.17500,78
18.18333,78
18.19167,79
18.20000,78
18.20833,78
18.21667,78
18.22500,77
18.23333,77
18.24167,77
18.25000,76
18.25833,76
18.26667,76
18.27500,76
18.28333,76
18.29167,76
18.30000,76
18.30833,75
18.31667,75
18.32500,75
18.33333,74
18.34167,74
18.35000,74
18.35833,74
18.36667,74
18.37500,74
18.38333,74
18.39167,74
18.40000,74
18.40833,74
18.41667,74
18.42500,74
18.43333,74
18.44167,74
18.45000,74
18.45833,74
18.46667,74
18.47500,74
18.48333,73
18.49167,73
18.50000,73
18.50833,73
18.51667,73
18.52500,72
18.53333,72
18.54167,72
18.55000,72
18.55833,72
18.56667,72
18.57500,72
18.58333,72
18.59167,72
18.60000,72
18.60833,72
18.61667,72
18.62500,72
18.63333,72
18.64167,72
18.65000,72
18.65833,71
18.66667,71
18.67500,70
18.68333,70
18.69167,70
18.70000,71
18.70833,71
18.71667,71
18.72500,72
18.73333,72
18.74167,72
18.75000,72
18.75833,72
18.76667,73
18.77500,73
18.78333,73
18.79167,73
18.80000,74
18.80833,75
18.81667,75
18.82500,76
18.83333,76
18.84167,77
18.85000,78
18.85833,78
18.86667,79
18.87500,79
18.88333,80
18.89167,80
18.90000,81
18.90833,82
18.91667,83
18.92500,83
18.93333,84
18.94167,84
18.95000,85
18.95833,86
18.96667,86
18.97500,86
18.98333,87
18.99167,87
19.00000,87
19.00833,87
19.01667,88
19.02500,88
19.03333,88
19.04167,88
19.05000,88
19.05833,88
19.06667,88
19.07500,88
19.08333,88
19.09167,87
19.10000,86
19.10833,85
19.11667,84
19.12500,83
19.13333,82
19.14167,81
19.15000,81
19.15833,80
19.16667,79
19.17500,78
19.18333,77
19.19167,77
19.20000,76
19.20833,75
19.21667,73
19.22500,72
19.23333,71
19.24167,71
19.25000,70
19.25833,69
19.26667,68
19.27500,67
19.28333,66
19.29167,66
19.30000,65
19.30833,64
19.31667,63
19.32500,63
19.33333,63
19.34167,62
19.35000,62
19.35833,61
19.36667,60
19.37500,60
19.38333,59
19.39167,58
19.40000,58
19.40833,57
19.41667,57
19.42500,57
19.43333,57
19.44167,56
19.45000,57
19.45833,56
19.46667,56
19.47500,56
19.48333,55
19.49167,55
19.50000,55
19.50833,55
19.51667,54
19.52500,54
19.53333,54
19.54167,54
19.55000,54
19.55833,53
19.56667,53
19.57500,53
19.58333,52
19.59167,52
19.60000,52
19.60833,52
19.61667,52
19.62500,52
19.63333,52
19.64167,52
19.65000,52
19.65833,52
19.66667,52
19.67500,52
19.68333,52
19.69167,52
19.70000,51
19.70833,51
19.71667,51
19.72500,51
19.73333,50
19.74167,50
19.75000,50
19.75833,50
19.76667,50
19.77500,50
19.78333,50
19.79167,50
19.80000,50
19.80833,50
19.81667,50
19.82500,50
19.83333,50
19.84167,50
19.85000,50
19.85833,50
19.86667,50
19.87500,50
19.88333,50
19.89167,50
19.90000,50
19.90833,49
19.91667,49
19.92500,49
19.93333,49
19.94167,49
19.95000,49
19.95833,49
19.96667,50
19.97500,49
19.98333,49
19.99167,49
20.00000,49
20.00833,49
20.01667,49
20.02500,49
20.03333,49
20.04167,48
20.05000,48
20.05833,48
20.06667,48
20.07500,48
20.08333,48
20.09167,48
20.10000,49
20.10833,49
20.11667,49
20.12500,48
20.13333,48
20.14167,47
20.15000,47
20.15833,47
20.16667,47
20.17500,47
20.18333,47
20.19167,47
20.20000,47
20.20833,47
20.21667,47
20.22500,47
20.23333,47
20.24167,47
20.25000,47
20.25833,47
20.26667,47
20.27500,47
20.28333,47
20.29167,47
20.30000,47
20.30833,47
20.31667,47
20.32500,46
20.33333,46
20.34167,45
20.35000,45
20.35833,45
20.36667,45
20.37500,45
20.38333,45
20.39167,45
20.40000,46
20.40833,45
20.41667,45
20.42500,45
20.43333,44
20.44167,44
20.45000,44
20.45833,44
20.46667,44
20.47500,45
20.48333,45
20.49167,45
20.50000,45
20.50833,45
20.51667,45
20.52500,44
20.53333,44
20.54167,44
20.55000,44
20.55833,44
20.56667,44
20.57500,44
20.58333,44
20.59167,44
20.60000,43
20.60833,43
20.61667,43
20.62500,43
20.63333,44
20.64167,43
20.65000,44
20.65833,44
20.66667,43
20.67500,44
20.68333,44
20.69167,44
20.70000,44
20.70833,45
20.71667,45
20.72500,44
20.73333,44
20.74167,44
20.75000,44
20.75833,43
20.76667,43
20.77500,43
20.78333,43
20.79167,43
20.80000,43
20.80833,43
20.81667,43
20.82500,43
20.83333,43
20.84167,43
20.85000,43
20.85833,43
20.86667,43
20.87500,43
20.88333,43
20.89167,43
20.90000,42
20.90833,42
20.91667,42
20.92500,42
20.93333,42
20.94167,42
20.95000,42
20.95833,42
20.96667,43
20.97500,42
20.98333,42
20.99167,42
21.00000,42
21.00833,42
21.01667,42
21.02500,42
21.03333,42
21.04167,42
21.05000,42
21.05833,42
21.06667,42
21.07500,41
21.08333,41
21.09167,41
21.10000,42
21.10833,42
21.11667,41
21.12500,41
21.13333,41
21.14167,41
21.15000,41
21.15833,42
21.16667,42
21.17500,42
21.18333,42
21.19167,42
21.20000,42
21.20833,42
21.21667,42
21.22500,42
21.23333,41
21.24167,41
21.25000,41
21.25833,41
21.26667,41
21.27500,41
21.28333,41
21.29167,42
21.30000,42
21.30833,42
21.31667,42
21.32500,42
21.33333,42
21.34167,42
21.35000,43
21.35833,43
21.36667,43
21.37500,43
21.38333,43
21.39167,43
21.40000,43
21.40833,43
21.41667,43
21.42500,44
21.43333,44
21.44167,45
21.45000,45
21.45833,46
21.46667,46
21.47500,47
21.48333,47
21.49167,48
21.50000,49
21.50833,50
21.51667,52
21.52500,54
21.53333,56
21.54167,58
21.55000,60
21.55833,63
21.56667,65
21.57500,68
21.58333,72
21.59167,76
21.60000,81
21.60833,86
21.61667,92
21.62500,98
21.63333,106
21.64167,114
21.65000,123
21.65833,133
21.66667,144
21.67500,157
21.68333,171
21.69167,186
21.70000,202
21.70833,221
21.71667,241
21.72500,263
21.73333,287
21.74167,314
21.75000,342
21.75833,372
21.76667,405
21.77500,440
21.78333,477
21.79167,517
21.80000,559
21.80833,604
21.81667,650
21.82500,700
21.83333,751
21.84167,804
21.85000,860
21.85833,917
21.86667,976
21.87500,1036
21.88333,1098
21.89167,1160
21.90000,1223
21.90833,1286
21.91667,1350
21.92500,1414
21.93333,1476
21.94167,1538
21.95000,1599
21.95833,1658
21.96667,1715
21.97500,1770
21.98333,1822
21.99167,1871
22.00000,1917
22.00833,1959
22.01667,1998
22.02500,2033
22.03333,2064
22.04167,2090
22.05000,2111
22.05833,2127
22.06667,2139
22.07500,2145
22.08333,2148
22.09167,2145
22.10000,2138
22.10833,2126
22.11667,2110
22.12500,2089
22.13333,2064
22.14167,2035
22.15000,2002
22.15833,1967
22.16667,1927
22.17500,1885
22.18333,1840
22.19167,1793
22.20000,1743
22.20833,1691
22.21667,1638
22.22500,1584
22.23333,1529
22.24167,1473
22.25000,1417
22.25833,1360
22.26667,1304
22.27500,1249
22.28333,1194
22.29167,1139
22.30000,1086
22.30833,1033
22.31667,981
22.32500,931
22.33333,882
22.34167,835
22.35000,790
22.35833,746
22.36667,704
22.37500,663
22.38333,624
22.39167,587
22.40000,552
22.40833,518
22.41667,487
22.42500,457
22.43333,429
22.44167,402
22.45000,377
22.45833,353
22.46667,331
22.47500,310
22.48333,290
22.49167,272
22.50000,255
22.50833,239
22.51667,224
22.52500,211
22.53333,199
22.54167,187
22.55000,176
22.55833,167
22.56667,157
22.57500,149
22.58333,141
22.59167,133
22.60000,126
22.60833,120
22.61667,115
22.62500,110
22.63333,105
22.64167,101
22.65000,97
22.65833,93
22.66667,90
22.67500,87
22.68333,84
22.69167,81
22.70000,79
22.70833,77
22.71667,75
22.72500,73
22.73333,71
22.74167,69
22.75000,67
22.75833,66
22.76667,65
22.77500,64
22.78333,63
22.79167,62
22.80000,62
22.80833,61
22.81667,60
22.82500,60
22.83333,59
22.84167,59
22.85000,58
22.85833,57
22.86667,57
22.87500,56
22.88333,56
22.89167,55
22.90000,55
22.90833,54
22.91667,54
22.92500,53
22.93333,53
22.94167,53
22.95000,53
22.95833,53
22.96667,52
22.97500,52
22.98333,52
22.99167,52
23.00000,52
23.00833,52
23.01667,52
23.02500,52
23.03333,51
23.04167,50
23.05000,50
23.05833,50
23.06667,49
23.07500,49
23.08333,49
23.09167,49
23.10000,49
23.10833,49
23.11667,49
23.12500,48
23.13333,48
23.14167,48
23.15000,48
23.15833,49
23.16667,49
23.17500,48
23.18333,49
23.19167,49
23.20000,49
23.20833,49
23.21667,49
23.22500,49
23.23333,49
23.24167,48
23.25000,48
23.25833,48
23.26667,48
23.27500,48
23.28333,48
23.29167,48
23.30000,48
23.30833,48
23.31667,48
23.32500,48
23.33333,49
23.34167,48
23.35000,48
23.35833,48
23.36667,48
23.37500,47
23.38333,47
23.39167,47
23.40000,48
23.40833,48
23.41667,48
23.42500,48
23.43333,48
23.44167,47
23.45000,47
23.45833,47
23.46667,47
23.47500,47
23.48333,47
23.49167,47
23.50000,47
23.50833,46
23.51667,46
23.52500,46
23.53333,46
23.54167,46
23.55000,46
23.55833,46
23.56667,46
23.57500,46
23.58333,46
23.59167,46
23.60000,46
23.60833,45
23.61667,45
23.62500,45
23.63333,45
23.64167,45
23.65000,45
23.65833,45
23.66667,45
23.67500,45
23.68333,45
23.69167,45
23.70000,45
23.70833,45
23.71667,45
23.72500,46
23.73333,46
23.74167,46
23.75000,46
23.75833,46
23.76667,46
23.77500,46
23.78333,45
23.79167,45
23.80000,44
23.80833,44
23.81667,45
23.82500,45
23.83333,44
23.84167,44
23.85000,44
23.85833,44
23.86667,45
23.87500,45
23.88333,45
23.89167,45
23.90000,45
23.90833,45
23.91667,45
23.92500,45
23.93333,45
23.94167,45
23.95000,45
23.95833,44
23.96667,44
23.97500,44
23.98333,44
23.99167,45
24.00000,44
24.00833,44
24.01667,44
24.02500,45
24.03333,44
24.04167,44
24.05000,44
24.05833,44
24.06667,44
24.07500,44
24.08333,44
24.09167,45
24.10000,45
24.10833,45
24.11667,44
24.12500,44
24.13333,44
24.14167,44
24.15000,44
24.15833,44
24.16667,44
24.17500,44
24.18333,44
24.19167,44
24.20000,44
24.20833,45
24.21667,45
24.22500,45
24.23333,45
24.24167,45
24.25000,45
24.25833,45
24.26667,45
24.27500,45
24.28333,46
24.29167,46
24.30000,45
24.30833,46
24.31667,46
24.32500,46
24.33333,47
24.34167,47
24.35000,47
24.35833,47
24.36667,47
24.37500,47
24.38333,47
24.39167,47
24.40000,48
24.40833,48
24.41667,49
24.42500,49
24.43333,49
24.44167,49
24.45000,50
24.45833,50
24.46667,51
24.47500,52
24.48333,53
24.49167,54
24.50000,55
24.50833,55
24.51667,56
24.52500,57
24.53333,59
24.54167,60
24.55000,62
24.55833,64
24.56667,66
24.57500,68
24.58333,70
24.59167,73
24.60000,76
24.60833,79
24.61667,82
24.62500,86
24.63333,90
24.64167,95
24.65000,100
24.65833,105
24.66667,111
24.67500,118
24.68333,125
24.69167,133
24.70000,142
24.70833,151
24.71667,160
24.72500,170
24.73333,180
24.74167,192
24.75000,204
24.75833,217
24.76667,231
24.77500,246
24.78333,261
24.79167,277
24.80000,294
24.80833,311
24.81667,329
24.82500,348
24.83333,367
24.84167,387
24.85000,407
24.85833,428
24.86667,449
24.87500,471
24.88333,493
24.89167,516
24.90000,538
24.90833,561
24.91667,583
24.92500,604
24.93333,626
24.94167,647
24.95000,668
24.95833,689
24.96667,708
24.97500,727
24.98333,745
24.99167,762
25.00000,778
25.00833,793
25.01667,807
25.02500,819
25.03333,830
25.04167,840
25.05000,848
25.05833,855
25.06667,860
25.07500,864
25.08333,866
25.09167,867
25.10000,865
25.10833,863
25.11667,859
25.12500,853
25.13333,847
25.14167,838
25.15000,828
25.15833,817
25.16667,804
25.17500,790
25.18333,776
25.19167,761
25.20000,744
25.20833,727
25.21667,709
25.22500,691
25.23333,672
25.24167,652
25.25000,633
25.25833,612
25.26667,592
25.27500,571
25.28333,551
25.29167,531
25.30000,510
25.30833,490
25.31667,470
25.32500,450
25.33333,431
25.34167,412
25.35000,393
25.35833,375
25.36667,358
25.37500,341
25.38333,325
25.39167,309
25.40000,294
25.40833,280
25.41667,266
25.42500,252
25.43333,239
25.44167,227
25.45000,215
25.45833,205
25.46667,194
25.47500,185
25.48333,175
25.49167,166
25.50000,158
25.50833,150
25.51667,143
25.52500,136
25.53333,129
25.54167,123
25.55000,118
25.55833,113
25.56667,108
25.57500,103
25.58333,99
25.59167,95
25.60000,91
25.60833,88
25.61667,85
25.62500,83
25.63333,80
25.64167,78
25.65000,76
25.65833,74
25.66667,72
25.67500,70
25.68333,68
25.69167,67
25.70000,65
25.70833,64
25.71667,63
25.72500,61
25.73333,60
25.74167,59
25.75000,59
25.75833,58
25.76667,58
25.77500,57
25.78333,57
25.79167,56
25.80000,55
25.80833,55
25.81667,55
25.82500,54
25.83333,54
25.84167,54
25.85000,54
25.85833,54
25.86667,53
25.87500,52
25.88333,52
25.89167,52
25.90000,52
25.90833,51
25.91667,51
25.92500,51
25.93333,51
25.94167,50
25.95000,50
25.95833,51
25.96667,51
25.97500,51
25.98333,51
25.99167,51
26.00000,50
26.00833,50
26.01667,50
26.02500,51
26.03333,51
26.04167,51
26.05000,51
26.05833,51
26.06667,51
26.07500,51
26.08333,51
26.09167,51
26.10000,51
26.10833,50
26.11667,50
26.12500,50
26.13333,50
26.14167,50
26.15000,49
26.15833,49
26.16667,50
26.17500,50
26.18333,50
26.19167,50
26.20000,50
26.20833,50
26.21667,50
26.22500,51
26.23333,50
26.24167,50
26.25000,50
26.25833,50
26.26667,50
26.27500,49
26.28333,49
26.29167,49
26.30000,49
26.30833,49
26.31667,50
26.32500,50
26.33333,50
26.34167,50
26.35000,50
26.35833,50
26.36667,50
26.37500,51
26.38333,51
26.39167,51
26.40000,50
26.40833,50
26.41667,50
26.42500,50
26.43333,50
26.44167,50
26.45000,50
26.45833,50
26.46667,50
26.47500,50
26.48333,50
26.49167,50
26.50000,50
26.50833,51
26.51667,51
26.52500,51
26.53333,51
26.54167,50
26.55000,50
26.55833,50
26.56667,51
26.57500,51
26.58333,50
26.59167,50
26.60000,51
26.60833,51
26.61667,50
26.62500,50
26.63333,50
26.64167,50
26.65000,50
26.65833,50
26.66667,50
26.67500,50
26.68333,50
26.69167,50
26.70000,50
26.70833,51
26.71667,51
26.72500,51
26.73333,51
26.74167,51
26.75000,51
26.75833,51
26.76667,51
26.77500,51
26.78333,50
26.79167,50
26.80000,51
26.80833,51
26.81667,51
26.82500,50
26.83333,50
26.84167,50
26.85000,50
26.85833,50
26.86667,50
26.87500,50
26.88333,50
26.89167,50
26.90000,50
26.90833,50
26.91667,51
26.92500,51
26.93333,51
26.94167,51
26.95000,51
26.95833,51
26.96667,51
26.97500,51
26.98333,51
26.99167,51
27.00000,51
27.00833,51
27.01667,50
27.02500,50
27.03333,50
27.04167,51
27.05000,51
27.05833,51
27.06667,51
27.07500,51
27.08333,51
27.09167,51
27.10000,51
27.10833,50
27.11667,50
27.12500,50
27.13333,50
27.14167,50
27.15000,50
27.15833,51
27.16667,51
27.17500,51
27.18333,51
27.19167,50
27.20000,50
27.20833,50
27.21667,50
27.22500,50
27.23333,50
27.24167,50
27.25000,50
27.25833,50
27.26667,50
27.27500,50
27.28333,50
27.29167,50
27.30000,50
27.30833,49
27.31667,50
27.32500,50
27.33333,50
27.34167,50
27.35000,50
27.35833,50
27.36667,50
27.37500,50
27.38333,50
27.39167,50
27.40000,50
27.40833,50
27.41667,50
27.42500,50
27.43333,50
27.44167,50
27.45000,50
27.45833,51
27.46667,50
27.47500,51
27.48333,51
27.49167,50
27.50000,50
27.50833,50
27.51667,50
27.52500,50
27.53333,50
27.54167,50
27.55000,50
27.55833,50
27.56667,51
27.57500,51
27.58333,51
27.59167,51
27.60000,51
27.60833,51
27.61667,51
27.62500,51
27.63333,51
27.64167,51
27.65000,51
27.65833,51
27.66667,51
27.67500,51
27.68333,51
27.69167,51
27.70000,51
27.70833,51
27.71667,51
27.72500,50
27.73333,50
27.74167,50
27.75000,49
27.75833,49
27.76667,49
27.77500,49
27.78333,48
27.79167,48
27.80000,48
27.80833,47
27.81667,47
27.82500,47
27.83333,46
27.84167,46
27.85000,45
27.85833,45
27.86667,44
27.87500,44
27.88333,43
27.89167,42
27.90000,42
27.90833,40
27.91667,39
27.92500,38
27.93333,37
27.94167,36
27.95000,35
27.95833,34
27.96667,33
27.97500,31
27.98333,30
27.99167,28
28.00000,26
28.00833,24
28.01667,22
28.02500,20
28.03333,18
28.04167,16
28.05000,14
28.05833,12
28.06667,9
28.07500,7
28.08333,4
28.09167,2
28.10000,-1
28.10833,-4
28.11667,-6
28.12500,-9
28.13333,-12
28.14167,-15
28.15000,-19
28.15833,-22
28.16667,-25
28.17500,-28
28.18333,-31
28.19167,-35
28.20000,-38
28.20833,-41
28.21667,-44
28.22500,-48
28.23333,-51
28.24167,-54
28.25000,-58
28.25833,-61
28.26667,-65
28.27500,-68
28.28333,-70
28.29167,-73
28.30000,-75
28.30833,-78
28.31667,-80
28.32500,-83
28.33333,-85
28.34167,-88
28.35000,-90
28.35833,-92
28.36667,-94
28.37500,-96
28.38333,-97
28.39167,-98
28.40000,-99
28.40833,-101
28.41667,-101
28.42500,-102
28.43333,-102
28.44167,-102
28.45000,-103
28.45833,-103
28.46667,-103
28.47500,-103
28.48333,-102
28.49167,-102
28.50000,-100
28.50833,-100
28.51667,-99
28.52500,-97
28.53333,-96
28.54167,-94
28.55000,-92
28.55833,-91
28.56667,-89
28.57500,-87
28.58333,-84
28.59167,-82
28.60000,-80
28.60833,-77
28.61667,-75
28.62500,-72
28.63333,-69
28.64167,-67
28.65000,-64
28.65833,-62
28.66667,-59
28.67500,-56
28.68333,-53
28.69167,-51
28.70000,-48
28.70833,-45
28.71667,-42
28.72500,-39
28.73333,-36
28.74167,-33
28.75000,-30
28.75833,-27
28.76667,-25
28.77500,-23
28.78333,-20
28.79167,-17
28.80000,-15
28.80833,-12
28.81667,-10
28.82500,-7
28.83333,-5
28.84167,-3
28.85000,-1
28.85833,1
28.86667,3
28.87500,4
28.88333,6
28.89167,8
28.90000,10
28.90833,12
28.91667,13
28.92500,14
28.93333,16
28.94167,17
28.95000,19
28.95833,20
28.96667,22
28.97500,22
28.98333,23
28.99167,24
29.00000,25
29.00833,26
29.01667,27
29.02500,28
29.03333,29
29.04167,30
29.05000,30
29.05833,31
29.06667,32
29.07500,33
29.08333,34
29.09167,35
29.10000,35
29.10833,36
29.11667,37
29.12500,37
29.13333,38
29.14167,38
29.15000,39
29.15833,39
29.16667,39
29.17500,40
29.18333,40
29.19167,41
29.20000,41
29.20833,41
29.21667,42
29.22500,42
29.23333,42
29.24167,42
29.25000,42
29.25833,42
29.26667,42
29.27500,43
29.28333,43
29.29167,43
29.30000,43
29.30833,43
29.31667,43
29.32500,44
29.33333,44
29.34167,44
29.35000,45
29.35833,45
29.36667,45
29.37500,45
29.38333,45
29.39167,45
29.40000,46
29.40833,45
29.41667,45
29.42500,45
29.43333,45
29.44167,45
29.45000,46
29.45833,46
29.46667,45
29.47500,45
29.48333,45
29.49167,45
29.50000,45
29.50833,45
29.51667,45
29.52500,45
29.53333,44
29.54167,44
29.55000,44
29.55833,44
29.56667,44
29.57500,44
29.58333,43
29.59167,43
29.60000,42
29.60833,42
29.61667,42
29.62500,42
29.63333,42
29.64167,41
29.65000,41
29.65833,41
29.66667,40
29.67500,40
29.68333,39
29.69167,39
29.70000,38
29.70833,37
29.71667,37
29.72500,37
29.73333,36
29.74167,35
29.75000,34
29.75833,34
29.76667,33
29.77500,32
29.78333,32
29.79167,31
29.80000,30
29.80833,29
29.81667,28
29.82500,28
29.83333,27
29.84167,26
29.85000,25
29.85833,24
29.86667,22
29.87500,21
29.88333,20
29.89167,19
29.90000,18
29.90833,17
29.91667,17
29.92500,15
29.93333,14
29.94167,13
29.95000,12
29.95833,11
29.96667,9
29.97500,8
29.98333,7
29.99167,6
30.00000,5
30.00833,4
30.01667,3
30.02500,2
30.03333,2
30.04167,1
30.05000,-0
30.05833,-1
30.06667,-2
30.07500,-3
30.08333,-3
30.09167,-4
30.10000,-4
30.10833,-5
30.11667,-5
30.12500,-6
30.13333,-6
30.14167,-7
30.15000,-7
30.15833,-7
30.16667,-8
30.17500,-8
30.18333,-8
30.19167,-8
30.20000,-8
30.20833,-8
30.21667,-8
30.22500,-8
30.23333,-8
30.24167,-8
30.25000,-8
30.25833,-7
30.26667,-7
30.27500,-6
30.28333,-5
30.29167,-5
30.30000,-4
30.30833,-3
30.31667,-3
30.32500,-2
30.33333,-1
30.34167,-1
30.35000,0
30.35833,1
30.36667,2
30.37500,3
30.38333,4
30.39167,4
30.40000,5
30.40833,5
30.41667,6
30.42500,7
30.43333,8
30.44167,9
30.45000,10
30.45833,11
30.46667,12
30.47500,13
30.48333,14
30.49167,15
30.50000,16
30.50833,17
30.51667,18
30.52500,19
30.53333,21
30.54167,22
30.55000,23
30.55833,23
30.56667,25
30.57500,26
30.58333,26
30.59167,27
30.60000,28
30.60833,29
30.61667,29
30.62500,30
30.63333,31
30.64167,31
30.65000,32
30.65833,33
30.66667,33
30.67500,34
30.68333,35
30.69167,36
30.70000,37
30.70833,37
30.71667,37
30.72500,37
30.73333,38
30.74167,38
30.75000,38
30.75833,38
30.76667,39
30.77500,39
30.78333,40
30.79167,41
30.80000,41
30.80833,41
30.81667,42
30.82500,42
30.83333,43
30.84167,43
30.85000,43
30.85833,43
30.86667,43
30.87500,43
30.88333,43
30.89167,44
30.90000,44
30.90833,44
30.91667,44
30.92500,44
30.93333,44
30.94167,44
30.95000,44
30.95833,44
30.96667,44
30.97500,44
30.98333,45
30.99167,45
31.00000,45
31.00833,45
31.01667,45
31.02500,45
31.03333,45
31.04167,46
31.05000,46
31.05833,46
31.06667,47
31.07500,47
31.08333,47
31.09167,47
31.10000,47
31.10833,47
31.11667,47
31.12500,47
31.13333,47
31.14167,47
31.15000,47
31.15833,47
31.16667,47
31.17500,47
31.18333,47
31.19167,47
31.20000,47
31.20833,47
31.21667,47
31.22500,47
31.23333,48
31.24167,48
31.25000,48
31.25833,48
31.26667,48
31.27500,48
31.28333,49
31.29167,49
31.30000,49
31.30833,49
31.31667,49
31.32500,49
31.33333,50
31.34167,50
31.35000,49
31.35833,49
31.36667,49
31.37500,49
31.38333,49
31.39167,49
31.40000,50
31.40833,50
31.41667,50
31.42500,50
31.43333,51
31.44167,51
31.45000,51
31.45833,51
31.46667,51
31.47500,51
31.48333,51
31.49167,51
31.50000,51
31.50833,51
31.51667,51
31.52500,51
31.53333,51
31.54167,51
31.55000,51
31.55833,51
31.56667,51
31.57500,51
31.58333,51
31.59167,51
31.60000,51
31.60833,51
31.61667,51
31.62500,51
31.63333,51
31.64167,52
31.65000,52
31.65833,53
31.66667,53
31.67500,53
31.68333,53
31.69167,53
31.70000,53
31.70833,53
31.71667,53
31.72500,53
31.73333,53
31.74167,53
31.75000,53
31.75833,54
31.76667,54
31.77500,53
31.78333,53
31.79167,53
31.80000,53
31.80833,53
31.81667,53
31.82500,52
31.83333,52
31.84167,52
31.85000,52
31.85833,52
31.86667,52
31.87500,53
31.88333,53
31.89167,53
31.90000,53
31.90833,54
31.91667,54
31.92500,54
31.93333,54
31.94167,54
31.95000,54
31.95833,54
31.96667,53
31.97500,53
31.98333,53
31.99167,53
32.00000,54
32.00833,54
32.01667,54
32.02500,54
32.03333,54
32.04167,54
32.05000,54
32.05833,54
32.06667,53
32.07500,53
32.08333,53
32.09167,53
32.10000,53
32.10833,54
32.11667,54
32.12500,53
32.13333,53
32.14167,53
32.15000,53
32.15833,54
32.16667,54
32.17500,54
32.18333,54
32.19167,53
32.20000,54
32.20833,54
32.21667,54
32.22500,54
32.23333,54
32.24167,54
32.25000,54
32.25833,54
32.26667,54
32.27500,54
32.28333,54
32.29167,54
32.30000,54
32.30833,54
32.31667,54
32.32500,54
32.33333,54
32.34167,54
32.35000,54
32.35833,55
32.36667,55
32.37500,55
32.38333,55
32.39167,54
32.40000,54
32.40833,54
32.41667,54
32.42500,54
32.43333,54
32.44167,55
32.45000,55
32.45833,55
32.46667,55
32.47500,54
32.48333,54
32.49167,54
32.50000,54
32.50833,54
32.51667,54
32.52500,54
32.53333,54
32.54167,54
32.55000,54
32.55833,54
32.56667,54
32.57500,54
32.58333,54
32.59167,54
32.60000,54
32.60833,54
32.61667,54
32.62500,54
32.63333,54
32.64167,54
32.65000,54
32.65833,54
32.66667,54
32.67500,54
32.68333,55
32.69167,55
32.70000,55
32.70833,55
32.71667,55
32.72500,55
32.73333,55
32.74167,55
32.75000,55
32.75833,55
32.76667,55
32.77500,55
32.78333,55
32.79167,55
32.80000,55
32.80833,55
32.81667,55
32.82500,54
32.83333,54
32.84167,54
32.85000,54
32.85833,54
32.86667,54
32.87500,54
32.88333,54
32.89167,55
32.90000,55
32.90833,54
32.91667,54
32.92500,54
32.93333,54
32.94167,54
32.95000,55
32.95833,54
32.96667,54
32.97500,54
32.98333,54
32.99167,54
33.00000,54
33.00833,54
33.01667,54
33.02500,54
33.03333,55
33.04167,55
33.05000,55
33.05833,55
33.06667,55
33.07500,55
33.08333,55
33.09167,55
33.10000,54
33.10833,54
33.11667,54
33.12500,55
33.13333,55
33.14167,55
33.15000,55
33.15833,55
33.16667,54
33.17500,54
33.18333,55
33.19167,55
33.20000,55
33.20833,55
33.21667,55
33.22500,55
33.23333,55
33.24167,55
33.25000,55
33.25833,55
33.26667,55
33.27500,55
33.28333,55
33.29167,55
33.30000,55
33.30833,55
33.31667,55
33.32500,55
33.33333,55
33.34167,54
33.35000,54
33.35833,54
33.36667,54
33.37500,55
33.38333,55
33.39167,55
33.40000,55
33.40833,55
33.41667,56
33.42500,56
33.43333,55
33.44167,55
33.45000,55
33.45833,54
33.46667,55
33.47500,55
33.48333,55
33.49167,55
33.50000,55
33.50833,55
33.51667,55
33.52500,54
33.53333,54
33.54167,54
33.55000,54
33.55833,55
33.56667,55
33.57500,55
33.58333,56
33.59167,56
33.60000,56
33.60833,55
33.61667,55
33.62500,55
33.63333,55
33.64167,55
33.65000,55
33.65833,56
33.66667,56
33.67500,55
33.68333,55
33.69167,55
33.70000,55
33.70833,55
33.71667,55
33.72500,56
33.73333,56
33.74167,55
33.75000,55
33.75833,55
33.76667,55
33.77500,55
33.78333,55
33.79167,55
33.80000,55
33.80833,55
33.81667,54
33.82500,54
33.83333,54
33.84167,54
33.85000,54
33.85833,54
33.86667,55
33.87500,55
33.88333,55
33.89167,55
33.90000,55
33.90833,55
33.91667,55
33.92500,55
33.93333,55
33.94167,55
33.95000,56
33.95833,56
33.96667,56
33.97500,56
33.98333,56
33.99167,56
34.00000,57
34.00833,57
34.01667,56
34.02500,56
34.03333,56
34.04167,56
34.05000,56
34.05833,55
34.06667,55
34.07500,55
34.08333,55
34.09167,55
34.10000,55
34.10833,55
34.11667,55
34.12500,55
34.13333,55
34.14167,55
34.15000,55
34.15833,55
34.16667,55
34.17500,56
34.18333,56
34.19167,56
34.20000,55
34.20833,55
34.21667,55
34.22500,55
34.23333,55
34.24167,55
34.25000,55
34.25833,55
34.26667,56
34.27500,56
34.28333,56
34.29167,56
34.30000,56
34.30833,56
34.31667,56
34.32500,56
34.33333,56
34.34167,56
34.35000,55
34.35833,56
34.36667,56
34.37500,56
34.38333,56
34.39167,56
34.40000,56
34.40833,56
34.41667,56
34.42500,55
34.43333,55
34.44167,55
34.45000,55
34.45833,55
34.46667,55
34.47500,55
34.48333,56
34.49167,56
34.50000,56
34.50833,56
34.51667,56
34.52500,56
34.53333,56
34.54167,56
34.55000,56
34.55833,56
34.56667,56
34.57500,56
34.58333,56
34.59167,56
34.60000,56
34.60833,57
34.61667,57
34.62500,57
34.63333,56
34.64167,56
34.65000,56
34.65833,56
34.66667,56
34.67500,57
34.68333,57
34.69167,57
34.70000,56
34.70833,56
34.71667,56
34.72500,56
34.73333,56
34.74167,56
34.75000,57
34.75833,57
34.76667,57
34.77500,56
34.78333,56
34.79167,56
34.80000,56
34.80833,56
34.81667,56
34.82500,56
34.83333,56
34.84167,56
34.85000,56
34.85833,56
34.86667,56
34.87500,56
34.88333,56
34.89167,56
34.90000,56
34.90833,56
34.91667,56
34.92500,56
34.93333,56
34.94167,56
34.95000,56
34.95833,56
34.96667,56
34.97500,56
34.98333,56
34.99167,56
35.00000,56
35.00833,57
35.01667,57
35.02500,57
35.03333,57
35.04167,57
35.05000,57
35.05833,57
35.06667,57
35.07500,57
35.08333,56
35.09167,56
35.10000,56
35.10833,56
35.11667,56
35.12500,57
35.13333,57
35.14167,57
35.15000,56
35.15833,56
35.16667,56
35.17500,56
35.18333,55
35.19167,55
35.20000,55
35.20833,55
35.21667,56
35.22500,56
35.23333,56
35.24167,56
35.25000,56
35.25833,56
35.26667,56
35.27500,56
35.28333,56
35.29167,57
35.30000,57
35.30833,57
35.31667,57
35.32500,57
35.33333,57
35.34167,56
35.35000,56
35.35833,56
35.36667,56
35.37500,56
35.38333,56
35.39167,57
35.40000,57
35.40833,57
35.41667,57
35.42500,57
35.43333,57
35.44167,56
35.45000,56
35.45833,56
35.46667,56
35.47500,56
35.48333,56
35.49167,56
35.50000,56
35.50833,56
35.51667,56
35.52500,56
35.53333,57
35.54167,57
35.55000,57
35.55833,57
35.56667,57
35.57500,57
35.58333,57
35.59167,57
35.60000,57
35.60833,57
35.61667,57
35.62500,57
35.63333,57
35.64167,57
35.65000,57
35.65833,57
35.66667,57
35.67500,57
35.68333,57
35.69167,57
35.70000,57
35.70833,57
35.71667,57
35.72500,57
35.73333,57
35.74167,57
35.75000,57
35.75833,57
35.76667,57
35.77500,57
35.78333,57
35.79167,57
35.80000,57
35.80833,57
35.81667,57
35.82500,56
35.83333,56
35.84167,57
35.85000,57
35.85833,57
35.86667,57
35.87500,57
35.88333,57
35.89167,57
35.90000,57
35.90833,57
35.91667,57
35.92500,57
35.93333,57
35.94167,57
35.95000,57
35.95833,57
35.96667,57
35.97500,57
35.98333,57
35.99167,57
36.00000,57
36.00833,57
36.01667,56
36.02500,56
36.03333,56
36.04167,56
36.05000,56
36.05833,56
36.06667,56
36.07500,56
36.08333,57
36.09167,57
36.10000,57
36.10833,57
36.11667,57
36.12500,57
36.13333,57
36.14167,57
36.15000,57
36.15833,57
36.16667,57
36.17500,57
36.18333,56
36.19167,56
36.20000,57
36.20833,57
36.21667,57
36.22500,57
36.23333,57
36.24167,57
36.25000,57
36.25833,57
36.26667,56
36.27500,56
36.28333,56
36.29167,56
36.30000,56
36.30833,57
36.31667,57
36.32500,57
36.33333,57
36.34167,57
36.35000,57
36.35833,57
36.36667,57
36.37500,57
36.38333,57
36.39167,57
36.40000,57
36.40833,57
36.41667,57
36.42500,58
36.43333,58
36.44167,58
36.45000,58
36.45833,57
36.46667,57
36.47500,57
36.48333,57
36.49167,57
36.50000,57
36.50833,57
36.51667,57
36.52500,57
36.53333,57
36.54167,57
36.55000,58
36.55833,58
36.56667,58
36.57500,58
36.58333,58
36.59167,58
36.60000,58
36.60833,58
36.61667,58
36.62500,58
36.63333,57
36.64167,57
36.65000,57
36.65833,57
36.66667,57
36.67500,57
36.68333,57
36.69167,57
36.70000,58
36.70833,58
36.71667,58
36.72500,58
36.73333,58
36.74167,58
36.75000,58
36.75833,58
36.76667,58
36.77500,58
36.78333,59
36.79167,58
36.80000,58
36.80833,58
36.81667,58
36.82500,59
36.83333,59
36.84167,59
36.85000,59
36.85833,59
36.86667,59
36.87500,59
36.88333,59
36.89167,59
36.90000,59
36.90833,59
36.91667,59
36.92500,59
36.93333,60
36.94167,60
36.95000,60
36.95833,60
36.96667,60
36.97500,60
36.98333,60
36.99167,60
37.00000,60
37.00833,60
37.01667,60
37.02500,60
37.03333,60
37.04167,60
37.05000,59
37.05833,60
37.06667,60
37.07500,60
37.08333,60
37.09167,60
37.10000,60
37.10833,60
37.11667,60
37.12500,59
37.13333,59
37.14167,59
37.15000,59
37.15833,59
37.16667,59
37.17500,59
37.18333,59
37.19167,58
37.20000,58
37.20833,59
37.21667,59
37.22500,59
37.23333,58
37.24167,58
37.25000,58
37.25833,58
37.26667,58
37.27500,58
37.28333,58
37.29167,58
37.30000,58
37.30833,58
37.31667,59
37.32500,59
37.33333,59
37.34167,59
37.35000,59
37.35833,59
37.36667,59
37.37500,59
37.38333,59
37.39167,60
37.40000,60
37.40833,60
37.41667,60
37.42500,59
37.43333,59
37.44167,59
37.45000,59
37.45833,60
37.46667,60
37.47500,60
37.48333,60
37.49167,60
37.50000,59
37.50833,59
37.51667,59
37.52500,60
37.53333,60
37.54167,60
37.55000,60
37.55833,60
37.56667,60
37.57500,60
37.58333,60
37.59167,60
37.60000,60
37.60833,60
37.61667,60
37.62500,60
37.63333,60
37.64167,60
37.65000,59
37.65833,59
37.66667,59
37.67500,59
37.68333,59
37.69167,60
37.70000,60
37.70833,60
37.71667,60
37.72500,60
37.73333,60
37.74167,60
37.75000,60
37.75833,60
37.76667,60
37.77500,60
37.78333,61
37.79167,61
37.80000,61
37.80833,61
37.81667,61
37.82500,61
37.83333,61
37.84167,61
37.85000,60
37.85833,60
37.86667,60
37.87500,60
37.88333,61
37.89167,61
37.90000,61
37.90833,61
37.91667,61
37.92500,61
37.93333,61
37.94167,61
37.95000,61
37.95833,61
37.96667,61
37.97500,61
37.98333,61
37.99167,61
38.00000,61
38.00833,61
38.01667,61
38.02500,61
38.03333,60
38.04167,60
38.05000,60
38.05833,60
38.06667,60
38.07500,60
38.08333,61
38.09167,61
38.10000,61
38.10833,61
38.11667,61
38.12500,61
38.13333,61
38.14167,60
38.15000,60
38.15833,61
38.16667,61
38.17500,61
38.18333,61
38.19167,61
38.20000,61
38.20833,61
38.21667,61
38.22500,61
38.23333,62
38.24167,62
38.25000,62
38.25833,62
38.26667,62
38.27500,62
38.28333,62
38.29167,62
38.30000,62
38.30833,62
38.31667,62
38.32500,62
38.33333,62
38.34167,62
38.35000,62
38.35833,62
38.36667,62
38.37500,62
38.38333,62
38.39167,61
38.40000,61
38.40833,61
38.41667,61
38.42500,61
38.43333,61
38.44167,62
38.45000,62
38.45833,62
38.46667,62
38.47500,62
38.48333,62
38.49167,62
38.50000,62
38.50833,61
38.51667,62
38.52500,62
38.53333,62
38.54167,62
38.55000,62
38.55833,62
38.56667,62
38.57500,62
38.58333,62
38.59167,61
38.60000,61
38.60833,61
38.61667,61
38.62500,61
38.63333,61
38.64167,62
38.65000,62
38.65833,62
38.66667,62
38.67500,62
38.68333,62
38.69167,62
38.70000,62
38.70833,62
38.71667,62
38.72500,62
38.73333,62
38.74167,62
38.75000,62
38.75833,61
38.76667,61
38.77500,61
38.78333,61
38.79167,61
38.80000,61
38.80833,61
38.81667,61
38.82500,61
38.83333,61
38.84167,62
38.85000,62
38.85833,62
38.86667,62
38.87500,63
38.88333,63
38.89167,63
38.90000,63
38.90833,63
38.91667,63
38.92500,63
38.93333,62
38.94167,62
38.95000,63
38.95833,62
38.96667,62
38.97500,62
38.98333,62
38.99167,62
39.00000,62
39.00833,62
39.01667,62
39.02500,63
39.03333,63
39.04167,63
39.05000,63
39.05833,64
39.06667,64
39.07500,64
39.08333,64
39.09167,64
39.10000,63
39.10833,63
39.11667,63
39.12500,63
39.13333,63
39.14167,63
39.15000,63
39.15833,63
39.16667,63
39.17500,63
39.18333,64
39.19167,64
39.20000,64
39.20833,64
39.21667,63
39.22500,63
39.23333,63
39.24167,63
39.25000,63
39.25833,63
39.26667,63
39.27500,63
39.28333,63
39.29167,63
39.30000,63
39.30833,64
39.31667,64
39.32500,64
39.33333,63
39.34167,64
39.35000,64
39.35833,64
39.36667,64
39.37500,64
39.38333,64
39.39167,64
39.40000,64
39.40833,64
39.41667,64
39.42500,63
39.43333,63
39.44167,62
39.45000,63
39.45833,63
39.46667,63
39.47500,64
39.48333,64
39.49167,64
39.50000,64
39.50833,64
39.51667,64
39.52500,64
39.53333,64
39.54167,64
39.55000,64
39.55833,64
39.56667,64
39.57500,64
39.58333,64
39.59167,64
39.60000,64
39.60833,64
39.61667,64
39.62500,64
39.63333,63
39.64167,63
39.65000,63
39.65833,64
39.66667,63
39.67500,63
39.68333,63
39.69167,63
39.70000,63
39.70833,63
39.71667,63
39.72500,63
39.73333,64
39.74167,64
39.75000,64
39.75833,64
39.76667,64
39.77500,64
39.78333,64
39.79167,64
39.80000,64
39.80833,64
39.81667,64
39.82500,64
39.83333,64
39.84167,64
39.85000,64
39.85833,64
39.86667,64
39.87500,64
39.88333,64
39.89167,64
39.90000,64
39.90833,65
39.91667,65
39.92500,65
39.93333,65
39.94167,65
39.95000,64
39.95833,64
39.96667,64
39.97500,64
39.98333,64
39.99167,64
40.00000,64

