[Header]
Application Name,LabSolutions
Version,5.97 SP1
Data File Name,C:\Users\cremerlab\Desktop\griffin\2021-04-03_buffer_calibration\2021-04-03_buffer_calibration_432021_007_020.lcd
Output Date,4/4/2021
Output Time,4:09:57 AM

[File Information]
Type,Data File
Generated,4/4/2021 3:29:37 AM
Generated by,System Administrator
Modified,4/4/2021 4:09:57 AM
Modified by,System Administrator

[Sample Information]
Operator Name,System Administrator
Acquired,4/4/2021 3:29:56 AM
Sample Type,1:Standard
Level,7
Sample Name,2021-04-02_DM_glucose_glycerol_acetate_calibration_03mM
Sample ID,007
ISTD Amount1,1
ISTD Amount2,1
ISTD Amount3,1
ISTD Amount4,1
ISTD Amount5,1
ISTD Amount6,1
ISTD Amount7,1
ISTD Amount8,1
ISTD Amount9,1
ISTD Amount10,1
ISTD Amount11,1
ISTD Amount12,1
ISTD Amount13,1
ISTD Amount14,1
ISTD Amount15,1
ISTD Amount16,1
ISTD Amount17,1
ISTD Amount18,1
ISTD Amount19,1
ISTD Amount20,1
ISTD Amount21,1
ISTD Amount22,1
ISTD Amount23,1
ISTD Amount24,1
ISTD Amount25,1
ISTD Amount26,1
ISTD Amount27,1
ISTD Amount28,1
ISTD Amount29,1
ISTD Amount30,1
ISTD Amount31,1
ISTD Amount32,1
Sample Amount,1
Dilution Factor,1
Vial#,25
Injection Volume,20

[Original Files]
Data File,C:\Users\cremerlab\Desktop\griffin\2021-04-03_buffer_calibration\2021-04-03_buffer_calibration_432021_007_020.lcd
Method File,C:\LabSolutions\Data\Project1\organicacidsetc2.lcm
Batch File,C:\Users\cremerlab\Desktop\griffin\2021-04-03_buffer_calibration\2021-04-03_buffer_calibration.lcb
Report Format File,c:\LabSolutions\System\DEFAULT.lsr

[File Description]


[Configuration]
Instrument Name,HPLC-PC-Instrument1
Instrument #,1
Line #,1
# of Detectors,2
Detector ID,Detector A,Detector B
Detector Name,Detector A,Detector B
# of Channels,1,1

[Peak Table(Detector A)]
# of Peaks,0

[Peak Table(Detector B)]
# of Peaks,6
Peak#,R.Time,I.Time,F.Time,Area,Height,A/H,Conc.,Mark,ID#,Name,k',Plate #,Plate Ht.,Tailing,Resolution,Sep.Factor,Area Ratio,Height Ratio,Conc. %,Norm Conc.
1,10.746,10.550,10.967,42032,2910,14.444,2.086,   ,,,0.000,12943,11.589,1.040,0.000,0.000,0,0,0.000,0.000
2,11.325,11.008,11.483,46065,1849,24.915,2.286,   ,,,0.054,10103,14.847,0.751,1.398,0.000,0,0,0.000,0.000
3,14.918,14.100,15.325,1504844,60865,24.724,74.678,   ,,,0.388,7536,19.906,0.834,6.313,7.204,0,0,0.000,0.000
4,15.663,15.325,17.358,302759,12129,24.962,15.024, V ,,,0.458,9334,16.070,0.000,1.117,1.179,0,0,0.000,0.000
5,22.079,21.442,22.967,84171,3133,26.868,4.177,   ,,,1.055,15510,9.671,1.089,9.451,2.305,0,0,0.000,0.000
6,25.086,24.483,25.867,35246,1217,28.953,1.749,   ,,,1.334,17003,8.822,1.060,4.067,1.265,0,0,0.000,0.000

[LC Chromatogram(Detector B-Ch1)]
Interval(msec),500
# of Points,4801
Start Time(min),0.000
End Time(min),40.000
Intensity Units,mV
Intensity Multiplier,0.001
R.Time (min),Intensity
0.00000,-0
0.00833,-0
0.01667,-0
0.02500,0
0.03333,0
0.04167,0
0.05000,0
0.05833,0
0.06667,1
0.07500,1
0.08333,1
0.09167,1
0.10000,1
0.10833,1
0.11667,1
0.12500,0
0.13333,-0
0.14167,-0
0.15000,-0
0.15833,-0
0.16667,-0
0.17500,-0
0.18333,-0
0.19167,-0
0.20000,-0
0.20833,0
0.21667,0
0.22500,0
0.23333,1
0.24167,0
0.25000,1
0.25833,1
0.26667,1
0.27500,1
0.28333,1
0.29167,1
0.30000,0
0.30833,0
0.31667,0
0.32500,0
0.33333,0
0.34167,1
0.35000,1
0.35833,1
0.36667,1
0.37500,1
0.38333,1
0.39167,1
0.40000,1
0.40833,1
0.41667,0
0.42500,1
0.43333,1
0.44167,1
0.45000,1
0.45833,1
0.46667,1
0.47500,1
0.48333,1
0.49167,2
0.50000,2
0.50833,2
0.51667,2
0.52500,3
0.53333,2
0.54167,2
0.55000,2
0.55833,2
0.56667,3
0.57500,3
0.58333,3
0.59167,3
0.60000,3
0.60833,3
0.61667,3
0.62500,2
0.63333,2
0.64167,2
0.65000,2
0.65833,1
0.66667,1
0.67500,1
0.68333,1
0.69167,1
0.70000,1
0.70833,1
0.71667,1
0.72500,1
0.73333,1
0.74167,1
0.75000,1
0.75833,1
0.76667,1
0.77500,1
0.78333,1
0.79167,1
0.80000,1
0.80833,1
0.81667,2
0.82500,2
0.83333,2
0.84167,2
0.85000,3
0.85833,3
0.86667,3
0.87500,2
0.88333,2
0.89167,2
0.90000,2
0.90833,3
0.91667,2
0.92500,2
0.93333,2
0.94167,2
0.95000,3
0.95833,3
0.96667,3
0.97500,3
0.98333,3
0.99167,3
1.00000,3
1.00833,4
1.01667,4
1.02500,4
1.03333,4
1.04167,4
1.05000,4
1.05833,4
1.06667,4
1.07500,3
1.08333,3
1.09167,3
1.10000,3
1.10833,3
1.11667,3
1.12500,2
1.13333,2
1.14167,3
1.15000,3
1.15833,3
1.16667,3
1.17500,3
1.18333,3
1.19167,3
1.20000,4
1.20833,4
1.21667,4
1.22500,4
1.23333,4
1.24167,4
1.25000,4
1.25833,3
1.26667,3
1.27500,3
1.28333,3
1.29167,3
1.30000,3
1.30833,3
1.31667,3
1.32500,3
1.33333,3
1.34167,3
1.35000,3
1.35833,3
1.36667,3
1.37500,3
1.38333,3
1.39167,3
1.40000,3
1.40833,3
1.41667,3
1.42500,2
1.43333,2
1.44167,2
1.45000,2
1.45833,2
1.46667,2
1.47500,2
1.48333,2
1.49167,2
1.50000,2
1.50833,2
1.51667,3
1.52500,3
1.53333,4
1.54167,4
1.55000,4
1.55833,4
1.56667,3
1.57500,3
1.58333,3
1.59167,3
1.60000,3
1.60833,3
1.61667,3
1.62500,3
1.63333,3
1.64167,3
1.65000,3
1.65833,3
1.66667,3
1.67500,3
1.68333,3
1.69167,3
1.70000,3
1.70833,3
1.71667,3
1.72500,3
1.73333,3
1.74167,3
1.75000,3
1.75833,3
1.76667,3
1.77500,3
1.78333,3
1.79167,3
1.80000,3
1.80833,3
1.81667,3
1.82500,3
1.83333,2
1.84167,2
1.85000,3
1.85833,3
1.86667,3
1.87500,3
1.88333,3
1.89167,3
1.90000,2
1.90833,3
1.91667,3
1.92500,3
1.93333,4
1.94167,3
1.95000,3
1.95833,3
1.96667,3
1.97500,3
1.98333,3
1.99167,3
2.00000,3
2.00833,3
2.01667,3
2.02500,3
2.03333,3
2.04167,3
2.05000,4
2.05833,4
2.06667,4
2.07500,4
2.08333,4
2.09167,4
2.10000,4
2.10833,4
2.11667,4
2.12500,4
2.13333,4
2.14167,4
2.15000,5
2.15833,5
2.16667,5
2.17500,5
2.18333,5
2.19167,5
2.20000,5
2.20833,5
2.21667,5
2.22500,5
2.23333,4
2.24167,4
2.25000,4
2.25833,4
2.26667,4
2.27500,5
2.28333,5
2.29167,5
2.30000,5
2.30833,5
2.31667,5
2.32500,5
2.33333,5
2.34167,4
2.35000,4
2.35833,4
2.36667,4
2.37500,4
2.38333,4
2.39167,4
2.40000,4
2.40833,5
2.41667,5
2.42500,5
2.43333,5
2.44167,5
2.45000,5
2.45833,6
2.46667,6
2.47500,6
2.48333,6
2.49167,6
2.50000,7
2.50833,7
2.51667,7
2.52500,7
2.53333,7
2.54167,7
2.55000,6
2.55833,6
2.56667,6
2.57500,6
2.58333,6
2.59167,5
2.60000,5
2.60833,5
2.61667,5
2.62500,5
2.63333,5
2.64167,5
2.65000,5
2.65833,5
2.66667,5
2.67500,5
2.68333,5
2.69167,5
2.70000,5
2.70833,5
2.71667,5
2.72500,5
2.73333,5
2.74167,6
2.75000,6
2.75833,6
2.76667,6
2.77500,6
2.78333,6
2.79167,6
2.80000,6
2.80833,6
2.81667,6
2.82500,6
2.83333,6
2.84167,6
2.85000,6
2.85833,6
2.86667,6
2.87500,5
2.88333,5
2.89167,6
2.90000,6
2.90833,6
2.91667,6
2.92500,6
2.93333,6
2.94167,6
2.95000,6
2.95833,6
2.96667,6
2.97500,6
2.98333,6
2.99167,6
3.00000,6
3.00833,6
3.01667,7
3.02500,7
3.03333,7
3.04167,7
3.05000,7
3.05833,7
3.06667,6
3.07500,6
3.08333,6
3.09167,6
3.10000,6
3.10833,7
3.11667,7
3.12500,7
3.13333,7
3.14167,7
3.15000,7
3.15833,7
3.16667,7
3.17500,7
3.18333,7
3.19167,7
3.20000,7
3.20833,8
3.21667,8
3.22500,7
3.23333,7
3.24167,7
3.25000,7
3.25833,8
3.26667,8
3.27500,8
3.28333,8
3.29167,8
3.30000,8
3.30833,7
3.31667,7
3.32500,7
3.33333,7
3.34167,7
3.35000,7
3.35833,7
3.36667,7
3.37500,7
3.38333,7
3.39167,7
3.40000,7
3.40833,8
3.41667,8
3.42500,8
3.43333,8
3.44167,8
3.45000,8
3.45833,8
3.46667,9
3.47500,9
3.48333,9
3.49167,9
3.50000,9
3.50833,9
3.51667,9
3.52500,9
3.53333,9
3.54167,9
3.55000,9
3.55833,9
3.56667,9
3.57500,9
3.58333,8
3.59167,8
3.60000,8
3.60833,8
3.61667,8
3.62500,8
3.63333,8
3.64167,8
3.65000,8
3.65833,8
3.66667,8
3.67500,8
3.68333,8
3.69167,8
3.70000,7
3.70833,7
3.71667,8
3.72500,8
3.73333,7
3.74167,7
3.75000,7
3.75833,8
3.76667,8
3.77500,8
3.78333,8
3.79167,8
3.80000,9
3.80833,9
3.81667,9
3.82500,9
3.83333,9
3.84167,9
3.85000,9
3.85833,9
3.86667,9
3.87500,9
3.88333,9
3.89167,9
3.90000,9
3.90833,8
3.91667,8
3.92500,8
3.93333,8
3.94167,8
3.95000,8
3.95833,8
3.96667,8
3.97500,7
3.98333,7
3.99167,7
4.00000,7
4.00833,7
4.01667,7
4.02500,6
4.03333,7
4.04167,7
4.05000,7
4.05833,7
4.06667,8
4.07500,8
4.08333,8
4.09167,7
4.10000,7
4.10833,7
4.11667,7
4.12500,8
4.13333,8
4.14167,8
4.15000,8
4.15833,8
4.16667,8
4.17500,8
4.18333,8
4.19167,8
4.20000,8
4.20833,7
4.21667,7
4.22500,7
4.23333,7
4.24167,7
4.25000,7
4.25833,6
4.26667,6
4.27500,6
4.28333,7
4.29167,7
4.30000,7
4.30833,7
4.31667,7
4.32500,7
4.33333,7
4.34167,8
4.35000,8
4.35833,8
4.36667,8
4.37500,7
4.38333,7
4.39167,7
4.40000,7
4.40833,7
4.41667,7
4.42500,7
4.43333,7
4.44167,8
4.45000,8
4.45833,8
4.46667,8
4.47500,8
4.48333,8
4.49167,8
4.50000,8
4.50833,8
4.51667,8
4.52500,8
4.53333,8
4.54167,8
4.55000,9
4.55833,8
4.56667,8
4.57500,8
4.58333,8
4.59167,8
4.60000,8
4.60833,7
4.61667,7
4.62500,7
4.63333,7
4.64167,7
4.65000,8
4.65833,8
4.66667,8
4.67500,8
4.68333,8
4.69167,8
4.70000,8
4.70833,8
4.71667,8
4.72500,8
4.73333,8
4.74167,8
4.75000,8
4.75833,8
4.76667,8
4.77500,8
4.78333,8
4.79167,8
4.80000,8
4.80833,8
4.81667,8
4.82500,8
4.83333,7
4.84167,7
4.85000,7
4.85833,8
4.86667,8
4.87500,8
4.88333,8
4.89167,8
4.90000,8
4.90833,8
4.91667,8
4.92500,8
4.93333,8
4.94167,8
4.95000,8
4.95833,8
4.96667,8
4.97500,8
4.98333,8
4.99167,8
5.00000,8
5.00833,8
5.01667,8
5.02500,8
5.03333,8
5.04167,8
5.05000,8
5.05833,9
5.06667,9
5.07500,9
5.08333,9
5.09167,9
5.10000,9
5.10833,10
5.11667,10
5.12500,10
5.13333,10
5.14167,10
5.15000,9
5.15833,9
5.16667,9
5.17500,9
5.18333,9
5.19167,8
5.20000,8
5.20833,8
5.21667,8
5.22500,8
5.23333,8
5.24167,8
5.25000,8
5.25833,9
5.26667,9
5.27500,9
5.28333,9
5.29167,9
5.30000,9
5.30833,9
5.31667,9
5.32500,10
5.33333,10
5.34167,9
5.35000,9
5.35833,9
5.36667,9
5.37500,9
5.38333,9
5.39167,9
5.40000,9
5.40833,9
5.41667,9
5.42500,10
5.43333,10
5.44167,10
5.45000,10
5.45833,9
5.46667,9
5.47500,9
5.48333,9
5.49167,10
5.50000,10
5.50833,10
5.51667,10
5.52500,10
5.53333,10
5.54167,10
5.55000,11
5.55833,11
5.56667,11
5.57500,11
5.58333,10
5.59167,10
5.60000,11
5.60833,11
5.61667,11
5.62500,11
5.63333,11
5.64167,11
5.65000,11
5.65833,11
5.66667,11
5.67500,11
5.68333,11
5.69167,11
5.70000,11
5.70833,11
5.71667,12
5.72500,12
5.73333,12
5.74167,13
5.75000,12
5.75833,12
5.76667,12
5.77500,12
5.78333,12
5.79167,12
5.80000,12
5.80833,12
5.81667,12
5.82500,12
5.83333,12
5.84167,12
5.85000,12
5.85833,12
5.86667,12
5.87500,12
5.88333,12
5.89167,12
5.90000,12
5.90833,11
5.91667,11
5.92500,12
5.93333,12
5.94167,11
5.95000,11
5.95833,11
5.96667,11
5.97500,11
5.98333,11
5.99167,11
6.00000,11
6.00833,12
6.01667,12
6.02500,12
6.03333,12
6.04167,12
6.05000,12
6.05833,13
6.06667,13
6.07500,13
6.08333,13
6.09167,13
6.10000,13
6.10833,13
6.11667,13
6.12500,13
6.13333,13
6.14167,13
6.15000,13
6.15833,13
6.16667,12
6.17500,12
6.18333,12
6.19167,12
6.20000,12
6.20833,12
6.21667,12
6.22500,12
6.23333,12
6.24167,12
6.25000,13
6.25833,13
6.26667,13
6.27500,13
6.28333,12
6.29167,12
6.30000,12
6.30833,13
6.31667,13
6.32500,13
6.33333,13
6.34167,13
6.35000,12
6.35833,12
6.36667,12
6.37500,12
6.38333,11
6.39167,11
6.40000,11
6.40833,12
6.41667,12
6.42500,12
6.43333,12
6.44167,12
6.45000,12
6.45833,12
6.46667,12
6.47500,12
6.48333,12
6.49167,12
6.50000,12
6.50833,12
6.51667,12
6.52500,12
6.53333,12
6.54167,12
6.55000,12
6.55833,12
6.56667,12
6.57500,12
6.58333,12
6.59167,12
6.60000,12
6.60833,12
6.61667,12
6.62500,12
6.63333,12
6.64167,12
6.65000,12
6.65833,12
6.66667,12
6.67500,12
6.68333,11
6.69167,11
6.70000,11
6.70833,11
6.71667,11
6.72500,11
6.73333,11
6.74167,11
6.75000,11
6.75833,11
6.76667,10
6.77500,10
6.78333,11
6.79167,11
6.80000,11
6.80833,11
6.81667,11
6.82500,11
6.83333,12
6.84167,11
6.85000,12
6.85833,12
6.86667,12
6.87500,12
6.88333,12
6.89167,12
6.90000,12
6.90833,12
6.91667,12
6.92500,12
6.93333,12
6.94167,12
6.95000,12
6.95833,12
6.96667,12
6.97500,11
6.98333,11
6.99167,11
7.00000,11
7.00833,12
7.01667,12
7.02500,12
7.03333,12
7.04167,11
7.05000,11
7.05833,11
7.06667,11
7.07500,11
7.08333,11
7.09167,10
7.10000,11
7.10833,11
7.11667,11
7.12500,12
7.13333,12
7.14167,12
7.15000,12
7.15833,12
7.16667,12
7.17500,12
7.18333,12
7.19167,12
7.20000,12
7.20833,12
7.21667,12
7.22500,12
7.23333,12
7.24167,12
7.25000,12
7.25833,12
7.26667,12
7.27500,12
7.28333,12
7.29167,12
7.30000,12
7.30833,12
7.31667,12
7.32500,12
7.33333,11
7.34167,11
7.35000,11
7.35833,11
7.36667,11
7.37500,12
7.38333,12
7.39167,13
7.40000,13
7.40833,13
7.41667,13
7.42500,12
7.43333,12
7.44167,12
7.45000,12
7.45833,12
7.46667,12
7.47500,12
7.48333,12
7.49167,12
7.50000,12
7.50833,12
7.51667,12
7.52500,12
7.53333,12
7.54167,12
7.55000,12
7.55833,12
7.56667,12
7.57500,12
7.58333,12
7.59167,13
7.60000,13
7.60833,13
7.61667,13
7.62500,13
7.63333,13
7.64167,13
7.65000,13
7.65833,13
7.66667,13
7.67500,13
7.68333,13
7.69167,14
7.70000,14
7.70833,14
7.71667,14
7.72500,14
7.73333,13
7.74167,13
7.75000,13
7.75833,13
7.76667,13
7.77500,13
7.78333,13
7.79167,14
7.80000,14
7.80833,14
7.81667,14
7.82500,14
7.83333,14
7.84167,14
7.85000,14
7.85833,14
7.86667,14
7.87500,13
7.88333,13
7.89167,13
7.90000,14
7.90833,14
7.91667,14
7.92500,14
7.93333,14
7.94167,14
7.95000,14
7.95833,14
7.96667,14
7.97500,14
7.98333,14
7.99167,13
8.00000,13
8.00833,13
8.01667,13
8.02500,13
8.03333,13
8.04167,14
8.05000,14
8.05833,15
8.06667,15
8.07500,15
8.08333,15
8.09167,15
8.10000,15
8.10833,15
8.11667,14
8.12500,14
8.13333,14
8.14167,15
8.15000,15
8.15833,15
8.16667,16
8.17500,16
8.18333,16
8.19167,16
8.20000,16
8.20833,16
8.21667,15
8.22500,16
8.23333,16
8.24167,15
8.25000,15
8.25833,15
8.26667,15
8.27500,15
8.28333,16
8.29167,16
8.30000,16
8.30833,16
8.31667,16
8.32500,16
8.33333,16
8.34167,16
8.35000,16
8.35833,16
8.36667,15
8.37500,15
8.38333,15
8.39167,15
8.40000,16
8.40833,16
8.41667,16
8.42500,16
8.43333,16
8.44167,16
8.45000,16
8.45833,16
8.46667,16
8.47500,16
8.48333,15
8.49167,15
8.50000,15
8.50833,15
8.51667,15
8.52500,15
8.53333,15
8.54167,15
8.55000,15
8.55833,15
8.56667,15
8.57500,15
8.58333,15
8.59167,16
8.60000,16
8.60833,15
8.61667,15
8.62500,15
8.63333,15
8.64167,15
8.65000,15
8.65833,15
8.66667,15
8.67500,15
8.68333,15
8.69167,15
8.70000,15
8.70833,15
8.71667,15
8.72500,15
8.73333,14
8.74167,14
8.75000,15
8.75833,15
8.76667,15
8.77500,16
8.78333,16
8.79167,16
8.80000,16
8.80833,16
8.81667,16
8.82500,16
8.83333,16
8.84167,16
8.85000,16
8.85833,16
8.86667,16
8.87500,16
8.88333,16
8.89167,16
8.90000,16
8.90833,16
8.91667,16
8.92500,16
8.93333,16
8.94167,15
8.95000,15
8.95833,15
8.96667,14
8.97500,14
8.98333,14
8.99167,14
9.00000,14
9.00833,14
9.01667,15
9.02500,15
9.03333,15
9.04167,15
9.05000,15
9.05833,15
9.06667,15
9.07500,15
9.08333,15
9.09167,15
9.10000,15
9.10833,15
9.11667,15
9.12500,15
9.13333,15
9.14167,15
9.15000,15
9.15833,16
9.16667,16
9.17500,16
9.18333,16
9.19167,16
9.20000,15
9.20833,15
9.21667,15
9.22500,15
9.23333,15
9.24167,16
9.25000,15
9.25833,15
9.26667,15
9.27500,15
9.28333,15
9.29167,15
9.30000,15
9.30833,15
9.31667,15
9.32500,15
9.33333,16
9.34167,16
9.35000,16
9.35833,16
9.36667,16
9.37500,16
9.38333,16
9.39167,15
9.40000,15
9.40833,15
9.41667,15
9.42500,15
9.43333,15
9.44167,15
9.45000,15
9.45833,15
9.46667,15
9.47500,16
9.48333,16
9.49167,16
9.50000,16
9.50833,15
9.51667,15
9.52500,15
9.53333,15
9.54167,15
9.55000,15
9.55833,16
9.56667,16
9.57500,16
9.58333,16
9.59167,16
9.60000,16
9.60833,16
9.61667,16
9.62500,16
9.63333,16
9.64167,16
9.65000,16
9.65833,17
9.66667,16
9.67500,16
9.68333,16
9.69167,17
9.70000,17
9.70833,17
9.71667,17
9.72500,17
9.73333,17
9.74167,16
9.75000,16
9.75833,16
9.76667,16
9.77500,16
9.78333,16
9.79167,16
9.80000,16
9.80833,16
9.81667,16
9.82500,16
9.83333,16
9.84167,16
9.85000,16
9.85833,16
9.86667,17
9.87500,17
9.88333,17
9.89167,17
9.90000,17
9.90833,17
9.91667,17
9.92500,17
9.93333,17
9.94167,17
9.95000,17
9.95833,17
9.96667,17
9.97500,17
9.98333,18
9.99167,18
10.00000,18
10.00833,17
10.01667,17
10.02500,17
10.03333,17
10.04167,17
10.05000,17
10.05833,17
10.06667,17
10.07500,17
10.08333,18
10.09167,18
10.10000,18
10.10833,18
10.11667,17
10.12500,17
10.13333,18
10.14167,18
10.15000,18
10.15833,18
10.16667,17
10.17500,18
10.18333,18
10.19167,18
10.20000,18
10.20833,17
10.21667,18
10.22500,18
10.23333,18
10.24167,18
10.25000,18
10.25833,18
10.26667,18
10.27500,18
10.28333,18
10.29167,18
10.30000,19
10.30833,19
10.31667,19
10.32500,19
10.33333,19
10.34167,19
10.35000,19
10.35833,19
10.36667,19
10.37500,19
10.38333,19
10.39167,20
10.40000,20
10.40833,20
10.41667,20
10.42500,20
10.43333,20
10.44167,20
10.45000,20
10.45833,20
10.46667,20
10.47500,20
10.48333,20
10.49167,21
10.50000,21
10.50833,21
10.51667,21
10.52500,21
10.53333,22
10.54167,22
10.55000,22
10.55833,23
10.56667,24
10.57500,25
10.58333,27
10.59167,29
10.60000,33
10.60833,37
10.61667,42
10.62500,49
10.63333,57
10.64167,67
10.65000,79
10.65833,94
10.66667,110
10.67500,130
10.68333,151
10.69167,174
10.70000,198
10.70833,223
10.71667,246
10.72500,266
10.73333,282
10.74167,292
10.75000,292
10.75833,279
10.76667,251
10.77500,205
10.78333,137
10.79167,44
10.80000,-76
10.80833,-224
10.81667,-402
10.82500,-611
10.83333,-850
10.84167,-1118
10.85000,-1413
10.85833,-1731
10.86667,-2068
10.87500,-2419
10.88333,-2780
10.89167,-3143
10.90000,-3505
10.90833,-3857
10.91667,-4193
10.92500,-4508
10.93333,-4797
10.94167,-5053
10.95000,-5274
10.95833,-5455
10.96667,-5593
10.97500,-5687
10.98333,-5736
10.99167,-5740
11.00000,-5701
11.00833,-5619
11.01667,-5498
11.02500,-5341
11.03333,-5151
11.04167,-4933
11.05000,-4691
11.05833,-4429
11.06667,-4154
11.07500,-3868
11.08333,-3577
11.09167,-3285
11.10000,-2995
11.10833,-2712
11.11667,-2438
11.12500,-2176
11.13333,-1928
11.14167,-1696
11.15000,-1482
11.15833,-1284
11.16667,-1105
11.17500,-944
11.18333,-801
11.19167,-674
11.20000,-564
11.20833,-468
11.21667,-386
11.22500,-317
11.23333,-259
11.24167,-211
11.25000,-172
11.25833,-140
11.26667,-116
11.27500,-96
11.28333,-81
11.29167,-70
11.30000,-63
11.30833,-57
11.31667,-54
11.32500,-52
11.33333,-51
11.34167,-50
11.35000,-50
11.35833,-50
11.36667,-51
11.37500,-51
11.38333,-52
11.39167,-53
11.40000,-53
11.40833,-52
11.41667,-51
11.42500,-50
11.43333,-49
11.44167,-48
11.45000,-47
11.45833,-46
11.46667,-44
11.47500,-43
11.48333,-41
11.49167,-40
11.50000,-38
11.50833,-36
11.51667,-34
11.52500,-32
11.53333,-31
11.54167,-29
11.55000,-28
11.55833,-27
11.56667,-25
11.57500,-24
11.58333,-23
11.59167,-21
11.60000,-20
11.60833,-19
11.61667,-18
11.62500,-17
11.63333,-16
11.64167,-16
11.65000,-15
11.65833,-14
11.66667,-13
11.67500,-12
11.68333,-11
11.69167,-10
11.70000,-10
11.70833,-9
11.71667,-9
11.72500,-8
11.73333,-8
11.74167,-7
11.75000,-6
11.75833,-6
11.76667,-5
11.77500,-5
11.78333,-4
11.79167,-4
11.80000,-3
11.80833,-2
11.81667,-2
11.82500,-1
11.83333,-0
11.84167,-0
11.85000,0
11.85833,1
11.86667,1
11.87500,2
11.88333,2
11.89167,3
11.90000,3
11.90833,4
11.91667,4
11.92500,4
11.93333,4
11.94167,5
11.95000,5
11.95833,5
11.96667,6
11.97500,6
11.98333,6
11.99167,6
12.00000,7
12.00833,7
12.01667,7
12.02500,7
12.03333,8
12.04167,8
12.05000,8
12.05833,8
12.06667,8
12.07500,8
12.08333,8
12.09167,8
12.10000,7
12.10833,7
12.11667,7
12.12500,7
12.13333,7
12.14167,7
12.15000,7
12.15833,7
12.16667,7
12.17500,7
12.18333,7
12.19167,8
12.20000,8
12.20833,8
12.21667,8
12.22500,8
12.23333,8
12.24167,8
12.25000,7
12.25833,8
12.26667,8
12.27500,8
12.28333,8
12.29167,9
12.30000,9
12.30833,9
12.31667,9
12.32500,9
12.33333,9
12.34167,9
12.35000,9
12.35833,10
12.36667,10
12.37500,10
12.38333,10
12.39167,11
12.40000,11
12.40833,11
12.41667,11
12.42500,10
12.43333,10
12.44167,10
12.45000,11
12.45833,11
12.46667,11
12.47500,12
12.48333,12
12.49167,13
12.50000,13
12.50833,13
12.51667,13
12.52500,14
12.53333,14
12.54167,14
12.55000,13
12.55833,13
12.56667,14
12.57500,14
12.58333,14
12.59167,13
12.60000,14
12.60833,14
12.61667,14
12.62500,15
12.63333,15
12.64167,15
12.65000,15
12.65833,15
12.66667,14
12.67500,14
12.68333,14
12.69167,15
12.70000,15
12.70833,15
12.71667,15
12.72500,15
12.73333,15
12.74167,15
12.75000,15
12.75833,15
12.76667,15
12.77500,16
12.78333,16
12.79167,16
12.80000,16
12.80833,16
12.81667,16
12.82500,17
12.83333,17
12.84167,17
12.85000,17
12.85833,17
12.86667,17
12.87500,17
12.88333,17
12.89167,17
12.90000,18
12.90833,18
12.91667,18
12.92500,19
12.93333,19
12.94167,19
12.95000,19
12.95833,20
12.96667,20
12.97500,20
12.98333,20
12.99167,20
13.00000,21
13.00833,21
13.01667,22
13.02500,22
13.03333,22
13.04167,23
13.05000,23
13.05833,23
13.06667,23
13.07500,23
13.08333,24
13.09167,24
13.10000,25
13.10833,25
13.11667,25
13.12500,26
13.13333,26
13.14167,26
13.15000,26
13.15833,26
13.16667,26
13.17500,26
13.18333,26
13.19167,27
13.20000,27
13.20833,27
13.21667,27
13.22500,27
13.23333,27
13.24167,27
13.25000,27
13.25833,27
13.26667,28
13.27500,28
13.28333,28
13.29167,28
13.30000,29
13.30833,28
13.31667,28
13.32500,28
13.33333,28
13.34167,28
13.35000,28
13.35833,28
13.36667,28
13.37500,28
13.38333,28
13.39167,28
13.40000,28
13.40833,28
13.41667,28
13.42500,27
13.43333,27
13.44167,27
13.45000,26
13.45833,26
13.46667,26
13.47500,26
13.48333,26
13.49167,26
13.50000,26
13.50833,26
13.51667,26
13.52500,26
13.53333,26
13.54167,26
13.55000,26
13.55833,25
13.56667,25
13.57500,25
13.58333,25
13.59167,25
13.60000,25
13.60833,25
13.61667,25
13.62500,25
13.63333,25
13.64167,25
13.65000,26
13.65833,26
13.66667,26
13.67500,26
13.68333,26
13.69167,26
13.70000,26
13.70833,27
13.71667,27
13.72500,26
13.73333,26
13.74167,26
13.75000,26
13.75833,27
13.76667,26
13.77500,27
13.78333,27
13.79167,27
13.80000,27
13.80833,27
13.81667,27
13.82500,27
13.83333,27
13.84167,27
13.85000,27
13.85833,28
13.86667,28
13.87500,29
13.88333,29
13.89167,29
13.90000,29
13.90833,30
13.91667,30
13.92500,30
13.93333,31
13.94167,31
13.95000,31
13.95833,31
13.96667,31
13.97500,31
13.98333,31
13.99167,31
14.00000,31
14.00833,31
14.01667,32
14.02500,32
14.03333,33
14.04167,33
14.05000,33
14.05833,33
14.06667,34
14.07500,34
14.08333,35
14.09167,36
14.10000,36
14.10833,37
14.11667,38
14.12500,39
14.13333,41
14.14167,43
14.15000,45
14.15833,48
14.16667,50
14.17500,54
14.18333,58
14.19167,63
14.20000,69
14.20833,77
14.21667,86
14.22500,98
14.23333,111
14.24167,128
14.25000,148
14.25833,173
14.26667,202
14.27500,237
14.28333,279
14.29167,328
14.30000,386
14.30833,455
14.31667,536
14.32500,630
14.33333,739
14.34167,864
14.35000,1009
14.35833,1174
14.36667,1361
14.37500,1573
14.38333,1811
14.39167,2077
14.40000,2373
14.40833,2700
14.41667,3060
14.42500,3455
14.43333,3885
14.44167,4353
14.45000,4858
14.45833,5402
14.46667,5984
14.47500,6607
14.48333,7269
14.49167,7970
14.50000,8711
14.50833,9490
14.51667,10307
14.52500,11161
14.53333,12051
14.54167,12975
14.55000,13932
14.55833,14920
14.56667,15939
14.57500,16985
14.58333,18057
14.59167,19154
14.60000,20273
14.60833,21413
14.61667,22571
14.62500,23746
14.63333,24936
14.64167,26138
14.65000,27351
14.65833,28573
14.66667,29802
14.67500,31037
14.68333,32277
14.69167,33520
14.70000,34765
14.70833,36010
14.71667,37253
14.72500,38495
14.73333,39734
14.74167,40968
14.75000,42197
14.75833,43421
14.76667,44637
14.77500,45844
14.78333,47042
14.79167,48228
14.80000,49400
14.80833,50556
14.81667,51694
14.82500,52810
14.83333,53899
14.84167,54955
14.85000,55970
14.85833,56935
14.86667,57837
14.87500,58662
14.88333,59391
14.89167,60005
14.90000,60482
14.90833,60796
14.91667,60923
14.92500,60838
14.93333,60520
14.94167,59949
14.95000,59114
14.95833,58006
14.96667,56626
14.97500,54983
14.98333,53094
14.99167,50983
15.00000,48679
15.00833,46218
15.01667,43639
15.02500,40980
15.03333,38282
15.04167,35583
15.05000,32918
15.05833,30318
15.06667,27809
15.07500,25413
15.08333,23145
15.09167,21017
15.10000,19035
15.10833,17202
15.11667,15517
15.12500,13977
15.13333,12577
15.14167,11310
15.15000,10167
15.15833,9140
15.16667,8220
15.17500,7398
15.18333,6666
15.19167,6014
15.20000,5435
15.20833,4924
15.21667,4472
15.22500,4073
15.23333,3724
15.24167,3418
15.25000,3153
15.25833,2923
15.26667,2727
15.27500,2561
15.28333,2424
15.29167,2314
15.30000,2230
15.30833,2170
15.31667,2134
15.32500,2120
15.33333,2130
15.34167,2163
15.35000,2218
15.35833,2296
15.36667,2397
15.37500,2520
15.38333,2666
15.39167,2835
15.40000,3027
15.40833,3243
15.41667,3481
15.42500,3741
15.43333,4023
15.44167,4325
15.45000,4645
15.45833,4984
15.46667,5340
15.47500,5710
15.48333,6092
15.49167,6485
15.50000,6886
15.50833,7291
15.51667,7698
15.52500,8105
15.53333,8508
15.54167,8904
15.55000,9290
15.55833,9662
15.56667,10018
15.57500,10356
15.58333,10672
15.59167,10963
15.60000,11228
15.60833,11463
15.61667,11669
15.62500,11843
15.63333,11984
15.64167,12091
15.65000,12163
15.65833,12201
15.66667,12205
15.67500,12175
15.68333,12111
15.69167,12015
15.70000,11888
15.70833,11731
15.71667,11548
15.72500,11338
15.73333,11105
15.74167,10850
15.75000,10576
15.75833,10284
15.76667,9978
15.77500,9660
15.78333,9330
15.79167,8993
15.80000,8650
15.80833,8304
15.81667,7955
15.82500,7607
15.83333,7260
15.84167,6916
15.85000,6578
15.85833,6245
15.86667,5920
15.87500,5603
15.88333,5296
15.89167,4998
15.90000,4710
15.90833,4433
15.91667,4167
15.92500,3913
15.93333,3670
15.94167,3439
15.95000,3219
15.95833,3011
15.96667,2815
15.97500,2630
15.98333,2456
15.99167,2292
16.00000,2139
16.00833,1996
16.01667,1861
16.02500,1736
16.03333,1620
16.04167,1512
16.05000,1411
16.05833,1317
16.06667,1231
16.07500,1151
16.08333,1077
16.09167,1009
16.10000,945
16.10833,887
16.11667,833
16.12500,784
16.13333,738
16.14167,696
16.15000,658
16.15833,622
16.16667,589
16.17500,560
16.18333,532
16.19167,508
16.20000,484
16.20833,463
16.21667,444
16.22500,426
16.23333,409
16.24167,394
16.25000,380
16.25833,367
16.26667,355
16.27500,343
16.28333,333
16.29167,323
16.30000,314
16.30833,306
16.31667,298
16.32500,291
16.33333,284
16.34167,278
16.35000,272
16.35833,267
16.36667,261
16.37500,257
16.38333,252
16.39167,248
16.40000,244
16.40833,240
16.41667,237
16.42500,234
16.43333,230
16.44167,227
16.45000,224
16.45833,222
16.46667,220
16.47500,217
16.48333,214
16.49167,212
16.50000,209
16.50833,206
16.51667,204
16.52500,202
16.53333,200
16.54167,198
16.55000,197
16.55833,195
16.56667,194
16.57500,192
16.58333,191
16.59167,190
16.60000,188
16.60833,187
16.61667,185
16.62500,184
16.63333,183
16.64167,182
16.65000,181
16.65833,180
16.66667,178
16.67500,177
16.68333,176
16.69167,175
16.70000,174
16.70833,173
16.71667,172
16.72500,171
16.73333,170
16.74167,169
16.75000,168
16.75833,167
16.76667,166
16.77500,165
16.78333,164
16.79167,164
16.80000,163
16.80833,162
16.81667,161
16.82500,160
16.83333,160
16.84167,158
16.85000,158
16.85833,157
16.86667,156
16.87500,155
16.88333,155
16.89167,154
16.90000,153
16.90833,152
16.91667,152
16.92500,151
16.93333,150
16.94167,150
16.95000,149
16.95833,148
16.96667,148
16.97500,147
16.98333,146
16.99167,145
17.00000,145
17.00833,145
17.01667,144
17.02500,144
17.03333,143
17.04167,142
17.05000,142
17.05833,141
17.06667,141
17.07500,140
17.08333,140
17.09167,139
17.10000,138
17.10833,137
17.11667,137
17.12500,136
17.13333,135
17.14167,135
17.15000,134
17.15833,133
17.16667,132
17.17500,132
17.18333,131
17.19167,130
17.20000,130
17.20833,130
17.21667,129
17.22500,128
17.23333,128
17.24167,128
17.25000,127
17.25833,127
17.26667,126
17.27500,125
17.28333,125
17.29167,124
17.30000,124
17.30833,123
17.31667,122
17.32500,122
17.33333,121
17.34167,121
17.35000,120
17.35833,120
17.36667,120
17.37500,119
17.38333,119
17.39167,118
17.40000,117
17.40833,117
17.41667,116
17.42500,116
17.43333,115
17.44167,115
17.45000,114
17.45833,114
17.46667,113
17.47500,113
17.48333,113
17.49167,112
17.50000,112
17.50833,111
17.51667,111
17.52500,111
17.53333,110
17.54167,109
17.55000,109
17.55833,108
17.56667,108
17.57500,108
17.58333,108
17.59167,107
17.60000,107
17.60833,106
17.61667,106
17.62500,106
17.63333,105
17.64167,105
17.65000,104
17.65833,104
17.66667,103
17.67500,103
17.68333,102
17.69167,102
17.70000,102
17.70833,101
17.71667,101
17.72500,101
17.73333,100
17.74167,100
17.75000,99
17.75833,99
17.76667,99
17.77500,98
17.78333,98
17.79167,97
17.80000,97
17.80833,97
17.81667,97
17.82500,97
17.83333,97
17.84167,96
17.85000,96
17.85833,95
17.86667,95
17.87500,94
17.88333,94
17.89167,94
17.90000,94
17.90833,93
17.91667,93
17.92500,93
17.93333,93
17.94167,93
17.95000,93
17.95833,92
17.96667,92
17.97500,91
17.98333,91
17.99167,91
18.00000,90
18.00833,90
18.01667,90
18.02500,90
18.03333,90
18.04167,90
18.05000,90
18.05833,89
18.06667,89
18.07500,89
18.08333,88
18.09167,87
18.10000,87
18.10833,87
18.11667,86
18.12500,86
18.13333,86
18.14167,85
18.15000,85
18.15833,85
18.16667,84
18.17500,84
18.18333,84
18.19167,84
18.20000,84
18.20833,84
18.21667,84
18.22500,84
18.23333,84
18.24167,84
18.25000,84
18.25833,83
18.26667,83
18.27500,83
18.28333,82
18.29167,82
18.30000,82
18.30833,82
18.31667,82
18.32500,81
18.33333,81
18.34167,80
18.35000,80
18.35833,80
18.36667,80
18.37500,80
18.38333,79
18.39167,79
18.40000,79
18.40833,78
18.41667,79
18.42500,79
18.43333,79
18.44167,79
18.45000,79
18.45833,79
18.46667,79
18.47500,79
18.48333,79
18.49167,79
18.50000,79
18.50833,79
18.51667,78
18.52500,78
18.53333,79
18.54167,79
18.55000,79
18.55833,79
18.56667,79
18.57500,78
18.58333,78
18.59167,77
18.60000,77
18.60833,77
18.61667,77
18.62500,77
18.63333,77
18.64167,77
18.65000,77
18.65833,77
18.66667,77
18.67500,77
18.68333,77
18.69167,77
18.70000,77
18.70833,77
18.71667,77
18.72500,77
18.73333,77
18.74167,77
18.75000,77
18.75833,77
18.76667,78
18.77500,78
18.78333,78
18.79167,79
18.80000,80
18.80833,81
18.81667,81
18.82500,82
18.83333,82
18.84167,83
18.85000,83
18.85833,83
18.86667,84
18.87500,85
18.88333,85
18.89167,86
18.90000,87
18.90833,88
18.91667,88
18.92500,89
18.93333,90
18.94167,91
18.95000,91
18.95833,91
18.96667,92
18.97500,93
18.98333,93
18.99167,93
19.00000,93
19.00833,93
19.01667,94
19.02500,94
19.03333,94
19.04167,93
19.05000,93
19.05833,93
19.06667,93
19.07500,92
19.08333,91
19.09167,91
19.10000,91
19.10833,90
19.11667,89
19.12500,89
19.13333,87
19.14167,87
19.15000,86
19.15833,85
19.16667,84
19.17500,83
19.18333,82
19.19167,81
19.20000,80
19.20833,79
19.21667,78
19.22500,77
19.23333,77
19.24167,76
19.25000,75
19.25833,74
19.26667,73
19.27500,72
19.28333,70
19.29167,69
19.30000,68
19.30833,68
19.31667,67
19.32500,67
19.33333,66
19.34167,66
19.35000,65
19.35833,65
19.36667,64
19.37500,64
19.38333,63
19.39167,62
19.40000,62
19.40833,61
19.41667,61
19.42500,61
19.43333,60
19.44167,60
19.45000,60
19.45833,59
19.46667,59
19.47500,59
19.48333,59
19.49167,59
19.50000,58
19.50833,58
19.51667,58
19.52500,58
19.53333,57
19.54167,57
19.55000,57
19.55833,56
19.56667,56
19.57500,56
19.58333,55
19.59167,55
19.60000,55
19.60833,55
19.61667,56
19.62500,56
19.63333,56
19.64167,56
19.65000,56
19.65833,56
19.66667,55
19.67500,55
19.68333,55
19.69167,55
19.70000,55
19.70833,55
19.71667,54
19.72500,53
19.73333,53
19.74167,53
19.75000,53
19.75833,53
19.76667,53
19.77500,53
19.78333,53
19.79167,53
19.80000,53
19.80833,53
19.81667,53
19.82500,52
19.83333,52
19.84167,52
19.85000,51
19.85833,51
19.86667,52
19.87500,51
19.88333,51
19.89167,51
19.90000,51
19.90833,51
19.91667,51
19.92500,51
19.93333,50
19.94167,50
19.95000,50
19.95833,50
19.96667,51
19.97500,51
19.98333,51
19.99167,51
20.00000,51
20.00833,51
20.01667,50
20.02500,50
20.03333,50
20.04167,50
20.05000,50
20.05833,50
20.06667,50
20.07500,50
20.08333,50
20.09167,50
20.10000,50
20.10833,50
20.11667,50
20.12500,50
20.13333,49
20.14167,49
20.15000,49
20.15833,49
20.16667,49
20.17500,48
20.18333,48
20.19167,48
20.20000,48
20.20833,48
20.21667,48
20.22500,48
20.23333,48
20.24167,48
20.25000,48
20.25833,48
20.26667,48
20.27500,48
20.28333,48
20.29167,48
20.30000,48
20.30833,47
20.31667,47
20.32500,47
20.33333,47
20.34167,47
20.35000,47
20.35833,47
20.36667,47
20.37500,47
20.38333,46
20.39167,46
20.40000,47
20.40833,47
20.41667,46
20.42500,46
20.43333,46
20.44167,46
20.45000,46
20.45833,46
20.46667,46
20.47500,46
20.48333,46
20.49167,45
20.50000,45
20.50833,45
20.51667,45
20.52500,45
20.53333,45
20.54167,45
20.55000,45
20.55833,45
20.56667,45
20.57500,45
20.58333,45
20.59167,45
20.60000,45
20.60833,45
20.61667,45
20.62500,45
20.63333,45
20.64167,45
20.65000,45
20.65833,45
20.66667,45
20.67500,45
20.68333,44
20.69167,44
20.70000,44
20.70833,44
20.71667,44
20.72500,44
20.73333,44
20.74167,44
20.75000,45
20.75833,45
20.76667,45
20.77500,45
20.78333,45
20.79167,45
20.80000,44
20.80833,44
20.81667,44
20.82500,44
20.83333,44
20.84167,44
20.85000,44
20.85833,44
20.86667,44
20.87500,44
20.88333,43
20.89167,43
20.90000,43
20.90833,43
20.91667,44
20.92500,44
20.93333,44
20.94167,44
20.95000,44
20.95833,44
20.96667,44
20.97500,43
20.98333,43
20.99167,43
21.00000,43
21.00833,43
21.01667,43
21.02500,43
21.03333,43
21.04167,43
21.05000,43
21.05833,43
21.06667,43
21.07500,43
21.08333,43
21.09167,43
21.10000,43
21.10833,44
21.11667,44
21.12500,43
21.13333,43
21.14167,43
21.15000,43
21.15833,43
21.16667,44
21.17500,44
21.18333,44
21.19167,44
21.20000,43
21.20833,43
21.21667,43
21.22500,43
21.23333,43
21.24167,43
21.25000,43
21.25833,43
21.26667,43
21.27500,43
21.28333,43
21.29167,43
21.30000,43
21.30833,43
21.31667,43
21.32500,43
21.33333,44
21.34167,44
21.35000,44
21.35833,45
21.36667,45
21.37500,45
21.38333,45
21.39167,45
21.40000,45
21.40833,45
21.41667,45
21.42500,45
21.43333,46
21.44167,47
21.45000,48
21.45833,48
21.46667,49
21.47500,51
21.48333,53
21.49167,54
21.50000,56
21.50833,57
21.51667,59
21.52500,62
21.53333,64
21.54167,67
21.55000,71
21.55833,74
21.56667,79
21.57500,84
21.58333,90
21.59167,97
21.60000,105
21.60833,113
21.61667,122
21.62500,133
21.63333,144
21.64167,157
21.65000,171
21.65833,187
21.66667,205
21.67500,224
21.68333,246
21.69167,270
21.70000,296
21.70833,325
21.71667,357
21.72500,391
21.73333,428
21.74167,468
21.75000,512
21.75833,559
21.76667,610
21.77500,663
21.78333,721
21.79167,782
21.80000,846
21.80833,914
21.81667,986
21.82500,1061
21.83333,1139
21.84167,1219
21.85000,1303
21.85833,1390
21.86667,1479
21.87500,1570
21.88333,1662
21.89167,1756
21.90000,1851
21.90833,1947
21.91667,2042
21.92500,2136
21.93333,2229
21.94167,2321
21.95000,2410
21.95833,2497
21.96667,2580
21.97500,2660
21.98333,2736
21.99167,2807
22.00000,2872
22.00833,2933
22.01667,2987
22.02500,3036
22.03333,3078
22.04167,3113
22.05000,3142
22.05833,3163
22.06667,3177
22.07500,3184
22.08333,3184
22.09167,3177
22.10000,3162
22.10833,3141
22.11667,3114
22.12500,3080
22.13333,3039
22.14167,2993
22.15000,2942
22.15833,2886
22.16667,2825
22.17500,2759
22.18333,2690
22.19167,2618
22.20000,2543
22.20833,2465
22.21667,2385
22.22500,2303
22.23333,2220
22.24167,2137
22.25000,2052
22.25833,1968
22.26667,1884
22.27500,1801
22.28333,1719
22.29167,1638
22.30000,1559
22.30833,1482
22.31667,1406
22.32500,1332
22.33333,1260
22.34167,1191
22.35000,1125
22.35833,1061
22.36667,1000
22.37500,940
22.38333,883
22.39167,830
22.40000,779
22.40833,730
22.41667,684
22.42500,640
22.43333,598
22.44167,560
22.45000,523
22.45833,489
22.46667,457
22.47500,427
22.48333,399
22.49167,373
22.50000,348
22.50833,326
22.51667,305
22.52500,286
22.53333,268
22.54167,251
22.55000,235
22.55833,221
22.56667,207
22.57500,195
22.58333,184
22.59167,174
22.60000,165
22.60833,156
22.61667,149
22.62500,142
22.63333,135
22.64167,129
22.65000,123
22.65833,117
22.66667,112
22.67500,108
22.68333,104
22.69167,100
22.70000,97
22.70833,93
22.71667,90
22.72500,87
22.73333,85
22.74167,82
22.75000,81
22.75833,79
22.76667,77
22.77500,76
22.78333,74
22.79167,73
22.80000,72
22.80833,71
22.81667,70
22.82500,69
22.83333,68
22.84167,67
22.85000,66
22.85833,65
22.86667,64
22.87500,64
22.88333,63
22.89167,63
22.90000,62
22.90833,61
22.91667,61
22.92500,60
22.93333,59
22.94167,59
22.95000,58
22.95833,58
22.96667,58
22.97500,58
22.98333,58
22.99167,58
23.00000,57
23.00833,57
23.01667,57
23.02500,56
23.03333,56
23.04167,56
23.05000,56
23.05833,56
23.06667,56
23.07500,55
23.08333,55
23.09167,55
23.10000,55
23.10833,55
23.11667,54
23.12500,54
23.13333,54
23.14167,54
23.15000,54
23.15833,54
23.16667,54
23.17500,54
23.18333,54
23.19167,54
23.20000,53
23.20833,53
23.21667,52
23.22500,52
23.23333,52
23.24167,52
23.25000,52
23.25833,52
23.26667,52
23.27500,52
23.28333,52
23.29167,52
23.30000,52
23.30833,51
23.31667,51
23.32500,51
23.33333,51
23.34167,51
23.35000,51
23.35833,51
23.36667,51
23.37500,51
23.38333,51
23.39167,51
23.40000,51
23.40833,51
23.41667,51
23.42500,51
23.43333,51
23.44167,51
23.45000,51
23.45833,51
23.46667,51
23.47500,50
23.48333,50
23.49167,50
23.50000,50
23.50833,49
23.51667,49
23.52500,49
23.53333,49
23.54167,49
23.55000,49
23.55833,49
23.56667,49
23.57500,49
23.58333,49
23.59167,49
23.60000,49
23.60833,49
23.61667,49
23.62500,49
23.63333,49
23.64167,49
23.65000,48
23.65833,48
23.66667,48
23.67500,48
23.68333,49
23.69167,49
23.70000,49
23.70833,49
23.71667,49
23.72500,49
23.73333,49
23.74167,49
23.75000,48
23.75833,48
23.76667,48
23.77500,48
23.78333,48
23.79167,48
23.80000,48
23.80833,47
23.81667,47
23.82500,47
23.83333,47
23.84167,46
23.85000,46
23.85833,46
23.86667,46
23.87500,47
23.88333,47
23.89167,47
23.90000,47
23.90833,47
23.91667,47
23.92500,46
23.93333,46
23.94167,46
23.95000,47
23.95833,47
23.96667,47
23.97500,47
23.98333,47
23.99167,47
24.00000,47
24.00833,47
24.01667,47
24.02500,47
24.03333,47
24.04167,47
24.05000,47
24.05833,47
24.06667,47
24.07500,47
24.08333,47
24.09167,47
24.10000,47
24.10833,47
24.11667,47
24.12500,47
24.13333,47
24.14167,47
24.15000,47
24.15833,47
24.16667,46
24.17500,46
24.18333,46
24.19167,46
24.20000,46
24.20833,46
24.21667,46
24.22500,46
24.23333,46
24.24167,47
24.25000,47
24.25833,48
24.26667,48
24.27500,48
24.28333,48
24.29167,48
24.30000,48
24.30833,49
24.31667,49
24.32500,49
24.33333,49
24.34167,48
24.35000,48
24.35833,49
24.36667,49
24.37500,49
24.38333,50
24.39167,50
24.40000,51
24.40833,51
24.41667,52
24.42500,52
24.43333,53
24.44167,53
24.45000,54
24.45833,55
24.46667,55
24.47500,57
24.48333,58
24.49167,59
24.50000,60
24.50833,62
24.51667,63
24.52500,65
24.53333,67
24.54167,69
24.55000,71
24.55833,74
24.56667,77
24.57500,81
24.58333,85
24.59167,89
24.60000,94
24.60833,99
24.61667,105
24.62500,111
24.63333,117
24.64167,125
24.65000,132
24.65833,141
24.66667,151
24.67500,161
24.68333,172
24.69167,184
24.70000,197
24.70833,211
24.71667,226
24.72500,241
24.73333,258
24.74167,276
24.75000,295
24.75833,315
24.76667,336
24.77500,359
24.78333,382
24.79167,406
24.80000,432
24.80833,458
24.81667,486
24.82500,514
24.83333,544
24.84167,574
24.85000,606
24.85833,637
24.86667,669
24.87500,702
24.88333,735
24.89167,769
24.90000,802
24.90833,836
24.91667,869
24.92500,902
24.93333,934
24.94167,965
24.95000,996
24.95833,1026
24.96667,1055
24.97500,1083
24.98333,1109
24.99167,1134
25.00000,1157
25.00833,1178
25.01667,1197
25.02500,1214
25.03333,1229
25.04167,1242
25.05000,1254
25.05833,1263
25.06667,1269
25.07500,1273
25.08333,1275
25.09167,1275
25.10000,1272
25.10833,1266
25.11667,1259
25.12500,1249
25.13333,1237
25.14167,1224
25.15000,1208
25.15833,1190
25.16667,1171
25.17500,1150
25.18333,1127
25.19167,1103
25.20000,1078
25.20833,1051
25.21667,1024
25.22500,996
25.23333,968
25.24167,938
25.25000,907
25.25833,877
25.26667,847
25.27500,816
25.28333,786
25.29167,755
25.30000,725
25.30833,695
25.31667,665
25.32500,636
25.33333,608
25.34167,580
25.35000,553
25.35833,527
25.36667,502
25.37500,477
25.38333,453
25.39167,430
25.40000,407
25.40833,386
25.41667,365
25.42500,345
25.43333,326
25.44167,309
25.45000,292
25.45833,276
25.46667,261
25.47500,247
25.48333,234
25.49167,221
25.50000,209
25.50833,198
25.51667,187
25.52500,178
25.53333,168
25.54167,159
25.55000,151
25.55833,144
25.56667,137
25.57500,130
25.58333,124
25.59167,118
25.60000,113
25.60833,109
25.61667,104
25.62500,100
25.63333,97
25.64167,93
25.65000,90
25.65833,87
25.66667,84
25.67500,82
25.68333,79
25.69167,77
25.70000,75
25.70833,73
25.71667,72
25.72500,70
25.73333,69
25.74167,67
25.75000,66
25.75833,66
25.76667,65
25.77500,65
25.78333,64
25.79167,63
25.80000,62
25.80833,62
25.81667,61
25.82500,60
25.83333,60
25.84167,59
25.85000,58
25.85833,58
25.86667,58
25.87500,58
25.88333,57
25.89167,57
25.90000,57
25.90833,57
25.91667,56
25.92500,56
25.93333,56
25.94167,56
25.95000,56
25.95833,56
25.96667,56
25.97500,55
25.98333,55
25.99167,54
26.00000,54
26.00833,54
26.01667,54
26.02500,54
26.03333,54
26.04167,54
26.05000,54
26.05833,54
26.06667,53
26.07500,53
26.08333,53
26.09167,53
26.10000,53
26.10833,53
26.11667,53
26.12500,53
26.13333,53
26.14167,53
26.15000,54
26.15833,53
26.16667,53
26.17500,53
26.18333,53
26.19167,53
26.20000,53
26.20833,53
26.21667,53
26.22500,53
26.23333,53
26.24167,54
26.25000,54
26.25833,54
26.26667,53
26.27500,53
26.28333,53
26.29167,53
26.30000,53
26.30833,53
26.31667,53
26.32500,53
26.33333,52
26.34167,52
26.35000,52
26.35833,52
26.36667,53
26.37500,53
26.38333,53
26.39167,53
26.40000,53
26.40833,53
26.41667,52
26.42500,52
26.43333,52
26.44167,52
26.45000,52
26.45833,52
26.46667,52
26.47500,53
26.48333,53
26.49167,53
26.50000,53
26.50833,53
26.51667,53
26.52500,53
26.53333,53
26.54167,53
26.55000,53
26.55833,53
26.56667,52
26.57500,52
26.58333,52
26.59167,52
26.60000,51
26.60833,51
26.61667,52
26.62500,52
26.63333,52
26.64167,53
26.65000,53
26.65833,53
26.66667,53
26.67500,53
26.68333,53
26.69167,53
26.70000,54
26.70833,54
26.71667,54
26.72500,54
26.73333,54
26.74167,54
26.75000,54
26.75833,54
26.76667,54
26.77500,55
26.78333,55
26.79167,55
26.80000,54
26.80833,54
26.81667,54
26.82500,54
26.83333,54
26.84167,54
26.85000,54
26.85833,54
26.86667,54
26.87500,53
26.88333,53
26.89167,53
26.90000,53
26.90833,53
26.91667,54
26.92500,54
26.93333,54
26.94167,54
26.95000,54
26.95833,53
26.96667,53
26.97500,53
26.98333,54
26.99167,54
27.00000,54
27.00833,54
27.01667,54
27.02500,54
27.03333,53
27.04167,53
27.05000,53
27.05833,52
27.06667,52
27.07500,53
27.08333,53
27.09167,53
27.10000,53
27.10833,54
27.11667,54
27.12500,54
27.13333,53
27.14167,53
27.15000,53
27.15833,52
27.16667,53
27.17500,53
27.18333,53
27.19167,53
27.20000,52
27.20833,52
27.21667,53
27.22500,53
27.23333,53
27.24167,54
27.25000,54
27.25833,54
27.26667,53
27.27500,53
27.28333,54
27.29167,54
27.30000,54
27.30833,53
27.31667,53
27.32500,53
27.33333,53
27.34167,52
27.35000,53
27.35833,53
27.36667,53
27.37500,54
27.38333,53
27.39167,53
27.40000,53
27.40833,53
27.41667,52
27.42500,53
27.43333,53
27.44167,53
27.45000,53
27.45833,53
27.46667,54
27.47500,54
27.48333,54
27.49167,54
27.50000,54
27.50833,54
27.51667,54
27.52500,54
27.53333,55
27.54167,54
27.55000,54
27.55833,54
27.56667,54
27.57500,54
27.58333,54
27.59167,54
27.60000,55
27.60833,55
27.61667,54
27.62500,54
27.63333,54
27.64167,54
27.65000,53
27.65833,53
27.66667,53
27.67500,53
27.68333,53
27.69167,53
27.70000,52
27.70833,52
27.71667,52
27.72500,52
27.73333,52
27.74167,52
27.75000,53
27.75833,52
27.76667,52
27.77500,52
27.78333,51
27.79167,51
27.80000,50
27.80833,50
27.81667,50
27.82500,49
27.83333,48
27.84167,48
27.85000,48
27.85833,47
27.86667,46
27.87500,46
27.88333,45
27.89167,44
27.90000,43
27.90833,42
27.91667,41
27.92500,40
27.93333,39
27.94167,38
27.95000,36
27.95833,35
27.96667,34
27.97500,32
27.98333,31
27.99167,29
28.00000,27
28.00833,25
28.01667,24
28.02500,22
28.03333,19
28.04167,17
28.05000,15
28.05833,12
28.06667,10
28.07500,7
28.08333,4
28.09167,2
28.10000,-1
28.10833,-4
28.11667,-6
28.12500,-9
28.13333,-12
28.14167,-15
28.15000,-19
28.15833,-22
28.16667,-25
28.17500,-28
28.18333,-31
28.19167,-34
28.20000,-37
28.20833,-41
28.21667,-45
28.22500,-48
28.23333,-52
28.24167,-55
28.25000,-58
28.25833,-61
28.26667,-63
28.27500,-66
28.28333,-69
28.29167,-72
28.30000,-75
28.30833,-78
28.31667,-81
28.32500,-83
28.33333,-86
28.34167,-88
28.35000,-90
28.35833,-92
28.36667,-94
28.37500,-95
28.38333,-96
28.39167,-97
28.40000,-98
28.40833,-99
28.41667,-100
28.42500,-101
28.43333,-101
28.44167,-101
28.45000,-101
28.45833,-101
28.46667,-100
28.47500,-100
28.48333,-99
28.49167,-98
28.50000,-97
28.50833,-96
28.51667,-94
28.52500,-93
28.53333,-92
28.54167,-91
28.55000,-89
28.55833,-87
28.56667,-85
28.57500,-82
28.58333,-80
28.59167,-78
28.60000,-75
28.60833,-72
28.61667,-70
28.62500,-67
28.63333,-65
28.64167,-62
28.65000,-60
28.65833,-57
28.66667,-54
28.67500,-51
28.68333,-49
28.69167,-46
28.70000,-43
28.70833,-39
28.71667,-36
28.72500,-34
28.73333,-31
28.74167,-28
28.75000,-26
28.75833,-23
28.76667,-20
28.77500,-17
28.78333,-15
28.79167,-12
28.80000,-9
28.80833,-7
28.81667,-5
28.82500,-3
28.83333,-0
28.84167,2
28.85000,4
28.85833,6
28.86667,7
28.87500,9
28.88333,11
28.89167,13
28.90000,14
28.90833,16
28.91667,18
28.92500,19
28.93333,20
28.94167,21
28.95000,23
28.95833,24
28.96667,26
28.97500,27
28.98333,28
28.99167,29
29.00000,30
29.00833,31
29.01667,32
29.02500,32
29.03333,33
29.04167,34
29.05000,35
29.05833,36
29.06667,36
29.07500,37
29.08333,38
29.09167,38
29.10000,39
29.10833,39
29.11667,39
29.12500,40
29.13333,40
29.14167,41
29.15000,41
29.15833,42
29.16667,42
29.17500,43
29.18333,43
29.19167,43
29.20000,43
29.20833,43
29.21667,44
29.22500,44
29.23333,44
29.24167,44
29.25000,44
29.25833,45
29.26667,45
29.27500,45
29.28333,45
29.29167,45
29.30000,46
29.30833,46
29.31667,46
29.32500,46
29.33333,47
29.34167,47
29.35000,47
29.35833,47
29.36667,47
29.37500,47
29.38333,47
29.39167,47
29.40000,47
29.40833,47
29.41667,48
29.42500,48
29.43333,48
29.44167,48
29.45000,48
29.45833,48
29.46667,47
29.47500,47
29.48333,47
29.49167,47
29.50000,47
29.50833,47
29.51667,47
29.52500,47
29.53333,47
29.54167,47
29.55000,47
29.55833,47
29.56667,47
29.57500,48
29.58333,47
29.59167,47
29.60000,47
29.60833,46
29.61667,46
29.62500,46
29.63333,45
29.64167,45
29.65000,45
29.65833,45
29.66667,44
29.67500,44
29.68333,43
29.69167,43
29.70000,42
29.70833,41
29.71667,40
29.72500,40
29.73333,40
29.74167,39
29.75000,39
29.75833,38
29.76667,37
29.77500,37
29.78333,36
29.79167,35
29.80000,34
29.80833,33
29.81667,32
29.82500,31
29.83333,30
29.84167,29
29.85000,29
29.85833,28
29.86667,27
29.87500,25
29.88333,24
29.89167,24
29.90000,23
29.90833,21
29.91667,20
29.92500,19
29.93333,17
29.94167,16
29.95000,15
29.95833,14
29.96667,13
29.97500,12
29.98333,11
29.99167,10
30.00000,9
30.00833,8
30.01667,7
30.02500,6
30.03333,5
30.04167,4
30.05000,3
30.05833,3
30.06667,2
30.07500,1
30.08333,0
30.09167,-0
30.10000,-1
30.10833,-2
30.11667,-2
30.12500,-2
30.13333,-3
30.14167,-3
30.15000,-3
30.15833,-3
30.16667,-4
30.17500,-4
30.18333,-4
30.19167,-5
30.20000,-5
30.20833,-5
30.21667,-5
30.22500,-5
30.23333,-5
30.24167,-4
30.25000,-3
30.25833,-2
30.26667,-2
30.27500,-1
30.28333,-1
30.29167,-0
30.30000,0
30.30833,1
30.31667,2
30.32500,2
30.33333,3
30.34167,4
30.35000,5
30.35833,5
30.36667,6
30.37500,7
30.38333,8
30.39167,9
30.40000,10
30.40833,10
30.41667,11
30.42500,12
30.43333,13
30.44167,14
30.45000,15
30.45833,16
30.46667,17
30.47500,18
30.48333,19
30.49167,21
30.50000,22
30.50833,23
30.51667,24
30.52500,25
30.53333,25
30.54167,26
30.55000,27
30.55833,28
30.56667,29
30.57500,30
30.58333,31
30.59167,32
30.60000,33
30.60833,34
30.61667,34
30.62500,35
30.63333,36
30.64167,36
30.65000,37
30.65833,38
30.66667,38
30.67500,39
30.68333,39
30.69167,40
30.70000,40
30.70833,41
30.71667,41
30.72500,42
30.73333,42
30.74167,43
30.75000,43
30.75833,44
30.76667,44
30.77500,45
30.78333,45
30.79167,45
30.80000,45
30.80833,45
30.81667,46
30.82500,46
30.83333,46
30.84167,47
30.85000,47
30.85833,47
30.86667,48
30.87500,48
30.88333,48
30.89167,48
30.90000,48
30.90833,48
30.91667,48
30.92500,48
30.93333,49
30.94167,49
30.95000,49
30.95833,49
30.96667,49
30.97500,49
30.98333,49
30.99167,49
31.00000,49
31.00833,49
31.01667,49
31.02500,50
31.03333,50
31.04167,51
31.05000,51
31.05833,50
31.06667,50
31.07500,50
31.08333,50
31.09167,50
31.10000,50
31.10833,50
31.11667,51
31.12500,51
31.13333,51
31.14167,51
31.15000,50
31.15833,51
31.16667,51
31.17500,51
31.18333,51
31.19167,51
31.20000,51
31.20833,50
31.21667,50
31.22500,50
31.23333,51
31.24167,51
31.25000,52
31.25833,52
31.26667,52
31.27500,52
31.28333,52
31.29167,53
31.30000,53
31.30833,53
31.31667,53
31.32500,53
31.33333,53
31.34167,53
31.35000,53
31.35833,53
31.36667,53
31.37500,53
31.38333,54
31.39167,54
31.40000,54
31.40833,54
31.41667,54
31.42500,54
31.43333,54
31.44167,54
31.45000,54
31.45833,54
31.46667,54
31.47500,54
31.48333,54
31.49167,54
31.50000,54
31.50833,54
31.51667,54
31.52500,54
31.53333,54
31.54167,55
31.55000,55
31.55833,55
31.56667,55
31.57500,55
31.58333,55
31.59167,55
31.60000,56
31.60833,56
31.61667,56
31.62500,55
31.63333,56
31.64167,56
31.65000,56
31.65833,56
31.66667,56
31.67500,56
31.68333,56
31.69167,56
31.70000,56
31.70833,55
31.71667,55
31.72500,55
31.73333,55
31.74167,55
31.75000,55
31.75833,55
31.76667,55
31.77500,55
31.78333,55
31.79167,56
31.80000,56
31.80833,56
31.81667,56
31.82500,56
31.83333,56
31.84167,56
31.85000,55
31.85833,55
31.86667,55
31.87500,55
31.88333,56
31.89167,56
31.90000,56
31.90833,56
31.91667,56
31.92500,56
31.93333,56
31.94167,56
31.95000,56
31.95833,56
31.96667,56
31.97500,56
31.98333,56
31.99167,56
32.00000,56
32.00833,56
32.01667,56
32.02500,57
32.03333,56
32.04167,56
32.05000,56
32.05833,57
32.06667,57
32.07500,56
32.08333,56
32.09167,56
32.10000,56
32.10833,57
32.11667,57
32.12500,57
32.13333,57
32.14167,57
32.15000,58
32.15833,58
32.16667,58
32.17500,58
32.18333,58
32.19167,57
32.20000,57
32.20833,57
32.21667,57
32.22500,57
32.23333,57
32.24167,57
32.25000,57
32.25833,56
32.26667,56
32.27500,56
32.28333,56
32.29167,56
32.30000,56
32.30833,56
32.31667,56
32.32500,56
32.33333,56
32.34167,56
32.35000,57
32.35833,57
32.36667,56
32.37500,56
32.38333,56
32.39167,56
32.40000,56
32.40833,56
32.41667,56
32.42500,56
32.43333,56
32.44167,56
32.45000,56
32.45833,56
32.46667,57
32.47500,57
32.48333,57
32.49167,57
32.50000,57
32.50833,57
32.51667,57
32.52500,57
32.53333,57
32.54167,57
32.55000,57
32.55833,57
32.56667,57
32.57500,58
32.58333,58
32.59167,58
32.60000,58
32.60833,58
32.61667,58
32.62500,58
32.63333,59
32.64167,59
32.65000,59
32.65833,59
32.66667,59
32.67500,59
32.68333,59
32.69167,59
32.70000,59
32.70833,58
32.71667,58
32.72500,58
32.73333,57
32.74167,57
32.75000,57
32.75833,57
32.76667,57
32.77500,57
32.78333,57
32.79167,57
32.80000,57
32.80833,58
32.81667,58
32.82500,58
32.83333,58
32.84167,58
32.85000,58
32.85833,58
32.86667,58
32.87500,58
32.88333,58
32.89167,58
32.90000,58
32.90833,58
32.91667,58
32.92500,58
32.93333,58
32.94167,58
32.95000,58
32.95833,57
32.96667,57
32.97500,57
32.98333,57
32.99167,57
33.00000,57
33.00833,57
33.01667,57
33.02500,58
33.03333,58
33.04167,59
33.05000,58
33.05833,58
33.06667,58
33.07500,58
33.08333,58
33.09167,58
33.10000,58
33.10833,58
33.11667,59
33.12500,59
33.13333,59
33.14167,59
33.15000,59
33.15833,60
33.16667,60
33.17500,59
33.18333,59
33.19167,59
33.20000,59
33.20833,59
33.21667,59
33.22500,59
33.23333,59
33.24167,59
33.25000,59
33.25833,58
33.26667,58
33.27500,58
33.28333,58
33.29167,58
33.30000,58
33.30833,58
33.31667,58
33.32500,58
33.33333,58
33.34167,58
33.35000,58
33.35833,58
33.36667,58
33.37500,58
33.38333,58
33.39167,58
33.40000,58
33.40833,58
33.41667,58
33.42500,58
33.43333,58
33.44167,58
33.45000,58
33.45833,58
33.46667,59
33.47500,59
33.48333,59
33.49167,59
33.50000,59
33.50833,59
33.51667,59
33.52500,59
33.53333,59
33.54167,59
33.55000,59
33.55833,59
33.56667,59
33.57500,59
33.58333,59
33.59167,59
33.60000,59
33.60833,60
33.61667,60
33.62500,59
33.63333,59
33.64167,59
33.65000,60
33.65833,60
33.66667,60
33.67500,60
33.68333,61
33.69167,61
33.70000,60
33.70833,60
33.71667,60
33.72500,60
33.73333,60
33.74167,60
33.75000,60
33.75833,60
33.76667,60
33.77500,60
33.78333,60
33.79167,60
33.80000,61
33.80833,60
33.81667,60
33.82500,60
33.83333,60
33.84167,60
33.85000,60
33.85833,61
33.86667,61
33.87500,61
33.88333,61
33.89167,61
33.90000,61
33.90833,60
33.91667,60
33.92500,60
33.93333,61
33.94167,61
33.95000,61
33.95833,62
33.96667,62
33.97500,62
33.98333,62
33.99167,61
34.00000,61
34.00833,61
34.01667,61
34.02500,61
34.03333,61
34.04167,61
34.05000,61
34.05833,61
34.06667,61
34.07500,61
34.08333,61
34.09167,61
34.10000,61
34.10833,61
34.11667,61
34.12500,61
34.13333,61
34.14167,61
34.15000,62
34.15833,62
34.16667,61
34.17500,61
34.18333,61
34.19167,61
34.20000,61
34.20833,61
34.21667,61
34.22500,61
34.23333,61
34.24167,61
34.25000,61
34.25833,61
34.26667,61
34.27500,61
34.28333,60
34.29167,60
34.30000,60
34.30833,60
34.31667,60
34.32500,60
34.33333,60
34.34167,60
34.35000,60
34.35833,60
34.36667,60
34.37500,59
34.38333,59
34.39167,59
34.40000,59
34.40833,59
34.41667,59
34.42500,60
34.43333,60
34.44167,61
34.45000,61
34.45833,61
34.46667,61
34.47500,60
34.48333,60
34.49167,60
34.50000,60
34.50833,61
34.51667,61
34.52500,61
34.53333,61
34.54167,60
34.55000,60
34.55833,60
34.56667,60
34.57500,59
34.58333,59
34.59167,59
34.60000,60
34.60833,60
34.61667,60
34.62500,60
34.63333,60
34.64167,60
34.65000,60
34.65833,60
34.66667,60
34.67500,60
34.68333,60
34.69167,60
34.70000,60
34.70833,60
34.71667,59
34.72500,60
34.73333,60
34.74167,60
34.75000,60
34.75833,60
34.76667,60
34.77500,60
34.78333,60
34.79167,60
34.80000,60
34.80833,60
34.81667,60
34.82500,60
34.83333,60
34.84167,60
34.85000,60
34.85833,60
34.86667,60
34.87500,60
34.88333,60
34.89167,60
34.90000,60
34.90833,60
34.91667,60
34.92500,60
34.93333,60
34.94167,60
34.95000,60
34.95833,60
34.96667,60
34.97500,59
34.98333,59
34.99167,59
35.00000,59
35.00833,59
35.01667,59
35.02500,59
35.03333,59
35.04167,59
35.05000,59
35.05833,59
35.06667,59
35.07500,60
35.08333,60
35.09167,60
35.10000,60
35.10833,61
35.11667,61
35.12500,61
35.13333,60
35.14167,60
35.15000,60
35.15833,60
35.16667,60
35.17500,60
35.18333,60
35.19167,60
35.20000,60
35.20833,61
35.21667,60
35.22500,60
35.23333,60
35.24167,59
35.25000,60
35.25833,60
35.26667,60
35.27500,61
35.28333,61
35.29167,61
35.30000,61
35.30833,60
35.31667,60
35.32500,60
35.33333,60
35.34167,60
35.35000,60
35.35833,60
35.36667,61
35.37500,61
35.38333,61
35.39167,61
35.40000,61
35.40833,61
35.41667,61
35.42500,61
35.43333,61
35.44167,61
35.45000,61
35.45833,61
35.46667,61
35.47500,61
35.48333,61
35.49167,60
35.50000,61
35.50833,61
35.51667,61
35.52500,62
35.53333,62
35.54167,62
35.55000,61
35.55833,61
35.56667,61
35.57500,61
35.58333,61
35.59167,61
35.60000,61
35.60833,61
35.61667,61
35.62500,61
35.63333,62
35.64167,62
35.65000,62
35.65833,61
35.66667,61
35.67500,61
35.68333,61
35.69167,61
35.70000,61
35.70833,61
35.71667,61
35.72500,61
35.73333,61
35.74167,61
35.75000,61
35.75833,62
35.76667,62
35.77500,62
35.78333,62
35.79167,62
35.80000,62
35.80833,62
35.81667,62
35.82500,62
35.83333,62
35.84167,62
35.85000,62
35.85833,62
35.86667,62
35.87500,63
35.88333,63
35.89167,63
35.90000,63
35.90833,62
35.91667,62
35.92500,62
35.93333,62
35.94167,62
35.95000,62
35.95833,62
35.96667,62
35.97500,62
35.98333,62
35.99167,62
36.00000,62
36.00833,61
36.01667,61
36.02500,61
36.03333,61
36.04167,62
36.05000,62
36.05833,62
36.06667,62
36.07500,62
36.08333,62
36.09167,62
36.10000,62
36.10833,62
36.11667,62
36.12500,61
36.13333,62
36.14167,62
36.15000,62
36.15833,62
36.16667,62
36.17500,62
36.18333,62
36.19167,62
36.20000,62
36.20833,62
36.21667,62
36.22500,62
36.23333,62
36.24167,62
36.25000,61
36.25833,61
36.26667,62
36.27500,62
36.28333,62
36.29167,62
36.30000,62
36.30833,62
36.31667,62
36.32500,62
36.33333,62
36.34167,62
36.35000,63
36.35833,62
36.36667,62
36.37500,63
36.38333,63
36.39167,63
36.40000,63
36.40833,62
36.41667,62
36.42500,62
36.43333,62
36.44167,62
36.45000,63
36.45833,62
36.46667,62
36.47500,62
36.48333,62
36.49167,63
36.50000,63
36.50833,63
36.51667,63
36.52500,63
36.53333,63
36.54167,63
36.55000,63
36.55833,63
36.56667,63
36.57500,63
36.58333,64
36.59167,64
36.60000,64
36.60833,64
36.61667,63
36.62500,63
36.63333,63
36.64167,63
36.65000,63
36.65833,63
36.66667,63
36.67500,63
36.68333,63
36.69167,63
36.70000,63
36.70833,63
36.71667,63
36.72500,64
36.73333,64
36.74167,64
36.75000,65
36.75833,65
36.76667,65
36.77500,65
36.78333,65
36.79167,65
36.80000,65
36.80833,65
36.81667,65
36.82500,65
36.83333,65
36.84167,65
36.85000,66
36.85833,66
36.86667,66
36.87500,66
36.88333,66
36.89167,66
36.90000,65
36.90833,65
36.91667,65
36.92500,65
36.93333,65
36.94167,65
36.95000,65
36.95833,65
36.96667,65
36.97500,66
36.98333,66
36.99167,66
37.00000,66
37.00833,66
37.01667,65
37.02500,66
37.03333,66
37.04167,66
37.05000,66
37.05833,65
37.06667,65
37.07500,65
37.08333,65
37.09167,65
37.10000,65
37.10833,65
37.11667,65
37.12500,65
37.13333,65
37.14167,65
37.15000,65
37.15833,65
37.16667,65
37.17500,65
37.18333,65
37.19167,65
37.20000,65
37.20833,65
37.21667,65
37.22500,65
37.23333,64
37.24167,64
37.25000,64
37.25833,64
37.26667,64
37.27500,64
37.28333,64
37.29167,64
37.30000,64
37.30833,64
37.31667,64
37.32500,64
37.33333,64
37.34167,64
37.35000,64
37.35833,64
37.36667,64
37.37500,64
37.38333,64
37.39167,64
37.40000,64
37.40833,64
37.41667,64
37.42500,64
37.43333,64
37.44167,64
37.45000,64
37.45833,64
37.46667,64
37.47500,63
37.48333,63
37.49167,63
37.50000,63
37.50833,63
37.51667,63
37.52500,63
37.53333,63
37.54167,63
37.55000,63
37.55833,64
37.56667,64
37.57500,64
37.58333,64
37.59167,64
37.60000,64
37.60833,64
37.61667,64
37.62500,64
37.63333,64
37.64167,64
37.65000,64
37.65833,64
37.66667,64
37.67500,64
37.68333,64
37.69167,64
37.70000,64
37.70833,64
37.71667,64
37.72500,64
37.73333,64
37.74167,65
37.75000,65
37.75833,64
37.76667,64
37.77500,64
37.78333,64
37.79167,64
37.80000,64
37.80833,64
37.81667,64
37.82500,64
37.83333,64
37.84167,64
37.85000,64
37.85833,64
37.86667,64
37.87500,64
37.88333,64
37.89167,64
37.90000,64
37.90833,65
37.91667,65
37.92500,65
37.93333,65
37.94167,65
37.95000,65
37.95833,65
37.96667,65
37.97500,65
37.98333,65
37.99167,65
38.00000,65
38.00833,65
38.01667,65
38.02500,65
38.03333,65
38.04167,65
38.05000,65
38.05833,65
38.06667,65
38.07500,65
38.08333,65
38.09167,65
38.10000,65
38.10833,66
38.11667,66
38.12500,66
38.13333,66
38.14167,66
38.15000,66
38.15833,66
38.16667,66
38.17500,66
38.18333,66
38.19167,66
38.20000,66
38.20833,66
38.21667,66
38.22500,66
38.23333,66
38.24167,66
38.25000,66
38.25833,66
38.26667,66
38.27500,66
38.28333,67
38.29167,66
38.30000,66
38.30833,67
38.31667,67
38.32500,67
38.33333,67
38.34167,66
38.35000,66
38.35833,66
38.36667,66
38.37500,66
38.38333,66
38.39167,66
38.40000,66
38.40833,66
38.41667,66
38.42500,66
38.43333,66
38.44167,66
38.45000,66
38.45833,66
38.46667,66
38.47500,66
38.48333,66
38.49167,66
38.50000,66
38.50833,66
38.51667,66
38.52500,66
38.53333,67
38.54167,67
38.55000,66
38.55833,66
38.56667,66
38.57500,66
38.58333,66
38.59167,66
38.60000,66
38.60833,66
38.61667,67
38.62500,66
38.63333,66
38.64167,67
38.65000,67
38.65833,67
38.66667,67
38.67500,67
38.68333,67
38.69167,67
38.70000,67
38.70833,67
38.71667,68
38.72500,67
38.73333,68
38.74167,68
38.75000,67
38.75833,67
38.76667,67
38.77500,67
38.78333,67
38.79167,67
38.80000,67
38.80833,67
38.81667,67
38.82500,67
38.83333,67
38.84167,67
38.85000,66
38.85833,66
38.86667,66
38.87500,67
38.88333,67
38.89167,67
38.90000,68
38.90833,68
38.91667,68
38.92500,68
38.93333,67
38.94167,67
38.95000,67
38.95833,67
38.96667,67
38.97500,67
38.98333,67
38.99167,68
39.00000,68
39.00833,68
39.01667,68
39.02500,67
39.03333,67
39.04167,67
39.05000,67
39.05833,67
39.06667,67
39.07500,68
39.08333,68
39.09167,68
39.10000,68
39.10833,68
39.11667,68
39.12500,68
39.13333,68
39.14167,68
39.15000,68
39.15833,68
39.16667,68
39.17500,68
39.18333,68
39.19167,68
39.20000,69
39.20833,69
39.21667,69
39.22500,69
39.23333,69
39.24167,68
39.25000,68
39.25833,68
39.26667,68
39.27500,68
39.28333,68
39.29167,69
39.30000,69
39.30833,69
39.31667,69
39.32500,69
39.33333,69
39.34167,69
39.35000,70
39.35833,70
39.36667,69
39.37500,69
39.38333,69
39.39167,69
39.40000,69
39.40833,69
39.41667,70
39.42500,70
39.43333,70
39.44167,69
39.45000,69
39.45833,69
39.46667,69
39.47500,69
39.48333,68
39.49167,68
39.50000,68
39.50833,68
39.51667,69
39.52500,68
39.53333,68
39.54167,68
39.55000,68
39.55833,68
39.56667,68
39.57500,68
39.58333,68
39.59167,68
39.60000,68
39.60833,68
39.61667,68
39.62500,68
39.63333,68
39.64167,68
39.65000,68
39.65833,68
39.66667,68
39.67500,68
39.68333,68
39.69167,68
39.70000,68
39.70833,68
39.71667,68
39.72500,68
39.73333,68
39.74167,69
39.75000,69
39.75833,69
39.76667,69
39.77500,69
39.78333,69
39.79167,69
39.80000,69
39.80833,69
39.81667,69
39.82500,68
39.83333,68
39.84167,68
39.85000,68
39.85833,68
39.86667,68
39.87500,68
39.88333,68
39.89167,68
39.90000,68
39.90833,68
39.91667,68
39.92500,68
39.93333,68
39.94167,68
39.95000,69
39.95833,69
39.96667,69
39.97500,69
39.98333,69
39.99167,69
40.00000,69

