[Header]
Application Name,LabSolutions
Version,5.97 SP1
Data File Name,C:\Users\cremerlab\Desktop\griffin\2021-04-03_buffer_calibration\2021-04-03_buffer_calibration_432021_002_002.lcd
Output Date,4/3/2021
Output Time,3:23:15 PM

[File Information]
Type,Data File
Generated,4/3/2021 2:42:54 PM
Generated by,System Administrator
Modified,4/3/2021 3:23:15 PM
Modified by,System Administrator

[Sample Information]
Operator Name,System Administrator
Acquired,4/3/2021 2:43:14 PM
Sample Type,1:Standard
Level,2
Sample Name,2021-04-02_NC_glucose_glycerol_acetate_calibration_25mM
Sample ID,002
ISTD Amount1,1
ISTD Amount2,1
ISTD Amount3,1
ISTD Amount4,1
ISTD Amount5,1
ISTD Amount6,1
ISTD Amount7,1
ISTD Amount8,1
ISTD Amount9,1
ISTD Amount10,1
ISTD Amount11,1
ISTD Amount12,1
ISTD Amount13,1
ISTD Amount14,1
ISTD Amount15,1
ISTD Amount16,1
ISTD Amount17,1
ISTD Amount18,1
ISTD Amount19,1
ISTD Amount20,1
ISTD Amount21,1
ISTD Amount22,1
ISTD Amount23,1
ISTD Amount24,1
ISTD Amount25,1
ISTD Amount26,1
ISTD Amount27,1
ISTD Amount28,1
ISTD Amount29,1
ISTD Amount30,1
ISTD Amount31,1
ISTD Amount32,1
Sample Amount,1
Dilution Factor,1
Vial#,2
Injection Volume,20

[Original Files]
Data File,C:\Users\cremerlab\Desktop\griffin\2021-04-03_buffer_calibration\2021-04-03_buffer_calibration_432021_002_002.lcd
Method File,C:\LabSolutions\Data\Project1\organicacidsetc2.lcm
Batch File,C:\Users\cremerlab\Desktop\griffin\2021-04-03_buffer_calibration\2021-04-03_buffer_calibration.lcb
Report Format File,c:\LabSolutions\System\DEFAULT.lsr

[File Description]


[Configuration]
Instrument Name,HPLC-PC-Instrument1
Instrument #,1
Line #,1
# of Detectors,2
Detector ID,Detector A,Detector B
Detector Name,Detector A,Detector B
# of Channels,1,1

[Peak Table(Detector A)]
# of Peaks,0

[Peak Table(Detector B)]
# of Peaks,5
Peak#,R.Time,I.Time,F.Time,Area,Height,A/H,Conc.,Mark,ID#,Name,k',Plate #,Plate Ht.,Tailing,Resolution,Sep.Factor,Area Ratio,Height Ratio,Conc. %,Norm Conc.
1,11.064,10.758,12.758,1222235,68731,17.783,0.000,   ,,,0.000,10716,13.998,1.306,0.000,0.000,0,0,0.000,0.000
2,15.105,14.108,15.358,3054020,115232,26.503,0.000,   ,,,0.365,6893,21.761,0.000,6.997,0.000,0,0,0.000,0.000
3,15.659,15.358,18.708,2431202,98989,24.560,0.000, V ,,,0.415,9339,16.061,0.000,0.805,1.137,0,0,0.000,0.000
4,22.077,21.317,23.617,691118,25486,27.117,0.000,   ,,,0.995,15403,9.739,1.092,9.440,2.397,0,0,0.000,0.000
5,25.066,24.308,26.200,295664,10058,29.397,0.000,   ,,,1.266,16693,8.986,1.070,4.019,1.271,0,0,0.000,0.000

[LC Chromatogram(Detector B-Ch1)]
Interval(msec),500
# of Points,4801
Start Time(min),0.000
End Time(min),40.000
Intensity Units,mV
Intensity Multiplier,0.001
R.Time (min),Intensity
0.00000,-1
0.00833,-1
0.01667,0
0.02500,0
0.03333,0
0.04167,0
0.05000,-0
0.05833,-0
0.06667,-0
0.07500,0
0.08333,-0
0.09167,-0
0.10000,-0
0.10833,0
0.11667,0
0.12500,0
0.13333,0
0.14167,0
0.15000,0
0.15833,0
0.16667,-0
0.17500,-0
0.18333,-0
0.19167,0
0.20000,0
0.20833,0
0.21667,0
0.22500,0
0.23333,0
0.24167,0
0.25000,0
0.25833,0
0.26667,0
0.27500,0
0.28333,0
0.29167,0
0.30000,0
0.30833,0
0.31667,1
0.32500,0
0.33333,0
0.34167,1
0.35000,1
0.35833,1
0.36667,1
0.37500,1
0.38333,1
0.39167,0
0.40000,0
0.40833,0
0.41667,0
0.42500,-0
0.43333,-0
0.44167,0
0.45000,0
0.45833,0
0.46667,0
0.47500,0
0.48333,1
0.49167,0
0.50000,0
0.50833,0
0.51667,0
0.52500,1
0.53333,1
0.54167,1
0.55000,1
0.55833,2
0.56667,2
0.57500,2
0.58333,2
0.59167,2
0.60000,2
0.60833,2
0.61667,1
0.62500,1
0.63333,1
0.64167,0
0.65000,0
0.65833,0
0.66667,0
0.67500,-0
0.68333,-0
0.69167,-0
0.70000,-0
0.70833,-0
0.71667,-0
0.72500,-0
0.73333,-0
0.74167,-0
0.75000,-1
0.75833,-1
0.76667,-1
0.77500,-1
0.78333,-1
0.79167,-1
0.80000,-1
0.80833,-1
0.81667,-1
0.82500,-1
0.83333,-1
0.84167,-1
0.85000,-1
0.85833,-1
0.86667,-1
0.87500,-0
0.88333,0
0.89167,0
0.90000,0
0.90833,0
0.91667,-0
0.92500,-0
0.93333,-0
0.94167,-1
0.95000,-1
0.95833,-0
0.96667,-0
0.97500,-0
0.98333,0
0.99167,0
1.00000,0
1.00833,0
1.01667,0
1.02500,1
1.03333,1
1.04167,1
1.05000,0
1.05833,0
1.06667,0
1.07500,1
1.08333,0
1.09167,0
1.10000,0
1.10833,0
1.11667,0
1.12500,0
1.13333,0
1.14167,0
1.15000,0
1.15833,1
1.16667,1
1.17500,1
1.18333,1
1.19167,1
1.20000,1
1.20833,1
1.21667,0
1.22500,-0
1.23333,-0
1.24167,-0
1.25000,0
1.25833,0
1.26667,0
1.27500,0
1.28333,0
1.29167,0
1.30000,0
1.30833,0
1.31667,0
1.32500,-0
1.33333,-0
1.34167,-0
1.35000,-0
1.35833,0
1.36667,-0
1.37500,-0
1.38333,-0
1.39167,-0
1.40000,-0
1.40833,-0
1.41667,0
1.42500,0
1.43333,1
1.44167,0
1.45000,0
1.45833,-0
1.46667,-0
1.47500,-0
1.48333,-0
1.49167,-0
1.50000,0
1.50833,0
1.51667,-0
1.52500,-0
1.53333,-0
1.54167,-0
1.55000,-0
1.55833,-0
1.56667,-0
1.57500,-0
1.58333,-1
1.59167,-1
1.60000,-1
1.60833,-1
1.61667,-0
1.62500,-0
1.63333,-0
1.64167,0
1.65000,0
1.65833,0
1.66667,0
1.67500,1
1.68333,0
1.69167,-0
1.70000,-0
1.70833,-1
1.71667,-1
1.72500,-1
1.73333,-0
1.74167,-0
1.75000,0
1.75833,0
1.76667,-0
1.77500,-0
1.78333,-0
1.79167,-0
1.80000,-0
1.80833,-1
1.81667,-0
1.82500,-0
1.83333,-0
1.84167,0
1.85000,-0
1.85833,-0
1.86667,-0
1.87500,-1
1.88333,-1
1.89167,-1
1.90000,-1
1.90833,-1
1.91667,-1
1.92500,-1
1.93333,-1
1.94167,-1
1.95000,-0
1.95833,-0
1.96667,-0
1.97500,-0
1.98333,-1
1.99167,-0
2.00000,-0
2.00833,-0
2.01667,-0
2.02500,-0
2.03333,-0
2.04167,-0
2.05000,-0
2.05833,-0
2.06667,-0
2.07500,-0
2.08333,-0
2.09167,-0
2.10000,0
2.10833,0
2.11667,0
2.12500,0
2.13333,0
2.14167,0
2.15000,0
2.15833,-0
2.16667,-0
2.17500,-0
2.18333,-0
2.19167,-0
2.20000,-0
2.20833,-0
2.21667,-0
2.22500,-0
2.23333,-0
2.24167,-0
2.25000,-0
2.25833,-1
2.26667,-0
2.27500,-1
2.28333,-1
2.29167,-1
2.30000,-1
2.30833,-1
2.31667,-0
2.32500,-0
2.33333,-0
2.34167,-0
2.35000,-0
2.35833,-0
2.36667,-0
2.37500,-0
2.38333,-1
2.39167,-1
2.40000,-1
2.40833,-1
2.41667,-0
2.42500,-0
2.43333,-0
2.44167,-0
2.45000,-0
2.45833,0
2.46667,0
2.47500,0
2.48333,0
2.49167,-0
2.50000,-1
2.50833,-1
2.51667,-1
2.52500,-0
2.53333,-0
2.54167,-1
2.55000,-1
2.55833,-1
2.56667,-1
2.57500,-1
2.58333,-0
2.59167,-0
2.60000,-0
2.60833,-1
2.61667,-1
2.62500,-1
2.63333,-1
2.64167,-0
2.65000,-0
2.65833,-0
2.66667,-0
2.67500,-1
2.68333,-1
2.69167,-1
2.70000,-1
2.70833,-1
2.71667,-1
2.72500,-1
2.73333,-1
2.74167,-1
2.75000,-1
2.75833,-1
2.76667,-2
2.77500,-2
2.78333,-2
2.79167,-1
2.80000,-1
2.80833,-1
2.81667,-1
2.82500,-1
2.83333,-1
2.84167,-1
2.85000,-1
2.85833,-1
2.86667,-1
2.87500,-1
2.88333,-0
2.89167,-0
2.90000,-1
2.90833,-1
2.91667,-1
2.92500,-1
2.93333,-1
2.94167,-0
2.95000,-0
2.95833,-0
2.96667,-1
2.97500,-1
2.98333,-1
2.99167,-1
3.00000,-1
3.00833,-0
3.01667,0
3.02500,0
3.03333,-0
3.04167,-0
3.05000,0
3.05833,0
3.06667,0
3.07500,-0
3.08333,-1
3.09167,-1
3.10000,-0
3.10833,-0
3.11667,-0
3.12500,-1
3.13333,-1
3.14167,-1
3.15000,-1
3.15833,-1
3.16667,-1
3.17500,-1
3.18333,-1
3.19167,-1
3.20000,-1
3.20833,-1
3.21667,-1
3.22500,-0
3.23333,-0
3.24167,-1
3.25000,-1
3.25833,-1
3.26667,-1
3.27500,-1
3.28333,-1
3.29167,-1
3.30000,-1
3.30833,-1
3.31667,-1
3.32500,-0
3.33333,-0
3.34167,-0
3.35000,-0
3.35833,0
3.36667,-0
3.37500,-0
3.38333,-0
3.39167,-0
3.40000,-0
3.40833,0
3.41667,0
3.42500,-0
3.43333,-0
3.44167,-0
3.45000,-0
3.45833,-0
3.46667,-0
3.47500,-1
3.48333,-0
3.49167,-1
3.50000,-1
3.50833,-1
3.51667,-0
3.52500,-0
3.53333,0
3.54167,0
3.55000,0
3.55833,0
3.56667,0
3.57500,0
3.58333,-0
3.59167,-0
3.60000,-0
3.60833,0
3.61667,0
3.62500,1
3.63333,1
3.64167,1
3.65000,0
3.65833,0
3.66667,0
3.67500,-0
3.68333,-1
3.69167,-1
3.70000,-0
3.70833,-0
3.71667,-0
3.72500,-0
3.73333,-0
3.74167,-0
3.75000,-0
3.75833,0
3.76667,0
3.77500,0
3.78333,0
3.79167,0
3.80000,0
3.80833,0
3.81667,1
3.82500,1
3.83333,1
3.84167,1
3.85000,1
3.85833,0
3.86667,0
3.87500,0
3.88333,1
3.89167,1
3.90000,0
3.90833,1
3.91667,1
3.92500,1
3.93333,0
3.94167,0
3.95000,1
3.95833,1
3.96667,1
3.97500,1
3.98333,1
3.99167,0
4.00000,0
4.00833,-0
4.01667,0
4.02500,1
4.03333,1
4.04167,1
4.05000,1
4.05833,1
4.06667,1
4.07500,1
4.08333,1
4.09167,1
4.10000,1
4.10833,1
4.11667,1
4.12500,1
4.13333,1
4.14167,1
4.15000,1
4.15833,1
4.16667,1
4.17500,0
4.18333,-0
4.19167,-1
4.20000,-1
4.20833,-0
4.21667,-0
4.22500,-0
4.23333,0
4.24167,0
4.25000,0
4.25833,1
4.26667,1
4.27500,1
4.28333,1
4.29167,1
4.30000,1
4.30833,1
4.31667,1
4.32500,1
4.33333,1
4.34167,2
4.35000,2
4.35833,2
4.36667,1
4.37500,1
4.38333,1
4.39167,1
4.40000,1
4.40833,1
4.41667,1
4.42500,1
4.43333,1
4.44167,1
4.45000,1
4.45833,1
4.46667,1
4.47500,1
4.48333,2
4.49167,1
4.50000,1
4.50833,1
4.51667,1
4.52500,2
4.53333,2
4.54167,2
4.55000,1
4.55833,1
4.56667,1
4.57500,1
4.58333,1
4.59167,1
4.60000,1
4.60833,0
4.61667,0
4.62500,0
4.63333,0
4.64167,0
4.65000,0
4.65833,0
4.66667,0
4.67500,1
4.68333,1
4.69167,1
4.70000,1
4.70833,1
4.71667,1
4.72500,1
4.73333,1
4.74167,1
4.75000,1
4.75833,1
4.76667,0
4.77500,1
4.78333,1
4.79167,1
4.80000,1
4.80833,1
4.81667,1
4.82500,1
4.83333,1
4.84167,0
4.85000,0
4.85833,0
4.86667,0
4.87500,0
4.88333,0
4.89167,0
4.90000,0
4.90833,0
4.91667,0
4.92500,0
4.93333,0
4.94167,0
4.95000,0
4.95833,0
4.96667,0
4.97500,0
4.98333,-0
4.99167,-0
5.00000,-0
5.00833,0
5.01667,0
5.02500,1
5.03333,1
5.04167,1
5.05000,1
5.05833,1
5.06667,1
5.07500,1
5.08333,1
5.09167,1
5.10000,0
5.10833,0
5.11667,-0
5.12500,-0
5.13333,-0
5.14167,-0
5.15000,-0
5.15833,-0
5.16667,-0
5.17500,-0
5.18333,0
5.19167,0
5.20000,0
5.20833,0
5.21667,0
5.22500,-0
5.23333,-0
5.24167,0
5.25000,1
5.25833,1
5.26667,1
5.27500,1
5.28333,1
5.29167,1
5.30000,1
5.30833,1
5.31667,1
5.32500,1
5.33333,1
5.34167,1
5.35000,1
5.35833,1
5.36667,1
5.37500,1
5.38333,1
5.39167,1
5.40000,1
5.40833,1
5.41667,1
5.42500,1
5.43333,1
5.44167,2
5.45000,1
5.45833,1
5.46667,1
5.47500,1
5.48333,1
5.49167,1
5.50000,1
5.50833,1
5.51667,1
5.52500,1
5.53333,1
5.54167,1
5.55000,1
5.55833,1
5.56667,1
5.57500,1
5.58333,1
5.59167,1
5.60000,1
5.60833,1
5.61667,0
5.62500,0
5.63333,0
5.64167,1
5.65000,1
5.65833,1
5.66667,1
5.67500,1
5.68333,1
5.69167,2
5.70000,2
5.70833,2
5.71667,1
5.72500,1
5.73333,1
5.74167,1
5.75000,1
5.75833,1
5.76667,1
5.77500,1
5.78333,1
5.79167,1
5.80000,1
5.80833,1
5.81667,1
5.82500,1
5.83333,1
5.84167,0
5.85000,0
5.85833,1
5.86667,1
5.87500,1
5.88333,1
5.89167,1
5.90000,1
5.90833,1
5.91667,1
5.92500,1
5.93333,1
5.94167,0
5.95000,0
5.95833,0
5.96667,0
5.97500,0
5.98333,0
5.99167,0
6.00000,1
6.00833,1
6.01667,1
6.02500,1
6.03333,1
6.04167,0
6.05000,1
6.05833,1
6.06667,1
6.07500,1
6.08333,1
6.09167,1
6.10000,0
6.10833,0
6.11667,1
6.12500,1
6.13333,1
6.14167,1
6.15000,1
6.15833,1
6.16667,1
6.17500,1
6.18333,0
6.19167,0
6.20000,0
6.20833,1
6.21667,1
6.22500,1
6.23333,1
6.24167,1
6.25000,1
6.25833,1
6.26667,2
6.27500,2
6.28333,2
6.29167,2
6.30000,2
6.30833,2
6.31667,1
6.32500,1
6.33333,1
6.34167,1
6.35000,1
6.35833,1
6.36667,1
6.37500,1
6.38333,1
6.39167,1
6.40000,1
6.40833,2
6.41667,2
6.42500,2
6.43333,2
6.44167,2
6.45000,1
6.45833,1
6.46667,1
6.47500,1
6.48333,1
6.49167,1
6.50000,1
6.50833,1
6.51667,1
6.52500,1
6.53333,1
6.54167,1
6.55000,1
6.55833,1
6.56667,2
6.57500,2
6.58333,2
6.59167,1
6.60000,2
6.60833,2
6.61667,2
6.62500,2
6.63333,2
6.64167,2
6.65000,1
6.65833,1
6.66667,1
6.67500,1
6.68333,2
6.69167,2
6.70000,2
6.70833,2
6.71667,2
6.72500,2
6.73333,2
6.74167,2
6.75000,2
6.75833,2
6.76667,2
6.77500,2
6.78333,2
6.79167,2
6.80000,2
6.80833,2
6.81667,2
6.82500,2
6.83333,2
6.84167,2
6.85000,2
6.85833,2
6.86667,1
6.87500,1
6.88333,1
6.89167,1
6.90000,1
6.90833,2
6.91667,2
6.92500,2
6.93333,2
6.94167,2
6.95000,2
6.95833,2
6.96667,2
6.97500,2
6.98333,2
6.99167,2
7.00000,2
7.00833,2
7.01667,2
7.02500,2
7.03333,2
7.04167,1
7.05000,1
7.05833,1
7.06667,1
7.07500,2
7.08333,2
7.09167,2
7.10000,2
7.10833,2
7.11667,2
7.12500,2
7.13333,2
7.14167,2
7.15000,2
7.15833,2
7.16667,2
7.17500,2
7.18333,1
7.19167,1
7.20000,1
7.20833,1
7.21667,1
7.22500,2
7.23333,1
7.24167,1
7.25000,1
7.25833,1
7.26667,1
7.27500,1
7.28333,1
7.29167,1
7.30000,1
7.30833,1
7.31667,1
7.32500,1
7.33333,2
7.34167,2
7.35000,2
7.35833,2
7.36667,2
7.37500,2
7.38333,2
7.39167,2
7.40000,2
7.40833,2
7.41667,2
7.42500,2
7.43333,2
7.44167,2
7.45000,2
7.45833,2
7.46667,2
7.47500,2
7.48333,2
7.49167,2
7.50000,2
7.50833,2
7.51667,2
7.52500,2
7.53333,2
7.54167,2
7.55000,2
7.55833,2
7.56667,2
7.57500,2
7.58333,2
7.59167,2
7.60000,2
7.60833,2
7.61667,1
7.62500,1
7.63333,1
7.64167,1
7.65000,1
7.65833,2
7.66667,2
7.67500,2
7.68333,2
7.69167,2
7.70000,2
7.70833,2
7.71667,2
7.72500,2
7.73333,3
7.74167,3
7.75000,2
7.75833,2
7.76667,2
7.77500,2
7.78333,2
7.79167,3
7.80000,3
7.80833,3
7.81667,3
7.82500,3
7.83333,3
7.84167,3
7.85000,3
7.85833,3
7.86667,3
7.87500,3
7.88333,3
7.89167,3
7.90000,3
7.90833,3
7.91667,2
7.92500,3
7.93333,3
7.94167,3
7.95000,3
7.95833,3
7.96667,3
7.97500,2
7.98333,2
7.99167,2
8.00000,2
8.00833,2
8.01667,2
8.02500,2
8.03333,2
8.04167,2
8.05000,2
8.05833,2
8.06667,3
8.07500,3
8.08333,3
8.09167,4
8.10000,4
8.10833,3
8.11667,2
8.12500,3
8.13333,3
8.14167,3
8.15000,3
8.15833,3
8.16667,3
8.17500,3
8.18333,3
8.19167,2
8.20000,2
8.20833,2
8.21667,2
8.22500,3
8.23333,3
8.24167,3
8.25000,3
8.25833,3
8.26667,3
8.27500,3
8.28333,2
8.29167,2
8.30000,3
8.30833,3
8.31667,3
8.32500,3
8.33333,3
8.34167,3
8.35000,3
8.35833,2
8.36667,2
8.37500,2
8.38333,2
8.39167,2
8.40000,2
8.40833,2
8.41667,2
8.42500,2
8.43333,2
8.44167,2
8.45000,2
8.45833,2
8.46667,3
8.47500,2
8.48333,2
8.49167,2
8.50000,3
8.50833,3
8.51667,3
8.52500,3
8.53333,2
8.54167,2
8.55000,2
8.55833,2
8.56667,2
8.57500,2
8.58333,3
8.59167,3
8.60000,3
8.60833,3
8.61667,2
8.62500,2
8.63333,2
8.64167,3
8.65000,3
8.65833,3
8.66667,3
8.67500,3
8.68333,3
8.69167,3
8.70000,2
8.70833,2
8.71667,3
8.72500,3
8.73333,3
8.74167,3
8.75000,3
8.75833,3
8.76667,2
8.77500,2
8.78333,2
8.79167,2
8.80000,2
8.80833,2
8.81667,2
8.82500,2
8.83333,2
8.84167,2
8.85000,2
8.85833,2
8.86667,2
8.87500,2
8.88333,2
8.89167,2
8.90000,2
8.90833,2
8.91667,3
8.92500,3
8.93333,3
8.94167,4
8.95000,4
8.95833,4
8.96667,4
8.97500,4
8.98333,4
8.99167,3
9.00000,3
9.00833,3
9.01667,3
9.02500,3
9.03333,3
9.04167,3
9.05000,3
9.05833,3
9.06667,3
9.07500,3
9.08333,3
9.09167,4
9.10000,4
9.10833,4
9.11667,4
9.12500,3
9.13333,3
9.14167,3
9.15000,4
9.15833,4
9.16667,4
9.17500,4
9.18333,3
9.19167,3
9.20000,3
9.20833,3
9.21667,3
9.22500,3
9.23333,3
9.24167,3
9.25000,3
9.25833,3
9.26667,3
9.27500,3
9.28333,3
9.29167,3
9.30000,4
9.30833,4
9.31667,4
9.32500,3
9.33333,3
9.34167,3
9.35000,3
9.35833,3
9.36667,3
9.37500,3
9.38333,3
9.39167,3
9.40000,3
9.40833,3
9.41667,3
9.42500,3
9.43333,3
9.44167,3
9.45000,3
9.45833,3
9.46667,2
9.47500,2
9.48333,2
9.49167,2
9.50000,2
9.50833,2
9.51667,2
9.52500,2
9.53333,2
9.54167,3
9.55000,3
9.55833,3
9.56667,3
9.57500,3
9.58333,3
9.59167,3
9.60000,3
9.60833,3
9.61667,3
9.62500,3
9.63333,3
9.64167,3
9.65000,3
9.65833,3
9.66667,3
9.67500,3
9.68333,3
9.69167,3
9.70000,3
9.70833,3
9.71667,3
9.72500,3
9.73333,3
9.74167,3
9.75000,3
9.75833,2
9.76667,2
9.77500,2
9.78333,2
9.79167,3
9.80000,3
9.80833,3
9.81667,3
9.82500,4
9.83333,4
9.84167,4
9.85000,3
9.85833,3
9.86667,3
9.87500,3
9.88333,3
9.89167,4
9.90000,4
9.90833,4
9.91667,4
9.92500,4
9.93333,4
9.94167,4
9.95000,4
9.95833,4
9.96667,3
9.97500,3
9.98333,3
9.99167,3
10.00000,3
10.00833,4
10.01667,4
10.02500,4
10.03333,4
10.04167,4
10.05000,4
10.05833,4
10.06667,4
10.07500,4
10.08333,5
10.09167,5
10.10000,5
10.10833,5
10.11667,5
10.12500,5
10.13333,5
10.14167,5
10.15000,6
10.15833,6
10.16667,6
10.17500,6
10.18333,6
10.19167,6
10.20000,6
10.20833,6
10.21667,6
10.22500,6
10.23333,5
10.24167,5
10.25000,5
10.25833,5
10.26667,5
10.27500,5
10.28333,5
10.29167,5
10.30000,5
10.30833,5
10.31667,5
10.32500,5
10.33333,6
10.34167,6
10.35000,6
10.35833,7
10.36667,7
10.37500,8
10.38333,8
10.39167,8
10.40000,9
10.40833,9
10.41667,9
10.42500,10
10.43333,10
10.44167,10
10.45000,10
10.45833,11
10.46667,11
10.47500,11
10.48333,11
10.49167,11
10.50000,10
10.50833,9
10.51667,6
10.52500,2
10.53333,-3
10.54167,-12
10.55000,-24
10.55833,-40
10.56667,-62
10.57500,-90
10.58333,-127
10.59167,-174
10.60000,-234
10.60833,-308
10.61667,-399
10.62500,-509
10.63333,-638
10.64167,-789
10.65000,-963
10.65833,-1158
10.66667,-1375
10.67500,-1612
10.68333,-1864
10.69167,-2127
10.70000,-2394
10.70833,-2660
10.71667,-2913
10.72500,-3145
10.73333,-3343
10.74167,-3497
10.75000,-3591
10.75833,-3615
10.76667,-3554
10.77500,-3395
10.78333,-3127
10.79167,-2736
10.80000,-2212
10.80833,-1545
10.81667,-727
10.82500,251
10.83333,1393
10.84167,2705
10.85000,4191
10.85833,5850
10.86667,7683
10.87500,9688
10.88333,11862
10.89167,14201
10.90000,16698
10.90833,19344
10.91667,22130
10.92500,25042
10.93333,28066
10.94167,31183
10.95000,34372
10.95833,37608
10.96667,40861
10.97500,44098
10.98333,47280
10.99167,50365
11.00000,53306
11.00833,56051
11.01667,58550
11.02500,60748
11.03333,62596
11.04167,64047
11.05000,65063
11.05833,65614
11.06667,65683
11.07500,65265
11.08333,64370
11.09167,63019
11.10000,61249
11.10833,59105
11.11667,56640
11.12500,53914
11.13333,50990
11.14167,47929
11.15000,44789
11.15833,41626
11.16667,38488
11.17500,35418
11.18333,32448
11.19167,29609
11.20000,26918
11.20833,24391
11.21667,22035
11.22500,19854
11.23333,17848
11.24167,16012
11.25000,14340
11.25833,12824
11.26667,11454
11.27500,10221
11.28333,9114
11.29167,8124
11.30000,7241
11.30833,6454
11.31667,5754
11.32500,5133
11.33333,4583
11.34167,4096
11.35000,3665
11.35833,3284
11.36667,2947
11.37500,2650
11.38333,2388
11.39167,2156
11.40000,1952
11.40833,1771
11.41667,1612
11.42500,1471
11.43333,1346
11.44167,1236
11.45000,1137
11.45833,1050
11.46667,972
11.47500,903
11.48333,841
11.49167,785
11.50000,736
11.50833,691
11.51667,650
11.52500,614
11.53333,580
11.54167,550
11.55000,523
11.55833,497
11.56667,474
11.57500,452
11.58333,432
11.59167,414
11.60000,398
11.60833,383
11.61667,368
11.62500,355
11.63333,343
11.64167,331
11.65000,320
11.65833,310
11.66667,301
11.67500,293
11.68333,284
11.69167,277
11.70000,269
11.70833,262
11.71667,255
11.72500,249
11.73333,243
11.74167,238
11.75000,233
11.75833,229
11.76667,225
11.77500,221
11.78333,217
11.79167,214
11.80000,210
11.80833,207
11.81667,204
11.82500,202
11.83333,199
11.84167,197
11.85000,195
11.85833,194
11.86667,192
11.87500,190
11.88333,188
11.89167,187
11.90000,186
11.90833,185
11.91667,184
11.92500,183
11.93333,181
11.94167,180
11.95000,179
11.95833,178
11.96667,177
11.97500,176
11.98333,175
11.99167,174
12.00000,173
12.00833,172
12.01667,172
12.02500,171
12.03333,171
12.04167,171
12.05000,170
12.05833,169
12.06667,167
12.07500,166
12.08333,164
12.09167,163
12.10000,162
12.10833,160
12.11667,159
12.12500,158
12.13333,157
12.14167,156
12.15000,155
12.15833,154
12.16667,153
12.17500,151
12.18333,150
12.19167,149
12.20000,148
12.20833,147
12.21667,146
12.22500,144
12.23333,143
12.24167,142
12.25000,141
12.25833,140
12.26667,139
12.27500,138
12.28333,137
12.29167,136
12.30000,135
12.30833,134
12.31667,134
12.32500,133
12.33333,132
12.34167,131
12.35000,130
12.35833,129
12.36667,128
12.37500,128
12.38333,127
12.39167,126
12.40000,125
12.40833,125
12.41667,124
12.42500,123
12.43333,123
12.44167,122
12.45000,122
12.45833,121
12.46667,121
12.47500,121
12.48333,120
12.49167,119
12.50000,118
12.50833,117
12.51667,117
12.52500,116
12.53333,116
12.54167,115
12.55000,115
12.55833,114
12.56667,114
12.57500,113
12.58333,112
12.59167,111
12.60000,111
12.60833,110
12.61667,109
12.62500,109
12.63333,108
12.64167,107
12.65000,107
12.65833,106
12.66667,106
12.67500,105
12.68333,105
12.69167,104
12.70000,104
12.70833,103
12.71667,102
12.72500,102
12.73333,101
12.74167,101
12.75000,100
12.75833,100
12.76667,100
12.77500,100
12.78333,100
12.79167,100
12.80000,100
12.80833,100
12.81667,100
12.82500,100
12.83333,100
12.84167,101
12.85000,101
12.85833,101
12.86667,102
12.87500,102
12.88333,102
12.89167,103
12.90000,104
12.90833,105
12.91667,106
12.92500,106
12.93333,106
12.94167,107
12.95000,108
12.95833,109
12.96667,110
12.97500,111
12.98333,111
12.99167,112
13.00000,113
13.00833,113
13.01667,114
13.02500,115
13.03333,115
13.04167,116
13.05000,116
13.05833,117
13.06667,117
13.07500,118
13.08333,119
13.09167,120
13.10000,120
13.10833,121
13.11667,122
13.12500,122
13.13333,123
13.14167,123
13.15000,123
13.15833,123
13.16667,123
13.17500,123
13.18333,123
13.19167,123
13.20000,123
13.20833,123
13.21667,123
13.22500,124
13.23333,123
13.24167,123
13.25000,123
13.25833,122
13.26667,122
13.27500,121
13.28333,120
13.29167,120
13.30000,119
13.30833,118
13.31667,117
13.32500,115
13.33333,114
13.34167,113
13.35000,112
13.35833,110
13.36667,108
13.37500,107
13.38333,106
13.39167,104
13.40000,102
13.40833,101
13.41667,99
13.42500,97
13.43333,95
13.44167,93
13.45000,91
13.45833,89
13.46667,87
13.47500,85
13.48333,84
13.49167,82
13.50000,80
13.50833,79
13.51667,78
13.52500,76
13.53333,75
13.54167,73
13.55000,72
13.55833,70
13.56667,69
13.57500,67
13.58333,66
13.59167,65
13.60000,63
13.60833,62
13.61667,61
13.62500,60
13.63333,60
13.64167,59
13.65000,58
13.65833,57
13.66667,56
13.67500,55
13.68333,55
13.69167,54
13.70000,53
13.70833,53
13.71667,52
13.72500,51
13.73333,50
13.74167,50
13.75000,49
13.75833,49
13.76667,49
13.77500,48
13.78333,48
13.79167,48
13.80000,48
13.80833,48
13.81667,48
13.82500,47
13.83333,47
13.84167,47
13.85000,47
13.85833,46
13.86667,46
13.87500,46
13.88333,46
13.89167,46
13.90000,46
13.90833,46
13.91667,46
13.92500,46
13.93333,46
13.94167,47
13.95000,47
13.95833,47
13.96667,47
13.97500,47
13.98333,48
13.99167,48
14.00000,48
14.00833,48
14.01667,49
14.02500,49
14.03333,50
14.04167,50
14.05000,51
14.05833,52
14.06667,52
14.07500,53
14.08333,54
14.09167,55
14.10000,55
14.10833,56
14.11667,57
14.12500,58
14.13333,59
14.14167,61
14.15000,62
14.15833,65
14.16667,67
14.17500,70
14.18333,74
14.19167,77
14.20000,82
14.20833,87
14.21667,94
14.22500,102
14.23333,112
14.24167,123
14.25000,137
14.25833,154
14.26667,174
14.27500,198
14.28333,226
14.29167,261
14.30000,301
14.30833,349
14.31667,406
14.32500,473
14.33333,551
14.34167,642
14.35000,747
14.35833,868
14.36667,1006
14.37500,1163
14.38333,1342
14.39167,1543
14.40000,1768
14.40833,2019
14.41667,2297
14.42500,2605
14.43333,2942
14.44167,3311
14.45000,3713
14.45833,4148
14.46667,4618
14.47500,5124
14.48333,5666
14.49167,6243
14.50000,6858
14.50833,7509
14.51667,8196
14.52500,8920
14.53333,9680
14.54167,10477
14.55000,11309
14.55833,12177
14.56667,13080
14.57500,14018
14.58333,14989
14.59167,15995
14.60000,17032
14.60833,18102
14.61667,19203
14.62500,20334
14.63333,21496
14.64167,22688
14.65000,23908
14.65833,25158
14.66667,26435
14.67500,27740
14.68333,29072
14.69167,30430
14.70000,31813
14.70833,33222
14.71667,34657
14.72500,36115
14.73333,37599
14.74167,39106
14.75000,40637
14.75833,42191
14.76667,43768
14.77500,45369
14.78333,46992
14.79167,48637
14.80000,50304
14.80833,51993
14.81667,53703
14.82500,55435
14.83333,57188
14.84167,58962
14.85000,60757
14.85833,62572
14.86667,64407
14.87500,66262
14.88333,68135
14.89167,70028
14.90000,71940
14.90833,73870
14.91667,75817
14.92500,77782
14.93333,79762
14.94167,81758
14.95000,83768
14.95833,85791
14.96667,87826
14.97500,89871
14.98333,91924
14.99167,93982
15.00000,96041
15.00833,98096
15.01667,100140
15.02500,102163
15.03333,104152
15.04167,106088
15.05000,107947
15.05833,109697
15.06667,111301
15.07500,112713
15.08333,113878
15.09167,114740
15.10000,115236
15.10833,115309
15.11667,114903
15.12500,113973
15.13333,112486
15.14167,110425
15.15000,107794
15.15833,104615
15.16667,100927
15.17500,96790
15.18333,92276
15.19167,87468
15.20000,82457
15.20833,77334
15.21667,72189
15.22500,67105
15.23333,62158
15.24167,57412
15.25000,52921
15.25833,48728
15.26667,44862
15.27500,41343
15.28333,38184
15.29167,35389
15.30000,32956
15.30833,30879
15.31667,29150
15.32500,27757
15.33333,26691
15.34167,25939
15.35000,25490
15.35833,25332
15.36667,25456
15.37500,25852
15.38333,26511
15.39167,27424
15.40000,28582
15.40833,29978
15.41667,31602
15.42500,33444
15.43333,35494
15.44167,37741
15.45000,40171
15.45833,42769
15.46667,45520
15.47500,48405
15.48333,51404
15.49167,54498
15.50000,57664
15.50833,60878
15.51667,64115
15.52500,67349
15.53333,70554
15.54167,73703
15.55000,76770
15.55833,79727
15.56667,82551
15.57500,85215
15.58333,87698
15.59167,89977
15.60000,92034
15.60833,93851
15.61667,95414
15.62500,96709
15.63333,97728
15.64167,98464
15.65000,98915
15.65833,99078
15.66667,98956
15.67500,98554
15.68333,97879
15.69167,96940
15.70000,95749
15.70833,94319
15.71667,92667
15.72500,90807
15.73333,88759
15.74167,86540
15.75000,84171
15.75833,81670
15.76667,79058
15.77500,76354
15.78333,73576
15.79167,70744
15.80000,67874
15.80833,64985
15.81667,62091
15.82500,59209
15.83333,56350
15.84167,53528
15.85000,50755
15.85833,48041
15.86667,45394
15.87500,42822
15.88333,40331
15.89167,37926
15.90000,35612
15.90833,33392
15.91667,31269
15.92500,29242
15.93333,27314
15.94167,25484
15.95000,23750
15.95833,22113
15.96667,20569
15.97500,19117
15.98333,17753
15.99167,16475
16.00000,15280
16.00833,14165
16.01667,13125
16.02500,12158
16.03333,11259
16.04167,10426
16.05000,9653
16.05833,8937
16.06667,8276
16.07500,7666
16.08333,7104
16.09167,6585
16.10000,6108
16.10833,5669
16.11667,5266
16.12500,4896
16.13333,4556
16.14167,4244
16.15000,3959
16.15833,3697
16.16667,3457
16.17500,3237
16.18333,3036
16.19167,2851
16.20000,2683
16.20833,2528
16.21667,2387
16.22500,2257
16.23333,2137
16.24167,2028
16.25000,1928
16.25833,1835
16.26667,1751
16.27500,1673
16.28333,1601
16.29167,1535
16.30000,1474
16.30833,1418
16.31667,1366
16.32500,1318
16.33333,1273
16.34167,1232
16.35000,1193
16.35833,1157
16.36667,1124
16.37500,1093
16.38333,1065
16.39167,1038
16.40000,1012
16.40833,989
16.41667,966
16.42500,945
16.43333,926
16.44167,907
16.45000,890
16.45833,873
16.46667,858
16.47500,843
16.48333,828
16.49167,815
16.50000,803
16.50833,791
16.51667,780
16.52500,769
16.53333,759
16.54167,749
16.55000,739
16.55833,730
16.56667,722
16.57500,713
16.58333,706
16.59167,698
16.60000,691
16.60833,684
16.61667,677
16.62500,670
16.63333,664
16.64167,658
16.65000,651
16.65833,646
16.66667,640
16.67500,634
16.68333,629
16.69167,624
16.70000,619
16.70833,614
16.71667,609
16.72500,604
16.73333,599
16.74167,595
16.75000,590
16.75833,586
16.76667,581
16.77500,577
16.78333,573
16.79167,568
16.80000,564
16.80833,560
16.81667,556
16.82500,552
16.83333,548
16.84167,544
16.85000,540
16.85833,537
16.86667,533
16.87500,529
16.88333,525
16.89167,521
16.90000,517
16.90833,513
16.91667,510
16.92500,506
16.93333,502
16.94167,499
16.95000,495
16.95833,491
16.96667,487
16.97500,483
16.98333,480
16.99167,477
17.00000,474
17.00833,470
17.01667,467
17.02500,463
17.03333,459
17.04167,456
17.05000,453
17.05833,450
17.06667,447
17.07500,444
17.08333,441
17.09167,437
17.10000,434
17.10833,431
17.11667,428
17.12500,425
17.13333,423
17.14167,420
17.15000,417
17.15833,414
17.16667,411
17.17500,408
17.18333,405
17.19167,402
17.20000,400
17.20833,397
17.21667,395
17.22500,392
17.23333,390
17.24167,387
17.25000,385
17.25833,382
17.26667,379
17.27500,377
17.28333,375
17.29167,372
17.30000,370
17.30833,368
17.31667,366
17.32500,364
17.33333,361
17.34167,359
17.35000,357
17.35833,355
17.36667,353
17.37500,351
17.38333,349
17.39167,347
17.40000,344
17.40833,342
17.41667,340
17.42500,338
17.43333,336
17.44167,335
17.45000,333
17.45833,331
17.46667,330
17.47500,328
17.48333,326
17.49167,325
17.50000,323
17.50833,321
17.51667,319
17.52500,318
17.53333,316
17.54167,314
17.55000,312
17.55833,310
17.56667,309
17.57500,307
17.58333,306
17.59167,304
17.60000,302
17.60833,301
17.61667,299
17.62500,298
17.63333,296
17.64167,294
17.65000,293
17.65833,291
17.66667,289
17.67500,288
17.68333,286
17.69167,285
17.70000,283
17.70833,282
17.71667,280
17.72500,279
17.73333,277
17.74167,276
17.75000,275
17.75833,273
17.76667,272
17.77500,270
17.78333,269
17.79167,268
17.80000,267
17.80833,266
17.81667,265
17.82500,264
17.83333,262
17.84167,261
17.85000,260
17.85833,258
17.86667,257
17.87500,256
17.88333,254
17.89167,253
17.90000,252
17.90833,250
17.91667,249
17.92500,248
17.93333,247
17.94167,246
17.95000,244
17.95833,243
17.96667,241
17.97500,240
17.98333,239
17.99167,237
18.00000,236
18.00833,235
18.01667,234
18.02500,233
18.03333,231
18.04167,230
18.05000,229
18.05833,228
18.06667,226
18.07500,225
18.08333,224
18.09167,223
18.10000,222
18.10833,221
18.11667,220
18.12500,218
18.13333,217
18.14167,216
18.15000,215
18.15833,214
18.16667,213
18.17500,212
18.18333,211
18.19167,210
18.20000,208
18.20833,207
18.21667,206
18.22500,205
18.23333,204
18.24167,203
18.25000,202
18.25833,201
18.26667,200
18.27500,199
18.28333,198
18.29167,196
18.30000,195
18.30833,194
18.31667,193
18.32500,192
18.33333,190
18.34167,189
18.35000,188
18.35833,187
18.36667,186
18.37500,186
18.38333,185
18.39167,184
18.40000,183
18.40833,182
18.41667,181
18.42500,180
18.43333,179
18.44167,178
18.45000,177
18.45833,176
18.46667,176
18.47500,174
18.48333,173
18.49167,172
18.50000,171
18.50833,171
18.51667,170
18.52500,169
18.53333,168
18.54167,167
18.55000,166
18.55833,165
18.56667,164
18.57500,164
18.58333,163
18.59167,162
18.60000,161
18.60833,160
18.61667,160
18.62500,159
18.63333,158
18.64167,157
18.65000,157
18.65833,156
18.66667,156
18.67500,155
18.68333,155
18.69167,154
18.70000,153
18.70833,153
18.71667,153
18.72500,153
18.73333,152
18.74167,152
18.75000,152
18.75833,151
18.76667,151
18.77500,151
18.78333,151
18.79167,150
18.80000,150
18.80833,150
18.81667,150
18.82500,150
18.83333,150
18.84167,150
18.85000,150
18.85833,150
18.86667,150
18.87500,150
18.88333,150
18.89167,150
18.90000,150
18.90833,150
18.91667,150
18.92500,150
18.93333,150
18.94167,150
18.95000,150
18.95833,150
18.96667,150
18.97500,150
18.98333,150
18.99167,150
19.00000,150
19.00833,149
19.01667,148
19.02500,147
19.03333,146
19.04167,146
19.05000,145
19.05833,144
19.06667,143
19.07500,142
19.08333,141
19.09167,140
19.10000,139
19.10833,138
19.11667,137
19.12500,136
19.13333,135
19.14167,133
19.15000,132
19.15833,131
19.16667,130
19.17500,129
19.18333,128
19.19167,127
19.20000,126
19.20833,125
19.21667,124
19.22500,122
19.23333,121
19.24167,120
19.25000,119
19.25833,118
19.26667,117
19.27500,116
19.28333,115
19.29167,114
19.30000,113
19.30833,112
19.31667,111
19.32500,110
19.33333,109
19.34167,108
19.35000,107
19.35833,107
19.36667,106
19.37500,105
19.38333,105
19.39167,104
19.40000,104
19.40833,103
19.41667,103
19.42500,102
19.43333,101
19.44167,101
19.45000,100
19.45833,100
19.46667,99
19.47500,99
19.48333,99
19.49167,98
19.50000,97
19.50833,96
19.51667,95
19.52500,95
19.53333,94
19.54167,94
19.55000,94
19.55833,93
19.56667,93
19.57500,92
19.58333,92
19.59167,91
19.60000,91
19.60833,91
19.61667,90
19.62500,90
19.63333,89
19.64167,89
19.65000,89
19.65833,88
19.66667,88
19.67500,88
19.68333,87
19.69167,87
19.70000,87
19.70833,86
19.71667,86
19.72500,85
19.73333,85
19.74167,84
19.75000,84
19.75833,84
19.76667,84
19.77500,84
19.78333,84
19.79167,84
19.80000,83
19.80833,83
19.81667,82
19.82500,82
19.83333,81
19.84167,81
19.85000,81
19.85833,80
19.86667,80
19.87500,80
19.88333,80
19.89167,80
19.90000,80
19.90833,80
19.91667,79
19.92500,79
19.93333,79
19.94167,78
19.95000,77
19.95833,76
19.96667,76
19.97500,76
19.98333,76
19.99167,76
20.00000,75
20.00833,75
20.01667,75
20.02500,75
20.03333,74
20.04167,74
20.05000,73
20.05833,73
20.06667,73
20.07500,72
20.08333,72
20.09167,72
20.10000,72
20.10833,72
20.11667,72
20.12500,71
20.13333,71
20.14167,71
20.15000,71
20.15833,70
20.16667,69
20.17500,69
20.18333,69
20.19167,69
20.20000,69
20.20833,68
20.21667,68
20.22500,68
20.23333,68
20.24167,67
20.25000,67
20.25833,67
20.26667,67
20.27500,67
20.28333,67
20.29167,67
20.30000,67
20.30833,66
20.31667,66
20.32500,66
20.33333,65
20.34167,65
20.35000,65
20.35833,65
20.36667,65
20.37500,65
20.38333,65
20.39167,64
20.40000,64
20.40833,64
20.41667,63
20.42500,63
20.43333,63
20.44167,63
20.45000,63
20.45833,62
20.46667,62
20.47500,62
20.48333,62
20.49167,62
20.50000,62
20.50833,62
20.51667,62
20.52500,62
20.53333,62
20.54167,62
20.55000,61
20.55833,61
20.56667,61
20.57500,60
20.58333,60
20.59167,60
20.60000,60
20.60833,60
20.61667,59
20.62500,59
20.63333,59
20.64167,59
20.65000,59
20.65833,59
20.66667,58
20.67500,58
20.68333,58
20.69167,58
20.70000,58
20.70833,57
20.71667,57
20.72500,57
20.73333,57
20.74167,57
20.75000,57
20.75833,57
20.76667,57
20.77500,56
20.78333,56
20.79167,56
20.80000,56
20.80833,56
20.81667,55
20.82500,55
20.83333,55
20.84167,55
20.85000,55
20.85833,55
20.86667,55
20.87500,55
20.88333,54
20.89167,54
20.90000,54
20.90833,54
20.91667,54
20.92500,54
20.93333,54
20.94167,53
20.95000,53
20.95833,53
20.96667,52
20.97500,52
20.98333,52
20.99167,52
21.00000,52
21.00833,52
21.01667,53
21.02500,53
21.03333,52
21.04167,52
21.05000,52
21.05833,52
21.06667,52
21.07500,52
21.08333,52
21.09167,51
21.10000,51
21.10833,51
21.11667,51
21.12500,50
21.13333,50
21.14167,51
21.15000,51
21.15833,50
21.16667,50
21.17500,50
21.18333,50
21.19167,50
21.20000,50
21.20833,50
21.21667,50
21.22500,50
21.23333,50
21.24167,50
21.25000,51
21.25833,51
21.26667,51
21.27500,52
21.28333,52
21.29167,52
21.30000,53
21.30833,53
21.31667,54
21.32500,55
21.33333,56
21.34167,57
21.35000,59
21.35833,60
21.36667,63
21.37500,65
21.38333,67
21.39167,70
21.40000,73
21.40833,77
21.41667,81
21.42500,86
21.43333,91
21.44167,97
21.45000,104
21.45833,111
21.46667,120
21.47500,130
21.48333,141
21.49167,154
21.50000,168
21.50833,184
21.51667,203
21.52500,224
21.53333,247
21.54167,274
21.55000,305
21.55833,339
21.56667,378
21.57500,422
21.58333,471
21.59167,526
21.60000,589
21.60833,659
21.61667,737
21.62500,825
21.63333,923
21.64167,1032
21.65000,1154
21.65833,1289
21.66667,1439
21.67500,1604
21.68333,1787
21.69167,1988
21.70000,2208
21.70833,2449
21.71667,2712
21.72500,2999
21.73333,3309
21.74167,3644
21.75000,4006
21.75833,4395
21.76667,4812
21.77500,5257
21.78333,5731
21.79167,6234
21.80000,6765
21.80833,7325
21.81667,7912
21.82500,8527
21.83333,9166
21.84167,9830
21.85000,10517
21.85833,11225
21.86667,11950
21.87500,12690
21.88333,13442
21.89167,14203
21.90000,14970
21.90833,15739
21.91667,16506
21.92500,17267
21.93333,18018
21.94167,18755
21.95000,19474
21.95833,20170
21.96667,20839
21.97500,21477
21.98333,22080
21.99167,22645
22.00000,23167
22.00833,23645
22.01667,24074
22.02500,24451
22.03333,24776
22.04167,25046
22.05000,25260
22.05833,25416
22.06667,25515
22.07500,25555
22.08333,25537
22.09167,25461
22.10000,25329
22.10833,25142
22.11667,24901
22.12500,24610
22.13333,24270
22.14167,23884
22.15000,23455
22.15833,22985
22.16667,22479
22.17500,21940
22.18333,21371
22.19167,20775
22.20000,20157
22.20833,19519
22.21667,18866
22.22500,18202
22.23333,17528
22.24167,16849
22.25000,16167
22.25833,15486
22.26667,14808
22.27500,14136
22.28333,13473
22.29167,12820
22.30000,12179
22.30833,11553
22.31667,10942
22.32500,10348
22.33333,9773
22.34167,9217
22.35000,8680
22.35833,8165
22.36667,7670
22.37500,7197
22.38333,6746
22.39167,6315
22.40000,5906
22.40833,5518
22.41667,5151
22.42500,4804
22.43333,4477
22.44167,4169
22.45000,3879
22.45833,3607
22.46667,3352
22.47500,3114
22.48333,2892
22.49167,2684
22.50000,2491
22.50833,2311
22.51667,2144
22.52500,1989
22.53333,1846
22.54167,1713
22.55000,1591
22.55833,1477
22.56667,1373
22.57500,1276
22.58333,1188
22.59167,1106
22.60000,1031
22.60833,962
22.61667,898
22.62500,840
22.63333,786
22.64167,737
22.65000,692
22.65833,650
22.66667,612
22.67500,577
22.68333,545
22.69167,515
22.70000,488
22.70833,463
22.71667,441
22.72500,420
22.73333,400
22.74167,383
22.75000,366
22.75833,351
22.76667,338
22.77500,325
22.78333,313
22.79167,302
22.80000,291
22.80833,282
22.81667,273
22.82500,265
22.83333,258
22.84167,251
22.85000,244
22.85833,238
22.86667,232
22.87500,227
22.88333,222
22.89167,217
22.90000,213
22.90833,209
22.91667,204
22.92500,200
22.93333,197
22.94167,193
22.95000,190
22.95833,187
22.96667,185
22.97500,182
22.98333,179
22.99167,176
23.00000,174
23.00833,172
23.01667,170
23.02500,168
23.03333,166
23.04167,165
23.05000,163
23.05833,162
23.06667,160
23.07500,159
23.08333,157
23.09167,156
23.10000,154
23.10833,152
23.11667,150
23.12500,149
23.13333,148
23.14167,147
23.15000,145
23.15833,144
23.16667,143
23.17500,141
23.18333,140
23.19167,139
23.20000,137
23.20833,136
23.21667,135
23.22500,135
23.23333,134
23.24167,133
23.25000,132
23.25833,130
23.26667,129
23.27500,129
23.28333,127
23.29167,126
23.30000,125
23.30833,124
23.31667,123
23.32500,122
23.33333,121
23.34167,121
23.35000,120
23.35833,120
23.36667,119
23.37500,118
23.38333,117
23.39167,116
23.40000,115
23.40833,114
23.41667,113
23.42500,112
23.43333,112
23.44167,111
23.45000,110
23.45833,109
23.46667,108
23.47500,108
23.48333,107
23.49167,106
23.50000,105
23.50833,105
23.51667,104
23.52500,104
23.53333,103
23.54167,103
23.55000,102
23.55833,101
23.56667,100
23.57500,99
23.58333,98
23.59167,98
23.60000,97
23.60833,97
23.61667,97
23.62500,96
23.63333,96
23.64167,96
23.65000,95
23.65833,94
23.66667,94
23.67500,94
23.68333,93
23.69167,92
23.70000,91
23.70833,91
23.71667,91
23.72500,90
23.73333,90
23.74167,90
23.75000,90
23.75833,89
23.76667,89
23.77500,89
23.78333,89
23.79167,88
23.80000,88
23.80833,87
23.81667,87
23.82500,87
23.83333,87
23.84167,86
23.85000,86
23.85833,86
23.86667,86
23.87500,86
23.88333,85
23.89167,85
23.90000,85
23.90833,84
23.91667,83
23.92500,83
23.93333,83
23.94167,83
23.95000,83
23.95833,83
23.96667,83
23.97500,82
23.98333,82
23.99167,82
24.00000,82
24.00833,82
24.01667,82
24.02500,81
24.03333,81
24.04167,81
24.05000,81
24.05833,80
24.06667,80
24.07500,79
24.08333,79
24.09167,79
24.10000,78
24.10833,79
24.11667,79
24.12500,78
24.13333,78
24.14167,77
24.15000,77
24.15833,77
24.16667,77
24.17500,76
24.18333,76
24.19167,76
24.20000,75
24.20833,76
24.21667,76
24.22500,76
24.23333,76
24.24167,76
24.25000,77
24.25833,77
24.26667,78
24.27500,78
24.28333,79
24.29167,80
24.30000,80
24.30833,81
24.31667,82
24.32500,83
24.33333,84
24.34167,86
24.35000,88
24.35833,90
24.36667,92
24.37500,94
24.38333,96
24.39167,99
24.40000,102
24.40833,106
24.41667,110
24.42500,115
24.43333,120
24.44167,127
24.45000,133
24.45833,141
24.46667,149
24.47500,159
24.48333,169
24.49167,181
24.50000,195
24.50833,210
24.51667,227
24.52500,245
24.53333,266
24.54167,289
24.55000,314
24.55833,342
24.56667,374
24.57500,408
24.58333,446
24.59167,488
24.60000,534
24.60833,584
24.61667,640
24.62500,700
24.63333,766
24.64167,838
24.65000,915
24.65833,1000
24.66667,1091
24.67500,1190
24.68333,1296
24.69167,1410
24.70000,1533
24.70833,1664
24.71667,1804
24.72500,1953
24.73333,2111
24.74167,2278
24.75000,2455
24.75833,2641
24.76667,2837
24.77500,3041
24.78333,3255
24.79167,3477
24.80000,3707
24.80833,3945
24.81667,4190
24.82500,4443
24.83333,4701
24.84167,4965
24.85000,5233
24.85833,5505
24.86667,5779
24.87500,6055
24.88333,6331
24.89167,6606
24.90000,6879
24.90833,7149
24.91667,7415
24.92500,7674
24.93333,7927
24.94167,8171
24.95000,8406
24.95833,8630
24.96667,8842
24.97500,9041
24.98333,9226
24.99167,9396
25.00000,9551
25.00833,9689
25.01667,9809
25.02500,9911
25.03333,9995
25.04167,10060
25.05000,10106
25.05833,10133
25.06667,10140
25.07500,10129
25.08333,10100
25.09167,10051
25.10000,9985
25.10833,9900
25.11667,9799
25.12500,9681
25.13333,9548
25.14167,9399
25.15000,9237
25.15833,9063
25.16667,8876
25.17500,8678
25.18333,8471
25.19167,8254
25.20000,8030
25.20833,7799
25.21667,7563
25.22500,7322
25.23333,7078
25.24167,6832
25.25000,6583
25.25833,6335
25.26667,6086
25.27500,5839
25.28333,5594
25.29167,5351
25.30000,5112
25.30833,4876
25.31667,4645
25.32500,4419
25.33333,4199
25.34167,3984
25.35000,3776
25.35833,3574
25.36667,3380
25.37500,3192
25.38333,3011
25.39167,2837
25.40000,2670
25.40833,2511
25.41667,2359
25.42500,2214
25.43333,2076
25.44167,1946
25.45000,1822
25.45833,1704
25.46667,1594
25.47500,1490
25.48333,1392
25.49167,1299
25.50000,1213
25.50833,1131
25.51667,1055
25.52500,984
25.53333,918
25.54167,856
25.55000,798
25.55833,744
25.56667,694
25.57500,648
25.58333,606
25.59167,566
25.60000,529
25.60833,495
25.61667,464
25.62500,435
25.63333,408
25.64167,384
25.65000,361
25.65833,340
25.66667,320
25.67500,303
25.68333,287
25.69167,272
25.70000,258
25.70833,245
25.71667,233
25.72500,223
25.73333,213
25.74167,204
25.75000,196
25.75833,188
25.76667,181
25.77500,175
25.78333,169
25.79167,164
25.80000,159
25.80833,155
25.81667,150
25.82500,146
25.83333,143
25.84167,139
25.85000,135
25.85833,132
25.86667,129
25.87500,127
25.88333,124
25.89167,122
25.90000,120
25.90833,119
25.91667,117
25.92500,115
25.93333,114
25.94167,112
25.95000,110
25.95833,109
25.96667,107
25.97500,106
25.98333,105
25.99167,104
26.00000,103
26.00833,101
26.01667,101
26.02500,100
26.03333,99
26.04167,98
26.05000,97
26.05833,96
26.06667,95
26.07500,94
26.08333,93
26.09167,92
26.10000,92
26.10833,91
26.11667,90
26.12500,90
26.13333,89
26.14167,89
26.15000,88
26.15833,87
26.16667,87
26.17500,86
26.18333,86
26.19167,85
26.20000,85
26.20833,85
26.21667,84
26.22500,84
26.23333,83
26.24167,83
26.25000,82
26.25833,82
26.26667,81
26.27500,81
26.28333,81
26.29167,80
26.30000,80
26.30833,79
26.31667,79
26.32500,79
26.33333,78
26.34167,78
26.35000,77
26.35833,77
26.36667,77
26.37500,76
26.38333,76
26.39167,75
26.40000,75
26.40833,75
26.41667,75
26.42500,75
26.43333,75
26.44167,75
26.45000,75
26.45833,74
26.46667,74
26.47500,74
26.48333,73
26.49167,73
26.50000,73
26.50833,73
26.51667,73
26.52500,73
26.53333,73
26.54167,73
26.55000,73
26.55833,73
26.56667,73
26.57500,73
26.58333,73
26.59167,73
26.60000,73
26.60833,73
26.61667,73
26.62500,73
26.63333,73
26.64167,73
26.65000,73
26.65833,73
26.66667,73
26.67500,73
26.68333,73
26.69167,73
26.70000,73
26.70833,72
26.71667,72
26.72500,71
26.73333,71
26.74167,71
26.75000,70
26.75833,70
26.76667,70
26.77500,71
26.78333,71
26.79167,71
26.80000,70
26.80833,70
26.81667,70
26.82500,70
26.83333,69
26.84167,69
26.85000,69
26.85833,68
26.86667,68
26.87500,68
26.88333,68
26.89167,68
26.90000,68
26.90833,67
26.91667,67
26.92500,67
26.93333,66
26.94167,66
26.95000,65
26.95833,65
26.96667,65
26.97500,65
26.98333,64
26.99167,64
27.00000,64
27.00833,65
27.01667,65
27.02500,65
27.03333,64
27.04167,64
27.05000,63
27.05833,63
27.06667,63
27.07500,62
27.08333,62
27.09167,62
27.10000,62
27.10833,61
27.11667,61
27.12500,61
27.13333,61
27.14167,61
27.15000,60
27.15833,60
27.16667,60
27.17500,60
27.18333,60
27.19167,60
27.20000,60
27.20833,60
27.21667,59
27.22500,59
27.23333,59
27.24167,59
27.25000,59
27.25833,59
27.26667,58
27.27500,58
27.28333,58
27.29167,58
27.30000,58
27.30833,58
27.31667,58
27.32500,58
27.33333,58
27.34167,58
27.35000,58
27.35833,57
27.36667,57
27.37500,57
27.38333,57
27.39167,57
27.40000,57
27.40833,57
27.41667,57
27.42500,57
27.43333,57
27.44167,57
27.45000,57
27.45833,56
27.46667,56
27.47500,56
27.48333,57
27.49167,57
27.50000,56
27.50833,56
27.51667,56
27.52500,56
27.53333,57
27.54167,57
27.55000,56
27.55833,56
27.56667,56
27.57500,55
27.58333,55
27.59167,55
27.60000,56
27.60833,56
27.61667,56
27.62500,55
27.63333,55
27.64167,55
27.65000,54
27.65833,54
27.66667,54
27.67500,54
27.68333,54
27.69167,54
27.70000,54
27.70833,54
27.71667,54
27.72500,54
27.73333,53
27.74167,53
27.75000,53
27.75833,53
27.76667,53
27.77500,53
27.78333,52
27.79167,52
27.80000,52
27.80833,52
27.81667,51
27.82500,51
27.83333,50
27.84167,50
27.85000,50
27.85833,49
27.86667,48
27.87500,47
27.88333,46
27.89167,45
27.90000,45
27.90833,44
27.91667,43
27.92500,42
27.93333,42
27.94167,41
27.95000,40
27.95833,39
27.96667,37
27.97500,36
27.98333,35
27.99167,33
28.00000,32
28.00833,30
28.01667,28
28.02500,26
28.03333,24
28.04167,22
28.05000,21
28.05833,18
28.06667,16
28.07500,14
28.08333,12
28.09167,10
28.10000,7
28.10833,5
28.11667,2
28.12500,-1
28.13333,-3
28.14167,-5
28.15000,-8
28.15833,-10
28.16667,-13
28.17500,-16
28.18333,-19
28.19167,-22
28.20000,-25
28.20833,-28
28.21667,-31
28.22500,-34
28.23333,-37
28.24167,-40
28.25000,-43
28.25833,-46
28.26667,-49
28.27500,-52
28.28333,-55
28.29167,-57
28.30000,-60
28.30833,-62
28.31667,-65
28.32500,-67
28.33333,-69
28.34167,-71
28.35000,-73
28.35833,-75
28.36667,-77
28.37500,-78
28.38333,-80
28.39167,-82
28.40000,-83
28.40833,-84
28.41667,-85
28.42500,-85
28.43333,-86
28.44167,-86
28.45000,-86
28.45833,-86
28.46667,-86
28.47500,-86
28.48333,-86
28.49167,-86
28.50000,-85
28.50833,-84
28.51667,-83
28.52500,-82
28.53333,-81
28.54167,-80
28.55000,-79
28.55833,-77
28.56667,-75
28.57500,-73
28.58333,-71
28.59167,-69
28.60000,-67
28.60833,-65
28.61667,-62
28.62500,-60
28.63333,-58
28.64167,-55
28.65000,-53
28.65833,-50
28.66667,-48
28.67500,-45
28.68333,-43
28.69167,-40
28.70000,-37
28.70833,-35
28.71667,-33
28.72500,-30
28.73333,-28
28.74167,-26
28.75000,-23
28.75833,-21
28.76667,-19
28.77500,-16
28.78333,-14
28.79167,-12
28.80000,-10
28.80833,-8
28.81667,-6
28.82500,-4
28.83333,-2
28.84167,-0
28.85000,1
28.85833,3
28.86667,5
28.87500,7
28.88333,8
28.89167,10
28.90000,12
28.90833,13
28.91667,14
28.92500,16
28.93333,17
28.94167,18
28.95000,19
28.95833,20
28.96667,21
28.97500,22
28.98333,23
28.99167,25
29.00000,26
29.00833,27
29.01667,27
29.02500,28
29.03333,29
29.04167,29
29.05000,30
29.05833,31
29.06667,31
29.07500,32
29.08333,32
29.09167,33
29.10000,33
29.10833,33
29.11667,34
29.12500,34
29.13333,34
29.14167,35
29.15000,35
29.15833,35
29.16667,36
29.17500,36
29.18333,37
29.19167,37
29.20000,37
29.20833,38
29.21667,38
29.22500,38
29.23333,38
29.24167,38
29.25000,38
29.25833,38
29.26667,38
29.27500,38
29.28333,39
29.29167,39
29.30000,39
29.30833,39
29.31667,39
29.32500,39
29.33333,39
29.34167,39
29.35000,39
29.35833,40
29.36667,40
29.37500,41
29.38333,41
29.39167,41
29.40000,41
29.40833,40
29.41667,40
29.42500,40
29.43333,40
29.44167,39
29.45000,39
29.45833,39
29.46667,39
29.47500,39
29.48333,39
29.49167,39
29.50000,39
29.50833,39
29.51667,38
29.52500,38
29.53333,38
29.54167,37
29.55000,37
29.55833,37
29.56667,37
29.57500,37
29.58333,36
29.59167,36
29.60000,35
29.60833,35
29.61667,35
29.62500,35
29.63333,35
29.64167,35
29.65000,34
29.65833,34
29.66667,33
29.67500,33
29.68333,33
29.69167,32
29.70000,32
29.70833,31
29.71667,31
29.72500,31
29.73333,30
29.74167,29
29.75000,28
29.75833,27
29.76667,26
29.77500,26
29.78333,25
29.79167,24
29.80000,24
29.80833,23
29.81667,22
29.82500,22
29.83333,21
29.84167,20
29.85000,20
29.85833,19
29.86667,18
29.87500,17
29.88333,16
29.89167,15
29.90000,14
29.90833,13
29.91667,12
29.92500,12
29.93333,11
29.94167,10
29.95000,8
29.95833,8
29.96667,7
29.97500,6
29.98333,5
29.99167,4
30.00000,3
30.00833,2
30.01667,0
30.02500,-0
30.03333,-1
30.04167,-2
30.05000,-2
30.05833,-3
30.06667,-3
30.07500,-4
30.08333,-5
30.09167,-5
30.10000,-6
30.10833,-7
30.11667,-8
30.12500,-8
30.13333,-9
30.14167,-9
30.15000,-9
30.15833,-9
30.16667,-10
30.17500,-10
30.18333,-10
30.19167,-10
30.20000,-10
30.20833,-10
30.21667,-10
30.22500,-10
30.23333,-11
30.24167,-11
30.25000,-10
30.25833,-10
30.26667,-9
30.27500,-8
30.28333,-8
30.29167,-7
30.30000,-7
30.30833,-6
30.31667,-6
30.32500,-6
30.33333,-5
30.34167,-4
30.35000,-4
30.35833,-4
30.36667,-3
30.37500,-3
30.38333,-2
30.39167,-1
30.40000,-0
30.40833,1
30.41667,1
30.42500,2
30.43333,3
30.44167,4
30.45000,5
30.45833,6
30.46667,6
30.47500,7
30.48333,8
30.49167,8
30.50000,9
30.50833,10
30.51667,11
30.52500,12
30.53333,13
30.54167,14
30.55000,14
30.55833,15
30.56667,16
30.57500,16
30.58333,17
30.59167,17
30.60000,18
30.60833,19
30.61667,19
30.62500,20
30.63333,21
30.64167,22
30.65000,23
30.65833,24
30.66667,24
30.67500,24
30.68333,25
30.69167,25
30.70000,26
30.70833,26
30.71667,27
30.72500,27
30.73333,27
30.74167,27
30.75000,27
30.75833,27
30.76667,28
30.77500,28
30.78333,28
30.79167,28
30.80000,28
30.80833,29
30.81667,29
30.82500,29
30.83333,29
30.84167,29
30.85000,30
30.85833,30
30.86667,30
30.87500,30
30.88333,30
30.89167,31
30.90000,31
30.90833,31
30.91667,31
30.92500,31
30.93333,31
30.94167,31
30.95000,31
30.95833,31
30.96667,31
30.97500,32
30.98333,32
30.99167,32
31.00000,32
31.00833,32
31.01667,32
31.02500,32
31.03333,32
31.04167,32
31.05000,31
31.05833,31
31.06667,31
31.07500,32
31.08333,32
31.09167,32
31.10000,32
31.10833,32
31.11667,33
31.12500,33
31.13333,33
31.14167,33
31.15000,33
31.15833,33
31.16667,33
31.17500,33
31.18333,33
31.19167,33
31.20000,34
31.20833,34
31.21667,33
31.22500,33
31.23333,33
31.24167,33
31.25000,33
31.25833,33
31.26667,33
31.27500,33
31.28333,33
31.29167,33
31.30000,33
31.30833,33
31.31667,33
31.32500,33
31.33333,33
31.34167,33
31.35000,33
31.35833,33
31.36667,33
31.37500,33
31.38333,34
31.39167,34
31.40000,34
31.40833,34
31.41667,34
31.42500,34
31.43333,34
31.44167,34
31.45000,34
31.45833,34
31.46667,34
31.47500,34
31.48333,34
31.49167,34
31.50000,34
31.50833,34
31.51667,34
31.52500,34
31.53333,33
31.54167,33
31.55000,33
31.55833,33
31.56667,33
31.57500,34
31.58333,34
31.59167,34
31.60000,34
31.60833,34
31.61667,33
31.62500,33
31.63333,33
31.64167,33
31.65000,34
31.65833,34
31.66667,34
31.67500,34
31.68333,34
31.69167,34
31.70000,34
31.70833,34
31.71667,34
31.72500,34
31.73333,34
31.74167,34
31.75000,34
31.75833,34
31.76667,34
31.77500,34
31.78333,34
31.79167,34
31.80000,34
31.80833,34
31.81667,34
31.82500,34
31.83333,34
31.84167,34
31.85000,34
31.85833,34
31.86667,34
31.87500,34
31.88333,34
31.89167,34
31.90000,34
31.90833,34
31.91667,33
31.92500,33
31.93333,34
31.94167,34
31.95000,33
31.95833,33
31.96667,34
31.97500,34
31.98333,34
31.99167,34
32.00000,34
32.00833,34
32.01667,33
32.02500,33
32.03333,33
32.04167,33
32.05000,33
32.05833,33
32.06667,33
32.07500,33
32.08333,33
32.09167,33
32.10000,33
32.10833,33
32.11667,33
32.12500,33
32.13333,33
32.14167,33
32.15000,33
32.15833,33
32.16667,33
32.17500,34
32.18333,34
32.19167,34
32.20000,34
32.20833,34
32.21667,34
32.22500,34
32.23333,34
32.24167,33
32.25000,33
32.25833,33
32.26667,33
32.27500,33
32.28333,33
32.29167,32
32.30000,33
32.30833,33
32.31667,33
32.32500,33
32.33333,33
32.34167,32
32.35000,32
32.35833,32
32.36667,32
32.37500,32
32.38333,32
32.39167,32
32.40000,33
32.40833,33
32.41667,33
32.42500,32
32.43333,32
32.44167,32
32.45000,32
32.45833,32
32.46667,32
32.47500,32
32.48333,32
32.49167,32
32.50000,33
32.50833,33
32.51667,33
32.52500,33
32.53333,33
32.54167,32
32.55000,32
32.55833,32
32.56667,32
32.57500,32
32.58333,32
32.59167,32
32.60000,33
32.60833,33
32.61667,33
32.62500,33
32.63333,33
32.64167,32
32.65000,32
32.65833,32
32.66667,32
32.67500,32
32.68333,31
32.69167,31
32.70000,31
32.70833,31
32.71667,31
32.72500,31
32.73333,31
32.74167,31
32.75000,31
32.75833,31
32.76667,31
32.77500,31
32.78333,31
32.79167,31
32.80000,31
32.80833,31
32.81667,30
32.82500,30
32.83333,30
32.84167,30
32.85000,31
32.85833,31
32.86667,31
32.87500,31
32.88333,31
32.89167,31
32.90000,31
32.90833,31
32.91667,31
32.92500,31
32.93333,31
32.94167,31
32.95000,31
32.95833,31
32.96667,31
32.97500,31
32.98333,30
32.99167,30
33.00000,30
33.00833,30
33.01667,30
33.02500,30
33.03333,30
33.04167,30
33.05000,31
33.05833,30
33.06667,30
33.07500,30
33.08333,30
33.09167,30
33.10000,29
33.10833,29
33.11667,29
33.12500,30
33.13333,30
33.14167,30
33.15000,30
33.15833,30
33.16667,30
33.17500,30
33.18333,30
33.19167,30
33.20000,30
33.20833,30
33.21667,30
33.22500,30
33.23333,30
33.24167,30
33.25000,30
33.25833,30
33.26667,30
33.27500,29
33.28333,29
33.29167,29
33.30000,29
33.30833,29
33.31667,30
33.32500,30
33.33333,30
33.34167,30
33.35000,30
33.35833,30
33.36667,30
33.37500,30
33.38333,30
33.39167,30
33.40000,30
33.40833,30
33.41667,30
33.42500,30
33.43333,30
33.44167,30
33.45000,31
33.45833,31
33.46667,30
33.47500,30
33.48333,30
33.49167,30
33.50000,30
33.50833,29
33.51667,30
33.52500,30
33.53333,30
33.54167,30
33.55000,31
33.55833,30
33.56667,30
33.57500,30
33.58333,30
33.59167,30
33.60000,30
33.60833,30
33.61667,30
33.62500,29
33.63333,29
33.64167,29
33.65000,29
33.65833,30
33.66667,30
33.67500,30
33.68333,30
33.69167,30
33.70000,30
33.70833,30
33.71667,30
33.72500,30
33.73333,30
33.74167,30
33.75000,30
33.75833,29
33.76667,29
33.77500,30
33.78333,29
33.79167,29
33.80000,29
33.80833,29
33.81667,29
33.82500,30
33.83333,30
33.84167,30
33.85000,29
33.85833,29
33.86667,29
33.87500,30
33.88333,30
33.89167,30
33.90000,30
33.90833,30
33.91667,30
33.92500,30
33.93333,30
33.94167,30
33.95000,30
33.95833,30
33.96667,30
33.97500,29
33.98333,29
33.99167,29
34.00000,29
34.00833,29
34.01667,29
34.02500,28
34.03333,29
34.04167,29
34.05000,29
34.05833,29
34.06667,30
34.07500,30
34.08333,30
34.09167,30
34.10000,29
34.10833,29
34.11667,29
34.12500,29
34.13333,29
34.14167,29
34.15000,30
34.15833,30
34.16667,30
34.17500,30
34.18333,30
34.19167,30
34.20000,30
34.20833,30
34.21667,29
34.22500,30
34.23333,30
34.24167,30
34.25000,30
34.25833,30
34.26667,30
34.27500,30
34.28333,30
34.29167,30
34.30000,30
34.30833,30
34.31667,30
34.32500,30
34.33333,30
34.34167,30
34.35000,30
34.35833,30
34.36667,30
34.37500,30
34.38333,31
34.39167,30
34.40000,30
34.40833,30
34.41667,30
34.42500,30
34.43333,30
34.44167,30
34.45000,30
34.45833,30
34.46667,30
34.47500,30
34.48333,29
34.49167,29
34.50000,29
34.50833,29
34.51667,29
34.52500,30
34.53333,29
34.54167,30
34.55000,30
34.55833,30
34.56667,30
34.57500,30
34.58333,30
34.59167,30
34.60000,30
34.60833,30
34.61667,31
34.62500,31
34.63333,31
34.64167,31
34.65000,31
34.65833,31
34.66667,31
34.67500,31
34.68333,31
34.69167,31
34.70000,31
34.70833,31
34.71667,31
34.72500,31
34.73333,31
34.74167,31
34.75000,31
34.75833,31
34.76667,31
34.77500,31
34.78333,31
34.79167,31
34.80000,31
34.80833,30
34.81667,30
34.82500,30
34.83333,30
34.84167,30
34.85000,30
34.85833,30
34.86667,30
34.87500,30
34.88333,30
34.89167,30
34.90000,30
34.90833,30
34.91667,30
34.92500,30
34.93333,29
34.94167,29
34.95000,29
34.95833,29
34.96667,29
34.97500,29
34.98333,29
34.99167,29
35.00000,30
35.00833,30
35.01667,30
35.02500,30
35.03333,30
35.04167,29
35.05000,29
35.05833,29
35.06667,29
35.07500,29
35.08333,29
35.09167,29
35.10000,29
35.10833,29
35.11667,29
35.12500,29
35.13333,29
35.14167,29
35.15000,29
35.15833,29
35.16667,29
35.17500,28
35.18333,28
35.19167,29
35.20000,29
35.20833,29
35.21667,29
35.22500,28
35.23333,28
35.24167,28
35.25000,29
35.25833,29
35.26667,29
35.27500,29
35.28333,29
35.29167,29
35.30000,29
35.30833,29
35.31667,29
35.32500,29
35.33333,30
35.34167,30
35.35000,30
35.35833,30
35.36667,30
35.37500,29
35.38333,29
35.39167,29
35.40000,29
35.40833,29
35.41667,29
35.42500,29
35.43333,29
35.44167,29
35.45000,29
35.45833,30
35.46667,30
35.47500,29
35.48333,29
35.49167,29
35.50000,29
35.50833,29
35.51667,29
35.52500,29
35.53333,29
35.54167,29
35.55000,29
35.55833,29
35.56667,29
35.57500,29
35.58333,29
35.59167,29
35.60000,29
35.60833,28
35.61667,28
35.62500,28
35.63333,28
35.64167,28
35.65000,29
35.65833,29
35.66667,29
35.67500,29
35.68333,29
35.69167,29
35.70000,29
35.70833,28
35.71667,28
35.72500,29
35.73333,28
35.74167,28
35.75000,28
35.75833,28
35.76667,28
35.77500,28
35.78333,28
35.79167,28
35.80000,28
35.80833,28
35.81667,28
35.82500,28
35.83333,27
35.84167,27
35.85000,27
35.85833,27
35.86667,27
35.87500,27
35.88333,27
35.89167,27
35.90000,27
35.90833,27
35.91667,27
35.92500,27
35.93333,27
35.94167,27
35.95000,27
35.95833,26
35.96667,26
35.97500,27
35.98333,27
35.99167,27
36.00000,28
36.00833,28
36.01667,28
36.02500,28
36.03333,28
36.04167,28
36.05000,28
36.05833,27
36.06667,27
36.07500,26
36.08333,26
36.09167,26
36.10000,26
36.10833,26
36.11667,26
36.12500,26
36.13333,27
36.14167,27
36.15000,27
36.15833,26
36.16667,26
36.17500,26
36.18333,26
36.19167,26
36.20000,26
36.20833,26
36.21667,26
36.22500,26
36.23333,26
36.24167,26
36.25000,26
36.25833,26
36.26667,26
36.27500,26
36.28333,26
36.29167,26
36.30000,26
36.30833,26
36.31667,26
36.32500,26
36.33333,26
36.34167,25
36.35000,25
36.35833,25
36.36667,25
36.37500,25
36.38333,25
36.39167,26
36.40000,26
36.40833,26
36.41667,26
36.42500,26
36.43333,26
36.44167,26
36.45000,26
36.45833,26
36.46667,26
36.47500,26
36.48333,26
36.49167,26
36.50000,26
36.50833,26
36.51667,26
36.52500,26
36.53333,26
36.54167,26
36.55000,26
36.55833,26
36.56667,26
36.57500,26
36.58333,26
36.59167,26
36.60000,26
36.60833,26
36.61667,26
36.62500,26
36.63333,26
36.64167,26
36.65000,26
36.65833,25
36.66667,26
36.67500,26
36.68333,25
36.69167,25
36.70000,25
36.70833,25
36.71667,25
36.72500,25
36.73333,25
36.74167,25
36.75000,25
36.75833,25
36.76667,26
36.77500,26
36.78333,26
36.79167,27
36.80000,27
36.80833,27
36.81667,27
36.82500,26
36.83333,26
36.84167,26
36.85000,26
36.85833,26
36.86667,27
36.87500,27
36.88333,27
36.89167,27
36.90000,27
36.90833,27
36.91667,26
36.92500,26
36.93333,25
36.94167,25
36.95000,25
36.95833,25
36.96667,25
36.97500,25
36.98333,26
36.99167,26
37.00000,26
37.00833,27
37.01667,27
37.02500,27
37.03333,27
37.04167,26
37.05000,26
37.05833,26
37.06667,25
37.07500,25
37.08333,26
37.09167,26
37.10000,26
37.10833,25
37.11667,25
37.12500,25
37.13333,25
37.14167,25
37.15000,25
37.15833,26
37.16667,26
37.17500,26
37.18333,26
37.19167,26
37.20000,26
37.20833,26
37.21667,26
37.22500,26
37.23333,26
37.24167,27
37.25000,26
37.25833,26
37.26667,26
37.27500,26
37.28333,26
37.29167,26
37.30000,26
37.30833,26
37.31667,26
37.32500,26
37.33333,26
37.34167,26
37.35000,26
37.35833,26
37.36667,26
37.37500,26
37.38333,25
37.39167,25
37.40000,25
37.40833,25
37.41667,25
37.42500,25
37.43333,26
37.44167,26
37.45000,26
37.45833,26
37.46667,26
37.47500,26
37.48333,26
37.49167,26
37.50000,26
37.50833,26
37.51667,26
37.52500,26
37.53333,25
37.54167,25
37.55000,25
37.55833,25
37.56667,25
37.57500,25
37.58333,25
37.59167,26
37.60000,26
37.60833,26
37.61667,26
37.62500,26
37.63333,26
37.64167,26
37.65000,26
37.65833,26
37.66667,26
37.67500,26
37.68333,26
37.69167,26
37.70000,26
37.70833,26
37.71667,26
37.72500,26
37.73333,26
37.74167,26
37.75000,26
37.75833,26
37.76667,26
37.77500,25
37.78333,25
37.79167,25
37.80000,25
37.80833,25
37.81667,25
37.82500,25
37.83333,25
37.84167,25
37.85000,25
37.85833,25
37.86667,26
37.87500,25
37.88333,26
37.89167,26
37.90000,25
37.90833,25
37.91667,25
37.92500,25
37.93333,25
37.94167,25
37.95000,26
37.95833,25
37.96667,25
37.97500,25
37.98333,25
37.99167,25
38.00000,25
38.00833,25
38.01667,25
38.02500,25
38.03333,24
38.04167,25
38.05000,25
38.05833,25
38.06667,25
38.07500,25
38.08333,25
38.09167,25
38.10000,25
38.10833,24
38.11667,24
38.12500,24
38.13333,24
38.14167,24
38.15000,24
38.15833,24
38.16667,24
38.17500,24
38.18333,24
38.19167,25
38.20000,25
38.20833,25
38.21667,25
38.22500,25
38.23333,25
38.24167,25
38.25000,25
38.25833,25
38.26667,25
38.27500,24
38.28333,24
38.29167,24
38.30000,23
38.30833,24
38.31667,24
38.32500,24
38.33333,24
38.34167,24
38.35000,24
38.35833,24
38.36667,24
38.37500,24
38.38333,24
38.39167,24
38.40000,24
38.40833,24
38.41667,24
38.42500,24
38.43333,24
38.44167,24
38.45000,24
38.45833,25
38.46667,25
38.47500,25
38.48333,24
38.49167,24
38.50000,24
38.50833,24
38.51667,24
38.52500,23
38.53333,23
38.54167,23
38.55000,23
38.55833,24
38.56667,24
38.57500,24
38.58333,24
38.59167,24
38.60000,24
38.60833,24
38.61667,23
38.62500,23
38.63333,23
38.64167,23
38.65000,23
38.65833,24
38.66667,23
38.67500,23
38.68333,24
38.69167,24
38.70000,24
38.70833,24
38.71667,24
38.72500,24
38.73333,24
38.74167,23
38.75000,23
38.75833,23
38.76667,22
38.77500,22
38.78333,22
38.79167,23
38.80000,23
38.80833,23
38.81667,23
38.82500,24
38.83333,23
38.84167,23
38.85000,23
38.85833,23
38.86667,23
38.87500,23
38.88333,23
38.89167,22
38.90000,22
38.90833,22
38.91667,22
38.92500,22
38.93333,22
38.94167,22
38.95000,22
38.95833,22
38.96667,22
38.97500,22
38.98333,23
38.99167,23
39.00000,23
39.00833,23
39.01667,23
39.02500,23
39.03333,22
39.04167,22
39.05000,22
39.05833,22
39.06667,22
39.07500,22
39.08333,22
39.09167,22
39.10000,22
39.10833,22
39.11667,22
39.12500,23
39.13333,23
39.14167,23
39.15000,23
39.15833,23
39.16667,23
39.17500,23
39.18333,23
39.19167,23
39.20000,22
39.20833,22
39.21667,22
39.22500,22
39.23333,22
39.24167,22
39.25000,22
39.25833,22
39.26667,22
39.27500,22
39.28333,22
39.29167,23
39.30000,23
39.30833,23
39.31667,23
39.32500,23
39.33333,23
39.34167,23
39.35000,23
39.35833,23
39.36667,23
39.37500,23
39.38333,22
39.39167,22
39.40000,21
39.40833,21
39.41667,21
39.42500,21
39.43333,21
39.44167,21
39.45000,21
39.45833,22
39.46667,22
39.47500,23
39.48333,23
39.49167,23
39.50000,23
39.50833,23
39.51667,22
39.52500,22
39.53333,22
39.54167,23
39.55000,23
39.55833,23
39.56667,22
39.57500,22
39.58333,22
39.59167,22
39.60000,22
39.60833,22
39.61667,22
39.62500,22
39.63333,22
39.64167,22
39.65000,22
39.65833,22
39.66667,23
39.67500,23
39.68333,23
39.69167,22
39.70000,22
39.70833,22
39.71667,22
39.72500,22
39.73333,22
39.74167,22
39.75000,22
39.75833,22
39.76667,22
39.77500,22
39.78333,22
39.79167,22
39.80000,21
39.80833,21
39.81667,22
39.82500,22
39.83333,22
39.84167,22
39.85000,22
39.85833,22
39.86667,22
39.87500,22
39.88333,22
39.89167,22
39.90000,22
39.90833,21
39.91667,21
39.92500,21
39.93333,20
39.94167,20
39.95000,20
39.95833,21
39.96667,21
39.97500,21
39.98333,21
39.99167,21
40.00000,21

