[Header]
Application Name,LabSolutions
Version,5.97 SP1
Data File Name,C:\Users\cremerlab\Desktop\griffin\2021-04-03_buffer_calibration\2021-04-03_buffer_calibration_432021_011_011.lcd
Output Date,4/3/2021
Output Time,9:26:19 PM

[File Information]
Type,Data File
Generated,4/3/2021 8:46:00 PM
Generated by,System Administrator
Modified,4/3/2021 9:26:19 PM
Modified by,System Administrator

[Sample Information]
Operator Name,System Administrator
Acquired,4/3/2021 8:46:18 PM
Sample Type,1:Standard
Level,2
Sample Name,2021-04-02_NC_glucose_glycerol_acetate_calibration_0.3mM
Sample ID,011
ISTD Amount1,1
ISTD Amount2,1
ISTD Amount3,1
ISTD Amount4,1
ISTD Amount5,1
ISTD Amount6,1
ISTD Amount7,1
ISTD Amount8,1
ISTD Amount9,1
ISTD Amount10,1
ISTD Amount11,1
ISTD Amount12,1
ISTD Amount13,1
ISTD Amount14,1
ISTD Amount15,1
ISTD Amount16,1
ISTD Amount17,1
ISTD Amount18,1
ISTD Amount19,1
ISTD Amount20,1
ISTD Amount21,1
ISTD Amount22,1
ISTD Amount23,1
ISTD Amount24,1
ISTD Amount25,1
ISTD Amount26,1
ISTD Amount27,1
ISTD Amount28,1
ISTD Amount29,1
ISTD Amount30,1
ISTD Amount31,1
ISTD Amount32,1
Sample Amount,1
Dilution Factor,1
Vial#,11
Injection Volume,20

[Original Files]
Data File,C:\Users\cremerlab\Desktop\griffin\2021-04-03_buffer_calibration\2021-04-03_buffer_calibration_432021_011_011.lcd
Method File,C:\LabSolutions\Data\Project1\organicacidsetc2.lcm
Batch File,C:\Users\cremerlab\Desktop\griffin\2021-04-03_buffer_calibration\2021-04-03_buffer_calibration.lcb
Report Format File,c:\LabSolutions\System\DEFAULT.lsr

[File Description]


[Configuration]
Instrument Name,HPLC-PC-Instrument1
Instrument #,1
Line #,1
# of Detectors,2
Detector ID,Detector A,Detector B
Detector Name,Detector A,Detector B
# of Channels,1,1

[Peak Table(Detector A)]
# of Peaks,0

[Peak Table(Detector B)]
# of Peaks,4
Peak#,R.Time,I.Time,F.Time,Area,Height,A/H,Conc.,Mark,ID#,Name,k',Plate #,Plate Ht.,Tailing,Resolution,Sep.Factor,Area Ratio,Height Ratio,Conc. %,Norm Conc.
1,11.064,10.758,12.900,1248065,69139,18.052,0.000,   ,,,0.000,10713,14.002,1.332,0.000,0.000,0,0,0.000,0.000
2,15.110,14.125,18.183,3181296,117365,27.106,0.000,   ,,,0.366,7129,21.042,0.770,7.076,0.000,0,0,0.000,0.000
3,22.071,21.625,22.658,7960,308,25.864,0.000,   ,,,0.995,16031,9.357,1.096,9.853,2.721,0,0,0.000,0.000
4,25.083,24.675,25.608,3080,116,26.567,0.000,   ,,,1.267,18805,7.976,1.074,4.216,1.274,0,0,0.000,0.000

[LC Chromatogram(Detector B-Ch1)]
Interval(msec),500
# of Points,4801
Start Time(min),0.000
End Time(min),40.000
Intensity Units,mV
Intensity Multiplier,0.001
R.Time (min),Intensity
0.00000,0
0.00833,0
0.01667,-0
0.02500,-0
0.03333,-1
0.04167,-1
0.05000,-1
0.05833,-1
0.06667,-1
0.07500,-0
0.08333,-0
0.09167,-0
0.10000,-1
0.10833,-1
0.11667,-1
0.12500,-1
0.13333,-1
0.14167,-1
0.15000,-1
0.15833,-1
0.16667,-1
0.17500,-1
0.18333,-1
0.19167,-1
0.20000,-1
0.20833,-0
0.21667,-1
0.22500,-1
0.23333,-1
0.24167,-1
0.25000,-1
0.25833,-1
0.26667,-1
0.27500,-1
0.28333,-1
0.29167,-1
0.30000,-1
0.30833,-0
0.31667,-0
0.32500,-0
0.33333,0
0.34167,0
0.35000,0
0.35833,0
0.36667,0
0.37500,-0
0.38333,-1
0.39167,-0
0.40000,-1
0.40833,-1
0.41667,-1
0.42500,-1
0.43333,-0
0.44167,-0
0.45000,-0
0.45833,-0
0.46667,-0
0.47500,-0
0.48333,-1
0.49167,-1
0.50000,-0
0.50833,-0
0.51667,-0
0.52500,-0
0.53333,-0
0.54167,0
0.55000,0
0.55833,0
0.56667,1
0.57500,1
0.58333,1
0.59167,1
0.60000,1
0.60833,1
0.61667,1
0.62500,1
0.63333,0
0.64167,0
0.65000,0
0.65833,0
0.66667,0
0.67500,-0
0.68333,-0
0.69167,-1
0.70000,-1
0.70833,-1
0.71667,-1
0.72500,-1
0.73333,-1
0.74167,-1
0.75000,-1
0.75833,-1
0.76667,-1
0.77500,-1
0.78333,-1
0.79167,-1
0.80000,-1
0.80833,-1
0.81667,-2
0.82500,-2
0.83333,-2
0.84167,-2
0.85000,-1
0.85833,-1
0.86667,-2
0.87500,-2
0.88333,-1
0.89167,-1
0.90000,-1
0.90833,-1
0.91667,-2
0.92500,-2
0.93333,-2
0.94167,-2
0.95000,-2
0.95833,-2
0.96667,-1
0.97500,-1
0.98333,-1
0.99167,-1
1.00000,-1
1.00833,-1
1.01667,-1
1.02500,-1
1.03333,-1
1.04167,-1
1.05000,-1
1.05833,-1
1.06667,-0
1.07500,-1
1.08333,-1
1.09167,-1
1.10000,-1
1.10833,-1
1.11667,-1
1.12500,-1
1.13333,-1
1.14167,-1
1.15000,-1
1.15833,-1
1.16667,-1
1.17500,-1
1.18333,-1
1.19167,-1
1.20000,-1
1.20833,-2
1.21667,-2
1.22500,-2
1.23333,-2
1.24167,-2
1.25000,-2
1.25833,-2
1.26667,-2
1.27500,-2
1.28333,-2
1.29167,-2
1.30000,-2
1.30833,-2
1.31667,-2
1.32500,-1
1.33333,-1
1.34167,-1
1.35000,-2
1.35833,-2
1.36667,-2
1.37500,-2
1.38333,-2
1.39167,-2
1.40000,-2
1.40833,-2
1.41667,-1
1.42500,-2
1.43333,-2
1.44167,-2
1.45000,-2
1.45833,-2
1.46667,-2
1.47500,-2
1.48333,-2
1.49167,-3
1.50000,-3
1.50833,-3
1.51667,-2
1.52500,-2
1.53333,-2
1.54167,-2
1.55000,-2
1.55833,-2
1.56667,-2
1.57500,-2
1.58333,-2
1.59167,-1
1.60000,-1
1.60833,-2
1.61667,-2
1.62500,-2
1.63333,-1
1.64167,-1
1.65000,-2
1.65833,-2
1.66667,-2
1.67500,-2
1.68333,-2
1.69167,-2
1.70000,-2
1.70833,-2
1.71667,-2
1.72500,-1
1.73333,-1
1.74167,-2
1.75000,-2
1.75833,-2
1.76667,-2
1.77500,-2
1.78333,-2
1.79167,-1
1.80000,-1
1.80833,-1
1.81667,-2
1.82500,-2
1.83333,-2
1.84167,-2
1.85000,-2
1.85833,-1
1.86667,-1
1.87500,-1
1.88333,-1
1.89167,-1
1.90000,-1
1.90833,-1
1.91667,-1
1.92500,-1
1.93333,-1
1.94167,-1
1.95000,-1
1.95833,-1
1.96667,-1
1.97500,-2
1.98333,-2
1.99167,-2
2.00000,-2
2.00833,-2
2.01667,-2
2.02500,-2
2.03333,-2
2.04167,-1
2.05000,-1
2.05833,-1
2.06667,-2
2.07500,-2
2.08333,-2
2.09167,-2
2.10000,-2
2.10833,-2
2.11667,-2
2.12500,-1
2.13333,-2
2.14167,-2
2.15000,-3
2.15833,-3
2.16667,-3
2.17500,-3
2.18333,-2
2.19167,-2
2.20000,-2
2.20833,-2
2.21667,-2
2.22500,-2
2.23333,-2
2.24167,-1
2.25000,-1
2.25833,-1
2.26667,-1
2.27500,-2
2.28333,-2
2.29167,-2
2.30000,-2
2.30833,-2
2.31667,-2
2.32500,-2
2.33333,-3
2.34167,-3
2.35000,-3
2.35833,-3
2.36667,-3
2.37500,-3
2.38333,-3
2.39167,-3
2.40000,-3
2.40833,-3
2.41667,-3
2.42500,-2
2.43333,-2
2.44167,-2
2.45000,-2
2.45833,-3
2.46667,-3
2.47500,-2
2.48333,-2
2.49167,-3
2.50000,-2
2.50833,-2
2.51667,-2
2.52500,-2
2.53333,-3
2.54167,-3
2.55000,-3
2.55833,-3
2.56667,-3
2.57500,-3
2.58333,-3
2.59167,-3
2.60000,-2
2.60833,-2
2.61667,-2
2.62500,-2
2.63333,-3
2.64167,-3
2.65000,-3
2.65833,-3
2.66667,-3
2.67500,-3
2.68333,-3
2.69167,-3
2.70000,-3
2.70833,-3
2.71667,-2
2.72500,-2
2.73333,-2
2.74167,-2
2.75000,-3
2.75833,-3
2.76667,-3
2.77500,-3
2.78333,-3
2.79167,-3
2.80000,-3
2.80833,-3
2.81667,-3
2.82500,-3
2.83333,-3
2.84167,-3
2.85000,-3
2.85833,-3
2.86667,-3
2.87500,-3
2.88333,-3
2.89167,-3
2.90000,-3
2.90833,-3
2.91667,-3
2.92500,-3
2.93333,-3
2.94167,-3
2.95000,-3
2.95833,-3
2.96667,-3
2.97500,-3
2.98333,-3
2.99167,-3
3.00000,-4
3.00833,-4
3.01667,-4
3.02500,-4
3.03333,-5
3.04167,-5
3.05000,-4
3.05833,-4
3.06667,-4
3.07500,-3
3.08333,-3
3.09167,-3
3.10000,-3
3.10833,-3
3.11667,-3
3.12500,-3
3.13333,-3
3.14167,-4
3.15000,-3
3.15833,-3
3.16667,-4
3.17500,-4
3.18333,-4
3.19167,-4
3.20000,-4
3.20833,-4
3.21667,-4
3.22500,-4
3.23333,-3
3.24167,-3
3.25000,-3
3.25833,-3
3.26667,-2
3.27500,-2
3.28333,-2
3.29167,-3
3.30000,-3
3.30833,-4
3.31667,-4
3.32500,-4
3.33333,-4
3.34167,-4
3.35000,-4
3.35833,-4
3.36667,-4
3.37500,-4
3.38333,-3
3.39167,-3
3.40000,-3
3.40833,-3
3.41667,-3
3.42500,-4
3.43333,-3
3.44167,-3
3.45000,-3
3.45833,-3
3.46667,-3
3.47500,-2
3.48333,-2
3.49167,-3
3.50000,-3
3.50833,-3
3.51667,-3
3.52500,-4
3.53333,-4
3.54167,-4
3.55000,-4
3.55833,-4
3.56667,-4
3.57500,-3
3.58333,-3
3.59167,-3
3.60000,-3
3.60833,-3
3.61667,-3
3.62500,-3
3.63333,-3
3.64167,-3
3.65000,-3
3.65833,-3
3.66667,-3
3.67500,-3
3.68333,-3
3.69167,-3
3.70000,-2
3.70833,-2
3.71667,-2
3.72500,-2
3.73333,-2
3.74167,-2
3.75000,-3
3.75833,-3
3.76667,-3
3.77500,-3
3.78333,-3
3.79167,-3
3.80000,-3
3.80833,-3
3.81667,-3
3.82500,-3
3.83333,-3
3.84167,-3
3.85000,-3
3.85833,-4
3.86667,-4
3.87500,-4
3.88333,-5
3.89167,-5
3.90000,-4
3.90833,-4
3.91667,-4
3.92500,-4
3.93333,-4
3.94167,-4
3.95000,-4
3.95833,-5
3.96667,-4
3.97500,-4
3.98333,-4
3.99167,-3
4.00000,-3
4.00833,-3
4.01667,-3
4.02500,-3
4.03333,-3
4.04167,-3
4.05000,-3
4.05833,-3
4.06667,-3
4.07500,-3
4.08333,-4
4.09167,-3
4.10000,-4
4.10833,-4
4.11667,-5
4.12500,-5
4.13333,-4
4.14167,-4
4.15000,-4
4.15833,-4
4.16667,-4
4.17500,-4
4.18333,-4
4.19167,-3
4.20000,-3
4.20833,-3
4.21667,-3
4.22500,-3
4.23333,-3
4.24167,-3
4.25000,-3
4.25833,-3
4.26667,-4
4.27500,-4
4.28333,-4
4.29167,-4
4.30000,-4
4.30833,-3
4.31667,-3
4.32500,-3
4.33333,-4
4.34167,-4
4.35000,-4
4.35833,-4
4.36667,-4
4.37500,-4
4.38333,-4
4.39167,-3
4.40000,-3
4.40833,-3
4.41667,-3
4.42500,-3
4.43333,-3
4.44167,-3
4.45000,-3
4.45833,-3
4.46667,-3
4.47500,-3
4.48333,-3
4.49167,-3
4.50000,-3
4.50833,-3
4.51667,-3
4.52500,-3
4.53333,-3
4.54167,-3
4.55000,-4
4.55833,-4
4.56667,-5
4.57500,-5
4.58333,-5
4.59167,-5
4.60000,-6
4.60833,-6
4.61667,-6
4.62500,-5
4.63333,-5
4.64167,-5
4.65000,-5
4.65833,-5
4.66667,-5
4.67500,-5
4.68333,-4
4.69167,-4
4.70000,-5
4.70833,-4
4.71667,-4
4.72500,-4
4.73333,-4
4.74167,-4
4.75000,-4
4.75833,-5
4.76667,-5
4.77500,-5
4.78333,-5
4.79167,-5
4.80000,-5
4.80833,-5
4.81667,-5
4.82500,-5
4.83333,-5
4.84167,-4
4.85000,-4
4.85833,-4
4.86667,-4
4.87500,-4
4.88333,-5
4.89167,-5
4.90000,-5
4.90833,-5
4.91667,-5
4.92500,-4
4.93333,-4
4.94167,-4
4.95000,-4
4.95833,-4
4.96667,-4
4.97500,-4
4.98333,-5
4.99167,-5
5.00000,-5
5.00833,-5
5.01667,-5
5.02500,-5
5.03333,-5
5.04167,-4
5.05000,-4
5.05833,-4
5.06667,-5
5.07500,-5
5.08333,-5
5.09167,-5
5.10000,-5
5.10833,-5
5.11667,-5
5.12500,-4
5.13333,-4
5.14167,-4
5.15000,-4
5.15833,-4
5.16667,-4
5.17500,-4
5.18333,-4
5.19167,-5
5.20000,-5
5.20833,-5
5.21667,-5
5.22500,-5
5.23333,-4
5.24167,-4
5.25000,-5
5.25833,-5
5.26667,-5
5.27500,-5
5.28333,-5
5.29167,-5
5.30000,-5
5.30833,-5
5.31667,-4
5.32500,-4
5.33333,-5
5.34167,-5
5.35000,-5
5.35833,-5
5.36667,-5
5.37500,-5
5.38333,-5
5.39167,-5
5.40000,-5
5.40833,-5
5.41667,-5
5.42500,-4
5.43333,-4
5.44167,-4
5.45000,-4
5.45833,-4
5.46667,-5
5.47500,-4
5.48333,-4
5.49167,-4
5.50000,-4
5.50833,-4
5.51667,-4
5.52500,-4
5.53333,-4
5.54167,-4
5.55000,-4
5.55833,-4
5.56667,-4
5.57500,-4
5.58333,-4
5.59167,-4
5.60000,-4
5.60833,-4
5.61667,-4
5.62500,-5
5.63333,-5
5.64167,-6
5.65000,-5
5.65833,-5
5.66667,-5
5.67500,-5
5.68333,-5
5.69167,-5
5.70000,-5
5.70833,-5
5.71667,-5
5.72500,-5
5.73333,-5
5.74167,-4
5.75000,-4
5.75833,-4
5.76667,-4
5.77500,-4
5.78333,-4
5.79167,-4
5.80000,-4
5.80833,-4
5.81667,-4
5.82500,-4
5.83333,-4
5.84167,-4
5.85000,-4
5.85833,-4
5.86667,-4
5.87500,-5
5.88333,-5
5.89167,-5
5.90000,-5
5.90833,-5
5.91667,-4
5.92500,-5
5.93333,-5
5.94167,-5
5.95000,-5
5.95833,-4
5.96667,-4
5.97500,-4
5.98333,-4
5.99167,-4
6.00000,-4
6.00833,-4
6.01667,-4
6.02500,-4
6.03333,-4
6.04167,-4
6.05000,-4
6.05833,-4
6.06667,-3
6.07500,-3
6.08333,-4
6.09167,-4
6.10000,-4
6.10833,-5
6.11667,-5
6.12500,-5
6.13333,-6
6.14167,-6
6.15000,-6
6.15833,-6
6.16667,-6
6.17500,-6
6.18333,-6
6.19167,-6
6.20000,-6
6.20833,-6
6.21667,-5
6.22500,-5
6.23333,-5
6.24167,-5
6.25000,-5
6.25833,-5
6.26667,-5
6.27500,-5
6.28333,-5
6.29167,-5
6.30000,-5
6.30833,-6
6.31667,-6
6.32500,-6
6.33333,-6
6.34167,-6
6.35000,-6
6.35833,-6
6.36667,-5
6.37500,-5
6.38333,-5
6.39167,-4
6.40000,-5
6.40833,-4
6.41667,-4
6.42500,-4
6.43333,-5
6.44167,-5
6.45000,-5
6.45833,-5
6.46667,-5
6.47500,-5
6.48333,-6
6.49167,-6
6.50000,-6
6.50833,-6
6.51667,-5
6.52500,-6
6.53333,-6
6.54167,-5
6.55000,-5
6.55833,-5
6.56667,-5
6.57500,-5
6.58333,-5
6.59167,-5
6.60000,-5
6.60833,-5
6.61667,-5
6.62500,-5
6.63333,-5
6.64167,-4
6.65000,-4
6.65833,-4
6.66667,-4
6.67500,-4
6.68333,-4
6.69167,-4
6.70000,-4
6.70833,-5
6.71667,-5
6.72500,-5
6.73333,-5
6.74167,-5
6.75000,-5
6.75833,-5
6.76667,-5
6.77500,-5
6.78333,-5
6.79167,-5
6.80000,-5
6.80833,-5
6.81667,-5
6.82500,-5
6.83333,-5
6.84167,-5
6.85000,-5
6.85833,-5
6.86667,-5
6.87500,-5
6.88333,-5
6.89167,-6
6.90000,-6
6.90833,-6
6.91667,-6
6.92500,-6
6.93333,-6
6.94167,-5
6.95000,-5
6.95833,-5
6.96667,-5
6.97500,-5
6.98333,-4
6.99167,-4
7.00000,-4
7.00833,-4
7.01667,-4
7.02500,-4
7.03333,-5
7.04167,-6
7.05000,-6
7.05833,-6
7.06667,-6
7.07500,-6
7.08333,-6
7.09167,-5
7.10000,-5
7.10833,-5
7.11667,-5
7.12500,-5
7.13333,-5
7.14167,-5
7.15000,-5
7.15833,-5
7.16667,-5
7.17500,-5
7.18333,-5
7.19167,-5
7.20000,-6
7.20833,-6
7.21667,-6
7.22500,-6
7.23333,-5
7.24167,-5
7.25000,-5
7.25833,-5
7.26667,-5
7.27500,-5
7.28333,-5
7.29167,-5
7.30000,-5
7.30833,-5
7.31667,-5
7.32500,-5
7.33333,-5
7.34167,-5
7.35000,-5
7.35833,-5
7.36667,-5
7.37500,-5
7.38333,-5
7.39167,-5
7.40000,-5
7.40833,-5
7.41667,-5
7.42500,-5
7.43333,-6
7.44167,-6
7.45000,-5
7.45833,-5
7.46667,-5
7.47500,-5
7.48333,-5
7.49167,-5
7.50000,-5
7.50833,-6
7.51667,-6
7.52500,-6
7.53333,-6
7.54167,-6
7.55000,-6
7.55833,-5
7.56667,-5
7.57500,-5
7.58333,-5
7.59167,-5
7.60000,-5
7.60833,-5
7.61667,-5
7.62500,-5
7.63333,-5
7.64167,-5
7.65000,-5
7.65833,-5
7.66667,-5
7.67500,-5
7.68333,-5
7.69167,-5
7.70000,-4
7.70833,-4
7.71667,-4
7.72500,-4
7.73333,-4
7.74167,-4
7.75000,-4
7.75833,-5
7.76667,-5
7.77500,-5
7.78333,-5
7.79167,-5
7.80000,-5
7.80833,-6
7.81667,-6
7.82500,-6
7.83333,-5
7.84167,-5
7.85000,-5
7.85833,-6
7.86667,-6
7.87500,-6
7.88333,-5
7.89167,-5
7.90000,-5
7.90833,-5
7.91667,-5
7.92500,-5
7.93333,-5
7.94167,-5
7.95000,-5
7.95833,-5
7.96667,-5
7.97500,-5
7.98333,-5
7.99167,-5
8.00000,-5
8.00833,-5
8.01667,-5
8.02500,-5
8.03333,-5
8.04167,-5
8.05000,-5
8.05833,-5
8.06667,-5
8.07500,-5
8.08333,-5
8.09167,-5
8.10000,-5
8.10833,-5
8.11667,-6
8.12500,-6
8.13333,-6
8.14167,-7
8.15000,-7
8.15833,-7
8.16667,-7
8.17500,-7
8.18333,-7
8.19167,-7
8.20000,-7
8.20833,-6
8.21667,-6
8.22500,-6
8.23333,-6
8.24167,-6
8.25000,-6
8.25833,-6
8.26667,-5
8.27500,-5
8.28333,-5
8.29167,-6
8.30000,-6
8.30833,-6
8.31667,-6
8.32500,-6
8.33333,-6
8.34167,-6
8.35000,-5
8.35833,-5
8.36667,-5
8.37500,-6
8.38333,-6
8.39167,-6
8.40000,-6
8.40833,-6
8.41667,-6
8.42500,-6
8.43333,-6
8.44167,-6
8.45000,-6
8.45833,-6
8.46667,-6
8.47500,-6
8.48333,-6
8.49167,-6
8.50000,-7
8.50833,-6
8.51667,-6
8.52500,-7
8.53333,-7
8.54167,-7
8.55000,-6
8.55833,-6
8.56667,-6
8.57500,-5
8.58333,-5
8.59167,-6
8.60000,-6
8.60833,-6
8.61667,-5
8.62500,-5
8.63333,-6
8.64167,-6
8.65000,-6
8.65833,-6
8.66667,-6
8.67500,-6
8.68333,-5
8.69167,-5
8.70000,-6
8.70833,-6
8.71667,-6
8.72500,-6
8.73333,-6
8.74167,-5
8.75000,-5
8.75833,-5
8.76667,-6
8.77500,-6
8.78333,-6
8.79167,-6
8.80000,-6
8.80833,-6
8.81667,-6
8.82500,-6
8.83333,-6
8.84167,-6
8.85000,-6
8.85833,-5
8.86667,-5
8.87500,-5
8.88333,-5
8.89167,-5
8.90000,-5
8.90833,-5
8.91667,-5
8.92500,-5
8.93333,-5
8.94167,-5
8.95000,-5
8.95833,-5
8.96667,-6
8.97500,-6
8.98333,-6
8.99167,-6
9.00000,-5
9.00833,-5
9.01667,-5
9.02500,-5
9.03333,-5
9.04167,-5
9.05000,-5
9.05833,-5
9.06667,-5
9.07500,-5
9.08333,-6
9.09167,-6
9.10000,-6
9.10833,-6
9.11667,-6
9.12500,-6
9.13333,-6
9.14167,-5
9.15000,-5
9.15833,-5
9.16667,-5
9.17500,-5
9.18333,-5
9.19167,-6
9.20000,-5
9.20833,-5
9.21667,-5
9.22500,-5
9.23333,-5
9.24167,-5
9.25000,-5
9.25833,-5
9.26667,-6
9.27500,-6
9.28333,-6
9.29167,-6
9.30000,-6
9.30833,-6
9.31667,-5
9.32500,-5
9.33333,-5
9.34167,-5
9.35000,-5
9.35833,-6
9.36667,-6
9.37500,-6
9.38333,-6
9.39167,-6
9.40000,-6
9.40833,-6
9.41667,-6
9.42500,-6
9.43333,-6
9.44167,-6
9.45000,-6
9.45833,-6
9.46667,-6
9.47500,-6
9.48333,-6
9.49167,-7
9.50000,-6
9.50833,-6
9.51667,-6
9.52500,-6
9.53333,-6
9.54167,-6
9.55000,-6
9.55833,-6
9.56667,-6
9.57500,-6
9.58333,-6
9.59167,-6
9.60000,-6
9.60833,-6
9.61667,-6
9.62500,-6
9.63333,-6
9.64167,-5
9.65000,-5
9.65833,-5
9.66667,-5
9.67500,-5
9.68333,-4
9.69167,-4
9.70000,-4
9.70833,-4
9.71667,-4
9.72500,-5
9.73333,-5
9.74167,-5
9.75000,-5
9.75833,-5
9.76667,-5
9.77500,-5
9.78333,-5
9.79167,-5
9.80000,-5
9.80833,-5
9.81667,-5
9.82500,-5
9.83333,-6
9.84167,-6
9.85000,-6
9.85833,-6
9.86667,-5
9.87500,-5
9.88333,-5
9.89167,-5
9.90000,-5
9.90833,-5
9.91667,-5
9.92500,-6
9.93333,-6
9.94167,-6
9.95000,-6
9.95833,-5
9.96667,-5
9.97500,-5
9.98333,-5
9.99167,-5
10.00000,-5
10.00833,-5
10.01667,-5
10.02500,-5
10.03333,-5
10.04167,-6
10.05000,-6
10.05833,-6
10.06667,-6
10.07500,-5
10.08333,-5
10.09167,-5
10.10000,-5
10.10833,-5
10.11667,-4
10.12500,-4
10.13333,-4
10.14167,-3
10.15000,-4
10.15833,-4
10.16667,-4
10.17500,-4
10.18333,-4
10.19167,-4
10.20000,-4
10.20833,-4
10.21667,-4
10.22500,-4
10.23333,-4
10.24167,-4
10.25000,-4
10.25833,-4
10.26667,-5
10.27500,-5
10.28333,-5
10.29167,-5
10.30000,-5
10.30833,-5
10.31667,-5
10.32500,-4
10.33333,-4
10.34167,-4
10.35000,-4
10.35833,-4
10.36667,-4
10.37500,-4
10.38333,-3
10.39167,-2
10.40000,-2
10.40833,-1
10.41667,-1
10.42500,-1
10.43333,-1
10.44167,-0
10.45000,-0
10.45833,0
10.46667,0
10.47500,0
10.48333,0
10.49167,-0
10.50000,-1
10.50833,-2
10.51667,-5
10.52500,-9
10.53333,-14
10.54167,-22
10.55000,-34
10.55833,-50
10.56667,-71
10.57500,-99
10.58333,-136
10.59167,-183
10.60000,-244
10.60833,-318
10.61667,-410
10.62500,-520
10.63333,-652
10.64167,-805
10.65000,-982
10.65833,-1181
10.66667,-1403
10.67500,-1645
10.68333,-1903
10.69167,-2174
10.70000,-2450
10.70833,-2725
10.71667,-2989
10.72500,-3231
10.73333,-3441
10.74167,-3606
10.75000,-3713
10.75833,-3749
10.76667,-3700
10.77500,-3553
10.78333,-3296
10.79167,-2916
10.80000,-2402
10.80833,-1744
10.81667,-933
10.82500,38
10.83333,1175
10.84167,2483
10.85000,3964
10.85833,5621
10.86667,7453
10.87500,9458
10.88333,11633
10.89167,13974
10.90000,16474
10.90833,19124
10.91667,21915
10.92500,24834
10.93333,27866
10.94167,30992
10.95000,34192
10.95833,37440
10.96667,40708
10.97500,43962
10.98333,47163
10.99167,50271
11.00000,53237
11.00833,56012
11.01667,58544
11.02500,60780
11.03333,62668
11.04167,64162
11.05000,65223
11.05833,65821
11.06667,65936
11.07500,65563
11.08333,64708
11.09167,63394
11.10000,61653
11.10833,59531
11.11667,57081
11.12500,54363
11.13333,51437
11.14167,48366
11.15000,45209
11.15833,42023
11.16667,38857
11.17500,35755
11.18333,32751
11.19167,29875
11.20000,27149
11.20833,24586
11.21667,22196
11.22500,19983
11.23333,17946
11.24167,16083
11.25000,14386
11.25833,12850
11.26667,11463
11.27500,10215
11.28333,9097
11.29167,8098
11.30000,7207
11.30833,6415
11.31667,5712
11.32500,5089
11.33333,4538
11.34167,4051
11.35000,3621
11.35833,3242
11.36667,2907
11.37500,2613
11.38333,2353
11.39167,2124
11.40000,1923
11.40833,1745
11.41667,1588
11.42500,1449
11.43333,1327
11.44167,1218
11.45000,1122
11.45833,1037
11.46667,961
11.47500,894
11.48333,834
11.49167,780
11.50000,732
11.50833,688
11.51667,649
11.52500,613
11.53333,581
11.54167,552
11.55000,525
11.55833,500
11.56667,477
11.57500,457
11.58333,438
11.59167,420
11.60000,404
11.60833,389
11.61667,374
11.62500,361
11.63333,349
11.64167,337
11.65000,326
11.65833,316
11.66667,306
11.67500,297
11.68333,288
11.69167,280
11.70000,273
11.70833,266
11.71667,259
11.72500,253
11.73333,247
11.74167,241
11.75000,236
11.75833,230
11.76667,225
11.77500,221
11.78333,216
11.79167,211
11.80000,207
11.80833,203
11.81667,199
11.82500,196
11.83333,193
11.84167,190
11.85000,187
11.85833,184
11.86667,181
11.87500,179
11.88333,176
11.89167,174
11.90000,172
11.90833,170
11.91667,168
11.92500,166
11.93333,164
11.94167,162
11.95000,160
11.95833,158
11.96667,157
11.97500,155
11.98333,154
11.99167,153
12.00000,152
12.00833,150
12.01667,149
12.02500,148
12.03333,147
12.04167,146
12.05000,145
12.05833,144
12.06667,143
12.07500,141
12.08333,141
12.09167,139
12.10000,138
12.10833,137
12.11667,136
12.12500,135
12.13333,135
12.14167,134
12.15000,133
12.15833,132
12.16667,131
12.17500,131
12.18333,130
12.19167,129
12.20000,128
12.20833,127
12.21667,127
12.22500,126
12.23333,125
12.24167,124
12.25000,124
12.25833,123
12.26667,122
12.27500,122
12.28333,121
12.29167,119
12.30000,118
12.30833,117
12.31667,116
12.32500,116
12.33333,115
12.34167,114
12.35000,114
12.35833,113
12.36667,113
12.37500,112
12.38333,112
12.39167,111
12.40000,110
12.40833,109
12.41667,109
12.42500,108
12.43333,107
12.44167,106
12.45000,106
12.45833,105
12.46667,105
12.47500,104
12.48333,103
12.49167,103
12.50000,102
12.50833,101
12.51667,101
12.52500,100
12.53333,99
12.54167,98
12.55000,98
12.55833,97
12.56667,96
12.57500,95
12.58333,94
12.59167,93
12.60000,93
12.60833,92
12.61667,91
12.62500,90
12.63333,89
12.64167,89
12.65000,88
12.65833,87
12.66667,87
12.67500,86
12.68333,85
12.69167,85
12.70000,84
12.70833,84
12.71667,83
12.72500,82
12.73333,81
12.74167,80
12.75000,79
12.75833,78
12.76667,78
12.77500,78
12.78333,77
12.79167,76
12.80000,76
12.80833,75
12.81667,74
12.82500,74
12.83333,73
12.84167,72
12.85000,72
12.85833,71
12.86667,71
12.87500,70
12.88333,70
12.89167,69
12.90000,69
12.90833,69
12.91667,69
12.92500,68
12.93333,68
12.94167,68
12.95000,67
12.95833,67
12.96667,66
12.97500,66
12.98333,65
12.99167,65
13.00000,65
13.00833,65
13.01667,65
13.02500,65
13.03333,65
13.04167,64
13.05000,63
13.05833,63
13.06667,62
13.07500,62
13.08333,62
13.09167,61
13.10000,61
13.10833,60
13.11667,60
13.12500,60
13.13333,60
13.14167,60
13.15000,60
13.15833,59
13.16667,59
13.17500,59
13.18333,58
13.19167,58
13.20000,58
13.20833,58
13.21667,58
13.22500,58
13.23333,57
13.24167,57
13.25000,56
13.25833,56
13.26667,55
13.27500,55
13.28333,55
13.29167,55
13.30000,55
13.30833,54
13.31667,53
13.32500,53
13.33333,52
13.34167,52
13.35000,52
13.35833,52
13.36667,52
13.37500,52
13.38333,51
13.39167,51
13.40000,50
13.40833,50
13.41667,50
13.42500,49
13.43333,49
13.44167,49
13.45000,48
13.45833,48
13.46667,48
13.47500,48
13.48333,47
13.49167,47
13.50000,47
13.50833,46
13.51667,46
13.52500,46
13.53333,45
13.54167,45
13.55000,45
13.55833,44
13.56667,44
13.57500,44
13.58333,44
13.59167,43
13.60000,43
13.60833,43
13.61667,42
13.62500,42
13.63333,41
13.64167,41
13.65000,41
13.65833,41
13.66667,41
13.67500,40
13.68333,40
13.69167,40
13.70000,40
13.70833,40
13.71667,40
13.72500,40
13.73333,40
13.74167,39
13.75000,39
13.75833,39
13.76667,38
13.77500,38
13.78333,38
13.79167,37
13.80000,38
13.80833,38
13.81667,38
13.82500,38
13.83333,38
13.84167,38
13.85000,38
13.85833,37
13.86667,37
13.87500,37
13.88333,37
13.89167,38
13.90000,38
13.90833,37
13.91667,37
13.92500,37
13.93333,37
13.94167,37
13.95000,37
13.95833,37
13.96667,37
13.97500,38
13.98333,38
13.99167,39
14.00000,39
14.00833,39
14.01667,39
14.02500,40
14.03333,40
14.04167,40
14.05000,41
14.05833,41
14.06667,42
14.07500,42
14.08333,43
14.09167,44
14.10000,44
14.10833,45
14.11667,46
14.12500,48
14.13333,49
14.14167,50
14.15000,51
14.15833,53
14.16667,54
14.17500,57
14.18333,60
14.19167,64
14.20000,68
14.20833,73
14.21667,79
14.22500,86
14.23333,94
14.24167,105
14.25000,118
14.25833,133
14.26667,152
14.27500,174
14.28333,201
14.29167,232
14.30000,270
14.30833,316
14.31667,370
14.32500,433
14.33333,507
14.34167,594
14.35000,695
14.35833,811
14.36667,944
14.37500,1096
14.38333,1268
14.39167,1463
14.40000,1681
14.40833,1925
14.41667,2196
14.42500,2495
14.43333,2825
14.44167,3186
14.45000,3579
14.45833,4006
14.46667,4468
14.47500,4965
14.48333,5498
14.49167,6067
14.50000,6672
14.50833,7314
14.51667,7993
14.52500,8709
14.53333,9461
14.54167,10250
14.55000,11075
14.55833,11937
14.56667,12833
14.57500,13765
14.58333,14730
14.59167,15730
14.60000,16762
14.60833,17827
14.61667,18924
14.62500,20052
14.63333,21211
14.64167,22400
14.65000,23619
14.65833,24866
14.66667,26142
14.67500,27446
14.68333,28778
14.69167,30136
14.70000,31521
14.70833,32931
14.71667,34368
14.72500,35829
14.73333,37316
14.74167,38827
14.75000,40363
14.75833,41923
14.76667,43506
14.77500,45112
14.78333,46742
14.79167,48394
14.80000,50070
14.80833,51768
14.81667,53488
14.82500,55231
14.83333,56996
14.84167,58783
14.85000,60591
14.85833,62420
14.86667,64271
14.87500,66142
14.88333,68034
14.89167,69947
14.90000,71879
14.90833,73831
14.91667,75802
14.92500,77792
14.93333,79800
14.94167,81825
14.95000,83867
14.95833,85924
14.96667,87996
14.97500,90080
14.98333,92176
14.99167,94280
15.00000,96389
15.00833,98499
15.01667,100605
15.02500,102697
15.03333,104765
15.04167,106792
15.05000,108758
15.05833,110632
15.06667,112380
15.07500,113957
15.08333,115311
15.09167,116382
15.10000,117108
15.10833,117424
15.11667,117267
15.12500,116584
15.13333,115331
15.14167,113480
15.15000,111023
15.15833,107971
15.16667,104354
15.17500,100224
15.18333,95649
15.19167,90710
15.20000,85496
15.20833,80101
15.21667,74619
15.22500,69138
15.23333,63740
15.24167,58494
15.25000,53460
15.25833,48681
15.26667,44191
15.27500,40011
15.28333,36150
15.29167,32611
15.30000,29387
15.30833,26467
15.31667,23834
15.32500,21470
15.33333,19355
15.34167,17467
15.35000,15786
15.35833,14291
15.36667,12964
15.37500,11786
15.38333,10741
15.39167,9815
15.40000,8994
15.40833,8265
15.41667,7619
15.42500,7046
15.43333,6536
15.44167,6084
15.45000,5682
15.45833,5324
15.46667,5006
15.47500,4723
15.48333,4471
15.49167,4246
15.50000,4046
15.50833,3867
15.51667,3708
15.52500,3565
15.53333,3437
15.54167,3322
15.55000,3219
15.55833,3125
15.56667,3039
15.57500,2961
15.58333,2889
15.59167,2822
15.60000,2760
15.60833,2700
15.61667,2644
15.62500,2590
15.63333,2537
15.64167,2485
15.65000,2434
15.65833,2384
15.66667,2334
15.67500,2283
15.68333,2233
15.69167,2182
15.70000,2130
15.70833,2078
15.71667,2026
15.72500,1973
15.73333,1920
15.74167,1866
15.75000,1813
15.75833,1759
15.76667,1705
15.77500,1652
15.78333,1599
15.79167,1546
15.80000,1494
15.80833,1444
15.81667,1394
15.82500,1345
15.83333,1297
15.84167,1250
15.85000,1205
15.85833,1160
15.86667,1117
15.87500,1076
15.88333,1036
15.89167,998
15.90000,961
15.90833,927
15.91667,893
15.92500,861
15.93333,830
15.94167,802
15.95000,774
15.95833,749
15.96667,724
15.97500,701
15.98333,679
15.99167,658
16.00000,639
16.00833,621
16.01667,604
16.02500,588
16.03333,573
16.04167,559
16.05000,546
16.05833,534
16.06667,522
16.07500,511
16.08333,501
16.09167,492
16.10000,483
16.10833,474
16.11667,467
16.12500,459
16.13333,452
16.14167,445
16.15000,439
16.15833,433
16.16667,427
16.17500,422
16.18333,417
16.19167,412
16.20000,407
16.20833,403
16.21667,399
16.22500,394
16.23333,390
16.24167,386
16.25000,383
16.25833,380
16.26667,376
16.27500,373
16.28333,370
16.29167,366
16.30000,363
16.30833,360
16.31667,357
16.32500,355
16.33333,352
16.34167,348
16.35000,345
16.35833,342
16.36667,339
16.37500,336
16.38333,334
16.39167,331
16.40000,328
16.40833,326
16.41667,324
16.42500,321
16.43333,319
16.44167,317
16.45000,314
16.45833,312
16.46667,310
16.47500,307
16.48333,305
16.49167,303
16.50000,300
16.50833,298
16.51667,296
16.52500,293
16.53333,291
16.54167,289
16.55000,287
16.55833,285
16.56667,283
16.57500,282
16.58333,280
16.59167,278
16.60000,276
16.60833,274
16.61667,272
16.62500,270
16.63333,269
16.64167,267
16.65000,265
16.65833,263
16.66667,262
16.67500,260
16.68333,259
16.69167,257
16.70000,256
16.70833,254
16.71667,252
16.72500,250
16.73333,248
16.74167,247
16.75000,245
16.75833,244
16.76667,243
16.77500,242
16.78333,241
16.79167,239
16.80000,237
16.80833,236
16.81667,234
16.82500,233
16.83333,232
16.84167,230
16.85000,229
16.85833,228
16.86667,226
16.87500,225
16.88333,224
16.89167,223
16.90000,222
16.90833,221
16.91667,220
16.92500,219
16.93333,217
16.94167,216
16.95000,215
16.95833,213
16.96667,212
16.97500,211
16.98333,210
16.99167,209
17.00000,208
17.00833,207
17.01667,206
17.02500,205
17.03333,204
17.04167,204
17.05000,202
17.05833,201
17.06667,201
17.07500,200
17.08333,198
17.09167,197
17.10000,196
17.10833,195
17.11667,195
17.12500,194
17.13333,193
17.14167,192
17.15000,191
17.15833,190
17.16667,189
17.17500,187
17.18333,186
17.19167,185
17.20000,185
17.20833,184
17.21667,183
17.22500,182
17.23333,181
17.24167,180
17.25000,179
17.25833,178
17.26667,177
17.27500,176
17.28333,175
17.29167,175
17.30000,174
17.30833,173
17.31667,172
17.32500,171
17.33333,170
17.34167,169
17.35000,168
17.35833,167
17.36667,167
17.37500,166
17.38333,165
17.39167,164
17.40000,163
17.40833,162
17.41667,161
17.42500,160
17.43333,159
17.44167,158
17.45000,158
17.45833,157
17.46667,156
17.47500,155
17.48333,154
17.49167,153
17.50000,152
17.50833,151
17.51667,150
17.52500,150
17.53333,149
17.54167,148
17.55000,148
17.55833,147
17.56667,146
17.57500,145
17.58333,144
17.59167,144
17.60000,143
17.60833,141
17.61667,140
17.62500,139
17.63333,138
17.64167,138
17.65000,137
17.65833,136
17.66667,136
17.67500,135
17.68333,134
17.69167,134
17.70000,133
17.70833,133
17.71667,132
17.72500,131
17.73333,130
17.74167,129
17.75000,128
17.75833,127
17.76667,126
17.77500,125
17.78333,125
17.79167,124
17.80000,123
17.80833,123
17.81667,122
17.82500,122
17.83333,121
17.84167,120
17.85000,120
17.85833,119
17.86667,118
17.87500,117
17.88333,116
17.89167,116
17.90000,115
17.90833,114
17.91667,114
17.92500,113
17.93333,112
17.94167,111
17.95000,111
17.95833,110
17.96667,109
17.97500,109
17.98333,108
17.99167,108
18.00000,106
18.00833,106
18.01667,105
18.02500,105
18.03333,104
18.04167,103
18.05000,102
18.05833,102
18.06667,101
18.07500,100
18.08333,99
18.09167,99
18.10000,99
18.10833,98
18.11667,97
18.12500,97
18.13333,96
18.14167,95
18.15000,95
18.15833,94
18.16667,94
18.17500,93
18.18333,93
18.19167,93
18.20000,92
18.20833,92
18.21667,91
18.22500,90
18.23333,89
18.24167,89
18.25000,88
18.25833,87
18.26667,87
18.27500,87
18.28333,86
18.29167,86
18.30000,86
18.30833,85
18.31667,84
18.32500,84
18.33333,83
18.34167,83
18.35000,82
18.35833,81
18.36667,81
18.37500,80
18.38333,80
18.39167,79
18.40000,78
18.40833,77
18.41667,77
18.42500,76
18.43333,76
18.44167,75
18.45000,75
18.45833,75
18.46667,74
18.47500,74
18.48333,73
18.49167,73
18.50000,73
18.50833,72
18.51667,72
18.52500,71
18.53333,71
18.54167,71
18.55000,70
18.55833,70
18.56667,69
18.57500,69
18.58333,69
18.59167,69
18.60000,69
18.60833,68
18.61667,68
18.62500,67
18.63333,67
18.64167,66
18.65000,66
18.65833,66
18.66667,66
18.67500,66
18.68333,65
18.69167,65
18.70000,65
18.70833,64
18.71667,64
18.72500,64
18.73333,65
18.74167,65
18.75000,65
18.75833,65
18.76667,65
18.77500,66
18.78333,66
18.79167,66
18.80000,66
18.80833,66
18.81667,67
18.82500,67
18.83333,67
18.84167,67
18.85000,67
18.85833,68
18.86667,69
18.87500,69
18.88333,69
18.89167,70
18.90000,70
18.90833,70
18.91667,70
18.92500,71
18.93333,71
18.94167,71
18.95000,72
18.95833,72
18.96667,72
18.97500,72
18.98333,72
18.99167,72
19.00000,72
19.00833,72
19.01667,72
19.02500,72
19.03333,72
19.04167,72
19.05000,71
19.05833,70
19.06667,70
19.07500,69
19.08333,69
19.09167,68
19.10000,67
19.10833,66
19.11667,66
19.12500,65
19.13333,64
19.14167,64
19.15000,63
19.15833,62
19.16667,61
19.17500,61
19.18333,60
19.19167,59
19.20000,58
19.20833,57
19.21667,56
19.22500,55
19.23333,55
19.24167,54
19.25000,53
19.25833,52
19.26667,51
19.27500,50
19.28333,49
19.29167,49
19.30000,48
19.30833,48
19.31667,47
19.32500,47
19.33333,46
19.34167,45
19.35000,44
19.35833,44
19.36667,44
19.37500,43
19.38333,43
19.39167,42
19.40000,42
19.40833,41
19.41667,41
19.42500,40
19.43333,40
19.44167,39
19.45000,39
19.45833,39
19.46667,39
19.47500,39
19.48333,38
19.49167,38
19.50000,38
19.50833,38
19.51667,38
19.52500,37
19.53333,36
19.54167,36
19.55000,35
19.55833,35
19.56667,35
19.57500,35
19.58333,35
19.59167,35
19.60000,35
19.60833,34
19.61667,34
19.62500,34
19.63333,34
19.64167,34
19.65000,34
19.65833,33
19.66667,33
19.67500,33
19.68333,32
19.69167,32
19.70000,32
19.70833,32
19.71667,32
19.72500,32
19.73333,32
19.74167,32
19.75000,32
19.75833,32
19.76667,31
19.77500,31
19.78333,31
19.79167,31
19.80000,30
19.80833,30
19.81667,30
19.82500,29
19.83333,29
19.84167,29
19.85000,29
19.85833,29
19.86667,29
19.87500,29
19.88333,29
19.89167,29
19.90000,29
19.90833,29
19.91667,29
19.92500,28
19.93333,28
19.94167,28
19.95000,28
19.95833,28
19.96667,28
19.97500,27
19.98333,27
19.99167,27
20.00000,27
20.00833,27
20.01667,27
20.02500,27
20.03333,27
20.04167,26
20.05000,26
20.05833,26
20.06667,26
20.07500,26
20.08333,26
20.09167,26
20.10000,26
20.10833,26
20.11667,26
20.12500,25
20.13333,25
20.14167,25
20.15000,25
20.15833,24
20.16667,24
20.17500,24
20.18333,24
20.19167,24
20.20000,23
20.20833,23
20.21667,23
20.22500,23
20.23333,23
20.24167,23
20.25000,23
20.25833,23
20.26667,23
20.27500,23
20.28333,23
20.29167,23
20.30000,22
20.30833,22
20.31667,22
20.32500,22
20.33333,22
20.34167,21
20.35000,21
20.35833,21
20.36667,21
20.37500,21
20.38333,20
20.39167,20
20.40000,20
20.40833,20
20.41667,19
20.42500,20
20.43333,20
20.44167,20
20.45000,20
20.45833,19
20.46667,20
20.47500,20
20.48333,20
20.49167,20
20.50000,20
20.50833,19
20.51667,19
20.52500,19
20.53333,20
20.54167,20
20.55000,20
20.55833,20
20.56667,20
20.57500,20
20.58333,20
20.59167,20
20.60000,19
20.60833,19
20.61667,19
20.62500,19
20.63333,18
20.64167,18
20.65000,18
20.65833,18
20.66667,18
20.67500,18
20.68333,18
20.69167,18
20.70000,18
20.70833,19
20.71667,19
20.72500,18
20.73333,18
20.74167,18
20.75000,18
20.75833,18
20.76667,17
20.77500,17
20.78333,17
20.79167,17
20.80000,16
20.80833,16
20.81667,16
20.82500,16
20.83333,16
20.84167,15
20.85000,15
20.85833,15
20.86667,15
20.87500,15
20.88333,15
20.89167,15
20.90000,15
20.90833,16
20.91667,16
20.92500,16
20.93333,16
20.94167,16
20.95000,16
20.95833,16
20.96667,16
20.97500,16
20.98333,16
20.99167,16
21.00000,15
21.00833,15
21.01667,14
21.02500,14
21.03333,14
21.04167,14
21.05000,15
21.05833,15
21.06667,14
21.07500,14
21.08333,14
21.09167,15
21.10000,15
21.10833,15
21.11667,15
21.12500,15
21.13333,14
21.14167,14
21.15000,14
21.15833,14
21.16667,14
21.17500,14
21.18333,14
21.19167,13
21.20000,13
21.20833,13
21.21667,13
21.22500,13
21.23333,13
21.24167,13
21.25000,13
21.25833,13
21.26667,13
21.27500,14
21.28333,14
21.29167,14
21.30000,13
21.30833,13
21.31667,13
21.32500,13
21.33333,13
21.34167,13
21.35000,13
21.35833,14
21.36667,14
21.37500,13
21.38333,13
21.39167,13
21.40000,13
21.40833,13
21.41667,12
21.42500,12
21.43333,13
21.44167,13
21.45000,13
21.45833,13
21.46667,14
21.47500,14
21.48333,14
21.49167,14
21.50000,14
21.50833,14
21.51667,15
21.52500,15
21.53333,15
21.54167,15
21.55000,15
21.55833,15
21.56667,16
21.57500,16
21.58333,17
21.59167,18
21.60000,19
21.60833,20
21.61667,21
21.62500,22
21.63333,23
21.64167,25
21.65000,26
21.65833,28
21.66667,30
21.67500,32
21.68333,34
21.69167,37
21.70000,39
21.70833,42
21.71667,46
21.72500,50
21.73333,54
21.74167,59
21.75000,63
21.75833,68
21.76667,73
21.77500,78
21.78333,84
21.79167,91
21.80000,97
21.80833,104
21.81667,112
21.82500,119
21.83333,128
21.84167,136
21.85000,145
21.85833,154
21.86667,163
21.87500,172
21.88333,182
21.89167,191
21.90000,200
21.90833,210
21.91667,219
21.92500,228
21.93333,238
21.94167,247
21.95000,256
21.95833,264
21.96667,272
21.97500,280
21.98333,287
21.99167,293
22.00000,299
22.00833,305
22.01667,310
22.02500,314
22.03333,318
22.04167,321
22.05000,323
22.05833,325
22.06667,326
22.07500,326
22.08333,325
22.09167,324
22.10000,322
22.10833,319
22.11667,316
22.12500,312
22.13333,308
22.14167,303
22.15000,297
22.15833,291
22.16667,284
22.17500,278
22.18333,271
22.19167,263
22.20000,255
22.20833,247
22.21667,239
22.22500,231
22.23333,223
22.24167,214
22.25000,206
22.25833,197
22.26667,188
22.27500,180
22.28333,172
22.29167,164
22.30000,156
22.30833,148
22.31667,141
22.32500,133
22.33333,126
22.34167,119
22.35000,113
22.35833,106
22.36667,100
22.37500,94
22.38333,89
22.39167,83
22.40000,78
22.40833,73
22.41667,69
22.42500,64
22.43333,60
22.44167,56
22.45000,53
22.45833,49
22.46667,46
22.47500,44
22.48333,41
22.49167,38
22.50000,35
22.50833,33
22.51667,31
22.52500,29
22.53333,27
22.54167,26
22.55000,24
22.55833,23
22.56667,21
22.57500,20
22.58333,18
22.59167,17
22.60000,17
22.60833,16
22.61667,15
22.62500,14
22.63333,14
22.64167,14
22.65000,13
22.65833,13
22.66667,12
22.67500,12
22.68333,11
22.69167,10
22.70000,10
22.70833,10
22.71667,9
22.72500,9
22.73333,8
22.74167,8
22.75000,8
22.75833,8
22.76667,8
22.77500,8
22.78333,8
22.79167,8
22.80000,7
22.80833,7
22.81667,7
22.82500,7
22.83333,7
22.84167,7
22.85000,6
22.85833,6
22.86667,6
22.87500,6
22.88333,6
22.89167,6
22.90000,6
22.90833,6
22.91667,6
22.92500,6
22.93333,6
22.94167,6
22.95000,6
22.95833,5
22.96667,5
22.97500,5
22.98333,5
22.99167,5
23.00000,6
23.00833,6
23.01667,6
23.02500,5
23.03333,5
23.04167,5
23.05000,5
23.05833,5
23.06667,5
23.07500,5
23.08333,5
23.09167,5
23.10000,5
23.10833,4
23.11667,4
23.12500,4
23.13333,5
23.14167,5
23.15000,5
23.15833,5
23.16667,5
23.17500,5
23.18333,5
23.19167,5
23.20000,5
23.20833,5
23.21667,5
23.22500,5
23.23333,4
23.24167,4
23.25000,4
23.25833,5
23.26667,5
23.27500,5
23.28333,4
23.29167,4
23.30000,4
23.30833,4
23.31667,4
23.32500,4
23.33333,4
23.34167,4
23.35000,4
23.35833,4
23.36667,4
23.37500,4
23.38333,3
23.39167,4
23.40000,4
23.40833,4
23.41667,4
23.42500,4
23.43333,4
23.44167,4
23.45000,4
23.45833,4
23.46667,4
23.47500,4
23.48333,4
23.49167,4
23.50000,4
23.50833,4
23.51667,4
23.52500,4
23.53333,4
23.54167,4
23.55000,4
23.55833,3
23.56667,3
23.57500,3
23.58333,3
23.59167,3
23.60000,3
23.60833,3
23.61667,2
23.62500,2
23.63333,2
23.64167,2
23.65000,2
23.65833,3
23.66667,3
23.67500,3
23.68333,3
23.69167,3
23.70000,3
23.70833,3
23.71667,3
23.72500,3
23.73333,3
23.74167,3
23.75000,2
23.75833,2
23.76667,2
23.77500,3
23.78333,2
23.79167,2
23.80000,2
23.80833,2
23.81667,2
23.82500,2
23.83333,2
23.84167,2
23.85000,2
23.85833,2
23.86667,2
23.87500,2
23.88333,2
23.89167,2
23.90000,2
23.90833,2
23.91667,2
23.92500,2
23.93333,2
23.94167,2
23.95000,2
23.95833,2
23.96667,2
23.97500,2
23.98333,3
23.99167,3
24.00000,3
24.00833,3
24.01667,3
24.02500,3
24.03333,3
24.04167,3
24.05000,3
24.05833,3
24.06667,3
24.07500,3
24.08333,2
24.09167,2
24.10000,2
24.10833,3
24.11667,3
24.12500,3
24.13333,3
24.14167,3
24.15000,3
24.15833,3
24.16667,3
24.17500,2
24.18333,2
24.19167,2
24.20000,2
24.20833,2
24.21667,2
24.22500,3
24.23333,3
24.24167,3
24.25000,3
24.25833,3
24.26667,3
24.27500,3
24.28333,3
24.29167,2
24.30000,2
24.30833,2
24.31667,2
24.32500,2
24.33333,2
24.34167,3
24.35000,3
24.35833,3
24.36667,4
24.37500,4
24.38333,3
24.39167,3
24.40000,3
24.40833,3
24.41667,3
24.42500,3
24.43333,3
24.44167,3
24.45000,3
24.45833,3
24.46667,3
24.47500,4
24.48333,4
24.49167,4
24.50000,4
24.50833,5
24.51667,5
24.52500,5
24.53333,5
24.54167,5
24.55000,6
24.55833,6
24.56667,6
24.57500,7
24.58333,7
24.59167,8
24.60000,8
24.60833,9
24.61667,9
24.62500,10
24.63333,11
24.64167,12
24.65000,12
24.65833,13
24.66667,14
24.67500,15
24.68333,17
24.69167,18
24.70000,20
24.70833,21
24.71667,23
24.72500,25
24.73333,26
24.74167,28
24.75000,30
24.75833,32
24.76667,35
24.77500,37
24.78333,39
24.79167,42
24.80000,46
24.80833,49
24.81667,52
24.82500,55
24.83333,58
24.84167,61
24.85000,65
24.85833,68
24.86667,71
24.87500,74
24.88333,77
24.89167,81
24.90000,84
24.90833,87
24.91667,90
24.92500,94
24.93333,97
24.94167,100
24.95000,103
24.95833,106
24.96667,109
24.97500,111
24.98333,114
24.99167,116
25.00000,118
25.00833,120
25.01667,122
25.02500,124
25.03333,125
25.04167,126
25.05000,127
25.05833,128
25.06667,128
25.07500,128
25.08333,129
25.09167,128
25.10000,128
25.10833,127
25.11667,126
25.12500,125
25.13333,123
25.14167,122
25.15000,120
25.15833,119
25.16667,116
25.17500,114
25.18333,112
25.19167,109
25.20000,106
25.20833,103
25.21667,100
25.22500,97
25.23333,94
25.24167,91
25.25000,88
25.25833,85
25.26667,82
25.27500,79
25.28333,76
25.29167,73
25.30000,70
25.30833,67
25.31667,64
25.32500,61
25.33333,58
25.34167,56
25.35000,53
25.35833,50
25.36667,47
25.37500,45
25.38333,42
25.39167,40
25.40000,38
25.40833,36
25.41667,34
25.42500,32
25.43333,30
25.44167,29
25.45000,27
25.45833,26
25.46667,24
25.47500,23
25.48333,22
25.49167,20
25.50000,19
25.50833,17
25.51667,16
25.52500,15
25.53333,15
25.54167,14
25.55000,14
25.55833,13
25.56667,12
25.57500,12
25.58333,11
25.59167,11
25.60000,10
25.60833,10
25.61667,10
25.62500,9
25.63333,8
25.64167,8
25.65000,7
25.65833,7
25.66667,7
25.67500,7
25.68333,7
25.69167,7
25.70000,6
25.70833,6
25.71667,6
25.72500,6
25.73333,6
25.74167,7
25.75000,7
25.75833,7
25.76667,7
25.77500,7
25.78333,7
25.79167,6
25.80000,6
25.80833,6
25.81667,6
25.82500,6
25.83333,6
25.84167,6
25.85000,6
25.85833,6
25.86667,6
25.87500,6
25.88333,6
25.89167,6
25.90000,6
25.90833,6
25.91667,5
25.92500,6
25.93333,6
25.94167,6
25.95000,6
25.95833,6
25.96667,6
25.97500,6
25.98333,7
25.99167,7
26.00000,6
26.00833,6
26.01667,6
26.02500,5
26.03333,5
26.04167,5
26.05000,5
26.05833,5
26.06667,5
26.07500,5
26.08333,5
26.09167,5
26.10000,6
26.10833,6
26.11667,6
26.12500,6
26.13333,7
26.14167,7
26.15000,7
26.15833,7
26.16667,7
26.17500,7
26.18333,7
26.19167,7
26.20000,7
26.20833,7
26.21667,7
26.22500,8
26.23333,8
26.24167,8
26.25000,8
26.25833,8
26.26667,8
26.27500,9
26.28333,9
26.29167,9
26.30000,8
26.30833,8
26.31667,8
26.32500,8
26.33333,8
26.34167,8
26.35000,8
26.35833,8
26.36667,8
26.37500,8
26.38333,8
26.39167,8
26.40000,8
26.40833,8
26.41667,8
26.42500,9
26.43333,9
26.44167,9
26.45000,9
26.45833,9
26.46667,8
26.47500,8
26.48333,8
26.49167,8
26.50000,8
26.50833,7
26.51667,7
26.52500,7
26.53333,7
26.54167,8
26.55000,8
26.55833,8
26.56667,8
26.57500,8
26.58333,8
26.59167,8
26.60000,8
26.60833,8
26.61667,8
26.62500,8
26.63333,8
26.64167,8
26.65000,8
26.65833,8
26.66667,8
26.67500,8
26.68333,8
26.69167,8
26.70000,7
26.70833,7
26.71667,7
26.72500,7
26.73333,8
26.74167,8
26.75000,8
26.75833,7
26.76667,7
26.77500,7
26.78333,7
26.79167,7
26.80000,7
26.80833,7
26.81667,7
26.82500,7
26.83333,7
26.84167,7
26.85000,7
26.85833,7
26.86667,7
26.87500,8
26.88333,8
26.89167,8
26.90000,7
26.90833,7
26.91667,7
26.92500,7
26.93333,7
26.94167,7
26.95000,7
26.95833,7
26.96667,7
26.97500,7
26.98333,7
26.99167,7
27.00000,7
27.00833,7
27.01667,7
27.02500,7
27.03333,7
27.04167,7
27.05000,7
27.05833,7
27.06667,7
27.07500,7
27.08333,7
27.09167,7
27.10000,7
27.10833,7
27.11667,7
27.12500,7
27.13333,7
27.14167,7
27.15000,7
27.15833,8
27.16667,7
27.17500,7
27.18333,7
27.19167,7
27.20000,7
27.20833,7
27.21667,7
27.22500,7
27.23333,7
27.24167,7
27.25000,7
27.25833,7
27.26667,7
27.27500,7
27.28333,7
27.29167,7
27.30000,7
27.30833,6
27.31667,6
27.32500,6
27.33333,6
27.34167,7
27.35000,7
27.35833,7
27.36667,7
27.37500,7
27.38333,8
27.39167,8
27.40000,8
27.40833,8
27.41667,7
27.42500,7
27.43333,7
27.44167,7
27.45000,7
27.45833,7
27.46667,7
27.47500,7
27.48333,7
27.49167,8
27.50000,7
27.50833,7
27.51667,6
27.52500,6
27.53333,6
27.54167,6
27.55000,7
27.55833,6
27.56667,6
27.57500,6
27.58333,6
27.59167,7
27.60000,7
27.60833,6
27.61667,6
27.62500,6
27.63333,7
27.64167,6
27.65000,7
27.65833,7
27.66667,6
27.67500,6
27.68333,6
27.69167,6
27.70000,6
27.70833,6
27.71667,6
27.72500,6
27.73333,5
27.74167,5
27.75000,5
27.75833,4
27.76667,4
27.77500,4
27.78333,4
27.79167,4
27.80000,4
27.80833,4
27.81667,3
27.82500,3
27.83333,3
27.84167,2
27.85000,1
27.85833,0
27.86667,-0
27.87500,-1
27.88333,-2
27.89167,-3
27.90000,-4
27.90833,-5
27.91667,-5
27.92500,-6
27.93333,-7
27.94167,-8
27.95000,-9
27.95833,-10
27.96667,-12
27.97500,-13
27.98333,-14
27.99167,-16
28.00000,-18
28.00833,-19
28.01667,-21
28.02500,-23
28.03333,-25
28.04167,-27
28.05000,-29
28.05833,-31
28.06667,-33
28.07500,-36
28.08333,-38
28.09167,-41
28.10000,-44
28.10833,-46
28.11667,-49
28.12500,-51
28.13333,-54
28.14167,-57
28.15000,-60
28.15833,-63
28.16667,-66
28.17500,-69
28.18333,-71
28.19167,-74
28.20000,-77
28.20833,-81
28.21667,-84
28.22500,-87
28.23333,-90
28.24167,-92
28.25000,-96
28.25833,-99
28.26667,-102
28.27500,-105
28.28333,-107
28.29167,-110
28.30000,-112
28.30833,-114
28.31667,-117
28.32500,-119
28.33333,-121
28.34167,-123
28.35000,-125
28.35833,-127
28.36667,-129
28.37500,-130
28.38333,-132
28.39167,-133
28.40000,-134
28.40833,-134
28.41667,-135
28.42500,-135
28.43333,-136
28.44167,-136
28.45000,-136
28.45833,-135
28.46667,-135
28.47500,-135
28.48333,-135
28.49167,-134
28.50000,-133
28.50833,-132
28.51667,-130
28.52500,-129
28.53333,-128
28.54167,-126
28.55000,-124
28.55833,-122
28.56667,-121
28.57500,-119
28.58333,-117
28.59167,-115
28.60000,-113
28.60833,-111
28.61667,-108
28.62500,-106
28.63333,-104
28.64167,-101
28.65000,-99
28.65833,-96
28.66667,-93
28.67500,-90
28.68333,-87
28.69167,-85
28.70000,-82
28.70833,-79
28.71667,-77
28.72500,-74
28.73333,-72
28.74167,-70
28.75000,-68
28.75833,-65
28.76667,-63
28.77500,-60
28.78333,-58
28.79167,-55
28.80000,-53
28.80833,-51
28.81667,-49
28.82500,-47
28.83333,-45
28.84167,-43
28.85000,-41
28.85833,-39
28.86667,-38
28.87500,-37
28.88333,-35
28.89167,-34
28.90000,-32
28.90833,-31
28.91667,-29
28.92500,-28
28.93333,-27
28.94167,-25
28.95000,-24
28.95833,-23
28.96667,-21
28.97500,-20
28.98333,-19
28.99167,-18
29.00000,-18
29.00833,-17
29.01667,-16
29.02500,-15
29.03333,-15
29.04167,-14
29.05000,-13
29.05833,-13
29.06667,-12
29.07500,-12
29.08333,-12
29.09167,-11
29.10000,-11
29.10833,-10
29.11667,-9
29.12500,-9
29.13333,-9
29.14167,-8
29.15000,-8
29.15833,-7
29.16667,-7
29.17500,-6
29.18333,-6
29.19167,-6
29.20000,-6
29.20833,-6
29.21667,-6
29.22500,-6
29.23333,-6
29.24167,-5
29.25000,-5
29.25833,-5
29.26667,-5
29.27500,-5
29.28333,-5
29.29167,-5
29.30000,-5
29.30833,-4
29.31667,-4
29.32500,-4
29.33333,-4
29.34167,-4
29.35000,-4
29.35833,-4
29.36667,-3
29.37500,-3
29.38333,-3
29.39167,-3
29.40000,-3
29.40833,-3
29.41667,-3
29.42500,-3
29.43333,-3
29.44167,-3
29.45000,-3
29.45833,-3
29.46667,-3
29.47500,-3
29.48333,-4
29.49167,-4
29.50000,-4
29.50833,-4
29.51667,-4
29.52500,-4
29.53333,-4
29.54167,-4
29.55000,-5
29.55833,-5
29.56667,-5
29.57500,-6
29.58333,-6
29.59167,-6
29.60000,-7
29.60833,-7
29.61667,-7
29.62500,-7
29.63333,-7
29.64167,-8
29.65000,-8
29.65833,-8
29.66667,-8
29.67500,-8
29.68333,-9
29.69167,-9
29.70000,-10
29.70833,-10
29.71667,-11
29.72500,-12
29.73333,-12
29.74167,-13
29.75000,-14
29.75833,-15
29.76667,-16
29.77500,-16
29.78333,-17
29.79167,-18
29.80000,-18
29.80833,-19
29.81667,-20
29.82500,-20
29.83333,-21
29.84167,-22
29.85000,-23
29.85833,-24
29.86667,-25
29.87500,-27
29.88333,-28
29.89167,-28
29.90000,-29
29.90833,-30
29.91667,-31
29.92500,-31
29.93333,-32
29.94167,-34
29.95000,-35
29.95833,-36
29.96667,-37
29.97500,-37
29.98333,-38
29.99167,-39
30.00000,-40
30.00833,-41
30.01667,-41
30.02500,-42
30.03333,-43
30.04167,-44
30.05000,-45
30.05833,-45
30.06667,-46
30.07500,-46
30.08333,-47
30.09167,-48
30.10000,-48
30.10833,-49
30.11667,-49
30.12500,-50
30.13333,-50
30.14167,-51
30.15000,-51
30.15833,-52
30.16667,-52
30.17500,-52
30.18333,-52
30.19167,-52
30.20000,-52
30.20833,-52
30.21667,-52
30.22500,-51
30.23333,-51
30.24167,-51
30.25000,-51
30.25833,-50
30.26667,-50
30.27500,-50
30.28333,-49
30.29167,-48
30.30000,-48
30.30833,-47
30.31667,-47
30.32500,-46
30.33333,-46
30.34167,-45
30.35000,-44
30.35833,-43
30.36667,-43
30.37500,-42
30.38333,-41
30.39167,-40
30.40000,-39
30.40833,-38
30.41667,-38
30.42500,-37
30.43333,-36
30.44167,-35
30.45000,-34
30.45833,-34
30.46667,-32
30.47500,-32
30.48333,-31
30.49167,-30
30.50000,-29
30.50833,-29
30.51667,-28
30.52500,-27
30.53333,-26
30.54167,-25
30.55000,-24
30.55833,-23
30.56667,-22
30.57500,-21
30.58333,-21
30.59167,-21
30.60000,-21
30.60833,-20
30.61667,-20
30.62500,-20
30.63333,-19
30.64167,-18
30.65000,-18
30.65833,-17
30.66667,-16
30.67500,-16
30.68333,-16
30.69167,-16
30.70000,-16
30.70833,-15
30.71667,-15
30.72500,-14
30.73333,-14
30.74167,-13
30.75000,-12
30.75833,-12
30.76667,-11
30.77500,-11
30.78333,-11
30.79167,-11
30.80000,-10
30.80833,-10
30.81667,-9
30.82500,-9
30.83333,-9
30.84167,-9
30.85000,-9
30.85833,-9
30.86667,-9
30.87500,-9
30.88333,-9
30.89167,-8
30.90000,-8
30.90833,-8
30.91667,-8
30.92500,-8
30.93333,-8
30.94167,-8
30.95000,-8
30.95833,-8
30.96667,-9
30.97500,-9
30.98333,-9
30.99167,-8
31.00000,-8
31.00833,-8
31.01667,-8
31.02500,-8
31.03333,-8
31.04167,-8
31.05000,-8
31.05833,-8
31.06667,-8
31.07500,-8
31.08333,-8
31.09167,-8
31.10000,-7
31.10833,-7
31.11667,-7
31.12500,-7
31.13333,-7
31.14167,-7
31.15000,-7
31.15833,-7
31.16667,-7
31.17500,-7
31.18333,-7
31.19167,-7
31.20000,-7
31.20833,-7
31.21667,-7
31.22500,-7
31.23333,-7
31.24167,-6
31.25000,-6
31.25833,-6
31.26667,-6
31.27500,-6
31.28333,-6
31.29167,-6
31.30000,-6
31.30833,-6
31.31667,-6
31.32500,-6
31.33333,-6
31.34167,-6
31.35000,-6
31.35833,-6
31.36667,-6
31.37500,-6
31.38333,-6
31.39167,-6
31.40000,-6
31.40833,-6
31.41667,-5
31.42500,-6
31.43333,-6
31.44167,-6
31.45000,-6
31.45833,-6
31.46667,-7
31.47500,-7
31.48333,-7
31.49167,-7
31.50000,-6
31.50833,-6
31.51667,-6
31.52500,-5
31.53333,-5
31.54167,-5
31.55000,-5
31.55833,-5
31.56667,-5
31.57500,-5
31.58333,-6
31.59167,-6
31.60000,-6
31.60833,-5
31.61667,-5
31.62500,-5
31.63333,-5
31.64167,-5
31.65000,-5
31.65833,-5
31.66667,-5
31.67500,-6
31.68333,-6
31.69167,-6
31.70000,-6
31.70833,-6
31.71667,-6
31.72500,-6
31.73333,-6
31.74167,-6
31.75000,-6
31.75833,-6
31.76667,-6
31.77500,-6
31.78333,-5
31.79167,-5
31.80000,-5
31.80833,-5
31.81667,-5
31.82500,-5
31.83333,-5
31.84167,-5
31.85000,-5
31.85833,-5
31.86667,-5
31.87500,-6
31.88333,-6
31.89167,-6
31.90000,-6
31.90833,-6
31.91667,-6
31.92500,-6
31.93333,-6
31.94167,-6
31.95000,-6
31.95833,-6
31.96667,-6
31.97500,-6
31.98333,-5
31.99167,-5
32.00000,-5
32.00833,-5
32.01667,-5
32.02500,-5
32.03333,-5
32.04167,-5
32.05000,-5
32.05833,-5
32.06667,-5
32.07500,-5
32.08333,-5
32.09167,-5
32.10000,-5
32.10833,-5
32.11667,-5
32.12500,-5
32.13333,-5
32.14167,-5
32.15000,-5
32.15833,-5
32.16667,-5
32.17500,-6
32.18333,-5
32.19167,-5
32.20000,-5
32.20833,-5
32.21667,-5
32.22500,-5
32.23333,-5
32.24167,-5
32.25000,-5
32.25833,-5
32.26667,-6
32.27500,-6
32.28333,-6
32.29167,-6
32.30000,-6
32.30833,-5
32.31667,-5
32.32500,-5
32.33333,-5
32.34167,-5
32.35000,-5
32.35833,-4
32.36667,-4
32.37500,-4
32.38333,-4
32.39167,-5
32.40000,-5
32.40833,-5
32.41667,-5
32.42500,-5
32.43333,-5
32.44167,-5
32.45000,-6
32.45833,-5
32.46667,-5
32.47500,-5
32.48333,-5
32.49167,-5
32.50000,-5
32.50833,-5
32.51667,-5
32.52500,-5
32.53333,-6
32.54167,-6
32.55000,-6
32.55833,-6
32.56667,-6
32.57500,-6
32.58333,-6
32.59167,-6
32.60000,-6
32.60833,-6
32.61667,-6
32.62500,-6
32.63333,-6
32.64167,-6
32.65000,-6
32.65833,-6
32.66667,-6
32.67500,-6
32.68333,-6
32.69167,-5
32.70000,-5
32.70833,-5
32.71667,-6
32.72500,-6
32.73333,-6
32.74167,-6
32.75000,-6
32.75833,-5
32.76667,-5
32.77500,-5
32.78333,-5
32.79167,-5
32.80000,-5
32.80833,-5
32.81667,-5
32.82500,-5
32.83333,-5
32.84167,-5
32.85000,-6
32.85833,-6
32.86667,-6
32.87500,-6
32.88333,-6
32.89167,-6
32.90000,-6
32.90833,-6
32.91667,-6
32.92500,-6
32.93333,-6
32.94167,-6
32.95000,-6
32.95833,-6
32.96667,-6
32.97500,-7
32.98333,-7
32.99167,-7
33.00000,-6
33.00833,-6
33.01667,-6
33.02500,-6
33.03333,-7
33.04167,-7
33.05000,-7
33.05833,-7
33.06667,-7
33.07500,-7
33.08333,-7
33.09167,-7
33.10000,-7
33.10833,-7
33.11667,-7
33.12500,-7
33.13333,-7
33.14167,-7
33.15000,-7
33.15833,-7
33.16667,-7
33.17500,-7
33.18333,-7
33.19167,-8
33.20000,-8
33.20833,-8
33.21667,-8
33.22500,-7
33.23333,-7
33.24167,-7
33.25000,-7
33.25833,-7
33.26667,-8
33.27500,-8
33.28333,-8
33.29167,-8
33.30000,-8
33.30833,-8
33.31667,-7
33.32500,-7
33.33333,-7
33.34167,-7
33.35000,-7
33.35833,-7
33.36667,-7
33.37500,-8
33.38333,-8
33.39167,-8
33.40000,-8
33.40833,-8
33.41667,-8
33.42500,-8
33.43333,-8
33.44167,-8
33.45000,-8
33.45833,-8
33.46667,-8
33.47500,-8
33.48333,-8
33.49167,-8
33.50000,-8
33.50833,-8
33.51667,-8
33.52500,-9
33.53333,-9
33.54167,-8
33.55000,-8
33.55833,-8
33.56667,-9
33.57500,-9
33.58333,-9
33.59167,-9
33.60000,-10
33.60833,-10
33.61667,-9
33.62500,-9
33.63333,-9
33.64167,-9
33.65000,-8
33.65833,-8
33.66667,-8
33.67500,-8
33.68333,-8
33.69167,-8
33.70000,-8
33.70833,-8
33.71667,-8
33.72500,-8
33.73333,-8
33.74167,-8
33.75000,-9
33.75833,-9
33.76667,-10
33.77500,-10
33.78333,-9
33.79167,-9
33.80000,-9
33.80833,-9
33.81667,-9
33.82500,-9
33.83333,-9
33.84167,-9
33.85000,-9
33.85833,-9
33.86667,-10
33.87500,-9
33.88333,-9
33.89167,-10
33.90000,-10
33.90833,-10
33.91667,-10
33.92500,-10
33.93333,-9
33.94167,-9
33.95000,-9
33.95833,-9
33.96667,-9
33.97500,-9
33.98333,-9
33.99167,-9
34.00000,-9
34.00833,-10
34.01667,-10
34.02500,-10
34.03333,-10
34.04167,-10
34.05000,-9
34.05833,-9
34.06667,-9
34.07500,-9
34.08333,-9
34.09167,-9
34.10000,-9
34.10833,-9
34.11667,-9
34.12500,-9
34.13333,-9
34.14167,-9
34.15000,-9
34.15833,-10
34.16667,-10
34.17500,-10
34.18333,-10
34.19167,-10
34.20000,-10
34.20833,-9
34.21667,-9
34.22500,-9
34.23333,-9
34.24167,-10
34.25000,-10
34.25833,-10
34.26667,-10
34.27500,-10
34.28333,-9
34.29167,-9
34.30000,-9
34.30833,-9
34.31667,-9
34.32500,-9
34.33333,-9
34.34167,-9
34.35000,-9
34.35833,-9
34.36667,-9
34.37500,-10
34.38333,-10
34.39167,-10
34.40000,-10
34.40833,-10
34.41667,-10
34.42500,-10
34.43333,-10
34.44167,-10
34.45000,-10
34.45833,-10
34.46667,-10
34.47500,-10
34.48333,-10
34.49167,-10
34.50000,-10
34.50833,-10
34.51667,-10
34.52500,-10
34.53333,-10
34.54167,-10
34.55000,-10
34.55833,-11
34.56667,-11
34.57500,-10
34.58333,-10
34.59167,-10
34.60000,-11
34.60833,-11
34.61667,-11
34.62500,-11
34.63333,-11
34.64167,-11
34.65000,-11
34.65833,-11
34.66667,-10
34.67500,-10
34.68333,-10
34.69167,-10
34.70000,-10
34.70833,-10
34.71667,-10
34.72500,-11
34.73333,-11
34.74167,-11
34.75000,-11
34.75833,-11
34.76667,-11
34.77500,-11
34.78333,-11
34.79167,-11
34.80000,-11
34.80833,-11
34.81667,-12
34.82500,-12
34.83333,-12
34.84167,-12
34.85000,-12
34.85833,-12
34.86667,-12
34.87500,-12
34.88333,-12
34.89167,-12
34.90000,-12
34.90833,-12
34.91667,-12
34.92500,-12
34.93333,-12
34.94167,-13
34.95000,-13
34.95833,-12
34.96667,-12
34.97500,-12
34.98333,-12
34.99167,-12
35.00000,-13
35.00833,-13
35.01667,-13
35.02500,-13
35.03333,-13
35.04167,-12
35.05000,-12
35.05833,-12
35.06667,-13
35.07500,-13
35.08333,-13
35.09167,-13
35.10000,-13
35.10833,-13
35.11667,-14
35.12500,-14
35.13333,-14
35.14167,-14
35.15000,-13
35.15833,-13
35.16667,-13
35.17500,-13
35.18333,-13
35.19167,-14
35.20000,-13
35.20833,-13
35.21667,-14
35.22500,-14
35.23333,-14
35.24167,-14
35.25000,-14
35.25833,-13
35.26667,-13
35.27500,-13
35.28333,-13
35.29167,-13
35.30000,-13
35.30833,-13
35.31667,-13
35.32500,-13
35.33333,-12
35.34167,-12
35.35000,-12
35.35833,-12
35.36667,-12
35.37500,-12
35.38333,-12
35.39167,-12
35.40000,-12
35.40833,-12
35.41667,-12
35.42500,-12
35.43333,-12
35.44167,-12
35.45000,-12
35.45833,-12
35.46667,-12
35.47500,-12
35.48333,-12
35.49167,-12
35.50000,-12
35.50833,-13
35.51667,-13
35.52500,-13
35.53333,-12
35.54167,-13
35.55000,-12
35.55833,-12
35.56667,-12
35.57500,-13
35.58333,-13
35.59167,-13
35.60000,-13
35.60833,-13
35.61667,-13
35.62500,-13
35.63333,-13
35.64167,-13
35.65000,-13
35.65833,-13
35.66667,-13
35.67500,-13
35.68333,-12
35.69167,-12
35.70000,-13
35.70833,-13
35.71667,-13
35.72500,-13
35.73333,-13
35.74167,-13
35.75000,-13
35.75833,-13
35.76667,-13
35.77500,-13
35.78333,-13
35.79167,-12
35.80000,-12
35.80833,-12
35.81667,-12
35.82500,-12
35.83333,-12
35.84167,-12
35.85000,-13
35.85833,-13
35.86667,-13
35.87500,-13
35.88333,-14
35.89167,-14
35.90000,-14
35.90833,-14
35.91667,-14
35.92500,-14
35.93333,-14
35.94167,-14
35.95000,-13
35.95833,-13
35.96667,-13
35.97500,-13
35.98333,-13
35.99167,-13
36.00000,-13
36.00833,-13
36.01667,-14
36.02500,-14
36.03333,-14
36.04167,-14
36.05000,-14
36.05833,-14
36.06667,-14
36.07500,-14
36.08333,-14
36.09167,-14
36.10000,-14
36.10833,-13
36.11667,-13
36.12500,-13
36.13333,-13
36.14167,-13
36.15000,-13
36.15833,-13
36.16667,-13
36.17500,-14
36.18333,-14
36.19167,-14
36.20000,-14
36.20833,-15
36.21667,-15
36.22500,-15
36.23333,-15
36.24167,-15
36.25000,-16
36.25833,-16
36.26667,-16
36.27500,-15
36.28333,-15
36.29167,-15
36.30000,-15
36.30833,-15
36.31667,-16
36.32500,-16
36.33333,-16
36.34167,-16
36.35000,-15
36.35833,-15
36.36667,-14
36.37500,-14
36.38333,-14
36.39167,-14
36.40000,-15
36.40833,-15
36.41667,-15
36.42500,-15
36.43333,-15
36.44167,-15
36.45000,-15
36.45833,-15
36.46667,-15
36.47500,-15
36.48333,-15
36.49167,-15
36.50000,-15
36.50833,-16
36.51667,-16
36.52500,-16
36.53333,-16
36.54167,-16
36.55000,-16
36.55833,-16
36.56667,-16
36.57500,-15
36.58333,-15
36.59167,-15
36.60000,-15
36.60833,-14
36.61667,-14
36.62500,-14
36.63333,-15
36.64167,-15
36.65000,-15
36.65833,-15
36.66667,-15
36.67500,-15
36.68333,-15
36.69167,-15
36.70000,-15
36.70833,-15
36.71667,-15
36.72500,-15
36.73333,-15
36.74167,-15
36.75000,-15
36.75833,-15
36.76667,-15
36.77500,-15
36.78333,-15
36.79167,-15
36.80000,-15
36.80833,-15
36.81667,-15
36.82500,-15
36.83333,-15
36.84167,-15
36.85000,-15
36.85833,-15
36.86667,-15
36.87500,-15
36.88333,-15
36.89167,-16
36.90000,-16
36.90833,-15
36.91667,-15
36.92500,-15
36.93333,-15
36.94167,-15
36.95000,-15
36.95833,-15
36.96667,-15
36.97500,-15
36.98333,-15
36.99167,-15
37.00000,-15
37.00833,-15
37.01667,-15
37.02500,-15
37.03333,-15
37.04167,-15
37.05000,-15
37.05833,-16
37.06667,-16
37.07500,-16
37.08333,-16
37.09167,-16
37.10000,-15
37.10833,-15
37.11667,-15
37.12500,-15
37.13333,-15
37.14167,-15
37.15000,-15
37.15833,-15
37.16667,-15
37.17500,-16
37.18333,-16
37.19167,-16
37.20000,-16
37.20833,-16
37.21667,-16
37.22500,-16
37.23333,-16
37.24167,-16
37.25000,-16
37.25833,-16
37.26667,-15
37.27500,-15
37.28333,-16
37.29167,-16
37.30000,-16
37.30833,-16
37.31667,-16
37.32500,-17
37.33333,-17
37.34167,-17
37.35000,-17
37.35833,-17
37.36667,-17
37.37500,-17
37.38333,-17
37.39167,-17
37.40000,-17
37.40833,-17
37.41667,-17
37.42500,-16
37.43333,-16
37.44167,-16
37.45000,-15
37.45833,-16
37.46667,-16
37.47500,-16
37.48333,-16
37.49167,-16
37.50000,-16
37.50833,-16
37.51667,-16
37.52500,-17
37.53333,-17
37.54167,-17
37.55000,-17
37.55833,-17
37.56667,-17
37.57500,-17
37.58333,-16
37.59167,-16
37.60000,-16
37.60833,-16
37.61667,-16
37.62500,-16
37.63333,-16
37.64167,-16
37.65000,-16
37.65833,-16
37.66667,-17
37.67500,-17
37.68333,-17
37.69167,-17
37.70000,-17
37.70833,-17
37.71667,-17
37.72500,-17
37.73333,-17
37.74167,-17
37.75000,-17
37.75833,-17
37.76667,-17
37.77500,-17
37.78333,-17
37.79167,-17
37.80000,-17
37.80833,-16
37.81667,-16
37.82500,-16
37.83333,-17
37.84167,-17
37.85000,-17
37.85833,-16
37.86667,-17
37.87500,-17
37.88333,-17
37.89167,-17
37.90000,-16
37.90833,-16
37.91667,-16
37.92500,-16
37.93333,-16
37.94167,-16
37.95000,-17
37.95833,-17
37.96667,-17
37.97500,-17
37.98333,-17
37.99167,-17
38.00000,-17
38.00833,-17
38.01667,-17
38.02500,-17
38.03333,-17
38.04167,-17
38.05000,-17
38.05833,-17
38.06667,-17
38.07500,-17
38.08333,-17
38.09167,-17
38.10000,-17
38.10833,-17
38.11667,-17
38.12500,-17
38.13333,-17
38.14167,-17
38.15000,-17
38.15833,-17
38.16667,-17
38.17500,-17
38.18333,-17
38.19167,-16
38.20000,-16
38.20833,-17
38.21667,-17
38.22500,-17
38.23333,-17
38.24167,-17
38.25000,-17
38.25833,-17
38.26667,-17
38.27500,-17
38.28333,-17
38.29167,-17
38.30000,-17
38.30833,-17
38.31667,-17
38.32500,-17
38.33333,-17
38.34167,-17
38.35000,-17
38.35833,-17
38.36667,-17
38.37500,-17
38.38333,-17
38.39167,-17
38.40000,-17
38.40833,-17
38.41667,-17
38.42500,-17
38.43333,-17
38.44167,-16
38.45000,-16
38.45833,-16
38.46667,-17
38.47500,-16
38.48333,-16
38.49167,-17
38.50000,-17
38.50833,-17
38.51667,-17
38.52500,-17
38.53333,-17
38.54167,-17
38.55000,-17
38.55833,-17
38.56667,-16
38.57500,-17
38.58333,-17
38.59167,-17
38.60000,-17
38.60833,-17
38.61667,-17
38.62500,-17
38.63333,-17
38.64167,-17
38.65000,-17
38.65833,-17
38.66667,-18
38.67500,-18
38.68333,-18
38.69167,-18
38.70000,-17
38.70833,-17
38.71667,-17
38.72500,-17
38.73333,-17
38.74167,-17
38.75000,-17
38.75833,-17
38.76667,-17
38.77500,-17
38.78333,-17
38.79167,-17
38.80000,-17
38.80833,-17
38.81667,-17
38.82500,-17
38.83333,-17
38.84167,-17
38.85000,-17
38.85833,-17
38.86667,-17
38.87500,-17
38.88333,-16
38.89167,-17
38.90000,-16
38.90833,-17
38.91667,-17
38.92500,-17
38.93333,-17
38.94167,-17
38.95000,-17
38.95833,-17
38.96667,-17
38.97500,-17
38.98333,-17
38.99167,-18
39.00000,-18
39.00833,-18
39.01667,-18
39.02500,-18
39.03333,-17
39.04167,-18
39.05000,-18
39.05833,-18
39.06667,-18
39.07500,-18
39.08333,-18
39.09167,-18
39.10000,-18
39.10833,-18
39.11667,-19
39.12500,-18
39.13333,-18
39.14167,-18
39.15000,-18
39.15833,-18
39.16667,-18
39.17500,-18
39.18333,-18
39.19167,-18
39.20000,-18
39.20833,-18
39.21667,-18
39.22500,-18
39.23333,-18
39.24167,-18
39.25000,-18
39.25833,-18
39.26667,-18
39.27500,-18
39.28333,-18
39.29167,-18
39.30000,-18
39.30833,-18
39.31667,-18
39.32500,-18
39.33333,-18
39.34167,-18
39.35000,-18
39.35833,-19
39.36667,-19
39.37500,-19
39.38333,-19
39.39167,-19
39.40000,-19
39.40833,-19
39.41667,-19
39.42500,-19
39.43333,-19
39.44167,-19
39.45000,-19
39.45833,-19
39.46667,-19
39.47500,-19
39.48333,-19
39.49167,-19
39.50000,-19
39.50833,-19
39.51667,-19
39.52500,-19
39.53333,-19
39.54167,-19
39.55000,-19
39.55833,-19
39.56667,-19
39.57500,-19
39.58333,-19
39.59167,-19
39.60000,-19
39.60833,-19
39.61667,-19
39.62500,-19
39.63333,-19
39.64167,-19
39.65000,-19
39.65833,-19
39.66667,-19
39.67500,-19
39.68333,-19
39.69167,-19
39.70000,-19
39.70833,-19
39.71667,-19
39.72500,-19
39.73333,-19
39.74167,-19
39.75000,-19
39.75833,-19
39.76667,-18
39.77500,-18
39.78333,-18
39.79167,-18
39.80000,-18
39.80833,-19
39.81667,-19
39.82500,-19
39.83333,-19
39.84167,-19
39.85000,-19
39.85833,-19
39.86667,-19
39.87500,-19
39.88333,-18
39.89167,-19
39.90000,-19
39.90833,-19
39.91667,-19
39.92500,-19
39.93333,-19
39.94167,-19
39.95000,-19
39.95833,-19
39.96667,-18
39.97500,-18
39.98333,-18
39.99167,-19
40.00000,-19

