[Header]
Application Name,LabSolutions
Version,5.97 SP1
Data File Name,C:\Users\cremerlab\Desktop\griffin\2021-03-31_NCM3722_NCglucose_turnover\2021-03-31_NCM3722_turnover_batch_3312021_003_017.lcd
Output Date,4/1/2021
Output Time,7:19:58 AM

[File Information]
Type,Data File
Generated,4/1/2021 6:39:38 AM
Generated by,System Administrator
Modified,4/1/2021 7:19:58 AM
Modified by,System Administrator

[Sample Information]
Operator Name,System Administrator
Acquired,4/1/2021 6:39:57 AM
Sample Type,1:Standard
Level,3
Sample Name,2021-03-31_NCM3722_NCglucose_replicate_03_timepoint_003
Sample ID,003
ISTD Amount1,1
ISTD Amount2,1
ISTD Amount3,1
ISTD Amount4,1
ISTD Amount5,1
ISTD Amount6,1
ISTD Amount7,1
ISTD Amount8,1
ISTD Amount9,1
ISTD Amount10,1
ISTD Amount11,1
ISTD Amount12,1
ISTD Amount13,1
ISTD Amount14,1
ISTD Amount15,1
ISTD Amount16,1
ISTD Amount17,1
ISTD Amount18,1
ISTD Amount19,1
ISTD Amount20,1
ISTD Amount21,1
ISTD Amount22,1
ISTD Amount23,1
ISTD Amount24,1
ISTD Amount25,1
ISTD Amount26,1
ISTD Amount27,1
ISTD Amount28,1
ISTD Amount29,1
ISTD Amount30,1
ISTD Amount31,1
ISTD Amount32,1
Sample Amount,1
Dilution Factor,1
Vial#,30
Injection Volume,20

[Original Files]
Data File,C:\Users\cremerlab\Desktop\griffin\2021-03-31_NCM3722_NCglucose_turnover\2021-03-31_NCM3722_turnover_batch_3312021_003_017.lcd
Method File,C:\LabSolutions\Data\Project1\organicacidsetc2.lcm
Batch File,C:\Users\cremerlab\Desktop\griffin\2021-03-31_NCM3722_NCglucose_turnover\2021-03-31_NCM3722_turnover_batch.lcb
Report Format File,c:\LabSolutions\System\DEFAULT.lsr

[File Description]


[Configuration]
Instrument Name,HPLC-PC-Instrument1
Instrument #,1
Line #,1
# of Detectors,2
Detector ID,Detector A,Detector B
Detector Name,Detector A,Detector B
# of Channels,1,1

[Peak Table(Detector A)]
# of Peaks,0

[Peak Table(Detector B)]
# of Peaks,5
Peak#,R.Time,I.Time,F.Time,Area,Height,A/H,Conc.,Mark,ID#,Name,k',Plate #,Plate Ht.,Tailing,Resolution,Sep.Factor,Area Ratio,Height Ratio,Conc. %,Norm Conc.
1,11.037,10.758,12.325,923505,54143,17.057,0.000,   ,,,0.000,11210,13.381,1.399,0.000,0.000,0,0,0.000,0.000
2,15.026,14.100,15.342,2357415,95653,24.645,0.000,   ,,,0.361,8055,18.621,0.000,7.341,0.000,0,0,0.000,0.000
3,15.623,15.342,18.283,692041,28869,23.972,0.000, V ,,,0.415,9858,15.216,0.000,0.919,1.150,0,0,0.000,0.000
4,18.988,18.683,19.475,1668,79,21.156,0.000,   ,,,0.720,17606,8.520,1.219,5.601,1.734,0,0,0.000,0.000
5,25.042,24.633,25.592,3936,149,26.462,0.000,   ,,,1.269,18953,7.914,1.108,9.313,1.761,0,0,0.000,0.000

[LC Chromatogram(Detector B-Ch1)]
Interval(msec),500
# of Points,4801
Start Time(min),0.000
End Time(min),40.000
Intensity Units,mV
Intensity Multiplier,0.001
R.Time (min),Intensity
0.00000,1
0.00833,1
0.01667,0
0.02500,1
0.03333,1
0.04167,-1
0.05000,-2
0.05833,-4
0.06667,-5
0.07500,-6
0.08333,-5
0.09167,-5
0.10000,-4
0.10833,-3
0.11667,-2
0.12500,-2
0.13333,-1
0.14167,-0
0.15000,0
0.15833,1
0.16667,1
0.17500,1
0.18333,1
0.19167,1
0.20000,1
0.20833,1
0.21667,1
0.22500,2
0.23333,2
0.24167,4
0.25000,4
0.25833,5
0.26667,5
0.27500,5
0.28333,5
0.29167,4
0.30000,4
0.30833,3
0.31667,3
0.32500,3
0.33333,3
0.34167,2
0.35000,2
0.35833,2
0.36667,2
0.37500,2
0.38333,2
0.39167,2
0.40000,2
0.40833,2
0.41667,2
0.42500,2
0.43333,2
0.44167,3
0.45000,3
0.45833,3
0.46667,2
0.47500,3
0.48333,3
0.49167,3
0.50000,3
0.50833,3
0.51667,3
0.52500,3
0.53333,4
0.54167,4
0.55000,5
0.55833,6
0.56667,7
0.57500,9
0.58333,11
0.59167,12
0.60000,13
0.60833,14
0.61667,15
0.62500,14
0.63333,13
0.64167,12
0.65000,9
0.65833,7
0.66667,4
0.67500,2
0.68333,-1
0.69167,-3
0.70000,-6
0.70833,-8
0.71667,-9
0.72500,-10
0.73333,-11
0.74167,-11
0.75000,-11
0.75833,-12
0.76667,-11
0.77500,-11
0.78333,-11
0.79167,-10
0.80000,-9
0.80833,-8
0.81667,-7
0.82500,-6
0.83333,-5
0.84167,-4
0.85000,-3
0.85833,-2
0.86667,-1
0.87500,-0
0.88333,0
0.89167,1
0.90000,1
0.90833,1
0.91667,1
0.92500,2
0.93333,2
0.94167,2
0.95000,2
0.95833,2
0.96667,3
0.97500,3
0.98333,3
0.99167,3
1.00000,3
1.00833,4
1.01667,4
1.02500,4
1.03333,4
1.04167,4
1.05000,4
1.05833,4
1.06667,4
1.07500,4
1.08333,4
1.09167,4
1.10000,4
1.10833,4
1.11667,5
1.12500,5
1.13333,6
1.14167,5
1.15000,5
1.15833,5
1.16667,5
1.17500,5
1.18333,5
1.19167,5
1.20000,5
1.20833,4
1.21667,5
1.22500,5
1.23333,5
1.24167,5
1.25000,5
1.25833,4
1.26667,4
1.27500,4
1.28333,4
1.29167,4
1.30000,4
1.30833,3
1.31667,3
1.32500,3
1.33333,4
1.34167,4
1.35000,4
1.35833,4
1.36667,5
1.37500,5
1.38333,5
1.39167,5
1.40000,5
1.40833,5
1.41667,5
1.42500,5
1.43333,5
1.44167,5
1.45000,5
1.45833,5
1.46667,5
1.47500,5
1.48333,5
1.49167,5
1.50000,5
1.50833,5
1.51667,5
1.52500,5
1.53333,5
1.54167,5
1.55000,5
1.55833,5
1.56667,5
1.57500,5
1.58333,5
1.59167,5
1.60000,5
1.60833,5
1.61667,5
1.62500,6
1.63333,6
1.64167,6
1.65000,6
1.65833,7
1.66667,7
1.67500,7
1.68333,8
1.69167,8
1.70000,8
1.70833,8
1.71667,8
1.72500,8
1.73333,8
1.74167,8
1.75000,8
1.75833,8
1.76667,8
1.77500,8
1.78333,7
1.79167,8
1.80000,8
1.80833,9
1.81667,9
1.82500,9
1.83333,10
1.84167,10
1.85000,10
1.85833,10
1.86667,10
1.87500,10
1.88333,10
1.89167,10
1.90000,9
1.90833,9
1.91667,9
1.92500,9
1.93333,9
1.94167,9
1.95000,9
1.95833,9
1.96667,9
1.97500,9
1.98333,10
1.99167,10
2.00000,10
2.00833,10
2.01667,11
2.02500,11
2.03333,11
2.04167,12
2.05000,12
2.05833,12
2.06667,12
2.07500,12
2.08333,12
2.09167,12
2.10000,12
2.10833,12
2.11667,12
2.12500,11
2.13333,11
2.14167,11
2.15000,10
2.15833,10
2.16667,10
2.17500,10
2.18333,10
2.19167,10
2.20000,11
2.20833,11
2.21667,11
2.22500,11
2.23333,11
2.24167,11
2.25000,11
2.25833,11
2.26667,10
2.27500,10
2.28333,10
2.29167,10
2.30000,10
2.30833,10
2.31667,10
2.32500,10
2.33333,10
2.34167,11
2.35000,11
2.35833,10
2.36667,10
2.37500,10
2.38333,10
2.39167,10
2.40000,11
2.40833,11
2.41667,11
2.42500,10
2.43333,10
2.44167,10
2.45000,10
2.45833,10
2.46667,11
2.47500,11
2.48333,11
2.49167,11
2.50000,11
2.50833,11
2.51667,12
2.52500,12
2.53333,11
2.54167,11
2.55000,10
2.55833,10
2.56667,10
2.57500,9
2.58333,9
2.59167,9
2.60000,10
2.60833,10
2.61667,10
2.62500,10
2.63333,10
2.64167,10
2.65000,10
2.65833,10
2.66667,10
2.67500,10
2.68333,10
2.69167,10
2.70000,10
2.70833,10
2.71667,10
2.72500,10
2.73333,10
2.74167,10
2.75000,9
2.75833,10
2.76667,10
2.77500,10
2.78333,10
2.79167,9
2.80000,9
2.80833,9
2.81667,10
2.82500,10
2.83333,11
2.84167,11
2.85000,11
2.85833,11
2.86667,11
2.87500,10
2.88333,10
2.89167,10
2.90000,10
2.90833,10
2.91667,10
2.92500,10
2.93333,10
2.94167,10
2.95000,10
2.95833,10
2.96667,10
2.97500,10
2.98333,10
2.99167,10
3.00000,10
3.00833,11
3.01667,11
3.02500,11
3.03333,11
3.04167,11
3.05000,10
3.05833,10
3.06667,10
3.07500,10
3.08333,10
3.09167,11
3.10000,11
3.10833,11
3.11667,11
3.12500,11
3.13333,11
3.14167,11
3.15000,11
3.15833,11
3.16667,11
3.17500,11
3.18333,11
3.19167,11
3.20000,11
3.20833,11
3.21667,11
3.22500,10
3.23333,10
3.24167,10
3.25000,11
3.25833,11
3.26667,12
3.27500,11
3.28333,11
3.29167,11
3.30000,11
3.30833,11
3.31667,11
3.32500,11
3.33333,11
3.34167,11
3.35000,11
3.35833,11
3.36667,11
3.37500,11
3.38333,11
3.39167,10
3.40000,10
3.40833,11
3.41667,11
3.42500,11
3.43333,11
3.44167,11
3.45000,12
3.45833,12
3.46667,12
3.47500,13
3.48333,13
3.49167,13
3.50000,13
3.50833,13
3.51667,13
3.52500,13
3.53333,13
3.54167,13
3.55000,13
3.55833,12
3.56667,12
3.57500,12
3.58333,13
3.59167,13
3.60000,13
3.60833,13
3.61667,13
3.62500,13
3.63333,13
3.64167,13
3.65000,13
3.65833,13
3.66667,14
3.67500,14
3.68333,14
3.69167,14
3.70000,14
3.70833,14
3.71667,14
3.72500,14
3.73333,15
3.74167,15
3.75000,15
3.75833,14
3.76667,14
3.77500,15
3.78333,15
3.79167,15
3.80000,15
3.80833,15
3.81667,15
3.82500,15
3.83333,15
3.84167,15
3.85000,15
3.85833,15
3.86667,15
3.87500,16
3.88333,16
3.89167,16
3.90000,16
3.90833,16
3.91667,16
3.92500,16
3.93333,16
3.94167,16
3.95000,16
3.95833,16
3.96667,16
3.97500,16
3.98333,17
3.99167,17
4.00000,17
4.00833,17
4.01667,17
4.02500,17
4.03333,17
4.04167,18
4.05000,18
4.05833,18
4.06667,18
4.07500,18
4.08333,18
4.09167,18
4.10000,18
4.10833,18
4.11667,18
4.12500,18
4.13333,18
4.14167,18
4.15000,18
4.15833,18
4.16667,18
4.17500,17
4.18333,17
4.19167,17
4.20000,17
4.20833,17
4.21667,18
4.22500,18
4.23333,18
4.24167,18
4.25000,18
4.25833,19
4.26667,19
4.27500,18
4.28333,18
4.29167,18
4.30000,19
4.30833,19
4.31667,19
4.32500,18
4.33333,18
4.34167,18
4.35000,18
4.35833,17
4.36667,17
4.37500,17
4.38333,17
4.39167,18
4.40000,18
4.40833,18
4.41667,18
4.42500,18
4.43333,18
4.44167,18
4.45000,19
4.45833,19
4.46667,18
4.47500,18
4.48333,18
4.49167,18
4.50000,18
4.50833,19
4.51667,19
4.52500,18
4.53333,18
4.54167,18
4.55000,18
4.55833,18
4.56667,17
4.57500,17
4.58333,17
4.59167,17
4.60000,17
4.60833,17
4.61667,17
4.62500,17
4.63333,17
4.64167,17
4.65000,17
4.65833,17
4.66667,17
4.67500,17
4.68333,17
4.69167,17
4.70000,17
4.70833,17
4.71667,17
4.72500,17
4.73333,17
4.74167,17
4.75000,17
4.75833,17
4.76667,17
4.77500,17
4.78333,17
4.79167,17
4.80000,17
4.80833,17
4.81667,17
4.82500,17
4.83333,17
4.84167,17
4.85000,17
4.85833,17
4.86667,17
4.87500,17
4.88333,18
4.89167,18
4.90000,18
4.90833,17
4.91667,17
4.92500,17
4.93333,17
4.94167,17
4.95000,16
4.95833,16
4.96667,16
4.97500,16
4.98333,17
4.99167,17
5.00000,17
5.00833,16
5.01667,17
5.02500,17
5.03333,17
5.04167,16
5.05000,16
5.05833,16
5.06667,16
5.07500,16
5.08333,17
5.09167,17
5.10000,17
5.10833,17
5.11667,18
5.12500,18
5.13333,18
5.14167,17
5.15000,17
5.15833,17
5.16667,17
5.17500,17
5.18333,17
5.19167,17
5.20000,17
5.20833,17
5.21667,17
5.22500,17
5.23333,17
5.24167,17
5.25000,17
5.25833,17
5.26667,17
5.27500,17
5.28333,18
5.29167,17
5.30000,17
5.30833,18
5.31667,18
5.32500,18
5.33333,18
5.34167,18
5.35000,18
5.35833,18
5.36667,18
5.37500,18
5.38333,18
5.39167,18
5.40000,18
5.40833,18
5.41667,18
5.42500,18
5.43333,18
5.44167,18
5.45000,18
5.45833,18
5.46667,18
5.47500,18
5.48333,19
5.49167,19
5.50000,19
5.50833,19
5.51667,19
5.52500,19
5.53333,19
5.54167,19
5.55000,19
5.55833,19
5.56667,19
5.57500,19
5.58333,19
5.59167,19
5.60000,19
5.60833,19
5.61667,19
5.62500,19
5.63333,20
5.64167,19
5.65000,19
5.65833,19
5.66667,19
5.67500,19
5.68333,19
5.69167,19
5.70000,19
5.70833,19
5.71667,20
5.72500,20
5.73333,20
5.74167,20
5.75000,20
5.75833,20
5.76667,20
5.77500,20
5.78333,20
5.79167,20
5.80000,20
5.80833,19
5.81667,19
5.82500,19
5.83333,20
5.84167,20
5.85000,20
5.85833,20
5.86667,20
5.87500,20
5.88333,21
5.89167,21
5.90000,21
5.90833,20
5.91667,20
5.92500,21
5.93333,21
5.94167,21
5.95000,21
5.95833,21
5.96667,22
5.97500,22
5.98333,21
5.99167,21
6.00000,21
6.00833,20
6.01667,20
6.02500,20
6.03333,21
6.04167,21
6.05000,20
6.05833,20
6.06667,20
6.07500,20
6.08333,20
6.09167,20
6.10000,21
6.10833,21
6.11667,21
6.12500,21
6.13333,21
6.14167,22
6.15000,21
6.15833,21
6.16667,21
6.17500,21
6.18333,20
6.19167,20
6.20000,20
6.20833,20
6.21667,20
6.22500,20
6.23333,20
6.24167,20
6.25000,21
6.25833,21
6.26667,21
6.27500,21
6.28333,21
6.29167,21
6.30000,21
6.30833,21
6.31667,21
6.32500,21
6.33333,20
6.34167,21
6.35000,21
6.35833,20
6.36667,21
6.37500,21
6.38333,21
6.39167,21
6.40000,21
6.40833,21
6.41667,21
6.42500,21
6.43333,21
6.44167,21
6.45000,21
6.45833,21
6.46667,21
6.47500,22
6.48333,22
6.49167,22
6.50000,21
6.50833,21
6.51667,22
6.52500,22
6.53333,22
6.54167,21
6.55000,21
6.55833,22
6.56667,22
6.57500,22
6.58333,22
6.59167,22
6.60000,22
6.60833,21
6.61667,21
6.62500,21
6.63333,21
6.64167,21
6.65000,21
6.65833,21
6.66667,21
6.67500,21
6.68333,22
6.69167,22
6.70000,22
6.70833,23
6.71667,23
6.72500,23
6.73333,23
6.74167,23
6.75000,23
6.75833,23
6.76667,23
6.77500,22
6.78333,22
6.79167,22
6.80000,22
6.80833,22
6.81667,22
6.82500,21
6.83333,21
6.84167,21
6.85000,21
6.85833,21
6.86667,21
6.87500,21
6.88333,22
6.89167,22
6.90000,22
6.90833,22
6.91667,23
6.92500,23
6.93333,23
6.94167,23
6.95000,23
6.95833,23
6.96667,23
6.97500,23
6.98333,23
6.99167,23
7.00000,23
7.00833,23
7.01667,23
7.02500,23
7.03333,23
7.04167,23
7.05000,23
7.05833,23
7.06667,23
7.07500,23
7.08333,23
7.09167,23
7.10000,23
7.10833,23
7.11667,24
7.12500,24
7.13333,24
7.14167,24
7.15000,24
7.15833,25
7.16667,24
7.17500,24
7.18333,24
7.19167,24
7.20000,23
7.20833,23
7.21667,23
7.22500,23
7.23333,23
7.24167,23
7.25000,24
7.25833,24
7.26667,24
7.27500,23
7.28333,23
7.29167,23
7.30000,23
7.30833,23
7.31667,23
7.32500,24
7.33333,24
7.34167,24
7.35000,24
7.35833,24
7.36667,24
7.37500,24
7.38333,24
7.39167,24
7.40000,24
7.40833,23
7.41667,23
7.42500,23
7.43333,23
7.44167,24
7.45000,24
7.45833,24
7.46667,24
7.47500,24
7.48333,24
7.49167,24
7.50000,24
7.50833,24
7.51667,24
7.52500,24
7.53333,24
7.54167,24
7.55000,24
7.55833,24
7.56667,24
7.57500,24
7.58333,24
7.59167,24
7.60000,24
7.60833,24
7.61667,24
7.62500,24
7.63333,23
7.64167,23
7.65000,23
7.65833,23
7.66667,23
7.67500,23
7.68333,24
7.69167,24
7.70000,24
7.70833,24
7.71667,24
7.72500,24
7.73333,24
7.74167,24
7.75000,24
7.75833,24
7.76667,24
7.77500,24
7.78333,24
7.79167,24
7.80000,24
7.80833,23
7.81667,23
7.82500,23
7.83333,23
7.84167,23
7.85000,23
7.85833,23
7.86667,24
7.87500,24
7.88333,25
7.89167,25
7.90000,25
7.90833,25
7.91667,25
7.92500,25
7.93333,25
7.94167,25
7.95000,25
7.95833,25
7.96667,25
7.97500,25
7.98333,25
7.99167,25
8.00000,25
8.00833,25
8.01667,25
8.02500,25
8.03333,24
8.04167,24
8.05000,24
8.05833,24
8.06667,25
8.07500,25
8.08333,25
8.09167,25
8.10000,25
8.10833,25
8.11667,25
8.12500,25
8.13333,25
8.14167,25
8.15000,25
8.15833,25
8.16667,25
8.17500,25
8.18333,25
8.19167,24
8.20000,24
8.20833,24
8.21667,25
8.22500,25
8.23333,25
8.24167,24
8.25000,24
8.25833,24
8.26667,24
8.27500,24
8.28333,24
8.29167,24
8.30000,24
8.30833,25
8.31667,25
8.32500,25
8.33333,25
8.34167,25
8.35000,25
8.35833,25
8.36667,25
8.37500,25
8.38333,25
8.39167,25
8.40000,26
8.40833,26
8.41667,25
8.42500,26
8.43333,26
8.44167,26
8.45000,26
8.45833,26
8.46667,26
8.47500,26
8.48333,26
8.49167,26
8.50000,26
8.50833,26
8.51667,26
8.52500,26
8.53333,26
8.54167,26
8.55000,26
8.55833,26
8.56667,27
8.57500,27
8.58333,27
8.59167,27
8.60000,27
8.60833,27
8.61667,26
8.62500,26
8.63333,26
8.64167,26
8.65000,26
8.65833,26
8.66667,26
8.67500,26
8.68333,26
8.69167,26
8.70000,25
8.70833,25
8.71667,25
8.72500,25
8.73333,25
8.74167,26
8.75000,26
8.75833,26
8.76667,26
8.77500,26
8.78333,26
8.79167,25
8.80000,25
8.80833,25
8.81667,25
8.82500,25
8.83333,25
8.84167,25
8.85000,26
8.85833,26
8.86667,27
8.87500,28
8.88333,28
8.89167,28
8.90000,28
8.90833,27
8.91667,27
8.92500,27
8.93333,27
8.94167,27
8.95000,27
8.95833,27
8.96667,28
8.97500,28
8.98333,27
8.99167,27
9.00000,27
9.00833,27
9.01667,27
9.02500,27
9.03333,27
9.04167,27
9.05000,27
9.05833,27
9.06667,27
9.07500,27
9.08333,27
9.09167,27
9.10000,27
9.10833,27
9.11667,27
9.12500,27
9.13333,27
9.14167,27
9.15000,27
9.15833,27
9.16667,28
9.17500,28
9.18333,28
9.19167,27
9.20000,27
9.20833,27
9.21667,27
9.22500,27
9.23333,27
9.24167,27
9.25000,26
9.25833,27
9.26667,27
9.27500,27
9.28333,27
9.29167,28
9.30000,28
9.30833,28
9.31667,28
9.32500,28
9.33333,28
9.34167,28
9.35000,28
9.35833,28
9.36667,28
9.37500,28
9.38333,28
9.39167,28
9.40000,28
9.40833,28
9.41667,28
9.42500,28
9.43333,28
9.44167,28
9.45000,28
9.45833,28
9.46667,28
9.47500,29
9.48333,29
9.49167,29
9.50000,29
9.50833,29
9.51667,29
9.52500,29
9.53333,29
9.54167,29
9.55000,29
9.55833,29
9.56667,29
9.57500,29
9.58333,29
9.59167,29
9.60000,29
9.60833,29
9.61667,29
9.62500,28
9.63333,28
9.64167,28
9.65000,29
9.65833,29
9.66667,29
9.67500,29
9.68333,29
9.69167,29
9.70000,29
9.70833,29
9.71667,29
9.72500,29
9.73333,29
9.74167,29
9.75000,29
9.75833,30
9.76667,30
9.77500,30
9.78333,30
9.79167,30
9.80000,30
9.80833,30
9.81667,30
9.82500,30
9.83333,30
9.84167,30
9.85000,30
9.85833,30
9.86667,30
9.87500,30
9.88333,29
9.89167,29
9.90000,29
9.90833,29
9.91667,29
9.92500,29
9.93333,29
9.94167,29
9.95000,29
9.95833,29
9.96667,29
9.97500,29
9.98333,30
9.99167,30
10.00000,30
10.00833,31
10.01667,31
10.02500,31
10.03333,31
10.04167,31
10.05000,31
10.05833,31
10.06667,31
10.07500,31
10.08333,31
10.09167,30
10.10000,30
10.10833,30
10.11667,30
10.12500,30
10.13333,30
10.14167,30
10.15000,30
10.15833,29
10.16667,29
10.17500,30
10.18333,30
10.19167,30
10.20000,30
10.20833,30
10.21667,30
10.22500,30
10.23333,31
10.24167,31
10.25000,31
10.25833,31
10.26667,31
10.27500,31
10.28333,31
10.29167,32
10.30000,32
10.30833,32
10.31667,33
10.32500,33
10.33333,34
10.34167,35
10.35000,36
10.35833,37
10.36667,38
10.37500,39
10.38333,40
10.39167,40
10.40000,41
10.40833,41
10.41667,42
10.42500,43
10.43333,43
10.44167,44
10.45000,45
10.45833,46
10.46667,46
10.47500,46
10.48333,46
10.49167,45
10.50000,44
10.50833,42
10.51667,39
10.52500,35
10.53333,29
10.54167,20
10.55000,9
10.55833,-6
10.56667,-26
10.57500,-53
10.58333,-89
10.59167,-134
10.60000,-192
10.60833,-264
10.61667,-353
10.62500,-460
10.63333,-586
10.64167,-734
10.65000,-905
10.65833,-1098
10.66667,-1312
10.67500,-1545
10.68333,-1795
10.69167,-2055
10.70000,-2319
10.70833,-2579
10.71667,-2826
10.72500,-3050
10.73333,-3237
10.74167,-3376
10.75000,-3454
10.75833,-3456
10.76667,-3369
10.77500,-3180
10.78333,-2876
10.79167,-2444
10.80000,-1874
10.80833,-1157
10.81667,-283
10.82500,753
10.83333,1955
10.84167,3327
10.85000,4870
10.85833,6582
10.86667,8460
10.87500,10497
10.88333,12686
10.89167,15016
10.90000,17474
10.90833,20043
10.91667,22703
10.92500,25432
10.93333,28203
10.94167,30985
10.95000,33746
10.95833,36447
10.96667,39048
10.97500,41507
10.98333,43781
10.99167,45825
11.00000,47600
11.00833,49065
11.01667,50190
11.02500,50949
11.03333,51325
11.04167,51311
11.05000,50911
11.05833,50138
11.06667,49015
11.07500,47575
11.08333,45854
11.09167,43895
11.10000,41747
11.10833,39453
11.11667,37063
11.12500,34619
11.13333,32163
11.14167,29731
11.15000,27353
11.15833,25054
11.16667,22856
11.17500,20773
11.18333,18816
11.19167,16991
11.20000,15300
11.20833,13744
11.21667,12321
11.22500,11024
11.23333,9849
11.24167,8788
11.25000,7834
11.25833,6979
11.26667,6216
11.27500,5535
11.28333,4931
11.29167,4394
11.30000,3919
11.30833,3499
11.31667,3128
11.32500,2801
11.33333,2513
11.34167,2260
11.35000,2037
11.35833,1841
11.36667,1669
11.37500,1518
11.38333,1384
11.39167,1266
11.40000,1161
11.40833,1069
11.41667,987
11.42500,915
11.43333,851
11.44167,794
11.45000,743
11.45833,698
11.46667,658
11.47500,621
11.48333,588
11.49167,559
11.50000,532
11.50833,507
11.51667,484
11.52500,464
11.53333,445
11.54167,428
11.55000,411
11.55833,396
11.56667,382
11.57500,369
11.58333,357
11.59167,346
11.60000,335
11.60833,325
11.61667,315
11.62500,307
11.63333,298
11.64167,291
11.65000,283
11.65833,277
11.66667,270
11.67500,264
11.68333,258
11.69167,252
11.70000,246
11.70833,241
11.71667,236
11.72500,231
11.73333,226
11.74167,223
11.75000,219
11.75833,215
11.76667,211
11.77500,207
11.78333,204
11.79167,200
11.80000,197
11.80833,193
11.81667,191
11.82500,188
11.83333,186
11.84167,184
11.85000,182
11.85833,180
11.86667,178
11.87500,176
11.88333,175
11.89167,174
11.90000,172
11.90833,170
11.91667,169
11.92500,167
11.93333,166
11.94167,165
11.95000,163
11.95833,162
11.96667,161
11.97500,160
11.98333,159
11.99167,158
12.00000,157
12.00833,155
12.01667,154
12.02500,154
12.03333,153
12.04167,152
12.05000,151
12.05833,150
12.06667,149
12.07500,148
12.08333,147
12.09167,146
12.10000,146
12.10833,145
12.11667,144
12.12500,143
12.13333,142
12.14167,141
12.15000,140
12.15833,139
12.16667,138
12.17500,137
12.18333,136
12.19167,136
12.20000,135
12.20833,134
12.21667,133
12.22500,133
12.23333,132
12.24167,131
12.25000,131
12.25833,130
12.26667,129
12.27500,129
12.28333,128
12.29167,128
12.30000,127
12.30833,127
12.31667,126
12.32500,126
12.33333,126
12.34167,126
12.35000,125
12.35833,125
12.36667,124
12.37500,124
12.38333,123
12.39167,123
12.40000,122
12.40833,122
12.41667,121
12.42500,121
12.43333,121
12.44167,121
12.45000,121
12.45833,120
12.46667,120
12.47500,119
12.48333,119
12.49167,118
12.50000,118
12.50833,117
12.51667,117
12.52500,116
12.53333,116
12.54167,116
12.55000,116
12.55833,116
12.56667,115
12.57500,115
12.58333,114
12.59167,113
12.60000,112
12.60833,111
12.61667,111
12.62500,110
12.63333,110
12.64167,109
12.65000,109
12.65833,109
12.66667,109
12.67500,109
12.68333,109
12.69167,108
12.70000,108
12.70833,108
12.71667,107
12.72500,107
12.73333,106
12.74167,106
12.75000,105
12.75833,105
12.76667,105
12.77500,104
12.78333,104
12.79167,104
12.80000,103
12.80833,103
12.81667,103
12.82500,103
12.83333,104
12.84167,104
12.85000,104
12.85833,104
12.86667,104
12.87500,104
12.88333,104
12.89167,105
12.90000,105
12.90833,105
12.91667,105
12.92500,105
12.93333,105
12.94167,105
12.95000,106
12.95833,106
12.96667,106
12.97500,105
12.98333,105
12.99167,105
13.00000,105
13.00833,105
13.01667,105
13.02500,105
13.03333,105
13.04167,105
13.05000,105
13.05833,105
13.06667,106
13.07500,106
13.08333,106
13.09167,106
13.10000,105
13.10833,105
13.11667,105
13.12500,105
13.13333,105
13.14167,105
13.15000,105
13.15833,105
13.16667,105
13.17500,104
13.18333,104
13.19167,104
13.20000,104
13.20833,104
13.21667,104
13.22500,103
13.23333,103
13.24167,102
13.25000,102
13.25833,102
13.26667,101
13.27500,100
13.28333,100
13.29167,100
13.30000,99
13.30833,99
13.31667,99
13.32500,98
13.33333,98
13.34167,97
13.35000,95
13.35833,95
13.36667,94
13.37500,93
13.38333,92
13.39167,92
13.40000,91
13.40833,90
13.41667,90
13.42500,89
13.43333,88
13.44167,88
13.45000,87
13.45833,87
13.46667,86
13.47500,86
13.48333,85
13.49167,85
13.50000,85
13.50833,84
13.51667,83
13.52500,82
13.53333,82
13.54167,81
13.55000,81
13.55833,81
13.56667,80
13.57500,79
13.58333,79
13.59167,78
13.60000,77
13.60833,77
13.61667,76
13.62500,76
13.63333,76
13.64167,76
13.65000,76
13.65833,76
13.66667,75
13.67500,75
13.68333,75
13.69167,75
13.70000,74
13.70833,74
13.71667,74
13.72500,74
13.73333,74
13.74167,74
13.75000,75
13.75833,75
13.76667,75
13.77500,74
13.78333,74
13.79167,74
13.80000,74
13.80833,73
13.81667,73
13.82500,73
13.83333,74
13.84167,74
13.85000,74
13.85833,75
13.86667,75
13.87500,75
13.88333,75
13.89167,75
13.90000,75
13.90833,75
13.91667,75
13.92500,75
13.93333,75
13.94167,75
13.95000,75
13.95833,76
13.96667,76
13.97500,76
13.98333,76
13.99167,77
14.00000,77
14.00833,77
14.01667,77
14.02500,78
14.03333,78
14.04167,79
14.05000,79
14.05833,80
14.06667,80
14.07500,81
14.08333,82
14.09167,83
14.10000,83
14.10833,84
14.11667,85
14.12500,86
14.13333,87
14.14167,89
14.15000,90
14.15833,93
14.16667,95
14.17500,97
14.18333,101
14.19167,105
14.20000,110
14.20833,115
14.21667,122
14.22500,130
14.23333,141
14.24167,153
14.25000,168
14.25833,186
14.26667,207
14.27500,233
14.28333,264
14.29167,301
14.30000,345
14.30833,397
14.31667,458
14.32500,530
14.33333,613
14.34167,711
14.35000,823
14.35833,951
14.36667,1099
14.37500,1266
14.38333,1456
14.39167,1669
14.40000,1907
14.40833,2172
14.41667,2466
14.42500,2790
14.43333,3145
14.44167,3532
14.45000,3953
14.45833,4408
14.46667,4899
14.47500,5426
14.48333,5990
14.49167,6590
14.50000,7227
14.50833,7902
14.51667,8614
14.52500,9363
14.53333,10149
14.54167,10971
14.55000,11830
14.55833,12724
14.56667,13654
14.57500,14618
14.58333,15617
14.59167,16649
14.60000,17714
14.60833,18811
14.61667,19940
14.62500,21100
14.63333,22291
14.64167,23512
14.65000,24761
14.65833,26039
14.66667,27345
14.67500,28679
14.68333,30039
14.69167,31426
14.70000,32839
14.70833,34277
14.71667,35740
14.72500,37228
14.73333,38739
14.74167,40275
14.75000,41833
14.75833,43415
14.76667,45019
14.77500,46645
14.78333,48293
14.79167,49963
14.80000,51654
14.80833,53365
14.81667,55096
14.82500,56847
14.83333,58617
14.84167,60405
14.85000,62211
14.85833,64033
14.86667,65871
14.87500,67724
14.88333,69591
14.89167,71469
14.90000,73357
14.90833,75252
14.91667,77151
14.92500,79049
14.93333,80940
14.94167,82816
14.95000,84666
14.95833,86475
14.96667,88221
14.97500,89879
14.98333,91416
14.99167,92794
15.00000,93967
15.00833,94886
15.01667,95498
15.02500,95750
15.03333,95594
15.04167,94987
15.05000,93896
15.05833,92303
15.06667,90204
15.07500,87612
15.08333,84557
15.09167,81085
15.10000,77254
15.10833,73134
15.11667,68800
15.12500,64332
15.13333,59806
15.14167,55294
15.15000,50864
15.15833,46573
15.16667,42467
15.17500,38583
15.18333,34946
15.19167,31575
15.20000,28475
15.20833,25648
15.21667,23089
15.22500,20790
15.23333,18737
15.24167,16917
15.25000,15314
15.25833,13912
15.26667,12696
15.27500,11653
15.28333,10768
15.29167,10030
15.30000,9427
15.30833,8951
15.31667,8593
15.32500,8345
15.33333,8202
15.34167,8157
15.35000,8208
15.35833,8349
15.36667,8577
15.37500,8889
15.38333,9280
15.39167,9747
15.40000,10288
15.40833,10897
15.41667,11570
15.42500,12303
15.43333,13090
15.44167,13925
15.45000,14801
15.45833,15713
15.46667,16652
15.47500,17610
15.48333,18580
15.49167,19552
15.50000,20518
15.50833,21469
15.51667,22396
15.52500,23289
15.53333,24143
15.54167,24946
15.55000,25693
15.55833,26376
15.56667,26990
15.57500,27528
15.58333,27985
15.59167,28359
15.60000,28646
15.60833,28845
15.61667,28954
15.62500,28974
15.63333,28905
15.64167,28750
15.65000,28511
15.65833,28191
15.66667,27795
15.67500,27328
15.68333,26794
15.69167,26200
15.70000,25551
15.70833,24853
15.71667,24112
15.72500,23336
15.73333,22529
15.74167,21699
15.75000,20852
15.75833,19993
15.76667,19127
15.77500,18260
15.78333,17396
15.79167,16541
15.80000,15698
15.80833,14870
15.81667,14061
15.82500,13273
15.83333,12508
15.84167,11769
15.85000,11058
15.85833,10375
15.86667,9721
15.87500,9098
15.88333,8505
15.89167,7942
15.90000,7409
15.90833,6906
15.91667,6432
15.92500,5986
15.93333,5568
15.94167,5177
15.95000,4811
15.95833,4471
15.96667,4153
15.97500,3859
15.98333,3585
15.99167,3332
16.00000,3098
16.00833,2881
16.01667,2681
16.02500,2497
16.03333,2327
16.04167,2170
16.05000,2027
16.05833,1895
16.06667,1774
16.07500,1663
16.08333,1560
16.09167,1467
16.10000,1381
16.10833,1302
16.11667,1230
16.12500,1164
16.13333,1104
16.14167,1048
16.15000,998
16.15833,951
16.16667,908
16.17500,869
16.18333,833
16.19167,800
16.20000,770
16.20833,741
16.21667,716
16.22500,692
16.23333,670
16.24167,650
16.25000,631
16.25833,614
16.26667,598
16.27500,582
16.28333,568
16.29167,555
16.30000,542
16.30833,531
16.31667,520
16.32500,510
16.33333,500
16.34167,491
16.35000,482
16.35833,474
16.36667,466
16.37500,459
16.38333,452
16.39167,446
16.40000,440
16.40833,434
16.41667,429
16.42500,423
16.43333,418
16.44167,413
16.45000,409
16.45833,405
16.46667,401
16.47500,397
16.48333,392
16.49167,389
16.50000,385
16.50833,382
16.51667,378
16.52500,375
16.53333,372
16.54167,369
16.55000,366
16.55833,363
16.56667,360
16.57500,357
16.58333,355
16.59167,352
16.60000,349
16.60833,347
16.61667,345
16.62500,343
16.63333,341
16.64167,339
16.65000,337
16.65833,335
16.66667,332
16.67500,330
16.68333,329
16.69167,327
16.70000,325
16.70833,323
16.71667,321
16.72500,320
16.73333,318
16.74167,316
16.75000,314
16.75833,313
16.76667,311
16.77500,309
16.78333,307
16.79167,305
16.80000,304
16.80833,302
16.81667,301
16.82500,299
16.83333,297
16.84167,295
16.85000,293
16.85833,291
16.86667,290
16.87500,289
16.88333,287
16.89167,286
16.90000,284
16.90833,283
16.91667,282
16.92500,280
16.93333,279
16.94167,278
16.95000,276
16.95833,275
16.96667,273
16.97500,271
16.98333,270
16.99167,269
17.00000,267
17.00833,266
17.01667,264
17.02500,263
17.03333,262
17.04167,261
17.05000,259
17.05833,259
17.06667,258
17.07500,256
17.08333,255
17.09167,254
17.10000,253
17.10833,252
17.11667,250
17.12500,249
17.13333,247
17.14167,246
17.15000,245
17.15833,244
17.16667,243
17.17500,242
17.18333,241
17.19167,239
17.20000,238
17.20833,237
17.21667,236
17.22500,235
17.23333,234
17.24167,233
17.25000,232
17.25833,231
17.26667,231
17.27500,229
17.28333,228
17.29167,227
17.30000,226
17.30833,225
17.31667,224
17.32500,223
17.33333,222
17.34167,221
17.35000,220
17.35833,219
17.36667,218
17.37500,217
17.38333,216
17.39167,215
17.40000,213
17.40833,212
17.41667,211
17.42500,211
17.43333,210
17.44167,209
17.45000,209
17.45833,208
17.46667,208
17.47500,207
17.48333,205
17.49167,205
17.50000,204
17.50833,203
17.51667,202
17.52500,201
17.53333,201
17.54167,200
17.55000,199
17.55833,198
17.56667,198
17.57500,197
17.58333,196
17.59167,195
17.60000,194
17.60833,194
17.61667,193
17.62500,192
17.63333,191
17.64167,190
17.65000,190
17.65833,189
17.66667,188
17.67500,187
17.68333,187
17.69167,186
17.70000,186
17.70833,185
17.71667,184
17.72500,183
17.73333,183
17.74167,182
17.75000,181
17.75833,180
17.76667,179
17.77500,178
17.78333,177
17.79167,177
17.80000,176
17.80833,175
17.81667,175
17.82500,174
17.83333,174
17.84167,174
17.85000,173
17.85833,172
17.86667,171
17.87500,171
17.88333,170
17.89167,170
17.90000,169
17.90833,169
17.91667,168
17.92500,168
17.93333,167
17.94167,166
17.95000,166
17.95833,166
17.96667,165
17.97500,164
17.98333,163
17.99167,162
18.00000,161
18.00833,161
18.01667,160
18.02500,159
18.03333,159
18.04167,158
18.05000,158
18.05833,157
18.06667,157
18.07500,157
18.08333,156
18.09167,156
18.10000,155
18.10833,154
18.11667,154
18.12500,153
18.13333,153
18.14167,152
18.15000,152
18.15833,151
18.16667,151
18.17500,150
18.18333,150
18.19167,149
18.20000,149
18.20833,148
18.21667,148
18.22500,147
18.23333,146
18.24167,145
18.25000,144
18.25833,143
18.26667,143
18.27500,143
18.28333,143
18.29167,142
18.30000,142
18.30833,142
18.31667,142
18.32500,141
18.33333,141
18.34167,140
18.35000,139
18.35833,139
18.36667,138
18.37500,138
18.38333,137
18.39167,137
18.40000,136
18.40833,136
18.41667,135
18.42500,134
18.43333,134
18.44167,134
18.45000,133
18.45833,133
18.46667,133
18.47500,133
18.48333,133
18.49167,133
18.50000,132
18.50833,132
18.51667,132
18.52500,131
18.53333,131
18.54167,131
18.55000,131
18.55833,131
18.56667,130
18.57500,131
18.58333,131
18.59167,131
18.60000,130
18.60833,130
18.61667,130
18.62500,130
18.63333,130
18.64167,130
18.65000,130
18.65833,130
18.66667,131
18.67500,132
18.68333,132
18.69167,133
18.70000,134
18.70833,135
18.71667,137
18.72500,139
18.73333,140
18.74167,142
18.75000,144
18.75833,145
18.76667,147
18.77500,150
18.78333,152
18.79167,154
18.80000,157
18.80833,160
18.81667,162
18.82500,165
18.83333,167
18.84167,170
18.85000,172
18.85833,175
18.86667,178
18.87500,180
18.88333,183
18.89167,185
18.90000,187
18.90833,190
18.91667,192
18.92500,194
18.93333,195
18.94167,197
18.95000,198
18.95833,199
18.96667,199
18.97500,199
18.98333,200
18.99167,200
19.00000,199
19.00833,198
19.01667,197
19.02500,196
19.03333,194
19.04167,193
19.05000,191
19.05833,189
19.06667,187
19.07500,185
19.08333,183
19.09167,180
19.10000,178
19.10833,175
19.11667,172
19.12500,170
19.13333,167
19.14167,164
19.15000,160
19.15833,157
19.16667,154
19.17500,151
19.18333,148
19.19167,146
19.20000,143
19.20833,141
19.21667,138
19.22500,136
19.23333,134
19.24167,132
19.25000,131
19.25833,129
19.26667,127
19.27500,125
19.28333,124
19.29167,122
19.30000,121
19.30833,119
19.31667,118
19.32500,117
19.33333,116
19.34167,115
19.35000,114
19.35833,113
19.36667,112
19.37500,112
19.38333,111
19.39167,110
19.40000,109
19.40833,108
19.41667,107
19.42500,106
19.43333,105
19.44167,104
19.45000,104
19.45833,103
19.46667,103
19.47500,103
19.48333,102
19.49167,102
19.50000,102
19.50833,102
19.51667,101
19.52500,101
19.53333,101
19.54167,101
19.55000,100
19.55833,100
19.56667,100
19.57500,100
19.58333,100
19.59167,100
19.60000,100
19.60833,99
19.61667,98
19.62500,98
19.63333,98
19.64167,97
19.65000,97
19.65833,96
19.66667,96
19.67500,96
19.68333,96
19.69167,95
19.70000,95
19.70833,95
19.71667,95
19.72500,95
19.73333,96
19.74167,96
19.75000,96
19.75833,96
19.76667,96
19.77500,96
19.78333,96
19.79167,96
19.80000,95
19.80833,94
19.81667,94
19.82500,94
19.83333,93
19.84167,92
19.85000,92
19.85833,91
19.86667,91
19.87500,91
19.88333,91
19.89167,91
19.90000,91
19.90833,91
19.91667,91
19.92500,91
19.93333,91
19.94167,91
19.95000,91
19.95833,91
19.96667,91
19.97500,91
19.98333,91
19.99167,91
20.00000,91
20.00833,90
20.01667,90
20.02500,89
20.03333,89
20.04167,89
20.05000,89
20.05833,89
20.06667,89
20.07500,89
20.08333,89
20.09167,88
20.10000,88
20.10833,88
20.11667,88
20.12500,88
20.13333,87
20.14167,87
20.15000,87
20.15833,87
20.16667,87
20.17500,87
20.18333,88
20.19167,88
20.20000,87
20.20833,87
20.21667,87
20.22500,87
20.23333,86
20.24167,86
20.25000,86
20.25833,86
20.26667,86
20.27500,86
20.28333,86
20.29167,86
20.30000,86
20.30833,86
20.31667,86
20.32500,86
20.33333,85
20.34167,85
20.35000,85
20.35833,84
20.36667,84
20.37500,84
20.38333,84
20.39167,84
20.40000,84
20.40833,84
20.41667,84
20.42500,85
20.43333,84
20.44167,84
20.45000,84
20.45833,84
20.46667,84
20.47500,84
20.48333,84
20.49167,83
20.50000,83
20.50833,82
20.51667,82
20.52500,82
20.53333,83
20.54167,83
20.55000,83
20.55833,83
20.56667,83
20.57500,83
20.58333,83
20.59167,82
20.60000,82
20.60833,82
20.61667,82
20.62500,82
20.63333,82
20.64167,82
20.65000,82
20.65833,81
20.66667,81
20.67500,81
20.68333,81
20.69167,80
20.70000,80
20.70833,80
20.71667,80
20.72500,80
20.73333,80
20.74167,80
20.75000,80
20.75833,80
20.76667,80
20.77500,80
20.78333,80
20.79167,80
20.80000,80
20.80833,79
20.81667,79
20.82500,79
20.83333,79
20.84167,79
20.85000,79
20.85833,79
20.86667,79
20.87500,79
20.88333,78
20.89167,78
20.90000,78
20.90833,78
20.91667,78
20.92500,78
20.93333,78
20.94167,77
20.95000,77
20.95833,77
20.96667,77
20.97500,78
20.98333,78
20.99167,78
21.00000,77
21.00833,77
21.01667,77
21.02500,77
21.03333,77
21.04167,78
21.05000,77
21.05833,77
21.06667,77
21.07500,77
21.08333,77
21.09167,77
21.10000,77
21.10833,76
21.11667,76
21.12500,76
21.13333,77
21.14167,77
21.15000,77
21.15833,77
21.16667,76
21.17500,76
21.18333,75
21.19167,75
21.20000,75
21.20833,76
21.21667,76
21.22500,76
21.23333,76
21.24167,76
21.25000,76
21.25833,76
21.26667,76
21.27500,76
21.28333,76
21.29167,76
21.30000,76
21.30833,76
21.31667,76
21.32500,76
21.33333,76
21.34167,77
21.35000,76
21.35833,76
21.36667,76
21.37500,76
21.38333,76
21.39167,76
21.40000,76
21.40833,75
21.41667,76
21.42500,76
21.43333,76
21.44167,76
21.45000,76
21.45833,76
21.46667,76
21.47500,75
21.48333,75
21.49167,75
21.50000,75
21.50833,75
21.51667,75
21.52500,75
21.53333,75
21.54167,75
21.55000,75
21.55833,75
21.56667,76
21.57500,76
21.58333,75
21.59167,75
21.60000,76
21.60833,76
21.61667,76
21.62500,76
21.63333,76
21.64167,76
21.65000,76
21.65833,76
21.66667,76
21.67500,76
21.68333,76
21.69167,76
21.70000,77
21.70833,77
21.71667,77
21.72500,77
21.73333,77
21.74167,76
21.75000,77
21.75833,77
21.76667,77
21.77500,77
21.78333,77
21.79167,77
21.80000,77
21.80833,77
21.81667,77
21.82500,78
21.83333,78
21.84167,78
21.85000,77
21.85833,77
21.86667,77
21.87500,77
21.88333,77
21.89167,77
21.90000,77
21.90833,77
21.91667,77
21.92500,77
21.93333,77
21.94167,77
21.95000,77
21.95833,77
21.96667,77
21.97500,77
21.98333,77
21.99167,77
22.00000,76
22.00833,76
22.01667,76
22.02500,76
22.03333,76
22.04167,76
22.05000,76
22.05833,76
22.06667,76
22.07500,75
22.08333,75
22.09167,75
22.10000,74
22.10833,74
22.11667,74
22.12500,74
22.13333,74
22.14167,74
22.15000,74
22.15833,74
22.16667,74
22.17500,74
22.18333,74
22.19167,74
22.20000,74
22.20833,74
22.21667,74
22.22500,74
22.23333,74
22.24167,74
22.25000,74
22.25833,74
22.26667,73
22.27500,73
22.28333,73
22.29167,72
22.30000,72
22.30833,72
22.31667,72
22.32500,72
22.33333,72
22.34167,73
22.35000,73
22.35833,73
22.36667,73
22.37500,73
22.38333,72
22.39167,72
22.40000,72
22.40833,73
22.41667,73
22.42500,73
22.43333,73
22.44167,73
22.45000,73
22.45833,73
22.46667,73
22.47500,73
22.48333,72
22.49167,72
22.50000,72
22.50833,73
22.51667,73
22.52500,73
22.53333,73
22.54167,72
22.55000,72
22.55833,72
22.56667,72
22.57500,72
22.58333,72
22.59167,72
22.60000,73
22.60833,72
22.61667,72
22.62500,72
22.63333,72
22.64167,72
22.65000,72
22.65833,72
22.66667,72
22.67500,71
22.68333,71
22.69167,71
22.70000,71
22.70833,71
22.71667,72
22.72500,72
22.73333,72
22.74167,72
22.75000,72
22.75833,72
22.76667,72
22.77500,72
22.78333,72
22.79167,72
22.80000,72
22.80833,73
22.81667,73
22.82500,73
22.83333,73
22.84167,74
22.85000,74
22.85833,74
22.86667,74
22.87500,75
22.88333,75
22.89167,75
22.90000,75
22.90833,75
22.91667,75
22.92500,75
22.93333,76
22.94167,77
22.95000,77
22.95833,78
22.96667,78
22.97500,79
22.98333,80
22.99167,80
23.00000,81
23.00833,81
23.01667,82
23.02500,82
23.03333,83
23.04167,83
23.05000,84
23.05833,84
23.06667,84
23.07500,85
23.08333,86
23.09167,86
23.10000,87
23.10833,87
23.11667,87
23.12500,88
23.13333,88
23.14167,89
23.15000,90
23.15833,90
23.16667,91
23.17500,91
23.18333,91
23.19167,91
23.20000,92
23.20833,92
23.21667,92
23.22500,92
23.23333,91
23.24167,92
23.25000,92
23.25833,91
23.26667,91
23.27500,90
23.28333,89
23.29167,89
23.30000,89
23.30833,88
23.31667,88
23.32500,88
23.33333,87
23.34167,87
23.35000,86
23.35833,86
23.36667,85
23.37500,85
23.38333,85
23.39167,85
23.40000,85
23.40833,85
23.41667,84
23.42500,84
23.43333,83
23.44167,83
23.45000,82
23.45833,82
23.46667,81
23.47500,80
23.48333,79
23.49167,78
23.50000,78
23.50833,77
23.51667,77
23.52500,77
23.53333,77
23.54167,77
23.55000,77
23.55833,76
23.56667,76
23.57500,75
23.58333,75
23.59167,74
23.60000,74
23.60833,73
23.61667,73
23.62500,72
23.63333,72
23.64167,72
23.65000,72
23.65833,73
23.66667,73
23.67500,72
23.68333,72
23.69167,72
23.70000,72
23.70833,71
23.71667,71
23.72500,71
23.73333,71
23.74167,71
23.75000,71
23.75833,71
23.76667,71
23.77500,71
23.78333,71
23.79167,71
23.80000,71
23.80833,71
23.81667,71
23.82500,71
23.83333,71
23.84167,71
23.85000,71
23.85833,71
23.86667,71
23.87500,71
23.88333,71
23.89167,71
23.90000,71
23.90833,70
23.91667,70
23.92500,70
23.93333,70
23.94167,70
23.95000,70
23.95833,70
23.96667,71
23.97500,71
23.98333,71
23.99167,71
24.00000,70
24.00833,70
24.01667,70
24.02500,70
24.03333,70
24.04167,71
24.05000,71
24.05833,71
24.06667,71
24.07500,71
24.08333,71
24.09167,71
24.10000,70
24.10833,70
24.11667,70
24.12500,70
24.13333,70
24.14167,70
24.15000,70
24.15833,70
24.16667,71
24.17500,71
24.18333,71
24.19167,71
24.20000,72
24.20833,72
24.21667,72
24.22500,72
24.23333,71
24.24167,71
24.25000,71
24.25833,71
24.26667,71
24.27500,72
24.28333,72
24.29167,71
24.30000,72
24.30833,71
24.31667,71
24.32500,71
24.33333,71
24.34167,71
24.35000,71
24.35833,71
24.36667,71
24.37500,71
24.38333,72
24.39167,72
24.40000,72
24.40833,72
24.41667,72
24.42500,72
24.43333,72
24.44167,73
24.45000,73
24.45833,73
24.46667,73
24.47500,74
24.48333,74
24.49167,74
24.50000,74
24.50833,75
24.51667,75
24.52500,76
24.53333,76
24.54167,77
24.55000,78
24.55833,78
24.56667,79
24.57500,79
24.58333,80
24.59167,81
24.60000,82
24.60833,83
24.61667,84
24.62500,85
24.63333,87
24.64167,88
24.65000,90
24.65833,92
24.66667,93
24.67500,95
24.68333,97
24.69167,99
24.70000,101
24.70833,104
24.71667,107
24.72500,109
24.73333,112
24.74167,115
24.75000,119
24.75833,122
24.76667,126
24.77500,130
24.78333,134
24.79167,138
24.80000,141
24.80833,145
24.81667,150
24.82500,154
24.83333,158
24.84167,163
24.85000,167
24.85833,171
24.86667,175
24.87500,179
24.88333,183
24.89167,188
24.90000,192
24.90833,196
24.91667,200
24.92500,204
24.93333,207
24.94167,211
24.95000,214
24.95833,218
24.96667,220
24.97500,223
24.98333,225
24.99167,227
25.00000,229
25.00833,231
25.01667,232
25.02500,232
25.03333,233
25.04167,233
25.05000,233
25.05833,232
25.06667,231
25.07500,230
25.08333,228
25.09167,227
25.10000,225
25.10833,223
25.11667,220
25.12500,218
25.13333,215
25.14167,212
25.15000,209
25.15833,206
25.16667,202
25.17500,198
25.18333,195
25.19167,191
25.20000,187
25.20833,183
25.21667,180
25.22500,175
25.23333,171
25.24167,167
25.25000,163
25.25833,159
25.26667,155
25.27500,151
25.28333,147
25.29167,143
25.30000,140
25.30833,136
25.31667,133
25.32500,130
25.33333,127
25.34167,124
25.35000,121
25.35833,118
25.36667,115
25.37500,113
25.38333,111
25.39167,108
25.40000,106
25.40833,104
25.41667,102
25.42500,100
25.43333,99
25.44167,97
25.45000,95
25.45833,94
25.46667,93
25.47500,91
25.48333,90
25.49167,89
25.50000,88
25.50833,86
25.51667,86
25.52500,85
25.53333,84
25.54167,83
25.55000,83
25.55833,82
25.56667,82
25.57500,81
25.58333,81
25.59167,80
25.60000,80
25.60833,80
25.61667,80
25.62500,80
25.63333,79
25.64167,79
25.65000,79
25.65833,79
25.66667,79
25.67500,79
25.68333,78
25.69167,78
25.70000,78
25.70833,78
25.71667,78
25.72500,78
25.73333,78
25.74167,78
25.75000,78
25.75833,78
25.76667,78
25.77500,78
25.78333,78
25.79167,78
25.80000,78
25.80833,78
25.81667,78
25.82500,78
25.83333,78
25.84167,78
25.85000,78
25.85833,78
25.86667,78
25.87500,77
25.88333,77
25.89167,77
25.90000,77
25.90833,77
25.91667,77
25.92500,77
25.93333,77
25.94167,77
25.95000,77
25.95833,78
25.96667,78
25.97500,78
25.98333,78
25.99167,78
26.00000,78
26.00833,78
26.01667,78
26.02500,78
26.03333,78
26.04167,78
26.05000,78
26.05833,78
26.06667,78
26.07500,78
26.08333,78
26.09167,78
26.10000,78
26.10833,78
26.11667,78
26.12500,78
26.13333,77
26.14167,78
26.15000,78
26.15833,78
26.16667,78
26.17500,78
26.18333,79
26.19167,79
26.20000,79
26.20833,79
26.21667,79
26.22500,79
26.23333,78
26.24167,78
26.25000,78
26.25833,78
26.26667,78
26.27500,78
26.28333,78
26.29167,78
26.30000,78
26.30833,78
26.31667,78
26.32500,78
26.33333,78
26.34167,78
26.35000,78
26.35833,78
26.36667,78
26.37500,78
26.38333,79
26.39167,79
26.40000,79
26.40833,79
26.41667,79
26.42500,79
26.43333,79
26.44167,79
26.45000,79
26.45833,79
26.46667,79
26.47500,79
26.48333,79
26.49167,79
26.50000,79
26.50833,79
26.51667,79
26.52500,79
26.53333,79
26.54167,79
26.55000,79
26.55833,79
26.56667,80
26.57500,80
26.58333,80
26.59167,80
26.60000,80
26.60833,80
26.61667,80
26.62500,80
26.63333,80
26.64167,80
26.65000,80
26.65833,80
26.66667,80
26.67500,80
26.68333,80
26.69167,80
26.70000,80
26.70833,80
26.71667,80
26.72500,80
26.73333,80
26.74167,80
26.75000,80
26.75833,80
26.76667,81
26.77500,80
26.78333,80
26.79167,80
26.80000,80
26.80833,80
26.81667,80
26.82500,80
26.83333,80
26.84167,80
26.85000,80
26.85833,80
26.86667,80
26.87500,80
26.88333,80
26.89167,80
26.90000,80
26.90833,80
26.91667,80
26.92500,80
26.93333,80
26.94167,80
26.95000,80
26.95833,80
26.96667,80
26.97500,80
26.98333,80
26.99167,80
27.00000,80
27.00833,80
27.01667,81
27.02500,81
27.03333,81
27.04167,81
27.05000,82
27.05833,82
27.06667,82
27.07500,82
27.08333,82
27.09167,81
27.10000,81
27.10833,81
27.11667,81
27.12500,81
27.13333,81
27.14167,81
27.15000,81
27.15833,81
27.16667,82
27.17500,82
27.18333,82
27.19167,83
27.20000,83
27.20833,83
27.21667,83
27.22500,83
27.23333,83
27.24167,83
27.25000,83
27.25833,83
27.26667,83
27.27500,83
27.28333,83
27.29167,83
27.30000,83
27.30833,83
27.31667,83
27.32500,83
27.33333,83
27.34167,83
27.35000,84
27.35833,84
27.36667,84
27.37500,84
27.38333,84
27.39167,85
27.40000,85
27.40833,85
27.41667,84
27.42500,84
27.43333,84
27.44167,84
27.45000,85
27.45833,85
27.46667,85
27.47500,85
27.48333,84
27.49167,84
27.50000,84
27.50833,84
27.51667,84
27.52500,84
27.53333,84
27.54167,84
27.55000,84
27.55833,84
27.56667,85
27.57500,84
27.58333,84
27.59167,84
27.60000,84
27.60833,84
27.61667,84
27.62500,84
27.63333,84
27.64167,84
27.65000,84
27.65833,84
27.66667,83
27.67500,83
27.68333,82
27.69167,82
27.70000,82
27.70833,82
27.71667,81
27.72500,81
27.73333,80
27.74167,80
27.75000,79
27.75833,79
27.76667,78
27.77500,77
27.78333,77
27.79167,76
27.80000,75
27.80833,74
27.81667,72
27.82500,71
27.83333,69
27.84167,68
27.85000,66
27.85833,64
27.86667,62
27.87500,60
27.88333,57
27.89167,54
27.90000,51
27.90833,48
27.91667,45
27.92500,42
27.93333,38
27.94167,34
27.95000,30
27.95833,25
27.96667,19
27.97500,14
27.98333,9
27.99167,3
28.00000,-3
28.00833,-10
28.01667,-16
28.02500,-24
28.03333,-32
28.04167,-41
28.05000,-49
28.05833,-59
28.06667,-68
28.07500,-79
28.08333,-89
28.09167,-101
28.10000,-112
28.10833,-124
28.11667,-136
28.12500,-149
28.13333,-162
28.14167,-175
28.15000,-188
28.15833,-202
28.16667,-217
28.17500,-231
28.18333,-246
28.19167,-261
28.20000,-277
28.20833,-294
28.21667,-310
28.22500,-326
28.23333,-342
28.24167,-359
28.25000,-375
28.25833,-392
28.26667,-409
28.27500,-426
28.28333,-443
28.29167,-460
28.30000,-477
28.30833,-493
28.31667,-509
28.32500,-525
28.33333,-541
28.34167,-555
28.35000,-570
28.35833,-584
28.36667,-598
28.37500,-611
28.38333,-624
28.39167,-636
28.40000,-648
28.40833,-659
28.41667,-670
28.42500,-680
28.43333,-689
28.44167,-697
28.45000,-704
28.45833,-711
28.46667,-718
28.47500,-723
28.48333,-728
28.49167,-732
28.50000,-735
28.50833,-737
28.51667,-739
28.52500,-740
28.53333,-740
28.54167,-739
28.55000,-738
28.55833,-736
28.56667,-733
28.57500,-729
28.58333,-725
28.59167,-720
28.60000,-714
28.60833,-708
28.61667,-702
28.62500,-695
28.63333,-688
28.64167,-680
28.65000,-672
28.65833,-663
28.66667,-654
28.67500,-645
28.68333,-636
28.69167,-627
28.70000,-617
28.70833,-607
28.71667,-597
28.72500,-587
28.73333,-577
28.74167,-567
28.75000,-557
28.75833,-546
28.76667,-536
28.77500,-526
28.78333,-516
28.79167,-505
28.80000,-495
28.80833,-485
28.81667,-476
28.82500,-466
28.83333,-457
28.84167,-448
28.85000,-439
28.85833,-430
28.86667,-422
28.87500,-414
28.88333,-405
28.89167,-397
28.90000,-390
28.90833,-382
28.91667,-375
28.92500,-368
28.93333,-361
28.94167,-354
28.95000,-348
28.95833,-342
28.96667,-336
28.97500,-330
28.98333,-324
28.99167,-319
29.00000,-315
29.00833,-310
29.01667,-306
29.02500,-301
29.03333,-297
29.04167,-293
29.05000,-289
29.05833,-285
29.06667,-282
29.07500,-278
29.08333,-275
29.09167,-272
29.10000,-269
29.10833,-267
29.11667,-264
29.12500,-261
29.13333,-258
29.14167,-255
29.15000,-253
29.15833,-251
29.16667,-249
29.17500,-247
29.18333,-245
29.19167,-243
29.20000,-242
29.20833,-241
29.21667,-239
29.22500,-238
29.23333,-236
29.24167,-235
29.25000,-233
29.25833,-233
29.26667,-232
29.27500,-231
29.28333,-230
29.29167,-229
29.30000,-228
29.30833,-228
29.31667,-227
29.32500,-226
29.33333,-225
29.34167,-225
29.35000,-224
29.35833,-223
29.36667,-222
29.37500,-222
29.38333,-221
29.39167,-221
29.40000,-220
29.40833,-220
29.41667,-220
29.42500,-220
29.43333,-219
29.44167,-219
29.45000,-219
29.45833,-219
29.46667,-219
29.47500,-219
29.48333,-219
29.49167,-219
29.50000,-219
29.50833,-219
29.51667,-219
29.52500,-219
29.53333,-219
29.54167,-219
29.55000,-220
29.55833,-221
29.56667,-221
29.57500,-222
29.58333,-223
29.59167,-224
29.60000,-225
29.60833,-226
29.61667,-227
29.62500,-228
29.63333,-229
29.64167,-230
29.65000,-232
29.65833,-233
29.66667,-234
29.67500,-235
29.68333,-237
29.69167,-239
29.70000,-241
29.70833,-243
29.71667,-246
29.72500,-249
29.73333,-251
29.74167,-254
29.75000,-256
29.75833,-259
29.76667,-262
29.77500,-265
29.78333,-268
29.79167,-271
29.80000,-275
29.80833,-278
29.81667,-282
29.82500,-285
29.83333,-289
29.84167,-294
29.85000,-298
29.85833,-303
29.86667,-307
29.87500,-312
29.88333,-317
29.89167,-322
29.90000,-327
29.90833,-332
29.91667,-337
29.92500,-342
29.93333,-347
29.94167,-353
29.95000,-358
29.95833,-364
29.96667,-369
29.97500,-375
29.98333,-380
29.99167,-386
30.00000,-391
30.00833,-397
30.01667,-402
30.02500,-408
30.03333,-413
30.04167,-419
30.05000,-425
30.05833,-430
30.06667,-436
30.07500,-441
30.08333,-446
30.09167,-451
30.10000,-456
30.10833,-460
30.11667,-464
30.12500,-469
30.13333,-473
30.14167,-477
30.15000,-480
30.15833,-484
30.16667,-487
30.17500,-490
30.18333,-493
30.19167,-495
30.20000,-498
30.20833,-500
30.21667,-502
30.22500,-504
30.23333,-506
30.24167,-507
30.25000,-508
30.25833,-510
30.26667,-510
30.27500,-511
30.28333,-511
30.29167,-511
30.30000,-511
30.30833,-510
30.31667,-510
30.32500,-509
30.33333,-508
30.34167,-507
30.35000,-505
30.35833,-503
30.36667,-500
30.37500,-498
30.38333,-496
30.39167,-493
30.40000,-491
30.40833,-489
30.41667,-486
30.42500,-483
30.43333,-481
30.44167,-478
30.45000,-474
30.45833,-471
30.46667,-468
30.47500,-464
30.48333,-461
30.49167,-457
30.50000,-453
30.50833,-449
30.51667,-446
30.52500,-442
30.53333,-438
30.54167,-434
30.55000,-431
30.55833,-427
30.56667,-424
30.57500,-421
30.58333,-417
30.59167,-414
30.60000,-411
30.60833,-407
30.61667,-404
30.62500,-401
30.63333,-397
30.64167,-394
30.65000,-390
30.65833,-387
30.66667,-384
30.67500,-381
30.68333,-378
30.69167,-376
30.70000,-374
30.70833,-371
30.71667,-368
30.72500,-366
30.73333,-363
30.74167,-361
30.75000,-359
30.75833,-356
30.76667,-354
30.77500,-352
30.78333,-350
30.79167,-348
30.80000,-346
30.80833,-344
30.81667,-343
30.82500,-341
30.83333,-340
30.84167,-338
30.85000,-337
30.85833,-335
30.86667,-334
30.87500,-332
30.88333,-331
30.89167,-329
30.90000,-328
30.90833,-326
30.91667,-325
30.92500,-323
30.93333,-322
30.94167,-321
30.95000,-320
30.95833,-319
30.96667,-317
30.97500,-316
30.98333,-315
30.99167,-314
31.00000,-313
31.00833,-312
31.01667,-311
31.02500,-310
31.03333,-309
31.04167,-307
31.05000,-306
31.05833,-306
31.06667,-305
31.07500,-304
31.08333,-304
31.09167,-303
31.10000,-302
31.10833,-301
31.11667,-300
31.12500,-298
31.13333,-297
31.14167,-296
31.15000,-295
31.15833,-294
31.16667,-293
31.17500,-292
31.18333,-291
31.19167,-289
31.20000,-288
31.20833,-287
31.21667,-286
31.22500,-285
31.23333,-284
31.24167,-282
31.25000,-281
31.25833,-280
31.26667,-279
31.27500,-278
31.28333,-277
31.29167,-276
31.30000,-275
31.30833,-274
31.31667,-273
31.32500,-272
31.33333,-271
31.34167,-270
31.35000,-268
31.35833,-267
31.36667,-265
31.37500,-265
31.38333,-264
31.39167,-263
31.40000,-261
31.40833,-260
31.41667,-259
31.42500,-257
31.43333,-256
31.44167,-255
31.45000,-254
31.45833,-253
31.46667,-252
31.47500,-250
31.48333,-249
31.49167,-248
31.50000,-247
31.50833,-246
31.51667,-245
31.52500,-244
31.53333,-242
31.54167,-241
31.55000,-240
31.55833,-239
31.56667,-238
31.57500,-237
31.58333,-236
31.59167,-234
31.60000,-233
31.60833,-232
31.61667,-231
31.62500,-230
31.63333,-229
31.64167,-228
31.65000,-227
31.65833,-227
31.66667,-226
31.67500,-225
31.68333,-224
31.69167,-223
31.70000,-222
31.70833,-221
31.71667,-220
31.72500,-219
31.73333,-218
31.74167,-217
31.75000,-216
31.75833,-215
31.76667,-215
31.77500,-214
31.78333,-213
31.79167,-212
31.80000,-211
31.80833,-210
31.81667,-209
31.82500,-209
31.83333,-208
31.84167,-207
31.85000,-206
31.85833,-205
31.86667,-205
31.87500,-204
31.88333,-203
31.89167,-202
31.90000,-202
31.90833,-201
31.91667,-201
31.92500,-200
31.93333,-199
31.94167,-198
31.95000,-197
31.95833,-197
31.96667,-196
31.97500,-195
31.98333,-194
31.99167,-193
32.00000,-192
32.00833,-191
32.01667,-191
32.02500,-190
32.03333,-190
32.04167,-189
32.05000,-189
32.05833,-188
32.06667,-187
32.07500,-186
32.08333,-185
32.09167,-184
32.10000,-183
32.10833,-183
32.11667,-183
32.12500,-182
32.13333,-181
32.14167,-181
32.15000,-180
32.15833,-179
32.16667,-178
32.17500,-178
32.18333,-177
32.19167,-176
32.20000,-176
32.20833,-175
32.21667,-174
32.22500,-174
32.23333,-173
32.24167,-172
32.25000,-171
32.25833,-170
32.26667,-169
32.27500,-168
32.28333,-167
32.29167,-167
32.30000,-166
32.30833,-165
32.31667,-165
32.32500,-164
32.33333,-164
32.34167,-163
32.35000,-162
32.35833,-161
32.36667,-161
32.37500,-160
32.38333,-159
32.39167,-158
32.40000,-158
32.40833,-157
32.41667,-156
32.42500,-155
32.43333,-154
32.44167,-153
32.45000,-152
32.45833,-151
32.46667,-150
32.47500,-150
32.48333,-149
32.49167,-148
32.50000,-147
32.50833,-147
32.51667,-146
32.52500,-145
32.53333,-145
32.54167,-144
32.55000,-143
32.55833,-142
32.56667,-141
32.57500,-141
32.58333,-140
32.59167,-139
32.60000,-139
32.60833,-138
32.61667,-137
32.62500,-137
32.63333,-136
32.64167,-135
32.65000,-134
32.65833,-133
32.66667,-132
32.67500,-131
32.68333,-131
32.69167,-130
32.70000,-129
32.70833,-128
32.71667,-128
32.72500,-127
32.73333,-127
32.74167,-126
32.75000,-125
32.75833,-124
32.76667,-123
32.77500,-122
32.78333,-121
32.79167,-120
32.80000,-120
32.80833,-119
32.81667,-118
32.82500,-118
32.83333,-117
32.84167,-116
32.85000,-115
32.85833,-114
32.86667,-113
32.87500,-113
32.88333,-112
32.89167,-111
32.90000,-110
32.90833,-109
32.91667,-109
32.92500,-108
32.93333,-108
32.94167,-107
32.95000,-107
32.95833,-106
32.96667,-105
32.97500,-105
32.98333,-104
32.99167,-103
33.00000,-102
33.00833,-101
33.01667,-100
33.02500,-100
33.03333,-99
33.04167,-98
33.05000,-97
33.05833,-96
33.06667,-95
33.07500,-94
33.08333,-94
33.09167,-93
33.10000,-92
33.10833,-92
33.11667,-91
33.12500,-91
33.13333,-90
33.14167,-89
33.15000,-89
33.15833,-88
33.16667,-88
33.17500,-87
33.18333,-86
33.19167,-85
33.20000,-85
33.20833,-84
33.21667,-84
33.22500,-83
33.23333,-82
33.24167,-80
33.25000,-79
33.25833,-78
33.26667,-78
33.27500,-77
33.28333,-76
33.29167,-76
33.30000,-75
33.30833,-75
33.31667,-74
33.32500,-74
33.33333,-73
33.34167,-73
33.35000,-72
33.35833,-72
33.36667,-71
33.37500,-71
33.38333,-70
33.39167,-70
33.40000,-69
33.40833,-69
33.41667,-68
33.42500,-67
33.43333,-66
33.44167,-65
33.45000,-64
33.45833,-64
33.46667,-64
33.47500,-63
33.48333,-62
33.49167,-61
33.50000,-60
33.50833,-60
33.51667,-59
33.52500,-59
33.53333,-58
33.54167,-57
33.55000,-56
33.55833,-56
33.56667,-55
33.57500,-55
33.58333,-55
33.59167,-54
33.60000,-54
33.60833,-53
33.61667,-53
33.62500,-52
33.63333,-51
33.64167,-51
33.65000,-50
33.65833,-50
33.66667,-49
33.67500,-48
33.68333,-48
33.69167,-47
33.70000,-47
33.70833,-46
33.71667,-46
33.72500,-45
33.73333,-44
33.74167,-44
33.75000,-44
33.75833,-43
33.76667,-42
33.77500,-42
33.78333,-41
33.79167,-41
33.80000,-40
33.80833,-40
33.81667,-39
33.82500,-38
33.83333,-38
33.84167,-37
33.85000,-36
33.85833,-36
33.86667,-35
33.87500,-34
33.88333,-34
33.89167,-33
33.90000,-33
33.90833,-32
33.91667,-31
33.92500,-31
33.93333,-30
33.94167,-30
33.95000,-30
33.95833,-30
33.96667,-29
33.97500,-29
33.98333,-28
33.99167,-28
34.00000,-27
34.00833,-26
34.01667,-25
34.02500,-24
34.03333,-24
34.04167,-23
34.05000,-22
34.05833,-22
34.06667,-21
34.07500,-21
34.08333,-20
34.09167,-20
34.10000,-20
34.10833,-19
34.11667,-19
34.12500,-19
34.13333,-18
34.14167,-18
34.15000,-18
34.15833,-18
34.16667,-17
34.17500,-17
34.18333,-16
34.19167,-16
34.20000,-16
34.20833,-16
34.21667,-15
34.22500,-15
34.23333,-14
34.24167,-14
34.25000,-14
34.25833,-13
34.26667,-13
34.27500,-12
34.28333,-11
34.29167,-10
34.30000,-10
34.30833,-9
34.31667,-9
34.32500,-8
34.33333,-8
34.34167,-8
34.35000,-8
34.35833,-7
34.36667,-6
34.37500,-6
34.38333,-5
34.39167,-5
34.40000,-4
34.40833,-4
34.41667,-4
34.42500,-3
34.43333,-3
34.44167,-2
34.45000,-2
34.45833,-1
34.46667,-1
34.47500,0
34.48333,1
34.49167,1
34.50000,1
34.50833,1
34.51667,2
34.52500,2
34.53333,2
34.54167,2
34.55000,3
34.55833,3
34.56667,4
34.57500,4
34.58333,4
34.59167,4
34.60000,5
34.60833,5
34.61667,6
34.62500,6
34.63333,7
34.64167,8
34.65000,8
34.65833,8
34.66667,8
34.67500,9
34.68333,9
34.69167,10
34.70000,10
34.70833,11
34.71667,11
34.72500,12
34.73333,12
34.74167,12
34.75000,13
34.75833,13
34.76667,14
34.77500,15
34.78333,15
34.79167,15
34.80000,16
34.80833,16
34.81667,16
34.82500,17
34.83333,17
34.84167,18
34.85000,19
34.85833,19
34.86667,20
34.87500,20
34.88333,20
34.89167,20
34.90000,21
34.90833,22
34.91667,22
34.92500,22
34.93333,23
34.94167,23
34.95000,23
34.95833,23
34.96667,24
34.97500,24
34.98333,25
34.99167,25
35.00000,25
35.00833,25
35.01667,26
35.02500,26
35.03333,27
35.04167,27
35.05000,27
35.05833,28
35.06667,29
35.07500,29
35.08333,30
35.09167,30
35.10000,31
35.10833,31
35.11667,32
35.12500,32
35.13333,33
35.14167,33
35.15000,33
35.15833,33
35.16667,34
35.17500,34
35.18333,35
35.19167,35
35.20000,36
35.20833,36
35.21667,37
35.22500,37
35.23333,37
35.24167,37
35.25000,37
35.25833,38
35.26667,38
35.27500,39
35.28333,39
35.29167,39
35.30000,40
35.30833,41
35.31667,42
35.32500,42
35.33333,42
35.34167,43
35.35000,43
35.35833,43
35.36667,44
35.37500,44
35.38333,45
35.39167,45
35.40000,45
35.40833,45
35.41667,45
35.42500,46
35.43333,46
35.44167,47
35.45000,47
35.45833,48
35.46667,49
35.47500,49
35.48333,50
35.49167,50
35.50000,51
35.50833,51
35.51667,52
35.52500,52
35.53333,52
35.54167,52
35.55000,53
35.55833,53
35.56667,54
35.57500,54
35.58333,54
35.59167,54
35.60000,55
35.60833,55
35.61667,55
35.62500,56
35.63333,56
35.64167,56
35.65000,56
35.65833,57
35.66667,57
35.67500,58
35.68333,59
35.69167,59
35.70000,60
35.70833,60
35.71667,60
35.72500,60
35.73333,61
35.74167,61
35.75000,62
35.75833,62
35.76667,62
35.77500,62
35.78333,62
35.79167,62
35.80000,63
35.80833,63
35.81667,63
35.82500,63
35.83333,64
35.84167,64
35.85000,64
35.85833,65
35.86667,65
35.87500,66
35.88333,66
35.89167,67
35.90000,67
35.90833,67
35.91667,68
35.92500,68
35.93333,68
35.94167,68
35.95000,69
35.95833,69
35.96667,70
35.97500,70
35.98333,71
35.99167,71
36.00000,71
36.00833,71
36.01667,71
36.02500,71
36.03333,71
36.04167,71
36.05000,71
36.05833,72
36.06667,72
36.07500,72
36.08333,72
36.09167,73
36.10000,73
36.10833,73
36.11667,73
36.12500,74
36.13333,74
36.14167,74
36.15000,74
36.15833,75
36.16667,75
36.17500,75
36.18333,75
36.19167,75
36.20000,75
36.20833,75
36.21667,76
36.22500,76
36.23333,76
36.24167,76
36.25000,76
36.25833,77
36.26667,77
36.27500,78
36.28333,78
36.29167,78
36.30000,79
36.30833,79
36.31667,79
36.32500,80
36.33333,80
36.34167,80
36.35000,81
36.35833,81
36.36667,81
36.37500,81
36.38333,81
36.39167,81
36.40000,81
36.40833,81
36.41667,82
36.42500,82
36.43333,82
36.44167,82
36.45000,82
36.45833,82
36.46667,83
36.47500,83
36.48333,83
36.49167,84
36.50000,84
36.50833,84
36.51667,85
36.52500,85
36.53333,86
36.54167,86
36.55000,86
36.55833,87
36.56667,87
36.57500,88
36.58333,88
36.59167,89
36.60000,89
36.60833,90
36.61667,90
36.62500,91
36.63333,91
36.64167,92
36.65000,93
36.65833,94
36.66667,94
36.67500,95
36.68333,96
36.69167,96
36.70000,97
36.70833,97
36.71667,98
36.72500,98
36.73333,99
36.74167,100
36.75000,100
36.75833,101
36.76667,102
36.77500,103
36.78333,103
36.79167,104
36.80000,105
36.80833,106
36.81667,106
36.82500,107
36.83333,107
36.84167,108
36.85000,109
36.85833,109
36.86667,110
36.87500,111
36.88333,111
36.89167,112
36.90000,113
36.90833,113
36.91667,114
36.92500,115
36.93333,116
36.94167,117
36.95000,117
36.95833,118
36.96667,119
36.97500,120
36.98333,120
36.99167,121
37.00000,121
37.00833,121
37.01667,121
37.02500,122
37.03333,122
37.04167,122
37.05000,123
37.05833,124
37.06667,124
37.07500,125
37.08333,125
37.09167,126
37.10000,126
37.10833,127
37.11667,127
37.12500,127
37.13333,128
37.14167,128
37.15000,128
37.15833,129
37.16667,129
37.17500,129
37.18333,129
37.19167,129
37.20000,129
37.20833,129
37.21667,129
37.22500,129
37.23333,129
37.24167,128
37.25000,128
37.25833,127
37.26667,127
37.27500,127
37.28333,126
37.29167,126
37.30000,126
37.30833,126
37.31667,126
37.32500,125
37.33333,125
37.34167,125
37.35000,125
37.35833,124
37.36667,123
37.37500,123
37.38333,122
37.39167,122
37.40000,121
37.40833,121
37.41667,120
37.42500,119
37.43333,119
37.44167,118
37.45000,117
37.45833,116
37.46667,115
37.47500,115
37.48333,114
37.49167,114
37.50000,114
37.50833,113
37.51667,113
37.52500,113
37.53333,112
37.54167,111
37.55000,110
37.55833,110
37.56667,109
37.57500,108
37.58333,108
37.59167,107
37.60000,107
37.60833,106
37.61667,106
37.62500,105
37.63333,104
37.64167,104
37.65000,103
37.65833,103
37.66667,102
37.67500,101
37.68333,101
37.69167,100
37.70000,100
37.70833,99
37.71667,99
37.72500,99
37.73333,99
37.74167,98
37.75000,98
37.75833,97
37.76667,97
37.77500,97
37.78333,97
37.79167,96
37.80000,96
37.80833,96
37.81667,95
37.82500,95
37.83333,94
37.84167,94
37.85000,93
37.85833,93
37.86667,93
37.87500,93
37.88333,92
37.89167,92
37.90000,92
37.90833,92
37.91667,92
37.92500,92
37.93333,92
37.94167,92
37.95000,92
37.95833,92
37.96667,91
37.97500,91
37.98333,91
37.99167,91
38.00000,90
38.00833,90
38.01667,90
38.02500,90
38.03333,90
38.04167,90
38.05000,89
38.05833,89
38.06667,89
38.07500,89
38.08333,89
38.09167,89
38.10000,89
38.10833,89
38.11667,89
38.12500,89
38.13333,89
38.14167,89
38.15000,89
38.15833,88
38.16667,88
38.17500,88
38.18333,88
38.19167,88
38.20000,88
38.20833,88
38.21667,88
38.22500,88
38.23333,89
38.24167,89
38.25000,89
38.25833,89
38.26667,89
38.27500,89
38.28333,88
38.29167,88
38.30000,88
38.30833,88
38.31667,88
38.32500,89
38.33333,89
38.34167,89
38.35000,89
38.35833,89
38.36667,89
38.37500,89
38.38333,90
38.39167,90
38.40000,90
38.40833,90
38.41667,90
38.42500,90
38.43333,90
38.44167,90
38.45000,90
38.45833,90
38.46667,89
38.47500,89
38.48333,89
38.49167,88
38.50000,88
38.50833,88
38.51667,89
38.52500,89
38.53333,89
38.54167,89
38.55000,89
38.55833,89
38.56667,89
38.57500,89
38.58333,90
38.59167,90
38.60000,89
38.60833,89
38.61667,89
38.62500,89
38.63333,89
38.64167,89
38.65000,89
38.65833,89
38.66667,89
38.67500,88
38.68333,89
38.69167,89
38.70000,89
38.70833,89
38.71667,89
38.72500,89
38.73333,88
38.74167,88
38.75000,89
38.75833,89
38.76667,89
38.77500,89
38.78333,89
38.79167,89
38.80000,89
38.80833,89
38.81667,89
38.82500,89
38.83333,89
38.84167,89
38.85000,89
38.85833,89
38.86667,89
38.87500,89
38.88333,89
38.89167,89
38.90000,89
38.90833,89
38.91667,89
38.92500,89
38.93333,90
38.94167,90
38.95000,90
38.95833,90
38.96667,90
38.97500,91
38.98333,91
38.99167,91
39.00000,91
39.00833,90
39.01667,90
39.02500,91
39.03333,91
39.04167,91
39.05000,90
39.05833,90
39.06667,90
39.07500,90
39.08333,90
39.09167,90
39.10000,90
39.10833,90
39.11667,91
39.12500,91
39.13333,91
39.14167,91
39.15000,91
39.15833,90
39.16667,90
39.17500,90
39.18333,90
39.19167,90
39.20000,90
39.20833,90
39.21667,91
39.22500,90
39.23333,90
39.24167,90
39.25000,90
39.25833,90
39.26667,90
39.27500,90
39.28333,90
39.29167,90
39.30000,90
39.30833,90
39.31667,90
39.32500,90
39.33333,91
39.34167,91
39.35000,91
39.35833,91
39.36667,91
39.37500,91
39.38333,91
39.39167,90
39.40000,90
39.40833,90
39.41667,90
39.42500,90
39.43333,90
39.44167,91
39.45000,91
39.45833,91
39.46667,91
39.47500,91
39.48333,91
39.49167,91
39.50000,91
39.50833,91
39.51667,91
39.52500,91
39.53333,91
39.54167,91
39.55000,91
39.55833,91
39.56667,92
39.57500,92
39.58333,93
39.59167,93
39.60000,93
39.60833,93
39.61667,93
39.62500,93
39.63333,93
39.64167,92
39.65000,92
39.65833,91
39.66667,92
39.67500,92
39.68333,92
39.69167,92
39.70000,92
39.70833,92
39.71667,92
39.72500,92
39.73333,92
39.74167,93
39.75000,93
39.75833,93
39.76667,93
39.77500,93
39.78333,93
39.79167,93
39.80000,93
39.80833,93
39.81667,93
39.82500,93
39.83333,93
39.84167,92
39.85000,93
39.85833,93
39.86667,93
39.87500,93
39.88333,94
39.89167,94
39.90000,93
39.90833,93
39.91667,94
39.92500,94
39.93333,94
39.94167,94
39.95000,94
39.95833,94
39.96667,94
39.97500,94
39.98333,94
39.99167,94
40.00000,94

