[Header]
Application Name,LabSolutions
Version,5.97 SP1
Data File Name,C:\Users\cremerlab\Desktop\griffin\2021-03-31_NCM3722_NCglucose_turnover\2021-03-31_NCM3722_turnover_batch_3312021_006_013.lcd
Output Date,4/1/2021
Output Time,3:58:01 AM

[File Information]
Type,Data File
Generated,4/1/2021 3:17:41 AM
Generated by,System Administrator
Modified,4/1/2021 3:58:01 AM
Modified by,System Administrator

[Sample Information]
Operator Name,System Administrator
Acquired,4/1/2021 3:18:00 AM
Sample Type,1:Standard
Level,6
Sample Name,2021-03-31_NCM3722_NCglucose_replicate_02_timepoint_006
Sample ID,006
ISTD Amount1,1
ISTD Amount2,1
ISTD Amount3,1
ISTD Amount4,1
ISTD Amount5,1
ISTD Amount6,1
ISTD Amount7,1
ISTD Amount8,1
ISTD Amount9,1
ISTD Amount10,1
ISTD Amount11,1
ISTD Amount12,1
ISTD Amount13,1
ISTD Amount14,1
ISTD Amount15,1
ISTD Amount16,1
ISTD Amount17,1
ISTD Amount18,1
ISTD Amount19,1
ISTD Amount20,1
ISTD Amount21,1
ISTD Amount22,1
ISTD Amount23,1
ISTD Amount24,1
ISTD Amount25,1
ISTD Amount26,1
ISTD Amount27,1
ISTD Amount28,1
ISTD Amount29,1
ISTD Amount30,1
ISTD Amount31,1
ISTD Amount32,1
Sample Amount,1
Dilution Factor,1
Vial#,24
Injection Volume,20

[Original Files]
Data File,C:\Users\cremerlab\Desktop\griffin\2021-03-31_NCM3722_NCglucose_turnover\2021-03-31_NCM3722_turnover_batch_3312021_006_013.lcd
Method File,C:\LabSolutions\Data\Project1\organicacidsetc2.lcm
Batch File,C:\Users\cremerlab\Desktop\griffin\2021-03-31_NCM3722_NCglucose_turnover\2021-03-31_NCM3722_turnover_batch.lcb
Report Format File,c:\LabSolutions\System\DEFAULT.lsr

[File Description]


[Configuration]
Instrument Name,HPLC-PC-Instrument1
Instrument #,1
Line #,1
# of Detectors,2
Detector ID,Detector A,Detector B
Detector Name,Detector A,Detector B
# of Channels,1,1

[Peak Table(Detector A)]
# of Peaks,0

[Peak Table(Detector B)]
# of Peaks,4
Peak#,R.Time,I.Time,F.Time,Area,Height,A/H,Conc.,Mark,ID#,Name,k',Plate #,Plate Ht.,Tailing,Resolution,Sep.Factor,Area Ratio,Height Ratio,Conc. %,Norm Conc.
1,11.056,10.750,12.725,1265121,71300,17.744,23.518,   ,,,0.000,10663,14.067,1.288,0.000,0.000,0,0,0.000,0.000
2,15.100,14.092,15.392,3187862,119445,26.689,59.261,   ,,,0.366,6992,21.453,0.000,7.030,0.000,0,0,0.000,0.000
3,15.632,15.392,18.417,917197,37079,24.736,17.050, V ,,,0.414,7812,19.201,0.000,0.744,1.131,0,0,0.000,0.000
4,25.046,24.558,25.658,9184,328,27.979,0.171,   ,,,1.265,17648,8.500,1.074,12.882,3.057,0,0,0.000,0.000

[LC Chromatogram(Detector B-Ch1)]
Interval(msec),500
# of Points,4801
Start Time(min),0.000
End Time(min),40.000
Intensity Units,mV
Intensity Multiplier,0.001
R.Time (min),Intensity
0.00000,0
0.00833,0
0.01667,0
0.02500,-0
0.03333,-1
0.04167,-1
0.05000,-1
0.05833,-1
0.06667,-1
0.07500,-1
0.08333,-1
0.09167,-1
0.10000,-1
0.10833,-1
0.11667,-1
0.12500,-1
0.13333,-0
0.14167,-0
0.15000,0
0.15833,0
0.16667,0
0.17500,-0
0.18333,-0
0.19167,-0
0.20000,-0
0.20833,-0
0.21667,0
0.22500,0
0.23333,1
0.24167,1
0.25000,1
0.25833,1
0.26667,1
0.27500,2
0.28333,1
0.29167,1
0.30000,1
0.30833,1
0.31667,1
0.32500,1
0.33333,1
0.34167,1
0.35000,1
0.35833,0
0.36667,0
0.37500,0
0.38333,0
0.39167,0
0.40000,1
0.40833,1
0.41667,1
0.42500,1
0.43333,1
0.44167,1
0.45000,1
0.45833,1
0.46667,0
0.47500,0
0.48333,0
0.49167,1
0.50000,1
0.50833,1
0.51667,1
0.52500,1
0.53333,1
0.54167,1
0.55000,1
0.55833,1
0.56667,1
0.57500,2
0.58333,1
0.59167,2
0.60000,2
0.60833,2
0.61667,1
0.62500,2
0.63333,2
0.64167,1
0.65000,1
0.65833,1
0.66667,1
0.67500,1
0.68333,1
0.69167,1
0.70000,1
0.70833,1
0.71667,1
0.72500,1
0.73333,1
0.74167,1
0.75000,1
0.75833,1
0.76667,1
0.77500,1
0.78333,1
0.79167,1
0.80000,1
0.80833,1
0.81667,2
0.82500,2
0.83333,2
0.84167,2
0.85000,2
0.85833,3
0.86667,2
0.87500,2
0.88333,2
0.89167,2
0.90000,2
0.90833,2
0.91667,2
0.92500,2
0.93333,2
0.94167,1
0.95000,1
0.95833,1
0.96667,1
0.97500,1
0.98333,1
0.99167,1
1.00000,1
1.00833,2
1.01667,2
1.02500,2
1.03333,2
1.04167,2
1.05000,2
1.05833,2
1.06667,1
1.07500,1
1.08333,0
1.09167,0
1.10000,0
1.10833,1
1.11667,2
1.12500,2
1.13333,2
1.14167,2
1.15000,2
1.15833,2
1.16667,2
1.17500,2
1.18333,2
1.19167,2
1.20000,2
1.20833,2
1.21667,2
1.22500,2
1.23333,2
1.24167,2
1.25000,2
1.25833,2
1.26667,2
1.27500,2
1.28333,2
1.29167,3
1.30000,3
1.30833,3
1.31667,3
1.32500,3
1.33333,3
1.34167,3
1.35000,3
1.35833,3
1.36667,3
1.37500,3
1.38333,3
1.39167,3
1.40000,3
1.40833,3
1.41667,3
1.42500,3
1.43333,3
1.44167,3
1.45000,3
1.45833,3
1.46667,3
1.47500,3
1.48333,4
1.49167,4
1.50000,4
1.50833,4
1.51667,4
1.52500,4
1.53333,4
1.54167,4
1.55000,4
1.55833,4
1.56667,5
1.57500,5
1.58333,5
1.59167,6
1.60000,6
1.60833,6
1.61667,6
1.62500,5
1.63333,5
1.64167,5
1.65000,5
1.65833,5
1.66667,5
1.67500,4
1.68333,4
1.69167,5
1.70000,5
1.70833,5
1.71667,5
1.72500,5
1.73333,5
1.74167,5
1.75000,5
1.75833,5
1.76667,5
1.77500,5
1.78333,6
1.79167,6
1.80000,7
1.80833,7
1.81667,7
1.82500,7
1.83333,7
1.84167,7
1.85000,7
1.85833,7
1.86667,7
1.87500,7
1.88333,7
1.89167,8
1.90000,8
1.90833,8
1.91667,9
1.92500,9
1.93333,9
1.94167,9
1.95000,9
1.95833,9
1.96667,9
1.97500,9
1.98333,9
1.99167,9
2.00000,9
2.00833,9
2.01667,8
2.02500,8
2.03333,8
2.04167,8
2.05000,9
2.05833,9
2.06667,9
2.07500,8
2.08333,8
2.09167,8
2.10000,9
2.10833,9
2.11667,9
2.12500,9
2.13333,9
2.14167,9
2.15000,9
2.15833,9
2.16667,9
2.17500,9
2.18333,9
2.19167,9
2.20000,9
2.20833,8
2.21667,8
2.22500,8
2.23333,9
2.24167,9
2.25000,9
2.25833,9
2.26667,9
2.27500,8
2.28333,8
2.29167,8
2.30000,8
2.30833,8
2.31667,8
2.32500,8
2.33333,8
2.34167,8
2.35000,8
2.35833,8
2.36667,8
2.37500,8
2.38333,8
2.39167,8
2.40000,8
2.40833,8
2.41667,8
2.42500,7
2.43333,7
2.44167,7
2.45000,7
2.45833,7
2.46667,7
2.47500,7
2.48333,7
2.49167,8
2.50000,8
2.50833,8
2.51667,8
2.52500,8
2.53333,7
2.54167,7
2.55000,7
2.55833,6
2.56667,6
2.57500,6
2.58333,6
2.59167,6
2.60000,6
2.60833,7
2.61667,6
2.62500,6
2.63333,6
2.64167,7
2.65000,7
2.65833,7
2.66667,7
2.67500,7
2.68333,7
2.69167,7
2.70000,7
2.70833,6
2.71667,6
2.72500,6
2.73333,6
2.74167,6
2.75000,6
2.75833,6
2.76667,5
2.77500,5
2.78333,5
2.79167,5
2.80000,5
2.80833,5
2.81667,6
2.82500,6
2.83333,6
2.84167,6
2.85000,6
2.85833,6
2.86667,6
2.87500,6
2.88333,6
2.89167,6
2.90000,6
2.90833,6
2.91667,6
2.92500,7
2.93333,6
2.94167,6
2.95000,6
2.95833,6
2.96667,6
2.97500,6
2.98333,6
2.99167,6
3.00000,6
3.00833,6
3.01667,6
3.02500,6
3.03333,6
3.04167,6
3.05000,7
3.05833,6
3.06667,6
3.07500,6
3.08333,7
3.09167,7
3.10000,7
3.10833,8
3.11667,8
3.12500,7
3.13333,7
3.14167,7
3.15000,6
3.15833,6
3.16667,6
3.17500,6
3.18333,7
3.19167,7
3.20000,7
3.20833,7
3.21667,7
3.22500,8
3.23333,8
3.24167,8
3.25000,8
3.25833,8
3.26667,8
3.27500,8
3.28333,8
3.29167,8
3.30000,8
3.30833,8
3.31667,8
3.32500,7
3.33333,7
3.34167,7
3.35000,7
3.35833,7
3.36667,7
3.37500,7
3.38333,8
3.39167,8
3.40000,8
3.40833,8
3.41667,8
3.42500,8
3.43333,9
3.44167,9
3.45000,9
3.45833,9
3.46667,9
3.47500,9
3.48333,9
3.49167,9
3.50000,9
3.50833,9
3.51667,9
3.52500,9
3.53333,9
3.54167,9
3.55000,9
3.55833,8
3.56667,8
3.57500,8
3.58333,9
3.59167,9
3.60000,9
3.60833,9
3.61667,9
3.62500,9
3.63333,9
3.64167,9
3.65000,9
3.65833,9
3.66667,9
3.67500,9
3.68333,10
3.69167,10
3.70000,10
3.70833,10
3.71667,10
3.72500,10
3.73333,11
3.74167,11
3.75000,11
3.75833,11
3.76667,11
3.77500,11
3.78333,11
3.79167,11
3.80000,11
3.80833,11
3.81667,11
3.82500,11
3.83333,11
3.84167,11
3.85000,10
3.85833,10
3.86667,10
3.87500,10
3.88333,10
3.89167,10
3.90000,10
3.90833,11
3.91667,11
3.92500,11
3.93333,11
3.94167,11
3.95000,11
3.95833,11
3.96667,12
3.97500,12
3.98333,12
3.99167,12
4.00000,12
4.00833,12
4.01667,12
4.02500,12
4.03333,11
4.04167,11
4.05000,11
4.05833,11
4.06667,11
4.07500,11
4.08333,11
4.09167,11
4.10000,11
4.10833,12
4.11667,12
4.12500,12
4.13333,12
4.14167,12
4.15000,12
4.15833,12
4.16667,13
4.17500,12
4.18333,12
4.19167,12
4.20000,12
4.20833,12
4.21667,12
4.22500,12
4.23333,12
4.24167,12
4.25000,12
4.25833,12
4.26667,12
4.27500,12
4.28333,12
4.29167,12
4.30000,12
4.30833,13
4.31667,13
4.32500,13
4.33333,12
4.34167,12
4.35000,12
4.35833,12
4.36667,12
4.37500,12
4.38333,12
4.39167,13
4.40000,13
4.40833,13
4.41667,13
4.42500,12
4.43333,12
4.44167,12
4.45000,12
4.45833,12
4.46667,12
4.47500,12
4.48333,12
4.49167,12
4.50000,12
4.50833,12
4.51667,12
4.52500,12
4.53333,12
4.54167,12
4.55000,12
4.55833,12
4.56667,12
4.57500,12
4.58333,12
4.59167,12
4.60000,12
4.60833,12
4.61667,12
4.62500,12
4.63333,11
4.64167,11
4.65000,11
4.65833,11
4.66667,11
4.67500,12
4.68333,12
4.69167,12
4.70000,12
4.70833,11
4.71667,11
4.72500,11
4.73333,12
4.74167,12
4.75000,12
4.75833,12
4.76667,13
4.77500,12
4.78333,12
4.79167,12
4.80000,12
4.80833,12
4.81667,12
4.82500,12
4.83333,12
4.84167,12
4.85000,12
4.85833,12
4.86667,12
4.87500,12
4.88333,12
4.89167,12
4.90000,11
4.90833,11
4.91667,11
4.92500,11
4.93333,11
4.94167,11
4.95000,11
4.95833,12
4.96667,12
4.97500,12
4.98333,11
4.99167,11
5.00000,11
5.00833,11
5.01667,11
5.02500,11
5.03333,12
5.04167,12
5.05000,12
5.05833,12
5.06667,12
5.07500,12
5.08333,12
5.09167,12
5.10000,11
5.10833,11
5.11667,11
5.12500,11
5.13333,12
5.14167,12
5.15000,12
5.15833,12
5.16667,12
5.17500,12
5.18333,12
5.19167,12
5.20000,11
5.20833,11
5.21667,11
5.22500,11
5.23333,11
5.24167,11
5.25000,11
5.25833,12
5.26667,11
5.27500,11
5.28333,11
5.29167,11
5.30000,11
5.30833,11
5.31667,11
5.32500,11
5.33333,11
5.34167,12
5.35000,12
5.35833,12
5.36667,12
5.37500,12
5.38333,12
5.39167,12
5.40000,12
5.40833,11
5.41667,11
5.42500,11
5.43333,11
5.44167,11
5.45000,12
5.45833,12
5.46667,12
5.47500,12
5.48333,12
5.49167,13
5.50000,13
5.50833,13
5.51667,13
5.52500,13
5.53333,13
5.54167,12
5.55000,12
5.55833,12
5.56667,12
5.57500,12
5.58333,12
5.59167,12
5.60000,12
5.60833,12
5.61667,12
5.62500,12
5.63333,12
5.64167,12
5.65000,13
5.65833,13
5.66667,13
5.67500,13
5.68333,13
5.69167,13
5.70000,13
5.70833,13
5.71667,13
5.72500,13
5.73333,13
5.74167,13
5.75000,13
5.75833,13
5.76667,13
5.77500,13
5.78333,13
5.79167,13
5.80000,13
5.80833,13
5.81667,13
5.82500,13
5.83333,13
5.84167,13
5.85000,13
5.85833,13
5.86667,13
5.87500,13
5.88333,14
5.89167,14
5.90000,14
5.90833,13
5.91667,13
5.92500,13
5.93333,13
5.94167,13
5.95000,12
5.95833,12
5.96667,12
5.97500,12
5.98333,12
5.99167,12
6.00000,12
6.00833,12
6.01667,13
6.02500,13
6.03333,13
6.04167,14
6.05000,14
6.05833,14
6.06667,14
6.07500,14
6.08333,14
6.09167,14
6.10000,14
6.10833,14
6.11667,14
6.12500,14
6.13333,14
6.14167,14
6.15000,15
6.15833,15
6.16667,15
6.17500,14
6.18333,14
6.19167,14
6.20000,14
6.20833,14
6.21667,14
6.22500,14
6.23333,14
6.24167,14
6.25000,14
6.25833,14
6.26667,14
6.27500,14
6.28333,14
6.29167,14
6.30000,14
6.30833,14
6.31667,14
6.32500,14
6.33333,15
6.34167,15
6.35000,15
6.35833,15
6.36667,15
6.37500,15
6.38333,15
6.39167,15
6.40000,15
6.40833,16
6.41667,16
6.42500,16
6.43333,16
6.44167,16
6.45000,16
6.45833,16
6.46667,16
6.47500,16
6.48333,16
6.49167,16
6.50000,16
6.50833,16
6.51667,16
6.52500,16
6.53333,16
6.54167,16
6.55000,16
6.55833,17
6.56667,17
6.57500,17
6.58333,17
6.59167,17
6.60000,16
6.60833,16
6.61667,16
6.62500,16
6.63333,16
6.64167,16
6.65000,16
6.65833,16
6.66667,16
6.67500,16
6.68333,15
6.69167,15
6.70000,16
6.70833,16
6.71667,16
6.72500,16
6.73333,16
6.74167,16
6.75000,16
6.75833,16
6.76667,16
6.77500,16
6.78333,16
6.79167,16
6.80000,16
6.80833,16
6.81667,16
6.82500,17
6.83333,17
6.84167,17
6.85000,17
6.85833,16
6.86667,16
6.87500,16
6.88333,16
6.89167,16
6.90000,16
6.90833,16
6.91667,16
6.92500,16
6.93333,16
6.94167,16
6.95000,16
6.95833,16
6.96667,16
6.97500,16
6.98333,16
6.99167,16
7.00000,16
7.00833,16
7.01667,17
7.02500,17
7.03333,17
7.04167,17
7.05000,17
7.05833,17
7.06667,16
7.07500,16
7.08333,16
7.09167,16
7.10000,16
7.10833,17
7.11667,16
7.12500,16
7.13333,16
7.14167,16
7.15000,16
7.15833,17
7.16667,17
7.17500,17
7.18333,17
7.19167,17
7.20000,17
7.20833,17
7.21667,16
7.22500,16
7.23333,17
7.24167,17
7.25000,16
7.25833,16
7.26667,16
7.27500,16
7.28333,17
7.29167,16
7.30000,16
7.30833,16
7.31667,16
7.32500,16
7.33333,16
7.34167,16
7.35000,17
7.35833,17
7.36667,17
7.37500,17
7.38333,18
7.39167,17
7.40000,17
7.40833,17
7.41667,17
7.42500,17
7.43333,17
7.44167,17
7.45000,17
7.45833,17
7.46667,17
7.47500,17
7.48333,17
7.49167,18
7.50000,18
7.50833,18
7.51667,18
7.52500,18
7.53333,18
7.54167,18
7.55000,18
7.55833,17
7.56667,17
7.57500,17
7.58333,17
7.59167,17
7.60000,18
7.60833,18
7.61667,18
7.62500,18
7.63333,17
7.64167,17
7.65000,17
7.65833,17
7.66667,17
7.67500,17
7.68333,17
7.69167,17
7.70000,17
7.70833,17
7.71667,17
7.72500,17
7.73333,17
7.74167,17
7.75000,16
7.75833,17
7.76667,17
7.77500,17
7.78333,17
7.79167,17
7.80000,17
7.80833,17
7.81667,17
7.82500,17
7.83333,17
7.84167,17
7.85000,18
7.85833,18
7.86667,18
7.87500,18
7.88333,18
7.89167,17
7.90000,18
7.90833,18
7.91667,18
7.92500,18
7.93333,18
7.94167,18
7.95000,18
7.95833,18
7.96667,18
7.97500,18
7.98333,18
7.99167,18
8.00000,17
8.00833,17
8.01667,17
8.02500,18
8.03333,18
8.04167,18
8.05000,18
8.05833,18
8.06667,18
8.07500,18
8.08333,18
8.09167,19
8.10000,19
8.10833,19
8.11667,19
8.12500,19
8.13333,19
8.14167,19
8.15000,18
8.15833,18
8.16667,18
8.17500,19
8.18333,19
8.19167,19
8.20000,19
8.20833,19
8.21667,18
8.22500,18
8.23333,19
8.24167,19
8.25000,19
8.25833,19
8.26667,20
8.27500,20
8.28333,20
8.29167,20
8.30000,20
8.30833,20
8.31667,20
8.32500,19
8.33333,19
8.34167,19
8.35000,19
8.35833,18
8.36667,18
8.37500,18
8.38333,19
8.39167,19
8.40000,19
8.40833,19
8.41667,19
8.42500,19
8.43333,19
8.44167,19
8.45000,19
8.45833,19
8.46667,19
8.47500,19
8.48333,20
8.49167,20
8.50000,20
8.50833,20
8.51667,20
8.52500,20
8.53333,20
8.54167,20
8.55000,19
8.55833,19
8.56667,19
8.57500,19
8.58333,19
8.59167,20
8.60000,20
8.60833,20
8.61667,20
8.62500,20
8.63333,20
8.64167,20
8.65000,19
8.65833,19
8.66667,20
8.67500,20
8.68333,20
8.69167,20
8.70000,20
8.70833,20
8.71667,20
8.72500,20
8.73333,20
8.74167,20
8.75000,21
8.75833,21
8.76667,21
8.77500,21
8.78333,21
8.79167,21
8.80000,21
8.80833,21
8.81667,21
8.82500,21
8.83333,21
8.84167,21
8.85000,21
8.85833,21
8.86667,21
8.87500,21
8.88333,21
8.89167,20
8.90000,20
8.90833,20
8.91667,20
8.92500,20
8.93333,20
8.94167,20
8.95000,20
8.95833,20
8.96667,21
8.97500,21
8.98333,21
8.99167,21
9.00000,21
9.00833,21
9.01667,21
9.02500,21
9.03333,21
9.04167,21
9.05000,21
9.05833,21
9.06667,21
9.07500,20
9.08333,20
9.09167,21
9.10000,21
9.10833,21
9.11667,21
9.12500,21
9.13333,21
9.14167,21
9.15000,21
9.15833,21
9.16667,21
9.17500,21
9.18333,22
9.19167,22
9.20000,22
9.20833,22
9.21667,22
9.22500,22
9.23333,22
9.24167,22
9.25000,22
9.25833,22
9.26667,21
9.27500,22
9.28333,22
9.29167,22
9.30000,21
9.30833,22
9.31667,22
9.32500,22
9.33333,22
9.34167,22
9.35000,23
9.35833,23
9.36667,23
9.37500,23
9.38333,23
9.39167,23
9.40000,23
9.40833,22
9.41667,22
9.42500,22
9.43333,22
9.44167,22
9.45000,22
9.45833,22
9.46667,22
9.47500,22
9.48333,22
9.49167,22
9.50000,22
9.50833,22
9.51667,22
9.52500,22
9.53333,23
9.54167,23
9.55000,22
9.55833,22
9.56667,22
9.57500,22
9.58333,22
9.59167,22
9.60000,22
9.60833,21
9.61667,21
9.62500,22
9.63333,22
9.64167,22
9.65000,22
9.65833,22
9.66667,22
9.67500,22
9.68333,22
9.69167,22
9.70000,23
9.70833,23
9.71667,23
9.72500,23
9.73333,23
9.74167,23
9.75000,23
9.75833,23
9.76667,23
9.77500,23
9.78333,23
9.79167,23
9.80000,23
9.80833,23
9.81667,23
9.82500,23
9.83333,23
9.84167,22
9.85000,23
9.85833,23
9.86667,23
9.87500,23
9.88333,23
9.89167,23
9.90000,23
9.90833,23
9.91667,23
9.92500,24
9.93333,24
9.94167,24
9.95000,24
9.95833,24
9.96667,24
9.97500,24
9.98333,24
9.99167,24
10.00000,24
10.00833,23
10.01667,23
10.02500,23
10.03333,23
10.04167,24
10.05000,24
10.05833,24
10.06667,24
10.07500,24
10.08333,24
10.09167,24
10.10000,24
10.10833,24
10.11667,25
10.12500,25
10.13333,25
10.14167,25
10.15000,26
10.15833,26
10.16667,26
10.17500,26
10.18333,25
10.19167,25
10.20000,26
10.20833,26
10.21667,26
10.22500,26
10.23333,26
10.24167,26
10.25000,26
10.25833,26
10.26667,26
10.27500,26
10.28333,26
10.29167,27
10.30000,27
10.30833,27
10.31667,27
10.32500,27
10.33333,27
10.34167,28
10.35000,27
10.35833,27
10.36667,27
10.37500,28
10.38333,28
10.39167,28
10.40000,29
10.40833,29
10.41667,30
10.42500,30
10.43333,31
10.44167,31
10.45000,32
10.45833,32
10.46667,33
10.47500,33
10.48333,32
10.49167,31
10.50000,28
10.50833,25
10.51667,20
10.52500,13
10.53333,4
10.54167,-9
10.55000,-27
10.55833,-51
10.56667,-83
10.57500,-124
10.58333,-176
10.59167,-241
10.60000,-322
10.60833,-421
10.61667,-539
10.62500,-679
10.63333,-842
10.64167,-1027
10.65000,-1236
10.65833,-1466
10.66667,-1714
10.67500,-1978
10.68333,-2252
10.69167,-2529
10.70000,-2800
10.70833,-3056
10.71667,-3286
10.72500,-3479
10.73333,-3622
10.74167,-3701
10.75000,-3703
10.75833,-3615
10.76667,-3424
10.77500,-3117
10.78333,-2682
10.79167,-2108
10.80000,-1387
10.80833,-509
10.81667,532
10.82500,1741
10.83333,3124
10.84167,4683
10.85000,6417
10.85833,8328
10.86667,10413
10.87500,12668
10.88333,15089
10.89167,17668
10.90000,20399
10.90833,23269
10.91667,26267
10.92500,29377
10.93333,32581
10.94167,35857
10.95000,39180
10.95833,42521
10.96667,45847
10.97500,49118
10.98333,52291
10.99167,55318
11.00000,58150
11.00833,60731
11.01667,63007
11.02500,64927
11.03333,66441
11.04167,67508
11.05000,68098
11.05833,68190
11.06667,67779
11.07500,66871
11.08333,65489
11.09167,63668
11.10000,61455
11.10833,58903
11.11667,56076
11.12500,53036
11.13333,49849
11.14167,46576
11.15000,43276
11.15833,39998
11.16667,36789
11.17500,33684
11.18333,30713
11.19167,27898
11.20000,25254
11.20833,22790
11.21667,20509
11.22500,18412
11.23333,16495
11.24167,14751
11.25000,13172
11.25833,11747
11.26667,10467
11.27500,9321
11.28333,8297
11.29167,7385
11.30000,6574
11.30833,5855
11.31667,5218
11.32500,4654
11.33333,4157
11.34167,3718
11.35000,3331
11.35833,2990
11.36667,2690
11.37500,2426
11.38333,2193
11.39167,1988
11.40000,1807
11.40833,1648
11.41667,1507
11.42500,1382
11.43333,1272
11.44167,1174
11.45000,1087
11.45833,1010
11.46667,942
11.47500,880
11.48333,825
11.49167,775
11.50000,730
11.50833,690
11.51667,653
11.52500,620
11.53333,589
11.54167,562
11.55000,537
11.55833,513
11.56667,492
11.57500,472
11.58333,454
11.59167,437
11.60000,421
11.60833,406
11.61667,393
11.62500,380
11.63333,368
11.64167,357
11.65000,346
11.65833,337
11.66667,328
11.67500,319
11.68333,311
11.69167,303
11.70000,296
11.70833,289
11.71667,283
11.72500,277
11.73333,271
11.74167,266
11.75000,261
11.75833,257
11.76667,252
11.77500,248
11.78333,244
11.79167,240
11.80000,237
11.80833,233
11.81667,231
11.82500,228
11.83333,226
11.84167,223
11.85000,221
11.85833,219
11.86667,217
11.87500,214
11.88333,212
11.89167,210
11.90000,209
11.90833,207
11.91667,206
11.92500,204
11.93333,202
11.94167,201
11.95000,200
11.95833,198
11.96667,197
11.97500,196
11.98333,195
11.99167,194
12.00000,193
12.00833,192
12.01667,191
12.02500,190
12.03333,189
12.04167,188
12.05000,187
12.05833,186
12.06667,185
12.07500,184
12.08333,183
12.09167,181
12.10000,180
12.10833,179
12.11667,178
12.12500,177
12.13333,176
12.14167,175
12.15000,174
12.15833,173
12.16667,172
12.17500,171
12.18333,170
12.19167,170
12.20000,169
12.20833,168
12.21667,167
12.22500,166
12.23333,165
12.24167,164
12.25000,163
12.25833,162
12.26667,162
12.27500,161
12.28333,160
12.29167,159
12.30000,158
12.30833,157
12.31667,156
12.32500,155
12.33333,155
12.34167,154
12.35000,154
12.35833,153
12.36667,153
12.37500,152
12.38333,152
12.39167,151
12.40000,151
12.40833,150
12.41667,150
12.42500,149
12.43333,148
12.44167,147
12.45000,147
12.45833,147
12.46667,146
12.47500,146
12.48333,145
12.49167,145
12.50000,144
12.50833,144
12.51667,143
12.52500,143
12.53333,142
12.54167,142
12.55000,141
12.55833,141
12.56667,140
12.57500,140
12.58333,139
12.59167,138
12.60000,138
12.60833,137
12.61667,137
12.62500,136
12.63333,136
12.64167,135
12.65000,135
12.65833,134
12.66667,133
12.67500,132
12.68333,131
12.69167,131
12.70000,130
12.70833,130
12.71667,129
12.72500,129
12.73333,129
12.74167,128
12.75000,128
12.75833,128
12.76667,127
12.77500,127
12.78333,126
12.79167,126
12.80000,126
12.80833,126
12.81667,126
12.82500,126
12.83333,126
12.84167,126
12.85000,126
12.85833,125
12.86667,125
12.87500,125
12.88333,125
12.89167,125
12.90000,125
12.90833,125
12.91667,125
12.92500,126
12.93333,126
12.94167,126
12.95000,127
12.95833,127
12.96667,127
12.97500,127
12.98333,127
12.99167,127
13.00000,127
13.00833,127
13.01667,127
13.02500,127
13.03333,127
13.04167,127
13.05000,127
13.05833,127
13.06667,127
13.07500,127
13.08333,127
13.09167,127
13.10000,127
13.10833,127
13.11667,127
13.12500,127
13.13333,127
13.14167,127
13.15000,127
13.15833,127
13.16667,127
13.17500,127
13.18333,127
13.19167,126
13.20000,126
13.20833,126
13.21667,125
13.22500,125
13.23333,124
13.24167,123
13.25000,123
13.25833,122
13.26667,121
13.27500,120
13.28333,120
13.29167,119
13.30000,118
13.30833,118
13.31667,117
13.32500,117
13.33333,116
13.34167,116
13.35000,115
13.35833,114
13.36667,113
13.37500,112
13.38333,111
13.39167,110
13.40000,109
13.40833,108
13.41667,107
13.42500,106
13.43333,105
13.44167,104
13.45000,103
13.45833,102
13.46667,101
13.47500,100
13.48333,99
13.49167,98
13.50000,98
13.50833,97
13.51667,97
13.52500,96
13.53333,95
13.54167,95
13.55000,94
13.55833,93
13.56667,93
13.57500,92
13.58333,92
13.59167,92
13.60000,92
13.60833,91
13.61667,91
13.62500,90
13.63333,90
13.64167,89
13.65000,89
13.65833,88
13.66667,88
13.67500,88
13.68333,88
13.69167,88
13.70000,88
13.70833,88
13.71667,88
13.72500,89
13.73333,89
13.74167,89
13.75000,89
13.75833,89
13.76667,90
13.77500,90
13.78333,90
13.79167,90
13.80000,91
13.80833,91
13.81667,91
13.82500,92
13.83333,92
13.84167,93
13.85000,93
13.85833,93
13.86667,93
13.87500,94
13.88333,94
13.89167,94
13.90000,95
13.90833,96
13.91667,97
13.92500,98
13.93333,98
13.94167,99
13.95000,99
13.95833,99
13.96667,100
13.97500,101
13.98333,101
13.99167,102
14.00000,103
14.00833,103
14.01667,104
14.02500,105
14.03333,105
14.04167,106
14.05000,107
14.05833,108
14.06667,109
14.07500,110
14.08333,111
14.09167,112
14.10000,113
14.10833,115
14.11667,116
14.12500,118
14.13333,119
14.14167,121
14.15000,124
14.15833,126
14.16667,129
14.17500,132
14.18333,136
14.19167,140
14.20000,146
14.20833,152
14.21667,160
14.22500,170
14.23333,182
14.24167,196
14.25000,213
14.25833,233
14.26667,258
14.27500,288
14.28333,323
14.29167,365
14.30000,415
14.30833,474
14.31667,544
14.32500,624
14.33333,718
14.34167,827
14.35000,952
14.35833,1095
14.36667,1259
14.37500,1444
14.38333,1652
14.39167,1885
14.40000,2144
14.40833,2432
14.41667,2749
14.42500,3097
14.43333,3477
14.44167,3891
14.45000,4340
14.45833,4823
14.46667,5342
14.47500,5897
14.48333,6489
14.49167,7119
14.50000,7785
14.50833,8490
14.51667,9231
14.52500,10009
14.53333,10824
14.54167,11675
14.55000,12562
14.55833,13484
14.56667,14441
14.57500,15433
14.58333,16458
14.59167,17516
14.60000,18606
14.60833,19729
14.61667,20884
14.62500,22069
14.63333,23284
14.64167,24529
14.65000,25803
14.65833,27106
14.66667,28436
14.67500,29794
14.68333,31179
14.69167,32590
14.70000,34028
14.70833,35491
14.71667,36980
14.72500,38494
14.73333,40033
14.74167,41596
14.75000,43184
14.75833,44795
14.76667,46431
14.77500,48089
14.78333,49771
14.79167,51477
14.80000,53206
14.80833,54957
14.81667,56730
14.82500,58526
14.83333,60344
14.84167,62184
14.85000,64046
14.85833,65930
14.86667,67834
14.87500,69760
14.88333,71705
14.89167,73672
14.90000,75658
14.90833,77664
14.91667,79689
14.92500,81733
14.93333,83793
14.94167,85870
14.95000,87964
14.95833,90071
14.96667,92191
14.97500,94322
14.98333,96461
14.99167,98605
15.00000,100750
15.00833,102887
15.01667,105009
15.02500,107102
15.03333,109149
15.04167,111127
15.05000,113004
15.05833,114744
15.06667,116301
15.07500,117622
15.08333,118648
15.09167,119318
15.10000,119568
15.10833,119342
15.11667,118586
15.12500,117262
15.13333,115347
15.14167,112835
15.15000,109739
15.15833,106094
15.16667,101952
15.17500,97381
15.18333,92462
15.19167,87285
15.20000,81942
15.20833,76526
15.21667,71127
15.22500,65824
15.23333,60688
15.24167,55778
15.25000,51139
15.25833,46808
15.26667,42805
15.27500,39143
15.28333,35826
15.29167,32851
15.30000,30208
15.30833,27885
15.31667,25865
15.32500,24132
15.33333,22666
15.34167,21451
15.35000,20467
15.35833,19699
15.36667,19131
15.37500,18747
15.38333,18534
15.39167,18478
15.40000,18568
15.40833,18791
15.41667,19138
15.42500,19596
15.43333,20156
15.44167,20808
15.45000,21540
15.45833,22343
15.46667,23205
15.47500,24117
15.48333,25067
15.49167,26045
15.50000,27038
15.50833,28037
15.51667,29030
15.52500,30007
15.53333,30956
15.54167,31869
15.55000,32734
15.55833,33544
15.56667,34289
15.57500,34963
15.58333,35557
15.59167,36067
15.60000,36487
15.60833,36814
15.61667,37044
15.62500,37175
15.63333,37208
15.64167,37142
15.65000,36978
15.65833,36718
15.66667,36365
15.67500,35924
15.68333,35398
15.69167,34792
15.70000,34113
15.70833,33366
15.71667,32557
15.72500,31694
15.73333,30782
15.74167,29829
15.75000,28842
15.75833,27827
15.76667,26791
15.77500,25740
15.78333,24681
15.79167,23618
15.80000,22558
15.80833,21506
15.81667,20466
15.82500,19442
15.83333,18439
15.84167,17458
15.85000,16504
15.85833,15579
15.86667,14684
15.87500,13822
15.88333,12993
15.89167,12200
15.90000,11441
15.90833,10717
15.91667,10030
15.92500,9377
15.93333,8760
15.94167,8178
15.95000,7629
15.95833,7113
15.96667,6629
15.97500,6175
15.98333,5751
15.99167,5354
16.00000,4985
16.00833,4642
16.01667,4322
16.02500,4026
16.03333,3751
16.04167,3497
16.05000,3262
16.05833,3045
16.06667,2845
16.07500,2660
16.08333,2490
16.09167,2333
16.10000,2189
16.10833,2056
16.11667,1934
16.12500,1822
16.13333,1720
16.14167,1625
16.15000,1539
16.15833,1459
16.16667,1386
16.17500,1319
16.18333,1257
16.19167,1201
16.20000,1149
16.20833,1101
16.21667,1057
16.22500,1016
16.23333,979
16.24167,944
16.25000,912
16.25833,883
16.26667,855
16.27500,830
16.28333,806
16.29167,785
16.30000,765
16.30833,746
16.31667,728
16.32500,712
16.33333,697
16.34167,682
16.35000,668
16.35833,655
16.36667,643
16.37500,631
16.38333,620
16.39167,610
16.40000,600
16.40833,591
16.41667,583
16.42500,575
16.43333,567
16.44167,559
16.45000,552
16.45833,546
16.46667,539
16.47500,533
16.48333,527
16.49167,521
16.50000,515
16.50833,509
16.51667,505
16.52500,500
16.53333,495
16.54167,490
16.55000,486
16.55833,481
16.56667,477
16.57500,473
16.58333,469
16.59167,465
16.60000,461
16.60833,458
16.61667,454
16.62500,450
16.63333,446
16.64167,443
16.65000,440
16.65833,437
16.66667,434
16.67500,430
16.68333,427
16.69167,424
16.70000,421
16.70833,418
16.71667,416
16.72500,413
16.73333,410
16.74167,407
16.75000,405
16.75833,403
16.76667,400
16.77500,397
16.78333,395
16.79167,392
16.80000,390
16.80833,388
16.81667,386
16.82500,384
16.83333,382
16.84167,379
16.85000,377
16.85833,375
16.86667,372
16.87500,370
16.88333,368
16.89167,365
16.90000,363
16.90833,361
16.91667,358
16.92500,356
16.93333,354
16.94167,352
16.95000,350
16.95833,348
16.96667,346
16.97500,344
16.98333,342
16.99167,341
17.00000,339
17.00833,337
17.01667,335
17.02500,333
17.03333,331
17.04167,329
17.05000,328
17.05833,326
17.06667,324
17.07500,322
17.08333,320
17.09167,319
17.10000,317
17.10833,316
17.11667,314
17.12500,313
17.13333,311
17.14167,309
17.15000,308
17.15833,306
17.16667,304
17.17500,303
17.18333,301
17.19167,300
17.20000,298
17.20833,297
17.21667,295
17.22500,294
17.23333,292
17.24167,290
17.25000,289
17.25833,288
17.26667,286
17.27500,285
17.28333,284
17.29167,283
17.30000,281
17.30833,280
17.31667,278
17.32500,277
17.33333,275
17.34167,274
17.35000,272
17.35833,271
17.36667,270
17.37500,268
17.38333,267
17.39167,266
17.40000,265
17.40833,263
17.41667,262
17.42500,260
17.43333,259
17.44167,258
17.45000,256
17.45833,255
17.46667,254
17.47500,253
17.48333,252
17.49167,251
17.50000,250
17.50833,249
17.51667,247
17.52500,246
17.53333,244
17.54167,243
17.55000,242
17.55833,240
17.56667,239
17.57500,238
17.58333,237
17.59167,236
17.60000,235
17.60833,234
17.61667,233
17.62500,232
17.63333,231
17.64167,230
17.65000,229
17.65833,228
17.66667,228
17.67500,227
17.68333,226
17.69167,225
17.70000,223
17.70833,222
17.71667,221
17.72500,220
17.73333,219
17.74167,218
17.75000,217
17.75833,216
17.76667,215
17.77500,214
17.78333,213
17.79167,213
17.80000,212
17.80833,210
17.81667,209
17.82500,208
17.83333,207
17.84167,206
17.85000,206
17.85833,205
17.86667,205
17.87500,204
17.88333,203
17.89167,202
17.90000,201
17.90833,201
17.91667,200
17.92500,199
17.93333,198
17.94167,198
17.95000,197
17.95833,196
17.96667,196
17.97500,195
17.98333,194
17.99167,194
18.00000,193
18.00833,192
18.01667,191
18.02500,190
18.03333,190
18.04167,189
18.05000,188
18.05833,188
18.06667,187
18.07500,186
18.08333,186
18.09167,185
18.10000,184
18.10833,183
18.11667,182
18.12500,181
18.13333,181
18.14167,180
18.15000,179
18.15833,178
18.16667,178
18.17500,177
18.18333,176
18.19167,176
18.20000,175
18.20833,174
18.21667,173
18.22500,172
18.23333,172
18.24167,171
18.25000,170
18.25833,169
18.26667,169
18.27500,168
18.28333,168
18.29167,167
18.30000,166
18.30833,165
18.31667,164
18.32500,164
18.33333,163
18.34167,163
18.35000,162
18.35833,162
18.36667,161
18.37500,161
18.38333,160
18.39167,159
18.40000,159
18.40833,159
18.41667,158
18.42500,158
18.43333,158
18.44167,157
18.45000,157
18.45833,156
18.46667,156
18.47500,155
18.48333,155
18.49167,154
18.50000,154
18.50833,154
18.51667,153
18.52500,153
18.53333,153
18.54167,152
18.55000,152
18.55833,151
18.56667,151
18.57500,151
18.58333,150
18.59167,150
18.60000,150
18.60833,150
18.61667,150
18.62500,150
18.63333,150
18.64167,149
18.65000,149
18.65833,149
18.66667,149
18.67500,150
18.68333,150
18.69167,151
18.70000,151
18.70833,151
18.71667,152
18.72500,152
18.73333,153
18.74167,154
18.75000,155
18.75833,156
18.76667,157
18.77500,158
18.78333,159
18.79167,160
18.80000,162
18.80833,164
18.81667,166
18.82500,167
18.83333,169
18.84167,171
18.85000,172
18.85833,173
18.86667,175
18.87500,176
18.88333,178
18.89167,179
18.90000,180
18.90833,182
18.91667,183
18.92500,184
18.93333,185
18.94167,186
18.95000,186
18.95833,187
18.96667,187
18.97500,187
18.98333,187
18.99167,187
19.00000,187
19.00833,187
19.01667,186
19.02500,185
19.03333,184
19.04167,183
19.05000,182
19.05833,180
19.06667,179
19.07500,178
19.08333,176
19.09167,174
19.10000,172
19.10833,170
19.11667,168
19.12500,166
19.13333,164
19.14167,162
19.15000,159
19.15833,157
19.16667,155
19.17500,153
19.18333,151
19.19167,149
19.20000,147
19.20833,145
19.21667,143
19.22500,141
19.23333,140
19.24167,138
19.25000,137
19.25833,135
19.26667,133
19.27500,132
19.28333,131
19.29167,130
19.30000,128
19.30833,127
19.31667,125
19.32500,124
19.33333,123
19.34167,122
19.35000,121
19.35833,120
19.36667,119
19.37500,118
19.38333,117
19.39167,117
19.40000,116
19.40833,116
19.41667,115
19.42500,114
19.43333,114
19.44167,113
19.45000,113
19.45833,113
19.46667,113
19.47500,112
19.48333,111
19.49167,111
19.50000,111
19.50833,110
19.51667,110
19.52500,110
19.53333,109
19.54167,109
19.55000,108
19.55833,108
19.56667,108
19.57500,107
19.58333,107
19.59167,107
19.60000,106
19.60833,106
19.61667,105
19.62500,105
19.63333,104
19.64167,104
19.65000,104
19.65833,103
19.66667,103
19.67500,102
19.68333,102
19.69167,102
19.70000,102
19.70833,102
19.71667,102
19.72500,102
19.73333,101
19.74167,101
19.75000,101
19.75833,101
19.76667,101
19.77500,101
19.78333,101
19.79167,101
19.80000,100
19.80833,100
19.81667,99
19.82500,99
19.83333,99
19.84167,98
19.85000,98
19.85833,98
19.86667,98
19.87500,98
19.88333,98
19.89167,97
19.90000,96
19.90833,96
19.91667,96
19.92500,95
19.93333,95
19.94167,95
19.95000,95
19.95833,95
19.96667,95
19.97500,95
19.98333,95
19.99167,94
20.00000,94
20.00833,94
20.01667,94
20.02500,94
20.03333,94
20.04167,93
20.05000,93
20.05833,93
20.06667,92
20.07500,92
20.08333,92
20.09167,92
20.10000,92
20.10833,91
20.11667,91
20.12500,91
20.13333,91
20.14167,91
20.15000,91
20.15833,90
20.16667,90
20.17500,90
20.18333,90
20.19167,90
20.20000,90
20.20833,90
20.21667,89
20.22500,89
20.23333,89
20.24167,89
20.25000,89
20.25833,88
20.26667,88
20.27500,88
20.28333,88
20.29167,88
20.30000,88
20.30833,88
20.31667,87
20.32500,87
20.33333,87
20.34167,87
20.35000,87
20.35833,87
20.36667,86
20.37500,86
20.38333,86
20.39167,85
20.40000,85
20.40833,85
20.41667,85
20.42500,85
20.43333,85
20.44167,85
20.45000,85
20.45833,85
20.46667,85
20.47500,85
20.48333,85
20.49167,85
20.50000,85
20.50833,84
20.51667,84
20.52500,84
20.53333,84
20.54167,83
20.55000,83
20.55833,83
20.56667,83
20.57500,83
20.58333,83
20.59167,83
20.60000,83
20.60833,83
20.61667,83
20.62500,83
20.63333,82
20.64167,82
20.65000,82
20.65833,82
20.66667,82
20.67500,81
20.68333,81
20.69167,81
20.70000,81
20.70833,81
20.71667,80
20.72500,80
20.73333,80
20.74167,80
20.75000,79
20.75833,79
20.76667,79
20.77500,79
20.78333,79
20.79167,79
20.80000,79
20.80833,79
20.81667,79
20.82500,79
20.83333,79
20.84167,78
20.85000,78
20.85833,78
20.86667,78
20.87500,78
20.88333,78
20.89167,79
20.90000,79
20.90833,79
20.91667,78
20.92500,78
20.93333,78
20.94167,78
20.95000,78
20.95833,78
20.96667,77
20.97500,77
20.98333,77
20.99167,76
21.00000,76
21.00833,76
21.01667,76
21.02500,76
21.03333,76
21.04167,76
21.05000,76
21.05833,76
21.06667,75
21.07500,75
21.08333,75
21.09167,75
21.10000,75
21.10833,75
21.11667,74
21.12500,74
21.13333,74
21.14167,74
21.15000,74
21.15833,74
21.16667,73
21.17500,73
21.18333,73
21.19167,73
21.20000,73
21.20833,73
21.21667,73
21.22500,73
21.23333,73
21.24167,73
21.25000,73
21.25833,73
21.26667,73
21.27500,73
21.28333,73
21.29167,73
21.30000,73
21.30833,73
21.31667,73
21.32500,73
21.33333,73
21.34167,73
21.35000,72
21.35833,72
21.36667,72
21.37500,73
21.38333,73
21.39167,72
21.40000,72
21.40833,72
21.41667,72
21.42500,72
21.43333,72
21.44167,73
21.45000,73
21.45833,73
21.46667,73
21.47500,73
21.48333,73
21.49167,73
21.50000,73
21.50833,73
21.51667,73
21.52500,73
21.53333,73
21.54167,73
21.55000,73
21.55833,73
21.56667,73
21.57500,73
21.58333,73
21.59167,74
21.60000,74
21.60833,74
21.61667,74
21.62500,74
21.63333,74
21.64167,74
21.65000,74
21.65833,74
21.66667,74
21.67500,75
21.68333,75
21.69167,75
21.70000,75
21.70833,75
21.71667,75
21.72500,75
21.73333,76
21.74167,76
21.75000,76
21.75833,76
21.76667,76
21.77500,76
21.78333,76
21.79167,77
21.80000,76
21.80833,76
21.81667,77
21.82500,77
21.83333,77
21.84167,77
21.85000,77
21.85833,77
21.86667,77
21.87500,77
21.88333,77
21.89167,78
21.90000,77
21.90833,77
21.91667,77
21.92500,77
21.93333,77
21.94167,77
21.95000,77
21.95833,77
21.96667,77
21.97500,77
21.98333,77
21.99167,77
22.00000,76
22.00833,76
22.01667,76
22.02500,76
22.03333,76
22.04167,76
22.05000,76
22.05833,76
22.06667,76
22.07500,76
22.08333,76
22.09167,75
22.10000,75
22.10833,75
22.11667,74
22.12500,74
22.13333,73
22.14167,73
22.15000,73
22.15833,73
22.16667,73
22.17500,73
22.18333,72
22.19167,72
22.20000,73
22.20833,73
22.21667,73
22.22500,73
22.23333,72
22.24167,72
22.25000,72
22.25833,71
22.26667,71
22.27500,70
22.28333,70
22.29167,70
22.30000,70
22.30833,69
22.31667,69
22.32500,69
22.33333,69
22.34167,69
22.35000,69
22.35833,69
22.36667,69
22.37500,69
22.38333,69
22.39167,69
22.40000,68
22.40833,68
22.41667,68
22.42500,68
22.43333,69
22.44167,69
22.45000,69
22.45833,69
22.46667,69
22.47500,69
22.48333,69
22.49167,69
22.50000,69
22.50833,68
22.51667,68
22.52500,67
22.53333,68
22.54167,68
22.55000,67
22.55833,67
22.56667,67
22.57500,67
22.58333,67
22.59167,67
22.60000,67
22.60833,67
22.61667,68
22.62500,68
22.63333,69
22.64167,69
22.65000,69
22.65833,68
22.66667,68
22.67500,67
22.68333,67
22.69167,67
22.70000,68
22.70833,68
22.71667,68
22.72500,68
22.73333,68
22.74167,68
22.75000,68
22.75833,69
22.76667,69
22.77500,69
22.78333,70
22.79167,69
22.80000,69
22.80833,70
22.81667,70
22.82500,70
22.83333,70
22.84167,70
22.85000,71
22.85833,71
22.86667,71
22.87500,71
22.88333,71
22.89167,72
22.90000,73
22.90833,73
22.91667,74
22.92500,74
22.93333,74
22.94167,75
22.95000,76
22.95833,76
22.96667,77
22.97500,78
22.98333,78
22.99167,79
23.00000,80
23.00833,80
23.01667,81
23.02500,82
23.03333,83
23.04167,84
23.05000,84
23.05833,85
23.06667,85
23.07500,86
23.08333,87
23.09167,87
23.10000,88
23.10833,89
23.11667,90
23.12500,91
23.13333,91
23.14167,91
23.15000,92
23.15833,93
23.16667,93
23.17500,94
23.18333,95
23.19167,95
23.20000,95
23.20833,95
23.21667,95
23.22500,96
23.23333,96
23.24167,96
23.25000,95
23.25833,95
23.26667,95
23.27500,95
23.28333,94
23.29167,94
23.30000,93
23.30833,93
23.31667,92
23.32500,92
23.33333,91
23.34167,91
23.35000,90
23.35833,89
23.36667,88
23.37500,88
23.38333,87
23.39167,86
23.40000,86
23.40833,85
23.41667,84
23.42500,83
23.43333,83
23.44167,83
23.45000,82
23.45833,81
23.46667,80
23.47500,79
23.48333,78
23.49167,77
23.50000,77
23.50833,77
23.51667,76
23.52500,76
23.53333,75
23.54167,75
23.55000,74
23.55833,74
23.56667,73
23.57500,73
23.58333,72
23.59167,72
23.60000,71
23.60833,71
23.61667,70
23.62500,70
23.63333,70
23.64167,69
23.65000,69
23.65833,68
23.66667,68
23.67500,68
23.68333,68
23.69167,68
23.70000,68
23.70833,68
23.71667,68
23.72500,68
23.73333,68
23.74167,68
23.75000,68
23.75833,68
23.76667,67
23.77500,67
23.78333,67
23.79167,66
23.80000,66
23.80833,66
23.81667,66
23.82500,66
23.83333,66
23.84167,66
23.85000,66
23.85833,66
23.86667,66
23.87500,66
23.88333,66
23.89167,66
23.90000,66
23.90833,65
23.91667,65
23.92500,66
23.93333,66
23.94167,66
23.95000,66
23.95833,66
23.96667,66
23.97500,66
23.98333,67
23.99167,67
24.00000,67
24.00833,67
24.01667,67
24.02500,67
24.03333,66
24.04167,66
24.05000,66
24.05833,66
24.06667,66
24.07500,66
24.08333,66
24.09167,66
24.10000,66
24.10833,66
24.11667,66
24.12500,67
24.13333,67
24.14167,67
24.15000,66
24.15833,66
24.16667,66
24.17500,66
24.18333,66
24.19167,66
24.20000,66
24.20833,66
24.21667,66
24.22500,67
24.23333,67
24.24167,67
24.25000,67
24.25833,67
24.26667,66
24.27500,66
24.28333,66
24.29167,66
24.30000,66
24.30833,66
24.31667,66
24.32500,66
24.33333,66
24.34167,67
24.35000,67
24.35833,67
24.36667,67
24.37500,67
24.38333,67
24.39167,67
24.40000,68
24.40833,68
24.41667,68
24.42500,68
24.43333,68
24.44167,69
24.45000,70
24.45833,70
24.46667,71
24.47500,71
24.48333,72
24.49167,72
24.50000,73
24.50833,73
24.51667,74
24.52500,75
24.53333,76
24.54167,76
24.55000,78
24.55833,79
24.56667,81
24.57500,82
24.58333,84
24.59167,85
24.60000,87
24.60833,89
24.61667,91
24.62500,94
24.63333,97
24.64167,100
24.65000,103
24.65833,107
24.66667,111
24.67500,115
24.68333,119
24.69167,124
24.70000,128
24.70833,133
24.71667,138
24.72500,144
24.73333,150
24.74167,156
24.75000,162
24.75833,169
24.76667,176
24.77500,184
24.78333,191
24.79167,199
24.80000,207
24.80833,216
24.81667,225
24.82500,234
24.83333,243
24.84167,252
24.85000,262
24.85833,271
24.86667,281
24.87500,290
24.88333,299
24.89167,307
24.90000,316
24.90833,325
24.91667,333
24.92500,341
24.93333,349
24.94167,357
24.95000,364
24.95833,371
24.96667,377
24.97500,383
24.98333,388
24.99167,392
25.00000,396
25.00833,400
25.01667,402
25.02500,404
25.03333,406
25.04167,406
25.05000,406
25.05833,406
25.06667,405
25.07500,403
25.08333,401
25.09167,398
25.10000,394
25.10833,390
25.11667,386
25.12500,381
25.13333,375
25.14167,368
25.15000,361
25.15833,354
25.16667,347
25.17500,340
25.18333,332
25.19167,325
25.20000,317
25.20833,309
25.21667,301
25.22500,293
25.23333,284
25.24167,276
25.25000,267
25.25833,259
25.26667,251
25.27500,243
25.28333,235
25.29167,227
25.30000,219
25.30833,211
25.31667,204
25.32500,197
25.33333,190
25.34167,183
25.35000,176
25.35833,170
25.36667,164
25.37500,159
25.38333,153
25.39167,148
25.40000,143
25.40833,138
25.41667,133
25.42500,129
25.43333,125
25.44167,121
25.45000,118
25.45833,114
25.46667,111
25.47500,108
25.48333,105
25.49167,102
25.50000,100
25.50833,98
25.51667,96
25.52500,94
25.53333,92
25.54167,90
25.55000,89
25.55833,88
25.56667,86
25.57500,85
25.58333,84
25.59167,83
25.60000,82
25.60833,81
25.61667,79
25.62500,78
25.63333,78
25.64167,78
25.65000,77
25.65833,77
25.66667,77
25.67500,76
25.68333,76
25.69167,75
25.70000,75
25.70833,74
25.71667,74
25.72500,74
25.73333,74
25.74167,74
25.75000,74
25.75833,74
25.76667,74
25.77500,73
25.78333,73
25.79167,73
25.80000,73
25.80833,73
25.81667,72
25.82500,72
25.83333,72
25.84167,72
25.85000,72
25.85833,72
25.86667,71
25.87500,71
25.88333,71
25.89167,71
25.90000,71
25.90833,72
25.91667,72
25.92500,72
25.93333,72
25.94167,72
25.95000,72
25.95833,72
25.96667,72
25.97500,72
25.98333,72
25.99167,72
26.00000,72
26.00833,73
26.01667,73
26.02500,73
26.03333,73
26.04167,72
26.05000,72
26.05833,72
26.06667,72
26.07500,71
26.08333,72
26.09167,72
26.10000,72
26.10833,72
26.11667,72
26.12500,72
26.13333,72
26.14167,72
26.15000,72
26.15833,72
26.16667,72
26.17500,73
26.18333,73
26.19167,72
26.20000,72
26.20833,72
26.21667,72
26.22500,72
26.23333,72
26.24167,72
26.25000,72
26.25833,72
26.26667,72
26.27500,72
26.28333,73
26.29167,73
26.30000,73
26.30833,73
26.31667,73
26.32500,73
26.33333,73
26.34167,73
26.35000,73
26.35833,73
26.36667,73
26.37500,73
26.38333,73
26.39167,73
26.40000,73
26.40833,73
26.41667,72
26.42500,73
26.43333,73
26.44167,73
26.45000,73
26.45833,73
26.46667,72
26.47500,72
26.48333,72
26.49167,72
26.50000,72
26.50833,72
26.51667,73
26.52500,73
26.53333,73
26.54167,73
26.55000,73
26.55833,73
26.56667,73
26.57500,73
26.58333,73
26.59167,73
26.60000,73
26.60833,73
26.61667,73
26.62500,73
26.63333,73
26.64167,72
26.65000,72
26.65833,72
26.66667,72
26.67500,73
26.68333,73
26.69167,74
26.70000,74
26.70833,74
26.71667,74
26.72500,74
26.73333,75
26.74167,74
26.75000,75
26.75833,75
26.76667,75
26.77500,75
26.78333,75
26.79167,75
26.80000,75
26.80833,74
26.81667,74
26.82500,74
26.83333,74
26.84167,74
26.85000,74
26.85833,74
26.86667,75
26.87500,75
26.88333,74
26.89167,74
26.90000,74
26.90833,74
26.91667,75
26.92500,75
26.93333,75
26.94167,75
26.95000,75
26.95833,75
26.96667,75
26.97500,74
26.98333,74
26.99167,75
27.00000,75
27.00833,75
27.01667,75
27.02500,76
27.03333,76
27.04167,76
27.05000,76
27.05833,76
27.06667,76
27.07500,76
27.08333,76
27.09167,76
27.10000,76
27.10833,76
27.11667,76
27.12500,76
27.13333,76
27.14167,76
27.15000,76
27.15833,76
27.16667,77
27.17500,77
27.18333,76
27.19167,76
27.20000,76
27.20833,76
27.21667,76
27.22500,76
27.23333,76
27.24167,76
27.25000,77
27.25833,77
27.26667,77
27.27500,77
27.28333,77
27.29167,77
27.30000,78
27.30833,78
27.31667,78
27.32500,77
27.33333,77
27.34167,77
27.35000,77
27.35833,77
27.36667,78
27.37500,78
27.38333,78
27.39167,78
27.40000,78
27.40833,78
27.41667,79
27.42500,79
27.43333,79
27.44167,79
27.45000,79
27.45833,80
27.46667,80
27.47500,80
27.48333,81
27.49167,81
27.50000,80
27.50833,80
27.51667,81
27.52500,80
27.53333,80
27.54167,80
27.55000,80
27.55833,80
27.56667,80
27.57500,80
27.58333,80
27.59167,80
27.60000,80
27.60833,80
27.61667,80
27.62500,80
27.63333,80
27.64167,80
27.65000,80
27.65833,80
27.66667,80
27.67500,79
27.68333,79
27.69167,79
27.70000,79
27.70833,79
27.71667,78
27.72500,78
27.73333,79
27.74167,79
27.75000,79
27.75833,79
27.76667,79
27.77500,78
27.78333,78
27.79167,78
27.80000,77
27.80833,77
27.81667,77
27.82500,76
27.83333,77
27.84167,76
27.85000,76
27.85833,75
27.86667,74
27.87500,74
27.88333,73
27.89167,72
27.90000,71
27.90833,71
27.91667,70
27.92500,69
27.93333,68
27.94167,67
27.95000,66
27.95833,65
27.96667,64
27.97500,63
27.98333,61
27.99167,60
28.00000,58
28.00833,56
28.01667,55
28.02500,53
28.03333,52
28.04167,50
28.05000,49
28.05833,47
28.06667,45
28.07500,43
28.08333,40
28.09167,38
28.10000,36
28.10833,34
28.11667,31
28.12500,28
28.13333,26
28.14167,23
28.15000,20
28.15833,17
28.16667,14
28.17500,11
28.18333,8
28.19167,5
28.20000,1
28.20833,-2
28.21667,-5
28.22500,-8
28.23333,-11
28.24167,-14
28.25000,-17
28.25833,-20
28.26667,-23
28.27500,-26
28.28333,-29
28.29167,-33
28.30000,-36
28.30833,-39
28.31667,-41
28.32500,-44
28.33333,-46
28.34167,-49
28.35000,-51
28.35833,-53
28.36667,-55
28.37500,-57
28.38333,-60
28.39167,-62
28.40000,-63
28.40833,-64
28.41667,-65
28.42500,-66
28.43333,-67
28.44167,-67
28.45000,-68
28.45833,-68
28.46667,-68
28.47500,-68
28.48333,-68
28.49167,-68
28.50000,-67
28.50833,-67
28.51667,-66
28.52500,-65
28.53333,-64
28.54167,-63
28.55000,-62
28.55833,-60
28.56667,-59
28.57500,-57
28.58333,-55
28.59167,-52
28.60000,-50
28.60833,-48
28.61667,-45
28.62500,-43
28.63333,-40
28.64167,-38
28.65000,-35
28.65833,-32
28.66667,-30
28.67500,-28
28.68333,-25
28.69167,-22
28.70000,-20
28.70833,-17
28.71667,-14
28.72500,-12
28.73333,-9
28.74167,-7
28.75000,-4
28.75833,-2
28.76667,1
28.77500,3
28.78333,6
28.79167,9
28.80000,12
28.80833,14
28.81667,17
28.82500,19
28.83333,22
28.84167,24
28.85000,26
28.85833,28
28.86667,30
28.87500,32
28.88333,34
28.89167,36
28.90000,38
28.90833,39
28.91667,41
28.92500,42
28.93333,44
28.94167,45
28.95000,47
28.95833,48
28.96667,49
28.97500,50
28.98333,51
28.99167,53
29.00000,54
29.00833,55
29.01667,56
29.02500,57
29.03333,58
29.04167,59
29.05000,60
29.05833,60
29.06667,61
29.07500,62
29.08333,63
29.09167,64
29.10000,65
29.10833,65
29.11667,66
29.12500,66
29.13333,66
29.14167,67
29.15000,67
29.15833,67
29.16667,68
29.17500,69
29.18333,69
29.19167,70
29.20000,70
29.20833,70
29.21667,70
29.22500,71
29.23333,71
29.24167,71
29.25000,71
29.25833,72
29.26667,72
29.27500,72
29.28333,72
29.29167,72
29.30000,72
29.30833,72
29.31667,72
29.32500,72
29.33333,72
29.34167,72
29.35000,73
29.35833,73
29.36667,73
29.37500,73
29.38333,73
29.39167,74
29.40000,74
29.40833,74
29.41667,74
29.42500,74
29.43333,74
29.44167,74
29.45000,74
29.45833,74
29.46667,74
29.47500,74
29.48333,74
29.49167,73
29.50000,73
29.50833,73
29.51667,72
29.52500,72
29.53333,72
29.54167,72
29.55000,72
29.55833,72
29.56667,72
29.57500,72
29.58333,71
29.59167,71
29.60000,71
29.60833,71
29.61667,71
29.62500,71
29.63333,70
29.64167,69
29.65000,69
29.65833,69
29.66667,68
29.67500,68
29.68333,67
29.69167,67
29.70000,66
29.70833,66
29.71667,65
29.72500,64
29.73333,63
29.74167,63
29.75000,63
29.75833,62
29.76667,61
29.77500,61
29.78333,60
29.79167,60
29.80000,59
29.80833,58
29.81667,58
29.82500,57
29.83333,56
29.84167,55
29.85000,54
29.85833,53
29.86667,51
29.87500,50
29.88333,49
29.89167,49
29.90000,48
29.90833,47
29.91667,46
29.92500,45
29.93333,44
29.94167,43
29.95000,41
29.95833,40
29.96667,39
29.97500,39
29.98333,37
29.99167,36
30.00000,35
30.00833,35
30.01667,34
30.02500,33
30.03333,32
30.04167,31
30.05000,30
30.05833,29
30.06667,28
30.07500,28
30.08333,27
30.09167,26
30.10000,25
30.10833,24
30.11667,23
30.12500,22
30.13333,22
30.14167,21
30.15000,20
30.15833,20
30.16667,20
30.17500,19
30.18333,19
30.19167,19
30.20000,19
30.20833,19
30.21667,19
30.22500,19
30.23333,19
30.24167,18
30.25000,18
30.25833,18
30.26667,18
30.27500,19
30.28333,19
30.29167,19
30.30000,20
30.30833,20
30.31667,21
30.32500,22
30.33333,23
30.34167,24
30.35000,24
30.35833,25
30.36667,26
30.37500,27
30.38333,28
30.39167,28
30.40000,29
30.40833,30
30.41667,30
30.42500,31
30.43333,32
30.44167,33
30.45000,34
30.45833,35
30.46667,36
30.47500,37
30.48333,38
30.49167,39
30.50000,40
30.50833,41
30.51667,42
30.52500,42
30.53333,43
30.54167,44
30.55000,45
30.55833,46
30.56667,47
30.57500,47
30.58333,48
30.59167,48
30.60000,49
30.60833,50
30.61667,50
30.62500,51
30.63333,51
30.64167,52
30.65000,52
30.65833,52
30.66667,53
30.67500,53
30.68333,53
30.69167,53
30.70000,53
30.70833,54
30.71667,54
30.72500,54
30.73333,54
30.74167,54
30.75000,54
30.75833,54
30.76667,54
30.77500,54
30.78333,53
30.79167,53
30.80000,53
30.80833,53
30.81667,53
30.82500,53
30.83333,52
30.84167,52
30.85000,51
30.85833,51
30.86667,50
30.87500,50
30.88333,50
30.89167,49
30.90000,49
30.90833,48
30.91667,48
30.92500,48
30.93333,47
30.94167,47
30.95000,47
30.95833,46
30.96667,46
30.97500,46
30.98333,46
30.99167,45
31.00000,45
31.00833,44
31.01667,44
31.02500,43
31.03333,43
31.04167,43
31.05000,43
31.05833,43
31.06667,43
31.07500,42
31.08333,42
31.09167,42
31.10000,42
31.10833,42
31.11667,42
31.12500,43
31.13333,43
31.14167,43
31.15000,43
31.15833,43
31.16667,44
31.17500,44
31.18333,43
31.19167,43
31.20000,43
31.20833,44
31.21667,44
31.22500,44
31.23333,45
31.24167,45
31.25000,46
31.25833,46
31.26667,47
31.27500,48
31.28333,49
31.29167,50
31.30000,50
31.30833,51
31.31667,52
31.32500,53
31.33333,53
31.34167,54
31.35000,55
31.35833,56
31.36667,56
31.37500,57
31.38333,58
31.39167,58
31.40000,59
31.40833,60
31.41667,61
31.42500,62
31.43333,62
31.44167,63
31.45000,64
31.45833,64
31.46667,65
31.47500,66
31.48333,67
31.49167,67
31.50000,68
31.50833,69
31.51667,69
31.52500,70
31.53333,70
31.54167,71
31.55000,72
31.55833,73
31.56667,73
31.57500,73
31.58333,73
31.59167,74
31.60000,74
31.60833,74
31.61667,74
31.62500,75
31.63333,75
31.64167,76
31.65000,77
31.65833,77
31.66667,78
31.67500,78
31.68333,79
31.69167,79
31.70000,79
31.70833,80
31.71667,80
31.72500,81
31.73333,81
31.74167,81
31.75000,81
31.75833,81
31.76667,81
31.77500,81
31.78333,81
31.79167,81
31.80000,81
31.80833,81
31.81667,82
31.82500,82
31.83333,82
31.84167,82
31.85000,82
31.85833,82
31.86667,82
31.87500,82
31.88333,82
31.89167,82
31.90000,82
31.90833,82
31.91667,82
31.92500,82
31.93333,82
31.94167,82
31.95000,83
31.95833,83
31.96667,83
31.97500,83
31.98333,82
31.99167,82
32.00000,82
32.00833,81
32.01667,81
32.02500,81
32.03333,81
32.04167,81
32.05000,81
32.05833,81
32.06667,80
32.07500,80
32.08333,79
32.09167,79
32.10000,79
32.10833,79
32.11667,80
32.12500,80
32.13333,79
32.14167,79
32.15000,79
32.15833,79
32.16667,79
32.17500,79
32.18333,79
32.19167,79
32.20000,79
32.20833,79
32.21667,79
32.22500,79
32.23333,79
32.24167,78
32.25000,78
32.25833,78
32.26667,78
32.27500,78
32.28333,78
32.29167,78
32.30000,78
32.30833,79
32.31667,79
32.32500,79
32.33333,79
32.34167,79
32.35000,79
32.35833,79
32.36667,79
32.37500,78
32.38333,78
32.39167,78
32.40000,78
32.40833,78
32.41667,77
32.42500,78
32.43333,78
32.44167,78
32.45000,77
32.45833,78
32.46667,78
32.47500,78
32.48333,78
32.49167,78
32.50000,78
32.50833,78
32.51667,78
32.52500,77
32.53333,78
32.54167,78
32.55000,78
32.55833,78
32.56667,78
32.57500,79
32.58333,78
32.59167,78
32.60000,78
32.60833,78
32.61667,78
32.62500,78
32.63333,78
32.64167,78
32.65000,78
32.65833,78
32.66667,78
32.67500,77
32.68333,77
32.69167,78
32.70000,78
32.70833,78
32.71667,78
32.72500,78
32.73333,78
32.74167,78
32.75000,78
32.75833,78
32.76667,78
32.77500,78
32.78333,78
32.79167,78
32.80000,78
32.80833,78
32.81667,78
32.82500,78
32.83333,78
32.84167,78
32.85000,78
32.85833,78
32.86667,79
32.87500,79
32.88333,78
32.89167,78
32.90000,78
32.90833,79
32.91667,79
32.92500,79
32.93333,79
32.94167,79
32.95000,78
32.95833,78
32.96667,78
32.97500,78
32.98333,78
32.99167,79
33.00000,79
33.00833,79
33.01667,79
33.02500,79
33.03333,79
33.04167,79
33.05000,79
33.05833,79
33.06667,79
33.07500,80
33.08333,80
33.09167,80
33.10000,80
33.10833,81
33.11667,81
33.12500,80
33.13333,80
33.14167,79
33.15000,79
33.15833,79
33.16667,79
33.17500,79
33.18333,79
33.19167,79
33.20000,79
33.20833,79
33.21667,79
33.22500,79
33.23333,80
33.24167,80
33.25000,80
33.25833,80
33.26667,80
33.27500,80
33.28333,79
33.29167,80
33.30000,80
33.30833,79
33.31667,79
33.32500,79
33.33333,79
33.34167,79
33.35000,79
33.35833,79
33.36667,79
33.37500,79
33.38333,79
33.39167,79
33.40000,79
33.40833,79
33.41667,79
33.42500,79
33.43333,79
33.44167,79
33.45000,79
33.45833,79
33.46667,79
33.47500,79
33.48333,79
33.49167,79
33.50000,79
33.50833,79
33.51667,79
33.52500,79
33.53333,79
33.54167,79
33.55000,78
33.55833,78
33.56667,78
33.57500,79
33.58333,79
33.59167,79
33.60000,79
33.60833,79
33.61667,80
33.62500,79
33.63333,79
33.64167,79
33.65000,79
33.65833,79
33.66667,79
33.67500,79
33.68333,79
33.69167,79
33.70000,78
33.70833,78
33.71667,78
33.72500,78
33.73333,78
33.74167,78
33.75000,79
33.75833,79
33.76667,79
33.77500,79
33.78333,78
33.79167,78
33.80000,79
33.80833,79
33.81667,79
33.82500,79
33.83333,79
33.84167,79
33.85000,79
33.85833,79
33.86667,79
33.87500,80
33.88333,79
33.89167,79
33.90000,79
33.90833,78
33.91667,78
33.92500,78
33.93333,78
33.94167,78
33.95000,78
33.95833,77
33.96667,77
33.97500,78
33.98333,78
33.99167,78
34.00000,78
34.00833,78
34.01667,78
34.02500,79
34.03333,79
34.04167,78
34.05000,78
34.05833,78
34.06667,78
34.07500,78
34.08333,78
34.09167,78
34.10000,78
34.10833,78
34.11667,78
34.12500,78
34.13333,78
34.14167,78
34.15000,78
34.15833,78
34.16667,78
34.17500,78
34.18333,79
34.19167,79
34.20000,79
34.20833,79
34.21667,79
34.22500,79
34.23333,80
34.24167,80
34.25000,79
34.25833,79
34.26667,79
34.27500,79
34.28333,78
34.29167,78
34.30000,78
34.30833,78
34.31667,78
34.32500,79
34.33333,79
34.34167,79
34.35000,79
34.35833,79
34.36667,79
34.37500,80
34.38333,80
34.39167,80
34.40000,80
34.40833,80
34.41667,80
34.42500,80
34.43333,81
34.44167,80
34.45000,80
34.45833,80
34.46667,80
34.47500,80
34.48333,80
34.49167,80
34.50000,80
34.50833,80
34.51667,80
34.52500,80
34.53333,80
34.54167,80
34.55000,80
34.55833,80
34.56667,80
34.57500,80
34.58333,80
34.59167,80
34.60000,80
34.60833,80
34.61667,81
34.62500,81
34.63333,80
34.64167,80
34.65000,80
34.65833,81
34.66667,81
34.67500,80
34.68333,80
34.69167,80
34.70000,80
34.70833,80
34.71667,80
34.72500,80
34.73333,80
34.74167,80
34.75000,80
34.75833,80
34.76667,79
34.77500,79
34.78333,80
34.79167,79
34.80000,80
34.80833,80
34.81667,80
34.82500,80
34.83333,79
34.84167,79
34.85000,79
34.85833,79
34.86667,80
34.87500,80
34.88333,79
34.89167,79
34.90000,79
34.90833,79
34.91667,79
34.92500,79
34.93333,80
34.94167,80
34.95000,80
34.95833,80
34.96667,80
34.97500,80
34.98333,80
34.99167,80
35.00000,80
35.00833,81
35.01667,81
35.02500,80
35.03333,80
35.04167,80
35.05000,80
35.05833,80
35.06667,80
35.07500,80
35.08333,80
35.09167,80
35.10000,80
35.10833,81
35.11667,81
35.12500,81
35.13333,81
35.14167,80
35.15000,80
35.15833,80
35.16667,80
35.17500,80
35.18333,81
35.19167,81
35.20000,81
35.20833,81
35.21667,81
35.22500,81
35.23333,81
35.24167,80
35.25000,80
35.25833,79
35.26667,79
35.27500,80
35.28333,79
35.29167,79
35.30000,79
35.30833,79
35.31667,79
35.32500,79
35.33333,80
35.34167,80
35.35000,80
35.35833,80
35.36667,81
35.37500,81
35.38333,81
35.39167,81
35.40000,81
35.40833,81
35.41667,81
35.42500,81
35.43333,80
35.44167,80
35.45000,80
35.45833,80
35.46667,80
35.47500,81
35.48333,81
35.49167,81
35.50000,80
35.50833,80
35.51667,80
35.52500,80
35.53333,80
35.54167,81
35.55000,81
35.55833,81
35.56667,81
35.57500,81
35.58333,82
35.59167,81
35.60000,81
35.60833,81
35.61667,81
35.62500,81
35.63333,81
35.64167,81
35.65000,81
35.65833,81
35.66667,81
35.67500,81
35.68333,81
35.69167,81
35.70000,81
35.70833,81
35.71667,81
35.72500,82
35.73333,82
35.74167,82
35.75000,81
35.75833,81
35.76667,81
35.77500,80
35.78333,80
35.79167,80
35.80000,80
35.80833,80
35.81667,81
35.82500,81
35.83333,82
35.84167,82
35.85000,82
35.85833,82
35.86667,82
35.87500,81
35.88333,81
35.89167,81
35.90000,81
35.90833,81
35.91667,81
35.92500,81
35.93333,81
35.94167,82
35.95000,82
35.95833,82
35.96667,82
35.97500,82
35.98333,81
35.99167,81
36.00000,81
36.00833,81
36.01667,81
36.02500,81
36.03333,81
36.04167,81
36.05000,81
36.05833,81
36.06667,81
36.07500,80
36.08333,80
36.09167,80
36.10000,81
36.10833,81
36.11667,81
36.12500,81
36.13333,81
36.14167,81
36.15000,81
36.15833,81
36.16667,81
36.17500,80
36.18333,80
36.19167,80
36.20000,80
36.20833,80
36.21667,80
36.22500,80
36.23333,80
36.24167,80
36.25000,80
36.25833,80
36.26667,81
36.27500,81
36.28333,81
36.29167,81
36.30000,81
36.30833,81
36.31667,81
36.32500,80
36.33333,80
36.34167,80
36.35000,80
36.35833,80
36.36667,81
36.37500,81
36.38333,81
36.39167,81
36.40000,81
36.40833,81
36.41667,81
36.42500,81
36.43333,81
36.44167,81
36.45000,81
36.45833,81
36.46667,81
36.47500,81
36.48333,81
36.49167,81
36.50000,81
36.50833,81
36.51667,81
36.52500,81
36.53333,81
36.54167,81
36.55000,81
36.55833,81
36.56667,81
36.57500,81
36.58333,81
36.59167,81
36.60000,81
36.60833,82
36.61667,82
36.62500,82
36.63333,82
36.64167,82
36.65000,82
36.65833,82
36.66667,82
36.67500,82
36.68333,82
36.69167,81
36.70000,81
36.70833,81
36.71667,81
36.72500,82
36.73333,82
36.74167,82
36.75000,82
36.75833,82
36.76667,82
36.77500,82
36.78333,82
36.79167,82
36.80000,82
36.80833,82
36.81667,82
36.82500,82
36.83333,82
36.84167,82
36.85000,83
36.85833,83
36.86667,83
36.87500,83
36.88333,83
36.89167,83
36.90000,83
36.90833,83
36.91667,83
36.92500,82
36.93333,82
36.94167,83
36.95000,83
36.95833,83
36.96667,83
36.97500,84
36.98333,84
36.99167,84
37.00000,84
37.00833,83
37.01667,83
37.02500,83
37.03333,83
37.04167,83
37.05000,83
37.05833,83
37.06667,83
37.07500,83
37.08333,83
37.09167,84
37.10000,84
37.10833,84
37.11667,84
37.12500,84
37.13333,84
37.14167,84
37.15000,84
37.15833,84
37.16667,83
37.17500,83
37.18333,83
37.19167,83
37.20000,83
37.20833,83
37.21667,83
37.22500,83
37.23333,83
37.24167,83
37.25000,83
37.25833,83
37.26667,83
37.27500,83
37.28333,83
37.29167,83
37.30000,83
37.30833,83
37.31667,83
37.32500,83
37.33333,83
37.34167,83
37.35000,83
37.35833,83
37.36667,82
37.37500,82
37.38333,82
37.39167,83
37.40000,83
37.40833,83
37.41667,83
37.42500,83
37.43333,83
37.44167,83
37.45000,83
37.45833,83
37.46667,83
37.47500,83
37.48333,83
37.49167,83
37.50000,82
37.50833,82
37.51667,82
37.52500,83
37.53333,83
37.54167,83
37.55000,83
37.55833,83
37.56667,84
37.57500,84
37.58333,84
37.59167,84
37.60000,84
37.60833,84
37.61667,84
37.62500,84
37.63333,84
37.64167,84
37.65000,84
37.65833,84
37.66667,84
37.67500,84
37.68333,84
37.69167,84
37.70000,84
37.70833,84
37.71667,84
37.72500,84
37.73333,84
37.74167,83
37.75000,83
37.75833,83
37.76667,84
37.77500,84
37.78333,84
37.79167,84
37.80000,84
37.80833,84
37.81667,84
37.82500,83
37.83333,83
37.84167,83
37.85000,83
37.85833,83
37.86667,82
37.87500,82
37.88333,82
37.89167,83
37.90000,83
37.90833,82
37.91667,82
37.92500,82
37.93333,83
37.94167,83
37.95000,83
37.95833,83
37.96667,83
37.97500,83
37.98333,83
37.99167,83
38.00000,83
38.00833,83
38.01667,83
38.02500,83
38.03333,83
38.04167,83
38.05000,83
38.05833,83
38.06667,83
38.07500,82
38.08333,82
38.09167,82
38.10000,82
38.10833,82
38.11667,82
38.12500,82
38.13333,83
38.14167,83
38.15000,82
38.15833,83
38.16667,83
38.17500,83
38.18333,84
38.19167,84
38.20000,84
38.20833,84
38.21667,84
38.22500,84
38.23333,84
38.24167,84
38.25000,84
38.25833,83
38.26667,83
38.27500,83
38.28333,83
38.29167,83
38.30000,84
38.30833,84
38.31667,84
38.32500,84
38.33333,84
38.34167,83
38.35000,83
38.35833,84
38.36667,84
38.37500,84
38.38333,84
38.39167,84
38.40000,84
38.40833,84
38.41667,84
38.42500,83
38.43333,83
38.44167,83
38.45000,83
38.45833,83
38.46667,84
38.47500,84
38.48333,84
38.49167,84
38.50000,84
38.50833,84
38.51667,84
38.52500,84
38.53333,84
38.54167,85
38.55000,85
38.55833,85
38.56667,85
38.57500,85
38.58333,85
38.59167,85
38.60000,85
38.60833,85
38.61667,85
38.62500,85
38.63333,85
38.64167,85
38.65000,85
38.65833,85
38.66667,85
38.67500,85
38.68333,85
38.69167,85
38.70000,85
38.70833,85
38.71667,85
38.72500,85
38.73333,85
38.74167,85
38.75000,86
38.75833,86
38.76667,86
38.77500,85
38.78333,85
38.79167,85
38.80000,85
38.80833,85
38.81667,85
38.82500,85
38.83333,85
38.84167,85
38.85000,85
38.85833,85
38.86667,85
38.87500,85
38.88333,85
38.89167,85
38.90000,85
38.90833,85
38.91667,85
38.92500,85
38.93333,85
38.94167,85
38.95000,85
38.95833,85
38.96667,85
38.97500,85
38.98333,85
38.99167,85
39.00000,85
39.00833,84
39.01667,85
39.02500,85
39.03333,85
39.04167,86
39.05000,86
39.05833,86
39.06667,86
39.07500,86
39.08333,86
39.09167,86
39.10000,86
39.10833,86
39.11667,86
39.12500,85
39.13333,85
39.14167,85
39.15000,85
39.15833,86
39.16667,86
39.17500,86
39.18333,86
39.19167,85
39.20000,85
39.20833,85
39.21667,85
39.22500,85
39.23333,85
39.24167,86
39.25000,86
39.25833,86
39.26667,86
39.27500,86
39.28333,86
39.29167,86
39.30000,86
39.30833,86
39.31667,86
39.32500,86
39.33333,85
39.34167,85
39.35000,85
39.35833,85
39.36667,84
39.37500,84
39.38333,84
39.39167,83
39.40000,84
39.40833,84
39.41667,84
39.42500,84
39.43333,84
39.44167,85
39.45000,85
39.45833,85
39.46667,86
39.47500,86
39.48333,86
39.49167,86
39.50000,86
39.50833,86
39.51667,86
39.52500,86
39.53333,86
39.54167,86
39.55000,86
39.55833,86
39.56667,86
39.57500,86
39.58333,86
39.59167,86
39.60000,86
39.60833,87
39.61667,87
39.62500,87
39.63333,87
39.64167,87
39.65000,87
39.65833,87
39.66667,87
39.67500,86
39.68333,87
39.69167,87
39.70000,87
39.70833,87
39.71667,87
39.72500,87
39.73333,87
39.74167,87
39.75000,87
39.75833,87
39.76667,87
39.77500,87
39.78333,87
39.79167,87
39.80000,86
39.80833,86
39.81667,86
39.82500,86
39.83333,86
39.84167,87
39.85000,87
39.85833,87
39.86667,87
39.87500,87
39.88333,88
39.89167,88
39.90000,87
39.90833,87
39.91667,87
39.92500,86
39.93333,86
39.94167,86
39.95000,86
39.95833,86
39.96667,87
39.97500,87
39.98333,87
39.99167,87
40.00000,87

