[Header]
Application Name,LabSolutions
Version,5.97 SP1
Data File Name,C:\Users\cremerlab\Desktop\griffin\2021-03-31_NCM3722_NCglucose_turnover\2021-03-31_NCM3722_turnover_batch_3312021_007_021.lcd
Output Date,4/1/2021
Output Time,10:01:18 AM

[File Information]
Type,Data File
Generated,4/1/2021 9:20:59 AM
Generated by,System Administrator
Modified,4/1/2021 10:01:18 AM
Modified by,System Administrator

[Sample Information]
Operator Name,System Administrator
Acquired,4/1/2021 9:21:18 AM
Sample Type,1:Standard
Level,7
Sample Name,2021-03-31_NCM3722_NCglucose_replicate_03_timepoint_007
Sample ID,007
ISTD Amount1,1
ISTD Amount2,1
ISTD Amount3,1
ISTD Amount4,1
ISTD Amount5,1
ISTD Amount6,1
ISTD Amount7,1
ISTD Amount8,1
ISTD Amount9,1
ISTD Amount10,1
ISTD Amount11,1
ISTD Amount12,1
ISTD Amount13,1
ISTD Amount14,1
ISTD Amount15,1
ISTD Amount16,1
ISTD Amount17,1
ISTD Amount18,1
ISTD Amount19,1
ISTD Amount20,1
ISTD Amount21,1
ISTD Amount22,1
ISTD Amount23,1
ISTD Amount24,1
ISTD Amount25,1
ISTD Amount26,1
ISTD Amount27,1
ISTD Amount28,1
ISTD Amount29,1
ISTD Amount30,1
ISTD Amount31,1
ISTD Amount32,1
Sample Amount,1
Dilution Factor,1
Vial#,34
Injection Volume,20

[Original Files]
Data File,C:\Users\cremerlab\Desktop\griffin\2021-03-31_NCM3722_NCglucose_turnover\2021-03-31_NCM3722_turnover_batch_3312021_007_021.lcd
Method File,C:\LabSolutions\Data\Project1\organicacidsetc2.lcm
Batch File,C:\Users\cremerlab\Desktop\griffin\2021-03-31_NCM3722_NCglucose_turnover\2021-03-31_NCM3722_turnover_batch.lcb
Report Format File,c:\LabSolutions\System\DEFAULT.lsr

[File Description]


[Configuration]
Instrument Name,HPLC-PC-Instrument1
Instrument #,1
Line #,1
# of Detectors,2
Detector ID,Detector A,Detector B
Detector Name,Detector A,Detector B
# of Channels,1,1

[Peak Table(Detector A)]
# of Peaks,0

[Peak Table(Detector B)]
# of Peaks,5
Peak#,R.Time,I.Time,F.Time,Area,Height,A/H,Conc.,Mark,ID#,Name,k',Plate #,Plate Ht.,Tailing,Resolution,Sep.Factor,Area Ratio,Height Ratio,Conc. %,Norm Conc.
1,11.058,10.750,12.458,1217376,70307,17.315,23.007,   ,,,0.000,10710,14.005,1.275,0.000,0.000,0,0,0.000,0.000
2,15.106,14.100,15.400,3174922,119302,26.613,60.002,   ,,,0.366,7042,21.301,0.000,7.055,0.000,0,0,0.000,0.000
3,15.641,15.400,18.517,886065,35918,24.669,16.745, V ,,,0.414,8021,18.702,0.000,0.754,1.132,0,0,0.000,0.000
4,19.001,18.692,19.558,2259,103,22.003,0.043,   ,,,0.718,16042,9.350,1.225,5.175,1.733,0,0,0.000,0.000
5,25.060,24.558,25.733,10744,380,28.309,0.203,   ,,,1.266,17212,8.715,1.089,8.884,1.763,0,0,0.000,0.000

[LC Chromatogram(Detector B-Ch1)]
Interval(msec),500
# of Points,4801
Start Time(min),0.000
End Time(min),40.000
Intensity Units,mV
Intensity Multiplier,0.001
R.Time (min),Intensity
0.00000,0
0.00833,0
0.01667,0
0.02500,0
0.03333,0
0.04167,0
0.05000,0
0.05833,0
0.06667,1
0.07500,1
0.08333,1
0.09167,1
0.10000,1
0.10833,0
0.11667,0
0.12500,0
0.13333,0
0.14167,0
0.15000,0
0.15833,0
0.16667,0
0.17500,0
0.18333,0
0.19167,0
0.20000,0
0.20833,0
0.21667,0
0.22500,0
0.23333,0
0.24167,1
0.25000,1
0.25833,1
0.26667,1
0.27500,1
0.28333,1
0.29167,1
0.30000,1
0.30833,1
0.31667,1
0.32500,1
0.33333,1
0.34167,1
0.35000,1
0.35833,1
0.36667,0
0.37500,0
0.38333,0
0.39167,0
0.40000,0
0.40833,1
0.41667,1
0.42500,2
0.43333,2
0.44167,1
0.45000,1
0.45833,1
0.46667,1
0.47500,1
0.48333,1
0.49167,1
0.50000,1
0.50833,2
0.51667,2
0.52500,2
0.53333,1
0.54167,2
0.55000,2
0.55833,2
0.56667,2
0.57500,2
0.58333,2
0.59167,2
0.60000,2
0.60833,2
0.61667,1
0.62500,1
0.63333,2
0.64167,1
0.65000,1
0.65833,1
0.66667,1
0.67500,1
0.68333,0
0.69167,0
0.70000,-0
0.70833,0
0.71667,0
0.72500,0
0.73333,0
0.74167,0
0.75000,-0
0.75833,-0
0.76667,-0
0.77500,-0
0.78333,-0
0.79167,0
0.80000,0
0.80833,1
0.81667,1
0.82500,1
0.83333,1
0.84167,1
0.85000,1
0.85833,1
0.86667,2
0.87500,2
0.88333,2
0.89167,2
0.90000,3
0.90833,2
0.91667,2
0.92500,2
0.93333,2
0.94167,2
0.95000,2
0.95833,2
0.96667,2
0.97500,2
0.98333,2
0.99167,2
1.00000,2
1.00833,3
1.01667,2
1.02500,2
1.03333,2
1.04167,2
1.05000,2
1.05833,2
1.06667,3
1.07500,3
1.08333,3
1.09167,2
1.10000,2
1.10833,2
1.11667,2
1.12500,2
1.13333,2
1.14167,2
1.15000,3
1.15833,3
1.16667,3
1.17500,3
1.18333,3
1.19167,3
1.20000,3
1.20833,2
1.21667,2
1.22500,2
1.23333,3
1.24167,3
1.25000,3
1.25833,3
1.26667,3
1.27500,3
1.28333,3
1.29167,3
1.30000,3
1.30833,3
1.31667,3
1.32500,3
1.33333,3
1.34167,3
1.35000,3
1.35833,3
1.36667,3
1.37500,2
1.38333,2
1.39167,2
1.40000,2
1.40833,2
1.41667,2
1.42500,2
1.43333,3
1.44167,3
1.45000,3
1.45833,3
1.46667,3
1.47500,3
1.48333,4
1.49167,4
1.50000,4
1.50833,4
1.51667,4
1.52500,4
1.53333,5
1.54167,5
1.55000,5
1.55833,5
1.56667,5
1.57500,5
1.58333,4
1.59167,4
1.60000,4
1.60833,4
1.61667,4
1.62500,4
1.63333,4
1.64167,4
1.65000,5
1.65833,5
1.66667,5
1.67500,5
1.68333,6
1.69167,6
1.70000,6
1.70833,6
1.71667,6
1.72500,6
1.73333,6
1.74167,6
1.75000,5
1.75833,5
1.76667,6
1.77500,6
1.78333,6
1.79167,6
1.80000,6
1.80833,7
1.81667,6
1.82500,6
1.83333,6
1.84167,6
1.85000,6
1.85833,6
1.86667,6
1.87500,6
1.88333,6
1.89167,6
1.90000,6
1.90833,6
1.91667,7
1.92500,7
1.93333,7
1.94167,7
1.95000,7
1.95833,7
1.96667,6
1.97500,6
1.98333,7
1.99167,7
2.00000,7
2.00833,7
2.01667,7
2.02500,7
2.03333,7
2.04167,7
2.05000,7
2.05833,7
2.06667,7
2.07500,7
2.08333,8
2.09167,8
2.10000,8
2.10833,8
2.11667,7
2.12500,7
2.13333,7
2.14167,7
2.15000,7
2.15833,7
2.16667,7
2.17500,7
2.18333,7
2.19167,7
2.20000,7
2.20833,7
2.21667,6
2.22500,6
2.23333,6
2.24167,6
2.25000,7
2.25833,7
2.26667,7
2.27500,7
2.28333,7
2.29167,7
2.30000,7
2.30833,7
2.31667,7
2.32500,7
2.33333,7
2.34167,7
2.35000,7
2.35833,7
2.36667,7
2.37500,7
2.38333,7
2.39167,7
2.40000,7
2.40833,7
2.41667,7
2.42500,7
2.43333,7
2.44167,7
2.45000,7
2.45833,7
2.46667,7
2.47500,7
2.48333,6
2.49167,6
2.50000,6
2.50833,6
2.51667,5
2.52500,5
2.53333,5
2.54167,5
2.55000,5
2.55833,5
2.56667,5
2.57500,5
2.58333,5
2.59167,5
2.60000,5
2.60833,5
2.61667,5
2.62500,5
2.63333,5
2.64167,5
2.65000,5
2.65833,5
2.66667,5
2.67500,5
2.68333,5
2.69167,5
2.70000,5
2.70833,5
2.71667,5
2.72500,5
2.73333,4
2.74167,4
2.75000,4
2.75833,4
2.76667,5
2.77500,5
2.78333,5
2.79167,5
2.80000,5
2.80833,5
2.81667,5
2.82500,5
2.83333,4
2.84167,4
2.85000,4
2.85833,4
2.86667,4
2.87500,3
2.88333,3
2.89167,3
2.90000,3
2.90833,3
2.91667,3
2.92500,3
2.93333,3
2.94167,4
2.95000,4
2.95833,4
2.96667,4
2.97500,4
2.98333,4
2.99167,4
3.00000,4
3.00833,3
3.01667,3
3.02500,3
3.03333,3
3.04167,3
3.05000,4
3.05833,4
3.06667,4
3.07500,4
3.08333,4
3.09167,4
3.10000,4
3.10833,4
3.11667,4
3.12500,4
3.13333,4
3.14167,4
3.15000,4
3.15833,4
3.16667,4
3.17500,4
3.18333,4
3.19167,4
3.20000,5
3.20833,4
3.21667,4
3.22500,4
3.23333,4
3.24167,5
3.25000,5
3.25833,5
3.26667,5
3.27500,5
3.28333,5
3.29167,5
3.30000,5
3.30833,5
3.31667,5
3.32500,5
3.33333,5
3.34167,5
3.35000,5
3.35833,5
3.36667,5
3.37500,5
3.38333,5
3.39167,5
3.40000,5
3.40833,4
3.41667,4
3.42500,4
3.43333,4
3.44167,4
3.45000,4
3.45833,5
3.46667,5
3.47500,5
3.48333,5
3.49167,5
3.50000,5
3.50833,5
3.51667,5
3.52500,5
3.53333,6
3.54167,6
3.55000,6
3.55833,6
3.56667,6
3.57500,6
3.58333,6
3.59167,6
3.60000,6
3.60833,6
3.61667,7
3.62500,7
3.63333,7
3.64167,6
3.65000,6
3.65833,7
3.66667,7
3.67500,7
3.68333,7
3.69167,8
3.70000,7
3.70833,7
3.71667,7
3.72500,7
3.73333,7
3.74167,8
3.75000,8
3.75833,8
3.76667,8
3.77500,8
3.78333,9
3.79167,9
3.80000,9
3.80833,9
3.81667,8
3.82500,8
3.83333,9
3.84167,9
3.85000,9
3.85833,9
3.86667,9
3.87500,9
3.88333,9
3.89167,9
3.90000,9
3.90833,9
3.91667,8
3.92500,8
3.93333,9
3.94167,9
3.95000,9
3.95833,9
3.96667,9
3.97500,9
3.98333,9
3.99167,9
4.00000,9
4.00833,9
4.01667,9
4.02500,9
4.03333,9
4.04167,9
4.05000,9
4.05833,10
4.06667,10
4.07500,10
4.08333,10
4.09167,10
4.10000,11
4.10833,11
4.11667,11
4.12500,11
4.13333,11
4.14167,12
4.15000,12
4.15833,12
4.16667,12
4.17500,12
4.18333,12
4.19167,11
4.20000,11
4.20833,12
4.21667,12
4.22500,12
4.23333,12
4.24167,11
4.25000,11
4.25833,11
4.26667,11
4.27500,11
4.28333,10
4.29167,10
4.30000,11
4.30833,11
4.31667,11
4.32500,11
4.33333,11
4.34167,12
4.35000,12
4.35833,12
4.36667,12
4.37500,12
4.38333,12
4.39167,12
4.40000,12
4.40833,12
4.41667,12
4.42500,12
4.43333,12
4.44167,12
4.45000,12
4.45833,11
4.46667,11
4.47500,11
4.48333,11
4.49167,11
4.50000,11
4.50833,11
4.51667,11
4.52500,11
4.53333,11
4.54167,11
4.55000,11
4.55833,11
4.56667,11
4.57500,11
4.58333,11
4.59167,11
4.60000,11
4.60833,11
4.61667,11
4.62500,11
4.63333,12
4.64167,12
4.65000,12
4.65833,12
4.66667,12
4.67500,11
4.68333,11
4.69167,11
4.70000,10
4.70833,10
4.71667,10
4.72500,11
4.73333,11
4.74167,11
4.75000,12
4.75833,11
4.76667,11
4.77500,11
4.78333,11
4.79167,11
4.80000,11
4.80833,11
4.81667,11
4.82500,11
4.83333,11
4.84167,11
4.85000,10
4.85833,10
4.86667,10
4.87500,10
4.88333,10
4.89167,10
4.90000,10
4.90833,10
4.91667,10
4.92500,10
4.93333,9
4.94167,9
4.95000,9
4.95833,9
4.96667,9
4.97500,9
4.98333,9
4.99167,10
5.00000,10
5.00833,10
5.01667,10
5.02500,10
5.03333,10
5.04167,10
5.05000,9
5.05833,9
5.06667,9
5.07500,9
5.08333,9
5.09167,9
5.10000,8
5.10833,8
5.11667,8
5.12500,9
5.13333,9
5.14167,9
5.15000,9
5.15833,9
5.16667,9
5.17500,9
5.18333,9
5.19167,9
5.20000,9
5.20833,9
5.21667,9
5.22500,9
5.23333,9
5.24167,9
5.25000,9
5.25833,9
5.26667,9
5.27500,9
5.28333,8
5.29167,8
5.30000,8
5.30833,8
5.31667,7
5.32500,7
5.33333,7
5.34167,7
5.35000,7
5.35833,7
5.36667,7
5.37500,7
5.38333,7
5.39167,7
5.40000,7
5.40833,8
5.41667,8
5.42500,8
5.43333,8
5.44167,8
5.45000,8
5.45833,8
5.46667,8
5.47500,8
5.48333,8
5.49167,8
5.50000,8
5.50833,8
5.51667,8
5.52500,8
5.53333,8
5.54167,8
5.55000,8
5.55833,7
5.56667,7
5.57500,7
5.58333,7
5.59167,7
5.60000,7
5.60833,8
5.61667,8
5.62500,8
5.63333,8
5.64167,8
5.65000,8
5.65833,9
5.66667,9
5.67500,9
5.68333,8
5.69167,8
5.70000,9
5.70833,9
5.71667,8
5.72500,8
5.73333,8
5.74167,9
5.75000,9
5.75833,9
5.76667,9
5.77500,9
5.78333,9
5.79167,9
5.80000,9
5.80833,9
5.81667,9
5.82500,9
5.83333,9
5.84167,9
5.85000,9
5.85833,9
5.86667,9
5.87500,9
5.88333,9
5.89167,9
5.90000,9
5.90833,9
5.91667,9
5.92500,9
5.93333,9
5.94167,9
5.95000,9
5.95833,9
5.96667,9
5.97500,9
5.98333,9
5.99167,9
6.00000,9
6.00833,9
6.01667,9
6.02500,9
6.03333,8
6.04167,8
6.05000,8
6.05833,9
6.06667,9
6.07500,9
6.08333,9
6.09167,10
6.10000,9
6.10833,9
6.11667,9
6.12500,9
6.13333,9
6.14167,9
6.15000,9
6.15833,9
6.16667,9
6.17500,9
6.18333,9
6.19167,9
6.20000,9
6.20833,9
6.21667,10
6.22500,10
6.23333,9
6.24167,9
6.25000,9
6.25833,9
6.26667,9
6.27500,9
6.28333,9
6.29167,9
6.30000,9
6.30833,9
6.31667,9
6.32500,9
6.33333,9
6.34167,10
6.35000,10
6.35833,10
6.36667,10
6.37500,10
6.38333,10
6.39167,9
6.40000,9
6.40833,9
6.41667,9
6.42500,9
6.43333,9
6.44167,9
6.45000,9
6.45833,9
6.46667,9
6.47500,9
6.48333,9
6.49167,9
6.50000,9
6.50833,9
6.51667,9
6.52500,10
6.53333,10
6.54167,10
6.55000,10
6.55833,10
6.56667,10
6.57500,10
6.58333,9
6.59167,9
6.60000,10
6.60833,9
6.61667,9
6.62500,9
6.63333,9
6.64167,9
6.65000,9
6.65833,10
6.66667,10
6.67500,10
6.68333,10
6.69167,10
6.70000,10
6.70833,10
6.71667,10
6.72500,10
6.73333,10
6.74167,10
6.75000,10
6.75833,10
6.76667,10
6.77500,11
6.78333,11
6.79167,11
6.80000,10
6.80833,10
6.81667,10
6.82500,10
6.83333,10
6.84167,10
6.85000,10
6.85833,10
6.86667,10
6.87500,10
6.88333,10
6.89167,10
6.90000,10
6.90833,10
6.91667,10
6.92500,10
6.93333,10
6.94167,10
6.95000,10
6.95833,10
6.96667,10
6.97500,10
6.98333,10
6.99167,10
7.00000,11
7.00833,11
7.01667,11
7.02500,11
7.03333,11
7.04167,11
7.05000,11
7.05833,10
7.06667,10
7.07500,10
7.08333,10
7.09167,10
7.10000,10
7.10833,10
7.11667,10
7.12500,10
7.13333,10
7.14167,10
7.15000,10
7.15833,10
7.16667,10
7.17500,11
7.18333,11
7.19167,11
7.20000,11
7.20833,11
7.21667,11
7.22500,11
7.23333,11
7.24167,11
7.25000,11
7.25833,10
7.26667,10
7.27500,10
7.28333,10
7.29167,10
7.30000,11
7.30833,11
7.31667,11
7.32500,11
7.33333,11
7.34167,10
7.35000,10
7.35833,10
7.36667,10
7.37500,10
7.38333,10
7.39167,10
7.40000,11
7.40833,11
7.41667,11
7.42500,11
7.43333,11
7.44167,11
7.45000,11
7.45833,11
7.46667,11
7.47500,11
7.48333,11
7.49167,11
7.50000,11
7.50833,11
7.51667,12
7.52500,12
7.53333,12
7.54167,12
7.55000,11
7.55833,11
7.56667,11
7.57500,11
7.58333,11
7.59167,12
7.60000,12
7.60833,12
7.61667,12
7.62500,12
7.63333,12
7.64167,12
7.65000,12
7.65833,11
7.66667,11
7.67500,11
7.68333,11
7.69167,12
7.70000,12
7.70833,12
7.71667,12
7.72500,12
7.73333,12
7.74167,12
7.75000,12
7.75833,12
7.76667,12
7.77500,11
7.78333,11
7.79167,11
7.80000,11
7.80833,10
7.81667,10
7.82500,11
7.83333,11
7.84167,11
7.85000,11
7.85833,12
7.86667,12
7.87500,12
7.88333,11
7.89167,11
7.90000,11
7.90833,11
7.91667,11
7.92500,11
7.93333,11
7.94167,11
7.95000,11
7.95833,11
7.96667,11
7.97500,11
7.98333,11
7.99167,11
8.00000,11
8.00833,11
8.01667,12
8.02500,12
8.03333,12
8.04167,12
8.05000,12
8.05833,12
8.06667,12
8.07500,12
8.08333,11
8.09167,11
8.10000,11
8.10833,11
8.11667,11
8.12500,12
8.13333,12
8.14167,12
8.15000,12
8.15833,12
8.16667,12
8.17500,12
8.18333,12
8.19167,12
8.20000,12
8.20833,12
8.21667,12
8.22500,12
8.23333,12
8.24167,12
8.25000,12
8.25833,12
8.26667,12
8.27500,12
8.28333,12
8.29167,12
8.30000,12
8.30833,12
8.31667,12
8.32500,12
8.33333,12
8.34167,12
8.35000,12
8.35833,12
8.36667,12
8.37500,12
8.38333,12
8.39167,12
8.40000,12
8.40833,12
8.41667,12
8.42500,12
8.43333,13
8.44167,13
8.45000,12
8.45833,12
8.46667,12
8.47500,13
8.48333,13
8.49167,12
8.50000,12
8.50833,12
8.51667,12
8.52500,12
8.53333,12
8.54167,12
8.55000,12
8.55833,12
8.56667,12
8.57500,12
8.58333,12
8.59167,13
8.60000,13
8.60833,13
8.61667,13
8.62500,13
8.63333,13
8.64167,13
8.65000,13
8.65833,13
8.66667,13
8.67500,13
8.68333,13
8.69167,13
8.70000,13
8.70833,12
8.71667,12
8.72500,12
8.73333,11
8.74167,11
8.75000,12
8.75833,12
8.76667,12
8.77500,12
8.78333,12
8.79167,12
8.80000,12
8.80833,12
8.81667,12
8.82500,12
8.83333,12
8.84167,12
8.85000,12
8.85833,12
8.86667,13
8.87500,13
8.88333,13
8.89167,12
8.90000,13
8.90833,13
8.91667,13
8.92500,13
8.93333,13
8.94167,13
8.95000,13
8.95833,13
8.96667,13
8.97500,13
8.98333,13
8.99167,13
9.00000,13
9.00833,13
9.01667,13
9.02500,12
9.03333,12
9.04167,12
9.05000,11
9.05833,11
9.06667,11
9.07500,12
9.08333,12
9.09167,12
9.10000,12
9.10833,12
9.11667,13
9.12500,13
9.13333,13
9.14167,13
9.15000,13
9.15833,13
9.16667,13
9.17500,13
9.18333,13
9.19167,13
9.20000,13
9.20833,12
9.21667,12
9.22500,12
9.23333,12
9.24167,13
9.25000,13
9.25833,13
9.26667,13
9.27500,13
9.28333,13
9.29167,14
9.30000,14
9.30833,14
9.31667,14
9.32500,14
9.33333,14
9.34167,14
9.35000,14
9.35833,14
9.36667,14
9.37500,13
9.38333,13
9.39167,13
9.40000,13
9.40833,13
9.41667,13
9.42500,13
9.43333,13
9.44167,13
9.45000,13
9.45833,13
9.46667,13
9.47500,14
9.48333,14
9.49167,14
9.50000,14
9.50833,14
9.51667,14
9.52500,14
9.53333,14
9.54167,14
9.55000,14
9.55833,14
9.56667,14
9.57500,14
9.58333,14
9.59167,14
9.60000,14
9.60833,14
9.61667,14
9.62500,13
9.63333,13
9.64167,13
9.65000,13
9.65833,13
9.66667,13
9.67500,14
9.68333,14
9.69167,14
9.70000,14
9.70833,14
9.71667,14
9.72500,14
9.73333,14
9.74167,14
9.75000,14
9.75833,14
9.76667,14
9.77500,15
9.78333,15
9.79167,14
9.80000,14
9.80833,14
9.81667,14
9.82500,14
9.83333,14
9.84167,13
9.85000,13
9.85833,13
9.86667,14
9.87500,14
9.88333,14
9.89167,14
9.90000,14
9.90833,14
9.91667,14
9.92500,14
9.93333,14
9.94167,14
9.95000,14
9.95833,15
9.96667,15
9.97500,15
9.98333,15
9.99167,15
10.00000,15
10.00833,15
10.01667,14
10.02500,14
10.03333,14
10.04167,14
10.05000,14
10.05833,15
10.06667,15
10.07500,15
10.08333,15
10.09167,15
10.10000,16
10.10833,16
10.11667,16
10.12500,15
10.13333,16
10.14167,16
10.15000,16
10.15833,16
10.16667,16
10.17500,16
10.18333,17
10.19167,17
10.20000,16
10.20833,16
10.21667,16
10.22500,15
10.23333,15
10.24167,15
10.25000,16
10.25833,16
10.26667,16
10.27500,16
10.28333,16
10.29167,16
10.30000,16
10.30833,16
10.31667,16
10.32500,16
10.33333,16
10.34167,16
10.35000,16
10.35833,16
10.36667,16
10.37500,16
10.38333,17
10.39167,17
10.40000,18
10.40833,19
10.41667,20
10.42500,20
10.43333,20
10.44167,21
10.45000,21
10.45833,21
10.46667,21
10.47500,21
10.48333,20
10.49167,20
10.50000,18
10.50833,16
10.51667,12
10.52500,7
10.53333,-1
10.54167,-12
10.55000,-27
10.55833,-47
10.56667,-74
10.57500,-110
10.58333,-155
10.59167,-213
10.60000,-285
10.60833,-375
10.61667,-482
10.62500,-610
10.63333,-760
10.64167,-933
10.65000,-1130
10.65833,-1349
10.66667,-1589
10.67500,-1846
10.68333,-2117
10.69167,-2394
10.70000,-2671
10.70833,-2938
10.71667,-3186
10.72500,-3402
10.73333,-3576
10.74167,-3693
10.75000,-3741
10.75833,-3706
10.76667,-3574
10.77500,-3333
10.78333,-2969
10.79167,-2473
10.80000,-1833
10.80833,-1040
10.81667,-88
10.82500,1032
10.83333,2323
10.84167,3789
10.85000,5431
10.85833,7251
10.86667,9245
10.87500,11413
10.88333,13748
10.89167,16246
10.90000,18898
10.90833,21694
10.91667,24623
10.92500,27671
10.93333,30821
10.94167,34052
10.95000,37339
10.95833,40656
10.96667,43969
10.97500,47241
10.98333,50431
10.99167,53493
11.00000,56375
11.00833,59026
11.01667,61391
11.02500,63418
11.03333,65058
11.04167,66266
11.05000,67010
11.05833,67265
11.06667,67022
11.07500,66283
11.08333,65068
11.09167,63406
11.10000,61342
11.10833,58926
11.11667,56218
11.12500,53281
11.13333,50179
11.14167,46973
11.15000,43722
11.15833,40480
11.16667,37291
11.17500,34195
11.18333,31223
11.19167,28399
11.20000,25739
11.20833,23254
11.21667,20949
11.22500,18826
11.23333,16882
11.24167,15110
11.25000,13504
11.25833,12053
11.26667,10748
11.27500,9577
11.28333,8531
11.29167,7597
11.30000,6767
11.30833,6029
11.31667,5376
11.32500,4798
11.33333,4287
11.34167,3836
11.35000,3438
11.35833,3087
11.36667,2777
11.37500,2505
11.38333,2265
11.39167,2053
11.40000,1867
11.40833,1702
11.41667,1557
11.42500,1428
11.43333,1314
11.44167,1213
11.45000,1124
11.45833,1043
11.46667,972
11.47500,907
11.48333,850
11.49167,798
11.50000,751
11.50833,708
11.51667,670
11.52500,635
11.53333,604
11.54167,575
11.55000,549
11.55833,525
11.56667,502
11.57500,482
11.58333,462
11.59167,445
11.60000,428
11.60833,412
11.61667,398
11.62500,384
11.63333,372
11.64167,360
11.65000,349
11.65833,339
11.66667,329
11.67500,319
11.68333,311
11.69167,302
11.70000,294
11.70833,287
11.71667,280
11.72500,274
11.73333,268
11.74167,262
11.75000,257
11.75833,252
11.76667,247
11.77500,243
11.78333,238
11.79167,234
11.80000,230
11.80833,227
11.81667,224
11.82500,221
11.83333,218
11.84167,215
11.85000,213
11.85833,210
11.86667,207
11.87500,205
11.88333,203
11.89167,201
11.90000,199
11.90833,197
11.91667,195
11.92500,193
11.93333,191
11.94167,190
11.95000,188
11.95833,187
11.96667,186
11.97500,185
11.98333,183
11.99167,182
12.00000,181
12.00833,180
12.01667,179
12.02500,177
12.03333,176
12.04167,175
12.05000,174
12.05833,172
12.06667,171
12.07500,170
12.08333,169
12.09167,168
12.10000,167
12.10833,166
12.11667,165
12.12500,164
12.13333,163
12.14167,162
12.15000,161
12.15833,159
12.16667,158
12.17500,157
12.18333,156
12.19167,155
12.20000,154
12.20833,153
12.21667,152
12.22500,151
12.23333,150
12.24167,149
12.25000,148
12.25833,147
12.26667,146
12.27500,145
12.28333,144
12.29167,143
12.30000,143
12.30833,142
12.31667,141
12.32500,141
12.33333,140
12.34167,139
12.35000,138
12.35833,137
12.36667,137
12.37500,136
12.38333,136
12.39167,135
12.40000,134
12.40833,134
12.41667,133
12.42500,132
12.43333,132
12.44167,131
12.45000,131
12.45833,130
12.46667,130
12.47500,130
12.48333,129
12.49167,129
12.50000,128
12.50833,127
12.51667,127
12.52500,127
12.53333,126
12.54167,126
12.55000,126
12.55833,125
12.56667,124
12.57500,124
12.58333,123
12.59167,122
12.60000,122
12.60833,121
12.61667,121
12.62500,120
12.63333,120
12.64167,120
12.65000,119
12.65833,118
12.66667,118
12.67500,117
12.68333,117
12.69167,116
12.70000,116
12.70833,116
12.71667,115
12.72500,115
12.73333,114
12.74167,114
12.75000,113
12.75833,112
12.76667,112
12.77500,111
12.78333,111
12.79167,110
12.80000,110
12.80833,110
12.81667,110
12.82500,110
12.83333,110
12.84167,110
12.85000,110
12.85833,110
12.86667,110
12.87500,110
12.88333,110
12.89167,110
12.90000,110
12.90833,110
12.91667,110
12.92500,110
12.93333,110
12.94167,110
12.95000,110
12.95833,110
12.96667,110
12.97500,110
12.98333,110
12.99167,110
13.00000,111
13.00833,111
13.01667,111
13.02500,111
13.03333,111
13.04167,111
13.05000,111
13.05833,111
13.06667,110
13.07500,110
13.08333,110
13.09167,110
13.10000,110
13.10833,110
13.11667,110
13.12500,109
13.13333,109
13.14167,109
13.15000,109
13.15833,108
13.16667,108
13.17500,108
13.18333,107
13.19167,107
13.20000,107
13.20833,107
13.21667,106
13.22500,106
13.23333,106
13.24167,105
13.25000,105
13.25833,105
13.26667,104
13.27500,104
13.28333,103
13.29167,102
13.30000,101
13.30833,101
13.31667,100
13.32500,99
13.33333,99
13.34167,98
13.35000,97
13.35833,96
13.36667,95
13.37500,94
13.38333,93
13.39167,92
13.40000,91
13.40833,91
13.41667,90
13.42500,89
13.43333,88
13.44167,87
13.45000,86
13.45833,85
13.46667,84
13.47500,83
13.48333,82
13.49167,81
13.50000,81
13.50833,80
13.51667,79
13.52500,78
13.53333,78
13.54167,77
13.55000,77
13.55833,76
13.56667,76
13.57500,75
13.58333,75
13.59167,75
13.60000,74
13.60833,74
13.61667,73
13.62500,72
13.63333,72
13.64167,71
13.65000,71
13.65833,71
13.66667,71
13.67500,71
13.68333,71
13.69167,70
13.70000,70
13.70833,69
13.71667,69
13.72500,70
13.73333,70
13.74167,71
13.75000,71
13.75833,71
13.76667,72
13.77500,72
13.78333,72
13.79167,72
13.80000,72
13.80833,72
13.81667,73
13.82500,73
13.83333,73
13.84167,74
13.85000,74
13.85833,74
13.86667,75
13.87500,75
13.88333,76
13.89167,76
13.90000,76
13.90833,77
13.91667,77
13.92500,77
13.93333,77
13.94167,78
13.95000,78
13.95833,79
13.96667,80
13.97500,80
13.98333,80
13.99167,81
14.00000,81
14.00833,82
14.01667,83
14.02500,83
14.03333,84
14.04167,85
14.05000,85
14.05833,86
14.06667,87
14.07500,88
14.08333,89
14.09167,89
14.10000,90
14.10833,91
14.11667,92
14.12500,94
14.13333,95
14.14167,97
14.15000,99
14.15833,101
14.16667,103
14.17500,107
14.18333,110
14.19167,114
14.20000,119
14.20833,125
14.21667,132
14.22500,141
14.23333,151
14.24167,164
14.25000,178
14.25833,196
14.26667,217
14.27500,243
14.28333,274
14.29167,311
14.30000,355
14.30833,407
14.31667,468
14.32500,540
14.33333,625
14.34167,722
14.35000,835
14.35833,965
14.36667,1113
14.37500,1281
14.38333,1471
14.39167,1684
14.40000,1923
14.40833,2190
14.41667,2485
14.42500,2809
14.43333,3165
14.44167,3553
14.45000,3974
14.45833,4430
14.46667,4922
14.47500,5449
14.48333,6013
14.49167,6614
14.50000,7252
14.50833,7927
14.51667,8640
14.52500,9390
14.53333,10177
14.54167,11000
14.55000,11860
14.55833,12756
14.56667,13687
14.57500,14652
14.58333,15652
14.59167,16686
14.60000,17753
14.60833,18852
14.61667,19983
14.62500,21145
14.63333,22338
14.64167,23561
14.65000,24813
14.65833,26094
14.66667,27403
14.67500,28741
14.68333,30105
14.69167,31496
14.70000,32914
14.70833,34358
14.71667,35828
14.72500,37323
14.73333,38843
14.74167,40388
14.75000,41958
14.75833,43552
14.76667,45170
14.77500,46811
14.78333,48476
14.79167,50164
14.80000,51875
14.80833,53608
14.81667,55364
14.82500,57143
14.83333,58945
14.84167,60768
14.85000,62613
14.85833,64481
14.86667,66369
14.87500,68279
14.88333,70209
14.89167,72160
14.90000,74131
14.90833,76123
14.91667,78134
14.92500,80164
14.93333,82212
14.94167,84278
14.95000,86359
14.95833,88457
14.96667,90569
14.97500,92692
14.98333,94826
14.99167,96968
15.00000,99112
15.00833,101254
15.01667,103388
15.02500,105502
15.03333,107584
15.04167,109613
15.05000,111565
15.05833,113407
15.06667,115099
15.07500,116592
15.08333,117831
15.09167,118754
15.10000,119299
15.10833,119402
15.11667,119005
15.12500,118059
15.13333,116529
15.14167,114396
15.15000,111661
15.15833,108346
15.16667,104491
15.17500,100156
15.18333,95416
15.19167,90357
15.20000,85071
15.20833,79654
15.21667,74197
15.22500,68788
15.23333,63504
15.24167,58412
15.25000,53565
15.25833,49005
15.26667,44762
15.27500,40854
15.28333,37289
15.29167,34068
15.30000,31185
15.30833,28629
15.31667,26385
15.32500,24438
15.33333,22768
15.34167,21359
15.35000,20192
15.35833,19250
15.36667,18517
15.37500,17977
15.38333,17617
15.39167,17421
15.40000,17379
15.40833,17478
15.41667,17708
15.42500,18059
15.43333,18518
15.44167,19078
15.45000,19726
15.45833,20455
15.46667,21252
15.47500,22109
15.48333,23014
15.49167,23957
15.50000,24926
15.50833,25912
15.51667,26903
15.52500,27889
15.53333,28857
15.54167,29800
15.55000,30705
15.55833,31564
15.56667,32369
15.57500,33109
15.58333,33778
15.59167,34369
15.60000,34877
15.60833,35295
15.61667,35622
15.62500,35853
15.63333,35988
15.64167,36024
15.65000,35963
15.65833,35805
15.66667,35553
15.67500,35210
15.68333,34780
15.69167,34266
15.70000,33675
15.70833,33012
15.71667,32282
15.72500,31492
15.73333,30649
15.74167,29760
15.75000,28830
15.75833,27868
15.76667,26879
15.77500,25870
15.78333,24847
15.79167,23816
15.80000,22783
15.80833,21754
15.81667,20733
15.82500,19724
15.83333,18731
15.84167,17759
15.85000,16811
15.85833,15888
15.86667,14993
15.87500,14129
15.88333,13297
15.89167,12498
15.90000,11733
15.90833,11002
15.91667,10306
15.92500,9644
15.93333,9017
15.94167,8424
15.95000,7864
15.95833,7337
15.96667,6842
15.97500,6377
15.98333,5942
15.99167,5536
16.00000,5156
16.00833,4802
16.01667,4473
16.02500,4168
16.03333,3884
16.04167,3621
16.05000,3377
16.05833,3151
16.06667,2943
16.07500,2751
16.08333,2574
16.09167,2411
16.10000,2261
16.10833,2122
16.11667,1995
16.12500,1878
16.13333,1770
16.14167,1671
16.15000,1580
16.15833,1497
16.16667,1420
16.17500,1349
16.18333,1284
16.19167,1224
16.20000,1169
16.20833,1119
16.21667,1072
16.22500,1029
16.23333,990
16.24167,953
16.25000,920
16.25833,888
16.26667,859
16.27500,832
16.28333,808
16.29167,784
16.30000,763
16.30833,742
16.31667,724
16.32500,706
16.33333,689
16.34167,674
16.35000,660
16.35833,646
16.36667,634
16.37500,622
16.38333,610
16.39167,599
16.40000,589
16.40833,580
16.41667,571
16.42500,563
16.43333,554
16.44167,546
16.45000,539
16.45833,531
16.46667,525
16.47500,518
16.48333,511
16.49167,505
16.50000,500
16.50833,495
16.51667,489
16.52500,484
16.53333,479
16.54167,474
16.55000,470
16.55833,465
16.56667,461
16.57500,457
16.58333,453
16.59167,449
16.60000,445
16.60833,441
16.61667,437
16.62500,433
16.63333,430
16.64167,426
16.65000,423
16.65833,420
16.66667,417
16.67500,414
16.68333,411
16.69167,408
16.70000,405
16.70833,402
16.71667,400
16.72500,397
16.73333,394
16.74167,391
16.75000,388
16.75833,386
16.76667,383
16.77500,380
16.78333,378
16.79167,375
16.80000,373
16.80833,371
16.81667,369
16.82500,367
16.83333,365
16.84167,362
16.85000,360
16.85833,358
16.86667,355
16.87500,353
16.88333,351
16.89167,349
16.90000,347
16.90833,345
16.91667,343
16.92500,340
16.93333,338
16.94167,336
16.95000,334
16.95833,332
16.96667,330
16.97500,327
16.98333,325
16.99167,323
17.00000,322
17.00833,320
17.01667,318
17.02500,317
17.03333,315
17.04167,314
17.05000,312
17.05833,310
17.06667,309
17.07500,307
17.08333,306
17.09167,304
17.10000,302
17.10833,300
17.11667,299
17.12500,297
17.13333,296
17.14167,295
17.15000,294
17.15833,292
17.16667,291
17.17500,289
17.18333,287
17.19167,286
17.20000,284
17.20833,282
17.21667,280
17.22500,278
17.23333,277
17.24167,275
17.25000,274
17.25833,273
17.26667,271
17.27500,270
17.28333,269
17.29167,268
17.30000,266
17.30833,265
17.31667,264
17.32500,262
17.33333,261
17.34167,260
17.35000,258
17.35833,257
17.36667,256
17.37500,254
17.38333,253
17.39167,251
17.40000,250
17.40833,248
17.41667,247
17.42500,245
17.43333,244
17.44167,243
17.45000,242
17.45833,241
17.46667,240
17.47500,238
17.48333,237
17.49167,235
17.50000,234
17.50833,233
17.51667,232
17.52500,231
17.53333,230
17.54167,229
17.55000,228
17.55833,227
17.56667,226
17.57500,225
17.58333,223
17.59167,222
17.60000,221
17.60833,219
17.61667,218
17.62500,217
17.63333,216
17.64167,215
17.65000,214
17.65833,213
17.66667,211
17.67500,210
17.68333,209
17.69167,208
17.70000,207
17.70833,206
17.71667,206
17.72500,205
17.73333,204
17.74167,204
17.75000,203
17.75833,201
17.76667,200
17.77500,199
17.78333,198
17.79167,197
17.80000,197
17.80833,195
17.81667,194
17.82500,193
17.83333,192
17.84167,191
17.85000,190
17.85833,189
17.86667,188
17.87500,188
17.88333,187
17.89167,186
17.90000,185
17.90833,184
17.91667,183
17.92500,183
17.93333,182
17.94167,182
17.95000,181
17.95833,180
17.96667,180
17.97500,179
17.98333,178
17.99167,177
18.00000,176
18.00833,175
18.01667,174
18.02500,173
18.03333,173
18.04167,172
18.05000,171
18.05833,170
18.06667,169
18.07500,169
18.08333,168
18.09167,168
18.10000,167
18.10833,167
18.11667,166
18.12500,165
18.13333,165
18.14167,164
18.15000,163
18.15833,162
18.16667,162
18.17500,161
18.18333,160
18.19167,159
18.20000,158
18.20833,157
18.21667,156
18.22500,155
18.23333,154
18.24167,153
18.25000,153
18.25833,153
18.26667,152
18.27500,151
18.28333,150
18.29167,150
18.30000,149
18.30833,149
18.31667,148
18.32500,147
18.33333,147
18.34167,146
18.35000,145
18.35833,145
18.36667,144
18.37500,144
18.38333,143
18.39167,142
18.40000,142
18.40833,141
18.41667,141
18.42500,140
18.43333,140
18.44167,139
18.45000,139
18.45833,138
18.46667,137
18.47500,137
18.48333,136
18.49167,135
18.50000,135
18.50833,135
18.51667,134
18.52500,134
18.53333,134
18.54167,134
18.55000,134
18.55833,134
18.56667,134
18.57500,133
18.58333,133
18.59167,133
18.60000,132
18.60833,132
18.61667,132
18.62500,132
18.63333,132
18.64167,132
18.65000,133
18.65833,133
18.66667,134
18.67500,134
18.68333,134
18.69167,135
18.70000,136
18.70833,137
18.71667,139
18.72500,140
18.73333,142
18.74167,144
18.75000,146
18.75833,148
18.76667,150
18.77500,152
18.78333,155
18.79167,158
18.80000,161
18.80833,164
18.81667,167
18.82500,171
18.83333,174
18.84167,177
18.85000,181
18.85833,184
18.86667,187
18.87500,191
18.88333,194
18.89167,197
18.90000,200
18.90833,204
18.91667,207
18.92500,209
18.93333,212
18.94167,214
18.95000,216
18.95833,218
18.96667,219
18.97500,220
18.98333,221
18.99167,221
19.00000,221
19.00833,221
19.01667,221
19.02500,220
19.03333,219
19.04167,217
19.05000,215
19.05833,213
19.06667,211
19.07500,208
19.08333,206
19.09167,203
19.10000,200
19.10833,198
19.11667,195
19.12500,191
19.13333,187
19.14167,184
19.15000,180
19.15833,177
19.16667,173
19.17500,169
19.18333,165
19.19167,162
19.20000,159
19.20833,156
19.21667,152
19.22500,149
19.23333,145
19.24167,142
19.25000,139
19.25833,136
19.26667,133
19.27500,130
19.28333,128
19.29167,125
19.30000,123
19.30833,121
19.31667,119
19.32500,117
19.33333,115
19.34167,113
19.35000,112
19.35833,110
19.36667,109
19.37500,108
19.38333,106
19.39167,105
19.40000,103
19.40833,102
19.41667,101
19.42500,100
19.43333,100
19.44167,99
19.45000,97
19.45833,96
19.46667,95
19.47500,95
19.48333,94
19.49167,93
19.50000,93
19.50833,92
19.51667,92
19.52500,91
19.53333,90
19.54167,90
19.55000,89
19.55833,89
19.56667,89
19.57500,89
19.58333,88
19.59167,88
19.60000,88
19.60833,88
19.61667,88
19.62500,87
19.63333,86
19.64167,85
19.65000,84
19.65833,84
19.66667,84
19.67500,83
19.68333,83
19.69167,82
19.70000,82
19.70833,82
19.71667,82
19.72500,82
19.73333,82
19.74167,82
19.75000,81
19.75833,81
19.76667,81
19.77500,81
19.78333,81
19.79167,81
19.80000,80
19.80833,80
19.81667,79
19.82500,79
19.83333,79
19.84167,79
19.85000,78
19.85833,78
19.86667,78
19.87500,78
19.88333,78
19.89167,77
19.90000,77
19.90833,77
19.91667,77
19.92500,76
19.93333,76
19.94167,76
19.95000,76
19.95833,75
19.96667,75
19.97500,75
19.98333,75
19.99167,74
20.00000,74
20.00833,73
20.01667,73
20.02500,73
20.03333,73
20.04167,73
20.05000,73
20.05833,73
20.06667,72
20.07500,72
20.08333,72
20.09167,72
20.10000,72
20.10833,71
20.11667,71
20.12500,70
20.13333,70
20.14167,70
20.15000,70
20.15833,70
20.16667,70
20.17500,70
20.18333,70
20.19167,70
20.20000,70
20.20833,70
20.21667,70
20.22500,70
20.23333,70
20.24167,70
20.25000,70
20.25833,69
20.26667,69
20.27500,69
20.28333,69
20.29167,69
20.30000,68
20.30833,67
20.31667,67
20.32500,67
20.33333,67
20.34167,67
20.35000,67
20.35833,67
20.36667,67
20.37500,66
20.38333,66
20.39167,66
20.40000,66
20.40833,66
20.41667,66
20.42500,66
20.43333,65
20.44167,65
20.45000,65
20.45833,65
20.46667,65
20.47500,65
20.48333,65
20.49167,65
20.50000,65
20.50833,65
20.51667,65
20.52500,64
20.53333,64
20.54167,64
20.55000,64
20.55833,64
20.56667,64
20.57500,63
20.58333,63
20.59167,63
20.60000,63
20.60833,63
20.61667,63
20.62500,62
20.63333,62
20.64167,62
20.65000,62
20.65833,62
20.66667,62
20.67500,62
20.68333,62
20.69167,62
20.70000,62
20.70833,62
20.71667,62
20.72500,62
20.73333,62
20.74167,62
20.75000,61
20.75833,61
20.76667,61
20.77500,61
20.78333,60
20.79167,60
20.80000,60
20.80833,59
20.81667,59
20.82500,59
20.83333,59
20.84167,59
20.85000,59
20.85833,59
20.86667,60
20.87500,60
20.88333,60
20.89167,59
20.90000,59
20.90833,60
20.91667,60
20.92500,59
20.93333,59
20.94167,59
20.95000,59
20.95833,58
20.96667,58
20.97500,58
20.98333,57
20.99167,57
21.00000,57
21.00833,57
21.01667,57
21.02500,57
21.03333,57
21.04167,56
21.05000,56
21.05833,56
21.06667,56
21.07500,56
21.08333,56
21.09167,56
21.10000,56
21.10833,56
21.11667,56
21.12500,56
21.13333,55
21.14167,55
21.15000,55
21.15833,55
21.16667,55
21.17500,54
21.18333,54
21.19167,54
21.20000,54
21.20833,54
21.21667,54
21.22500,55
21.23333,55
21.24167,55
21.25000,55
21.25833,55
21.26667,55
21.27500,55
21.28333,55
21.29167,54
21.30000,54
21.30833,54
21.31667,54
21.32500,54
21.33333,54
21.34167,54
21.35000,53
21.35833,53
21.36667,53
21.37500,54
21.38333,53
21.39167,53
21.40000,53
21.40833,53
21.41667,53
21.42500,53
21.43333,53
21.44167,53
21.45000,53
21.45833,53
21.46667,53
21.47500,54
21.48333,54
21.49167,54
21.50000,54
21.50833,54
21.51667,54
21.52500,54
21.53333,54
21.54167,54
21.55000,54
21.55833,54
21.56667,54
21.57500,54
21.58333,54
21.59167,54
21.60000,54
21.60833,54
21.61667,54
21.62500,54
21.63333,54
21.64167,54
21.65000,54
21.65833,54
21.66667,55
21.67500,55
21.68333,55
21.69167,55
21.70000,55
21.70833,55
21.71667,56
21.72500,56
21.73333,56
21.74167,57
21.75000,57
21.75833,57
21.76667,57
21.77500,57
21.78333,57
21.79167,58
21.80000,58
21.80833,58
21.81667,58
21.82500,58
21.83333,58
21.84167,58
21.85000,58
21.85833,58
21.86667,59
21.87500,59
21.88333,59
21.89167,59
21.90000,59
21.90833,59
21.91667,59
21.92500,59
21.93333,59
21.94167,59
21.95000,60
21.95833,60
21.96667,60
21.97500,60
21.98333,60
21.99167,60
22.00000,60
22.00833,60
22.01667,59
22.02500,59
22.03333,58
22.04167,58
22.05000,58
22.05833,58
22.06667,58
22.07500,58
22.08333,57
22.09167,56
22.10000,56
22.10833,56
22.11667,56
22.12500,56
22.13333,56
22.14167,56
22.15000,56
22.15833,56
22.16667,55
22.17500,55
22.18333,55
22.19167,54
22.20000,54
22.20833,54
22.21667,54
22.22500,54
22.23333,53
22.24167,53
22.25000,53
22.25833,52
22.26667,52
22.27500,52
22.28333,51
22.29167,51
22.30000,50
22.30833,50
22.31667,50
22.32500,49
22.33333,49
22.34167,49
22.35000,49
22.35833,49
22.36667,50
22.37500,50
22.38333,50
22.39167,49
22.40000,49
22.40833,49
22.41667,49
22.42500,49
22.43333,49
22.44167,49
22.45000,49
22.45833,49
22.46667,49
22.47500,49
22.48333,49
22.49167,48
22.50000,48
22.50833,48
22.51667,48
22.52500,48
22.53333,48
22.54167,48
22.55000,48
22.55833,48
22.56667,48
22.57500,48
22.58333,48
22.59167,48
22.60000,48
22.60833,48
22.61667,48
22.62500,48
22.63333,48
22.64167,48
22.65000,48
22.65833,48
22.66667,47
22.67500,47
22.68333,47
22.69167,47
22.70000,47
22.70833,47
22.71667,47
22.72500,47
22.73333,47
22.74167,47
22.75000,47
22.75833,47
22.76667,48
22.77500,48
22.78333,48
22.79167,48
22.80000,48
22.80833,48
22.81667,48
22.82500,48
22.83333,49
22.84167,49
22.85000,49
22.85833,49
22.86667,50
22.87500,50
22.88333,50
22.89167,51
22.90000,51
22.90833,52
22.91667,53
22.92500,53
22.93333,53
22.94167,54
22.95000,54
22.95833,55
22.96667,55
22.97500,56
22.98333,57
22.99167,57
23.00000,58
23.00833,59
23.01667,60
23.02500,60
23.03333,61
23.04167,62
23.05000,63
23.05833,63
23.06667,64
23.07500,65
23.08333,66
23.09167,67
23.10000,67
23.10833,68
23.11667,69
23.12500,69
23.13333,70
23.14167,71
23.15000,71
23.15833,72
23.16667,73
23.17500,73
23.18333,74
23.19167,74
23.20000,75
23.20833,75
23.21667,76
23.22500,76
23.23333,76
23.24167,76
23.25000,75
23.25833,75
23.26667,75
23.27500,75
23.28333,75
23.29167,75
23.30000,75
23.30833,74
23.31667,74
23.32500,73
23.33333,72
23.34167,72
23.35000,71
23.35833,70
23.36667,69
23.37500,68
23.38333,68
23.39167,67
23.40000,67
23.40833,66
23.41667,65
23.42500,64
23.43333,63
23.44167,62
23.45000,61
23.45833,60
23.46667,59
23.47500,59
23.48333,58
23.49167,57
23.50000,56
23.50833,55
23.51667,54
23.52500,54
23.53333,53
23.54167,52
23.55000,51
23.55833,51
23.56667,50
23.57500,50
23.58333,49
23.59167,49
23.60000,49
23.60833,48
23.61667,48
23.62500,48
23.63333,48
23.64167,48
23.65000,48
23.65833,48
23.66667,48
23.67500,48
23.68333,47
23.69167,47
23.70000,47
23.70833,46
23.71667,46
23.72500,46
23.73333,46
23.74167,45
23.75000,45
23.75833,45
23.76667,45
23.77500,45
23.78333,45
23.79167,44
23.80000,44
23.80833,43
23.81667,43
23.82500,43
23.83333,43
23.84167,43
23.85000,43
23.85833,43
23.86667,43
23.87500,44
23.88333,44
23.89167,44
23.90000,44
23.90833,44
23.91667,44
23.92500,44
23.93333,44
23.94167,44
23.95000,44
23.95833,44
23.96667,44
23.97500,44
23.98333,44
23.99167,44
24.00000,44
24.00833,44
24.01667,43
24.02500,43
24.03333,43
24.04167,43
24.05000,43
24.05833,43
24.06667,43
24.07500,43
24.08333,43
24.09167,43
24.10000,42
24.10833,43
24.11667,43
24.12500,43
24.13333,43
24.14167,43
24.15000,43
24.15833,43
24.16667,43
24.17500,43
24.18333,43
24.19167,43
24.20000,43
24.20833,43
24.21667,42
24.22500,42
24.23333,43
24.24167,43
24.25000,43
24.25833,43
24.26667,43
24.27500,44
24.28333,43
24.29167,43
24.30000,43
24.30833,44
24.31667,44
24.32500,44
24.33333,45
24.34167,45
24.35000,45
24.35833,44
24.36667,44
24.37500,45
24.38333,45
24.39167,45
24.40000,45
24.40833,45
24.41667,45
24.42500,45
24.43333,45
24.44167,45
24.45000,45
24.45833,46
24.46667,46
24.47500,47
24.48333,47
24.49167,48
24.50000,48
24.50833,49
24.51667,50
24.52500,51
24.53333,52
24.54167,53
24.55000,54
24.55833,56
24.56667,57
24.57500,58
24.58333,60
24.59167,61
24.60000,63
24.60833,65
24.61667,68
24.62500,70
24.63333,72
24.64167,75
24.65000,78
24.65833,81
24.66667,85
24.67500,89
24.68333,93
24.69167,99
24.70000,104
24.70833,109
24.71667,115
24.72500,122
24.73333,128
24.74167,134
24.75000,141
24.75833,148
24.76667,156
24.77500,164
24.78333,172
24.79167,181
24.80000,190
24.80833,199
24.81667,209
24.82500,218
24.83333,228
24.84167,238
24.85000,248
24.85833,259
24.86667,269
24.87500,279
24.88333,290
24.89167,300
24.90000,311
24.90833,321
24.91667,331
24.92500,341
24.93333,351
24.94167,360
24.95000,369
24.95833,377
24.96667,386
24.97500,393
24.98333,401
24.99167,407
25.00000,413
25.00833,418
25.01667,422
25.02500,426
25.03333,429
25.04167,431
25.05000,432
25.05833,433
25.06667,433
25.07500,432
25.08333,430
25.09167,428
25.10000,425
25.10833,422
25.11667,418
25.12500,413
25.13333,407
25.14167,401
25.15000,394
25.15833,387
25.16667,380
25.17500,372
25.18333,364
25.19167,355
25.20000,346
25.20833,338
25.21667,329
25.22500,319
25.23333,309
25.24167,300
25.25000,290
25.25833,281
25.26667,271
25.27500,262
25.28333,252
25.29167,243
25.30000,233
25.30833,224
25.31667,215
25.32500,206
25.33333,198
25.34167,190
25.35000,182
25.35833,175
25.36667,167
25.37500,160
25.38333,153
25.39167,147
25.40000,141
25.40833,134
25.41667,129
25.42500,124
25.43333,119
25.44167,114
25.45000,109
25.45833,105
25.46667,101
25.47500,97
25.48333,93
25.49167,89
25.50000,86
25.50833,83
25.51667,80
25.52500,78
25.53333,76
25.54167,74
25.55000,72
25.55833,70
25.56667,68
25.57500,66
25.58333,65
25.59167,64
25.60000,62
25.60833,61
25.61667,59
25.62500,58
25.63333,57
25.64167,57
25.65000,56
25.65833,56
25.66667,55
25.67500,55
25.68333,54
25.69167,53
25.70000,52
25.70833,52
25.71667,51
25.72500,51
25.73333,50
25.74167,50
25.75000,50
25.75833,49
25.76667,49
25.77500,49
25.78333,49
25.79167,49
25.80000,49
25.80833,49
25.81667,49
25.82500,49
25.83333,49
25.84167,49
25.85000,49
25.85833,49
25.86667,49
25.87500,49
25.88333,49
25.89167,49
25.90000,48
25.90833,48
25.91667,48
25.92500,48
25.93333,48
25.94167,48
25.95000,48
25.95833,48
25.96667,48
25.97500,48
25.98333,48
25.99167,48
26.00000,48
26.00833,48
26.01667,48
26.02500,48
26.03333,48
26.04167,48
26.05000,48
26.05833,48
26.06667,48
26.07500,48
26.08333,48
26.09167,48
26.10000,48
26.10833,48
26.11667,48
26.12500,48
26.13333,48
26.14167,48
26.15000,48
26.15833,48
26.16667,48
26.17500,48
26.18333,48
26.19167,48
26.20000,48
26.20833,49
26.21667,49
26.22500,49
26.23333,49
26.24167,49
26.25000,49
26.25833,49
26.26667,49
26.27500,49
26.28333,50
26.29167,50
26.30000,50
26.30833,50
26.31667,50
26.32500,50
26.33333,49
26.34167,49
26.35000,49
26.35833,49
26.36667,49
26.37500,49
26.38333,49
26.39167,49
26.40000,49
26.40833,49
26.41667,50
26.42500,50
26.43333,49
26.44167,50
26.45000,50
26.45833,50
26.46667,50
26.47500,50
26.48333,50
26.49167,50
26.50000,49
26.50833,49
26.51667,49
26.52500,49
26.53333,49
26.54167,49
26.55000,49
26.55833,49
26.56667,49
26.57500,48
26.58333,48
26.59167,48
26.60000,48
26.60833,49
26.61667,49
26.62500,49
26.63333,49
26.64167,49
26.65000,49
26.65833,49
26.66667,49
26.67500,49
26.68333,48
26.69167,49
26.70000,49
26.70833,50
26.71667,50
26.72500,50
26.73333,50
26.74167,50
26.75000,50
26.75833,49
26.76667,49
26.77500,49
26.78333,49
26.79167,49
26.80000,48
26.80833,48
26.81667,48
26.82500,49
26.83333,49
26.84167,50
26.85000,50
26.85833,50
26.86667,50
26.87500,50
26.88333,50
26.89167,50
26.90000,50
26.90833,50
26.91667,50
26.92500,50
26.93333,50
26.94167,50
26.95000,50
26.95833,50
26.96667,50
26.97500,50
26.98333,49
26.99167,49
27.00000,49
27.00833,49
27.01667,49
27.02500,49
27.03333,49
27.04167,49
27.05000,49
27.05833,49
27.06667,49
27.07500,50
27.08333,50
27.09167,50
27.10000,50
27.10833,50
27.11667,50
27.12500,50
27.13333,50
27.14167,51
27.15000,51
27.15833,51
27.16667,51
27.17500,51
27.18333,50
27.19167,50
27.20000,50
27.20833,50
27.21667,51
27.22500,51
27.23333,51
27.24167,51
27.25000,52
27.25833,52
27.26667,52
27.27500,53
27.28333,53
27.29167,53
27.30000,53
27.30833,52
27.31667,53
27.32500,53
27.33333,53
27.34167,53
27.35000,53
27.35833,53
27.36667,52
27.37500,52
27.38333,52
27.39167,52
27.40000,52
27.40833,52
27.41667,52
27.42500,52
27.43333,52
27.44167,52
27.45000,52
27.45833,53
27.46667,53
27.47500,53
27.48333,53
27.49167,53
27.50000,53
27.50833,53
27.51667,53
27.52500,53
27.53333,53
27.54167,53
27.55000,53
27.55833,53
27.56667,53
27.57500,53
27.58333,53
27.59167,53
27.60000,52
27.60833,52
27.61667,52
27.62500,52
27.63333,52
27.64167,52
27.65000,52
27.65833,52
27.66667,52
27.67500,52
27.68333,52
27.69167,52
27.70000,52
27.70833,53
27.71667,53
27.72500,53
27.73333,53
27.74167,53
27.75000,53
27.75833,53
27.76667,52
27.77500,52
27.78333,51
27.79167,51
27.80000,50
27.80833,49
27.81667,49
27.82500,48
27.83333,48
27.84167,48
27.85000,47
27.85833,47
27.86667,47
27.87500,46
27.88333,46
27.89167,46
27.90000,46
27.90833,45
27.91667,45
27.92500,44
27.93333,43
27.94167,42
27.95000,41
27.95833,39
27.96667,38
27.97500,36
27.98333,35
27.99167,33
28.00000,32
28.00833,31
28.01667,29
28.02500,27
28.03333,26
28.04167,24
28.05000,22
28.05833,20
28.06667,18
28.07500,16
28.08333,14
28.09167,12
28.10000,9
28.10833,7
28.11667,5
28.12500,2
28.13333,-0
28.14167,-3
28.15000,-7
28.15833,-10
28.16667,-13
28.17500,-16
28.18333,-18
28.19167,-21
28.20000,-25
28.20833,-28
28.21667,-31
28.22500,-34
28.23333,-38
28.24167,-41
28.25000,-44
28.25833,-48
28.26667,-51
28.27500,-55
28.28333,-58
28.29167,-61
28.30000,-64
28.30833,-66
28.31667,-68
28.32500,-71
28.33333,-73
28.34167,-76
28.35000,-78
28.35833,-81
28.36667,-83
28.37500,-85
28.38333,-87
28.39167,-88
28.40000,-90
28.40833,-91
28.41667,-92
28.42500,-93
28.43333,-94
28.44167,-95
28.45000,-96
28.45833,-97
28.46667,-97
28.47500,-97
28.48333,-97
28.49167,-97
28.50000,-96
28.50833,-96
28.51667,-95
28.52500,-94
28.53333,-93
28.54167,-91
28.55000,-90
28.55833,-88
28.56667,-86
28.57500,-85
28.58333,-83
28.59167,-81
28.60000,-79
28.60833,-77
28.61667,-74
28.62500,-72
28.63333,-69
28.64167,-66
28.65000,-64
28.65833,-61
28.66667,-58
28.67500,-56
28.68333,-53
28.69167,-51
28.70000,-48
28.70833,-45
28.71667,-42
28.72500,-40
28.73333,-37
28.74167,-34
28.75000,-31
28.75833,-28
28.76667,-25
28.77500,-23
28.78333,-20
28.79167,-18
28.80000,-15
28.80833,-13
28.81667,-10
28.82500,-8
28.83333,-6
28.84167,-3
28.85000,-1
28.85833,1
28.86667,2
28.87500,4
28.88333,6
28.89167,7
28.90000,9
28.90833,10
28.91667,12
28.92500,15
28.93333,17
28.94167,19
28.95000,21
28.95833,22
28.96667,24
28.97500,24
28.98333,25
28.99167,26
29.00000,27
29.00833,28
29.01667,29
29.02500,30
29.03333,31
29.04167,32
29.05000,33
29.05833,34
29.06667,34
29.07500,35
29.08333,35
29.09167,36
29.10000,36
29.10833,37
29.11667,38
29.12500,38
29.13333,39
29.14167,40
29.15000,40
29.15833,41
29.16667,42
29.17500,42
29.18333,43
29.19167,44
29.20000,44
29.20833,45
29.21667,45
29.22500,45
29.23333,45
29.24167,45
29.25000,45
29.25833,46
29.26667,46
29.27500,46
29.28333,46
29.29167,46
29.30000,46
29.30833,46
29.31667,46
29.32500,46
29.33333,47
29.34167,47
29.35000,48
29.35833,48
29.36667,48
29.37500,48
29.38333,49
29.39167,49
29.40000,49
29.40833,49
29.41667,49
29.42500,49
29.43333,50
29.44167,49
29.45000,49
29.45833,49
29.46667,49
29.47500,48
29.48333,48
29.49167,48
29.50000,48
29.50833,48
29.51667,48
29.52500,47
29.53333,47
29.54167,47
29.55000,46
29.55833,46
29.56667,46
29.57500,46
29.58333,46
29.59167,46
29.60000,46
29.60833,46
29.61667,46
29.62500,45
29.63333,45
29.64167,44
29.65000,44
29.65833,44
29.66667,44
29.67500,43
29.68333,43
29.69167,42
29.70000,42
29.70833,41
29.71667,41
29.72500,40
29.73333,39
29.74167,38
29.75000,38
29.75833,37
29.76667,37
29.77500,36
29.78333,35
29.79167,35
29.80000,34
29.80833,33
29.81667,32
29.82500,31
29.83333,30
29.84167,30
29.85000,29
29.85833,28
29.86667,27
29.87500,26
29.88333,25
29.89167,24
29.90000,23
29.90833,23
29.91667,21
29.92500,20
29.93333,18
29.94167,17
29.95000,16
29.95833,15
29.96667,13
29.97500,12
29.98333,11
29.99167,10
30.00000,9
30.00833,8
30.01667,7
30.02500,6
30.03333,5
30.04167,4
30.05000,3
30.05833,2
30.06667,2
30.07500,1
30.08333,0
30.09167,-0
30.10000,-1
30.10833,-2
30.11667,-3
30.12500,-4
30.13333,-5
30.14167,-5
30.15000,-5
30.15833,-6
30.16667,-6
30.17500,-6
30.18333,-7
30.19167,-7
30.20000,-7
30.20833,-7
30.21667,-7
30.22500,-7
30.23333,-7
30.24167,-7
30.25000,-7
30.25833,-7
30.26667,-6
30.27500,-6
30.28333,-6
30.29167,-6
30.30000,-5
30.30833,-5
30.31667,-5
30.32500,-5
30.33333,-4
30.34167,-4
30.35000,-3
30.35833,-2
30.36667,-1
30.37500,-0
30.38333,0
30.39167,1
30.40000,2
30.40833,3
30.41667,4
30.42500,5
30.43333,5
30.44167,6
30.45000,7
30.45833,8
30.46667,9
30.47500,10
30.48333,11
30.49167,12
30.50000,12
30.50833,13
30.51667,14
30.52500,15
30.53333,16
30.54167,17
30.55000,18
30.55833,19
30.56667,20
30.57500,21
30.58333,21
30.59167,22
30.60000,22
30.60833,22
30.61667,23
30.62500,24
30.63333,24
30.64167,24
30.65000,25
30.65833,26
30.66667,26
30.67500,27
30.68333,28
30.69167,28
30.70000,28
30.70833,28
30.71667,28
30.72500,28
30.73333,28
30.74167,28
30.75000,28
30.75833,28
30.76667,28
30.77500,28
30.78333,28
30.79167,27
30.80000,27
30.80833,27
30.81667,27
30.82500,27
30.83333,27
30.84167,27
30.85000,27
30.85833,27
30.86667,27
30.87500,26
30.88333,26
30.89167,26
30.90000,26
30.90833,25
30.91667,25
30.92500,24
30.93333,24
30.94167,23
30.95000,23
30.95833,22
30.96667,22
30.97500,22
30.98333,22
30.99167,21
31.00000,21
31.00833,21
31.01667,20
31.02500,20
31.03333,19
31.04167,19
31.05000,20
31.05833,20
31.06667,20
31.07500,20
31.08333,20
31.09167,20
31.10000,20
31.10833,20
31.11667,20
31.12500,20
31.13333,20
31.14167,20
31.15000,20
31.15833,20
31.16667,20
31.17500,20
31.18333,21
31.19167,21
31.20000,21
31.20833,21
31.21667,21
31.22500,21
31.23333,22
31.24167,22
31.25000,23
31.25833,24
31.26667,25
31.27500,26
31.28333,26
31.29167,27
31.30000,27
31.30833,27
31.31667,28
31.32500,29
31.33333,30
31.34167,30
31.35000,31
31.35833,32
31.36667,32
31.37500,33
31.38333,34
31.39167,34
31.40000,35
31.40833,35
31.41667,36
31.42500,37
31.43333,37
31.44167,38
31.45000,38
31.45833,39
31.46667,40
31.47500,40
31.48333,41
31.49167,42
31.50000,43
31.50833,44
31.51667,44
31.52500,45
31.53333,45
31.54167,46
31.55000,47
31.55833,48
31.56667,48
31.57500,49
31.58333,49
31.59167,49
31.60000,49
31.60833,49
31.61667,50
31.62500,50
31.63333,50
31.64167,51
31.65000,51
31.65833,51
31.66667,52
31.67500,52
31.68333,53
31.69167,53
31.70000,54
31.70833,54
31.71667,55
31.72500,55
31.73333,55
31.74167,55
31.75000,55
31.75833,55
31.76667,56
31.77500,55
31.78333,55
31.79167,56
31.80000,56
31.80833,56
31.81667,56
31.82500,56
31.83333,56
31.84167,56
31.85000,56
31.85833,56
31.86667,56
31.87500,56
31.88333,56
31.89167,56
31.90000,56
31.90833,56
31.91667,56
31.92500,55
31.93333,55
31.94167,55
31.95000,55
31.95833,55
31.96667,55
31.97500,55
31.98333,55
31.99167,55
32.00000,55
32.00833,55
32.01667,55
32.02500,55
32.03333,55
32.04167,55
32.05000,54
32.05833,54
32.06667,54
32.07500,54
32.08333,53
32.09167,53
32.10000,53
32.10833,54
32.11667,54
32.12500,54
32.13333,54
32.14167,54
32.15000,54
32.15833,54
32.16667,54
32.17500,53
32.18333,53
32.19167,53
32.20000,53
32.20833,53
32.21667,52
32.22500,52
32.23333,52
32.24167,52
32.25000,52
32.25833,52
32.26667,52
32.27500,52
32.28333,52
32.29167,52
32.30000,52
32.30833,52
32.31667,52
32.32500,53
32.33333,52
32.34167,52
32.35000,52
32.35833,52
32.36667,52
32.37500,52
32.38333,52
32.39167,52
32.40000,52
32.40833,52
32.41667,52
32.42500,52
32.43333,52
32.44167,52
32.45000,52
32.45833,51
32.46667,51
32.47500,51
32.48333,51
32.49167,52
32.50000,52
32.50833,51
32.51667,51
32.52500,51
32.53333,51
32.54167,51
32.55000,51
32.55833,51
32.56667,51
32.57500,52
32.58333,52
32.59167,52
32.60000,52
32.60833,52
32.61667,52
32.62500,52
32.63333,52
32.64167,51
32.65000,51
32.65833,51
32.66667,51
32.67500,51
32.68333,51
32.69167,51
32.70000,52
32.70833,51
32.71667,51
32.72500,52
32.73333,52
32.74167,52
32.75000,52
32.75833,52
32.76667,52
32.77500,52
32.78333,52
32.79167,52
32.80000,52
32.80833,53
32.81667,53
32.82500,53
32.83333,53
32.84167,52
32.85000,52
32.85833,52
32.86667,51
32.87500,51
32.88333,51
32.89167,52
32.90000,52
32.90833,52
32.91667,52
32.92500,52
32.93333,51
32.94167,51
32.95000,51
32.95833,51
32.96667,52
32.97500,52
32.98333,52
32.99167,51
33.00000,52
33.00833,52
33.01667,52
33.02500,52
33.03333,53
33.04167,53
33.05000,53
33.05833,53
33.06667,53
33.07500,53
33.08333,53
33.09167,52
33.10000,52
33.10833,53
33.11667,53
33.12500,53
33.13333,53
33.14167,53
33.15000,53
33.15833,53
33.16667,53
33.17500,53
33.18333,53
33.19167,53
33.20000,53
33.20833,54
33.21667,54
33.22500,54
33.23333,54
33.24167,55
33.25000,54
33.25833,54
33.26667,54
33.27500,53
33.28333,53
33.29167,53
33.30000,52
33.30833,52
33.31667,53
33.32500,53
33.33333,53
33.34167,53
33.35000,53
33.35833,53
33.36667,53
33.37500,53
33.38333,54
33.39167,54
33.40000,54
33.40833,54
33.41667,55
33.42500,55
33.43333,55
33.44167,55
33.45000,55
33.45833,55
33.46667,54
33.47500,54
33.48333,53
33.49167,53
33.50000,53
33.50833,53
33.51667,53
33.52500,53
33.53333,53
33.54167,52
33.55000,52
33.55833,53
33.56667,53
33.57500,52
33.58333,52
33.59167,52
33.60000,53
33.60833,52
33.61667,53
33.62500,53
33.63333,53
33.64167,53
33.65000,53
33.65833,53
33.66667,52
33.67500,52
33.68333,52
33.69167,52
33.70000,51
33.70833,51
33.71667,50
33.72500,50
33.73333,50
33.74167,50
33.75000,50
33.75833,50
33.76667,51
33.77500,51
33.78333,51
33.79167,51
33.80000,51
33.80833,52
33.81667,52
33.82500,52
33.83333,52
33.84167,52
33.85000,52
33.85833,52
33.86667,52
33.87500,52
33.88333,51
33.89167,51
33.90000,51
33.90833,51
33.91667,51
33.92500,51
33.93333,51
33.94167,51
33.95000,51
33.95833,51
33.96667,51
33.97500,51
33.98333,51
33.99167,52
34.00000,52
34.00833,52
34.01667,52
34.02500,52
34.03333,52
34.04167,52
34.05000,52
34.05833,52
34.06667,52
34.07500,52
34.08333,52
34.09167,52
34.10000,52
34.10833,52
34.11667,52
34.12500,52
34.13333,51
34.14167,51
34.15000,51
34.15833,51
34.16667,52
34.17500,52
34.18333,52
34.19167,52
34.20000,52
34.20833,52
34.21667,53
34.22500,53
34.23333,53
34.24167,53
34.25000,53
34.25833,53
34.26667,53
34.27500,53
34.28333,54
34.29167,54
34.30000,53
34.30833,53
34.31667,52
34.32500,52
34.33333,52
34.34167,53
34.35000,53
34.35833,53
34.36667,53
34.37500,53
34.38333,53
34.39167,53
34.40000,53
34.40833,53
34.41667,53
34.42500,54
34.43333,54
34.44167,54
34.45000,54
34.45833,54
34.46667,54
34.47500,54
34.48333,54
34.49167,54
34.50000,53
34.50833,53
34.51667,53
34.52500,54
34.53333,54
34.54167,53
34.55000,53
34.55833,53
34.56667,53
34.57500,53
34.58333,53
34.59167,53
34.60000,53
34.60833,53
34.61667,53
34.62500,54
34.63333,54
34.64167,54
34.65000,54
34.65833,54
34.66667,54
34.67500,54
34.68333,54
34.69167,54
34.70000,55
34.70833,55
34.71667,55
34.72500,55
34.73333,55
34.74167,54
34.75000,54
34.75833,54
34.76667,53
34.77500,53
34.78333,53
34.79167,54
34.80000,54
34.80833,54
34.81667,55
34.82500,55
34.83333,55
34.84167,55
34.85000,55
34.85833,55
34.86667,55
34.87500,55
34.88333,55
34.89167,54
34.90000,54
34.90833,54
34.91667,54
34.92500,54
34.93333,55
34.94167,55
34.95000,55
34.95833,55
34.96667,54
34.97500,54
34.98333,54
34.99167,54
35.00000,54
35.00833,54
35.01667,54
35.02500,54
35.03333,54
35.04167,55
35.05000,55
35.05833,55
35.06667,55
35.07500,55
35.08333,55
35.09167,55
35.10000,55
35.10833,55
35.11667,56
35.12500,56
35.13333,56
35.14167,56
35.15000,56
35.15833,56
35.16667,56
35.17500,56
35.18333,56
35.19167,55
35.20000,55
35.20833,55
35.21667,55
35.22500,55
35.23333,55
35.24167,55
35.25000,55
35.25833,55
35.26667,55
35.27500,55
35.28333,55
35.29167,55
35.30000,55
35.30833,55
35.31667,56
35.32500,56
35.33333,56
35.34167,56
35.35000,56
35.35833,56
35.36667,56
35.37500,56
35.38333,56
35.39167,56
35.40000,56
35.40833,56
35.41667,56
35.42500,55
35.43333,55
35.44167,56
35.45000,56
35.45833,56
35.46667,56
35.47500,56
35.48333,56
35.49167,56
35.50000,56
35.50833,56
35.51667,56
35.52500,56
35.53333,56
35.54167,55
35.55000,55
35.55833,55
35.56667,56
35.57500,56
35.58333,56
35.59167,56
35.60000,56
35.60833,56
35.61667,56
35.62500,55
35.63333,55
35.64167,55
35.65000,55
35.65833,55
35.66667,55
35.67500,56
35.68333,56
35.69167,56
35.70000,56
35.70833,56
35.71667,56
35.72500,56
35.73333,57
35.74167,57
35.75000,57
35.75833,57
35.76667,57
35.77500,57
35.78333,57
35.79167,57
35.80000,57
35.80833,57
35.81667,58
35.82500,58
35.83333,58
35.84167,58
35.85000,57
35.85833,57
35.86667,57
35.87500,57
35.88333,57
35.89167,57
35.90000,57
35.90833,57
35.91667,57
35.92500,57
35.93333,57
35.94167,57
35.95000,57
35.95833,57
35.96667,58
35.97500,58
35.98333,58
35.99167,58
36.00000,58
36.00833,58
36.01667,58
36.02500,58
36.03333,59
36.04167,58
36.05000,59
36.05833,59
36.06667,58
36.07500,58
36.08333,58
36.09167,57
36.10000,57
36.10833,57
36.11667,56
36.12500,56
36.13333,56
36.14167,56
36.15000,56
36.15833,56
36.16667,57
36.17500,57
36.18333,57
36.19167,57
36.20000,58
36.20833,58
36.21667,59
36.22500,59
36.23333,58
36.24167,58
36.25000,58
36.25833,57
36.26667,57
36.27500,57
36.28333,57
36.29167,57
36.30000,57
36.30833,57
36.31667,57
36.32500,57
36.33333,57
36.34167,57
36.35000,57
36.35833,57
36.36667,57
36.37500,56
36.38333,56
36.39167,56
36.40000,56
36.40833,56
36.41667,56
36.42500,56
36.43333,56
36.44167,57
36.45000,57
36.45833,57
36.46667,57
36.47500,57
36.48333,57
36.49167,57
36.50000,57
36.50833,57
36.51667,57
36.52500,57
36.53333,57
36.54167,57
36.55000,57
36.55833,56
36.56667,56
36.57500,56
36.58333,56
36.59167,57
36.60000,57
36.60833,58
36.61667,58
36.62500,58
36.63333,58
36.64167,58
36.65000,58
36.65833,59
36.66667,58
36.67500,58
36.68333,58
36.69167,58
36.70000,58
36.70833,58
36.71667,57
36.72500,57
36.73333,57
36.74167,57
36.75000,57
36.75833,58
36.76667,58
36.77500,58
36.78333,58
36.79167,58
36.80000,58
36.80833,58
36.81667,58
36.82500,58
36.83333,58
36.84167,58
36.85000,58
36.85833,58
36.86667,58
36.87500,58
36.88333,59
36.89167,59
36.90000,59
36.90833,59
36.91667,59
36.92500,59
36.93333,59
36.94167,59
36.95000,59
36.95833,59
36.96667,58
36.97500,58
36.98333,58
36.99167,59
37.00000,59
37.00833,59
37.01667,59
37.02500,59
37.03333,59
37.04167,60
37.05000,60
37.05833,60
37.06667,60
37.07500,60
37.08333,60
37.09167,60
37.10000,60
37.10833,59
37.11667,59
37.12500,59
37.13333,58
37.14167,58
37.15000,58
37.15833,58
37.16667,58
37.17500,58
37.18333,58
37.19167,58
37.20000,58
37.20833,59
37.21667,59
37.22500,59
37.23333,59
37.24167,59
37.25000,59
37.25833,59
37.26667,59
37.27500,59
37.28333,60
37.29167,60
37.30000,60
37.30833,60
37.31667,60
37.32500,60
37.33333,60
37.34167,59
37.35000,59
37.35833,60
37.36667,60
37.37500,60
37.38333,60
37.39167,60
37.40000,60
37.40833,60
37.41667,60
37.42500,60
37.43333,60
37.44167,60
37.45000,60
37.45833,60
37.46667,60
37.47500,60
37.48333,60
37.49167,60
37.50000,60
37.50833,60
37.51667,60
37.52500,60
37.53333,60
37.54167,60
37.55000,60
37.55833,59
37.56667,59
37.57500,59
37.58333,60
37.59167,60
37.60000,60
37.60833,60
37.61667,60
37.62500,60
37.63333,60
37.64167,60
37.65000,60
37.65833,61
37.66667,61
37.67500,61
37.68333,61
37.69167,61
37.70000,60
37.70833,61
37.71667,61
37.72500,61
37.73333,61
37.74167,61
37.75000,61
37.75833,61
37.76667,61
37.77500,61
37.78333,60
37.79167,60
37.80000,60
37.80833,60
37.81667,60
37.82500,60
37.83333,60
37.84167,61
37.85000,61
37.85833,61
37.86667,61
37.87500,61
37.88333,61
37.89167,61
37.90000,61
37.90833,60
37.91667,61
37.92500,61
37.93333,61
37.94167,61
37.95000,61
37.95833,61
37.96667,61
37.97500,61
37.98333,61
37.99167,61
38.00000,61
38.00833,61
38.01667,61
38.02500,61
38.03333,61
38.04167,61
38.05000,61
38.05833,61
38.06667,61
38.07500,61
38.08333,61
38.09167,61
38.10000,61
38.10833,61
38.11667,62
38.12500,62
38.13333,62
38.14167,62
38.15000,62
38.15833,62
38.16667,62
38.17500,62
38.18333,61
38.19167,61
38.20000,61
38.20833,61
38.21667,60
38.22500,60
38.23333,60
38.24167,60
38.25000,60
38.25833,60
38.26667,60
38.27500,60
38.28333,60
38.29167,60
38.30000,60
38.30833,60
38.31667,61
38.32500,61
38.33333,61
38.34167,61
38.35000,61
38.35833,61
38.36667,61
38.37500,61
38.38333,61
38.39167,61
38.40000,61
38.40833,60
38.41667,60
38.42500,60
38.43333,60
38.44167,60
38.45000,60
38.45833,60
38.46667,60
38.47500,60
38.48333,60
38.49167,60
38.50000,60
38.50833,61
38.51667,61
38.52500,61
38.53333,62
38.54167,62
38.55000,62
38.55833,62
38.56667,62
38.57500,62
38.58333,63
38.59167,63
38.60000,63
38.60833,63
38.61667,62
38.62500,62
38.63333,62
38.64167,62
38.65000,61
38.65833,61
38.66667,61
38.67500,61
38.68333,61
38.69167,61
38.70000,61
38.70833,60
38.71667,60
38.72500,60
38.73333,60
38.74167,61
38.75000,61
38.75833,61
38.76667,61
38.77500,61
38.78333,61
38.79167,62
38.80000,62
38.80833,62
38.81667,62
38.82500,62
38.83333,61
38.84167,61
38.85000,61
38.85833,61
38.86667,61
38.87500,61
38.88333,60
38.89167,60
38.90000,60
38.90833,61
38.91667,61
38.92500,61
38.93333,61
38.94167,61
38.95000,61
38.95833,61
38.96667,61
38.97500,61
38.98333,62
38.99167,62
39.00000,62
39.00833,62
39.01667,61
39.02500,61
39.03333,61
39.04167,61
39.05000,61
39.05833,61
39.06667,61
39.07500,60
39.08333,60
39.09167,60
39.10000,60
39.10833,60
39.11667,60
39.12500,60
39.13333,60
39.14167,60
39.15000,60
39.15833,60
39.16667,60
39.17500,61
39.18333,61
39.19167,61
39.20000,61
39.20833,61
39.21667,61
39.22500,61
39.23333,61
39.24167,61
39.25000,61
39.25833,61
39.26667,61
39.27500,61
39.28333,61
39.29167,61
39.30000,61
39.30833,62
39.31667,62
39.32500,61
39.33333,61
39.34167,61
39.35000,61
39.35833,61
39.36667,61
39.37500,61
39.38333,62
39.39167,62
39.40000,62
39.40833,62
39.41667,62
39.42500,62
39.43333,62
39.44167,62
39.45000,62
39.45833,62
39.46667,62
39.47500,62
39.48333,62
39.49167,62
39.50000,62
39.50833,62
39.51667,62
39.52500,62
39.53333,62
39.54167,62
39.55000,62
39.55833,62
39.56667,62
39.57500,62
39.58333,62
39.59167,62
39.60000,62
39.60833,63
39.61667,63
39.62500,63
39.63333,63
39.64167,62
39.65000,62
39.65833,62
39.66667,62
39.67500,62
39.68333,62
39.69167,62
39.70000,62
39.70833,62
39.71667,62
39.72500,61
39.73333,61
39.74167,61
39.75000,61
39.75833,61
39.76667,61
39.77500,62
39.78333,62
39.79167,62
39.80000,62
39.80833,63
39.81667,63
39.82500,62
39.83333,62
39.84167,62
39.85000,62
39.85833,62
39.86667,62
39.87500,62
39.88333,62
39.89167,63
39.90000,63
39.90833,62
39.91667,62
39.92500,62
39.93333,62
39.94167,62
39.95000,62
39.95833,62
39.96667,62
39.97500,62
39.98333,62
39.99167,62
40.00000,62

