[Header]
Application Name,LabSolutions
Version,5.97 SP1
Data File Name,C:\Users\cremerlab\Desktop\griffin\2021-03-31_NCM3722_NCglucose_turnover\2021-03-31_NCM3722_turnover_batch_3312021_007_014.lcd
Output Date,4/1/2021
Output Time,4:38:20 AM

[File Information]
Type,Data File
Generated,4/1/2021 3:58:01 AM
Generated by,System Administrator
Modified,4/1/2021 4:38:20 AM
Modified by,System Administrator

[Sample Information]
Operator Name,System Administrator
Acquired,4/1/2021 3:58:20 AM
Sample Type,1:Standard
Level,7
Sample Name,2021-03-31_NCM3722_NCglucose_replicate_02_timepoint_007
Sample ID,007
ISTD Amount1,1
ISTD Amount2,1
ISTD Amount3,1
ISTD Amount4,1
ISTD Amount5,1
ISTD Amount6,1
ISTD Amount7,1
ISTD Amount8,1
ISTD Amount9,1
ISTD Amount10,1
ISTD Amount11,1
ISTD Amount12,1
ISTD Amount13,1
ISTD Amount14,1
ISTD Amount15,1
ISTD Amount16,1
ISTD Amount17,1
ISTD Amount18,1
ISTD Amount19,1
ISTD Amount20,1
ISTD Amount21,1
ISTD Amount22,1
ISTD Amount23,1
ISTD Amount24,1
ISTD Amount25,1
ISTD Amount26,1
ISTD Amount27,1
ISTD Amount28,1
ISTD Amount29,1
ISTD Amount30,1
ISTD Amount31,1
ISTD Amount32,1
Sample Amount,1
Dilution Factor,1
Vial#,25
Injection Volume,20

[Original Files]
Data File,C:\Users\cremerlab\Desktop\griffin\2021-03-31_NCM3722_NCglucose_turnover\2021-03-31_NCM3722_turnover_batch_3312021_007_014.lcd
Method File,C:\LabSolutions\Data\Project1\organicacidsetc2.lcm
Batch File,C:\Users\cremerlab\Desktop\griffin\2021-03-31_NCM3722_NCglucose_turnover\2021-03-31_NCM3722_turnover_batch.lcb
Report Format File,c:\LabSolutions\System\DEFAULT.lsr

[File Description]


[Configuration]
Instrument Name,HPLC-PC-Instrument1
Instrument #,1
Line #,1
# of Detectors,2
Detector ID,Detector A,Detector B
Detector Name,Detector A,Detector B
# of Channels,1,1

[Peak Table(Detector A)]
# of Peaks,0

[Peak Table(Detector B)]
# of Peaks,4
Peak#,R.Time,I.Time,F.Time,Area,Height,A/H,Conc.,Mark,ID#,Name,k',Plate #,Plate Ht.,Tailing,Resolution,Sep.Factor,Area Ratio,Height Ratio,Conc. %,Norm Conc.
1,11.041,10.750,12.367,1052848,62013,16.978,23.553,   ,,,0.000,11294,13.282,1.355,0.000,0.000,0,0,0.000,0.000
2,15.053,14.108,15.358,2670981,105511,25.315,59.752,   ,,,0.363,7700,19.482,0.000,7.282,0.000,0,0,0.000,0.000
3,15.620,15.358,18.042,737769,30868,23.901,16.505, V ,,,0.415,9440,15.891,0.000,0.854,1.141,0,0,0.000,0.000
4,25.033,24.558,25.675,8482,307,27.584,0.190,   ,,,1.267,18251,8.219,1.099,13.600,3.056,0,0,0.000,0.000

[LC Chromatogram(Detector B-Ch1)]
Interval(msec),500
# of Points,4801
Start Time(min),0.000
End Time(min),40.000
Intensity Units,mV
Intensity Multiplier,0.001
R.Time (min),Intensity
0.00000,-1
0.00833,-1
0.01667,0
0.02500,1
0.03333,1
0.04167,-0
0.05000,-2
0.05833,-3
0.06667,-3
0.07500,-3
0.08333,-3
0.09167,-2
0.10000,-2
0.10833,-1
0.11667,-1
0.12500,-0
0.13333,0
0.14167,1
0.15000,1
0.15833,1
0.16667,2
0.17500,2
0.18333,2
0.19167,2
0.20000,1
0.20833,1
0.21667,2
0.22500,2
0.23333,3
0.24167,4
0.25000,4
0.25833,4
0.26667,4
0.27500,4
0.28333,4
0.29167,3
0.30000,3
0.30833,3
0.31667,3
0.32500,3
0.33333,2
0.34167,2
0.35000,1
0.35833,1
0.36667,1
0.37500,1
0.38333,1
0.39167,1
0.40000,2
0.40833,2
0.41667,2
0.42500,2
0.43333,2
0.44167,2
0.45000,2
0.45833,2
0.46667,2
0.47500,2
0.48333,2
0.49167,2
0.50000,2
0.50833,2
0.51667,2
0.52500,2
0.53333,2
0.54167,3
0.55000,4
0.55833,5
0.56667,6
0.57500,7
0.58333,8
0.59167,9
0.60000,9
0.60833,9
0.61667,9
0.62500,9
0.63333,8
0.64167,6
0.65000,5
0.65833,3
0.66667,1
0.67500,-0
0.68333,-2
0.69167,-4
0.70000,-5
0.70833,-6
0.71667,-7
0.72500,-8
0.73333,-8
0.74167,-9
0.75000,-9
0.75833,-9
0.76667,-8
0.77500,-8
0.78333,-7
0.79167,-6
0.80000,-6
0.80833,-5
0.81667,-5
0.82500,-4
0.83333,-4
0.84167,-3
0.85000,-2
0.85833,-2
0.86667,-1
0.87500,-1
0.88333,-1
0.89167,-0
0.90000,0
0.90833,1
0.91667,1
0.92500,1
0.93333,1
0.94167,1
0.95000,1
0.95833,2
0.96667,2
0.97500,2
0.98333,2
0.99167,3
1.00000,3
1.00833,3
1.01667,4
1.02500,4
1.03333,4
1.04167,3
1.05000,3
1.05833,4
1.06667,3
1.07500,3
1.08333,3
1.09167,3
1.10000,3
1.10833,3
1.11667,3
1.12500,3
1.13333,3
1.14167,3
1.15000,3
1.15833,3
1.16667,3
1.17500,3
1.18333,3
1.19167,3
1.20000,3
1.20833,3
1.21667,3
1.22500,3
1.23333,3
1.24167,3
1.25000,3
1.25833,3
1.26667,3
1.27500,3
1.28333,4
1.29167,4
1.30000,4
1.30833,4
1.31667,3
1.32500,3
1.33333,3
1.34167,3
1.35000,3
1.35833,3
1.36667,4
1.37500,4
1.38333,4
1.39167,4
1.40000,4
1.40833,4
1.41667,4
1.42500,4
1.43333,4
1.44167,4
1.45000,4
1.45833,4
1.46667,4
1.47500,4
1.48333,4
1.49167,4
1.50000,4
1.50833,4
1.51667,3
1.52500,3
1.53333,3
1.54167,3
1.55000,4
1.55833,4
1.56667,4
1.57500,4
1.58333,4
1.59167,5
1.60000,5
1.60833,6
1.61667,6
1.62500,6
1.63333,6
1.64167,6
1.65000,6
1.65833,6
1.66667,6
1.67500,6
1.68333,6
1.69167,6
1.70000,6
1.70833,6
1.71667,6
1.72500,6
1.73333,7
1.74167,7
1.75000,7
1.75833,7
1.76667,7
1.77500,7
1.78333,7
1.79167,8
1.80000,8
1.80833,7
1.81667,7
1.82500,7
1.83333,7
1.84167,7
1.85000,7
1.85833,7
1.86667,7
1.87500,7
1.88333,7
1.89167,7
1.90000,7
1.90833,7
1.91667,7
1.92500,7
1.93333,8
1.94167,8
1.95000,8
1.95833,8
1.96667,7
1.97500,7
1.98333,8
1.99167,8
2.00000,8
2.00833,9
2.01667,9
2.02500,10
2.03333,10
2.04167,10
2.05000,10
2.05833,10
2.06667,10
2.07500,10
2.08333,10
2.09167,9
2.10000,9
2.10833,9
2.11667,9
2.12500,9
2.13333,8
2.14167,9
2.15000,9
2.15833,9
2.16667,9
2.17500,9
2.18333,9
2.19167,9
2.20000,9
2.20833,9
2.21667,9
2.22500,9
2.23333,9
2.24167,9
2.25000,9
2.25833,9
2.26667,8
2.27500,8
2.28333,9
2.29167,9
2.30000,9
2.30833,9
2.31667,9
2.32500,9
2.33333,9
2.34167,8
2.35000,8
2.35833,8
2.36667,8
2.37500,8
2.38333,8
2.39167,8
2.40000,8
2.40833,8
2.41667,8
2.42500,8
2.43333,8
2.44167,8
2.45000,8
2.45833,8
2.46667,8
2.47500,8
2.48333,8
2.49167,7
2.50000,7
2.50833,7
2.51667,6
2.52500,6
2.53333,6
2.54167,6
2.55000,6
2.55833,6
2.56667,6
2.57500,6
2.58333,6
2.59167,6
2.60000,6
2.60833,6
2.61667,6
2.62500,7
2.63333,7
2.64167,7
2.65000,7
2.65833,6
2.66667,6
2.67500,6
2.68333,6
2.69167,6
2.70000,6
2.70833,6
2.71667,6
2.72500,6
2.73333,6
2.74167,6
2.75000,6
2.75833,6
2.76667,6
2.77500,6
2.78333,6
2.79167,6
2.80000,6
2.80833,6
2.81667,6
2.82500,6
2.83333,6
2.84167,6
2.85000,7
2.85833,7
2.86667,6
2.87500,6
2.88333,6
2.89167,5
2.90000,5
2.90833,5
2.91667,5
2.92500,5
2.93333,5
2.94167,5
2.95000,5
2.95833,5
2.96667,5
2.97500,5
2.98333,5
2.99167,5
3.00000,5
3.00833,5
3.01667,5
3.02500,5
3.03333,5
3.04167,5
3.05000,5
3.05833,5
3.06667,5
3.07500,6
3.08333,5
3.09167,5
3.10000,5
3.10833,6
3.11667,6
3.12500,5
3.13333,5
3.14167,4
3.15000,4
3.15833,4
3.16667,4
3.17500,4
3.18333,4
3.19167,4
3.20000,4
3.20833,4
3.21667,4
3.22500,5
3.23333,5
3.24167,6
3.25000,6
3.25833,6
3.26667,6
3.27500,6
3.28333,6
3.29167,6
3.30000,6
3.30833,6
3.31667,6
3.32500,6
3.33333,6
3.34167,6
3.35000,6
3.35833,7
3.36667,6
3.37500,6
3.38333,6
3.39167,6
3.40000,6
3.40833,6
3.41667,6
3.42500,6
3.43333,6
3.44167,7
3.45000,7
3.45833,7
3.46667,7
3.47500,7
3.48333,6
3.49167,6
3.50000,6
3.50833,6
3.51667,6
3.52500,6
3.53333,6
3.54167,6
3.55000,6
3.55833,7
3.56667,7
3.57500,7
3.58333,7
3.59167,7
3.60000,8
3.60833,8
3.61667,7
3.62500,7
3.63333,7
3.64167,7
3.65000,7
3.65833,7
3.66667,7
3.67500,7
3.68333,7
3.69167,8
3.70000,8
3.70833,8
3.71667,8
3.72500,8
3.73333,8
3.74167,8
3.75000,8
3.75833,8
3.76667,8
3.77500,9
3.78333,9
3.79167,9
3.80000,9
3.80833,9
3.81667,9
3.82500,10
3.83333,10
3.84167,10
3.85000,10
3.85833,9
3.86667,10
3.87500,10
3.88333,10
3.89167,10
3.90000,10
3.90833,10
3.91667,10
3.92500,10
3.93333,10
3.94167,10
3.95000,10
3.95833,10
3.96667,11
3.97500,11
3.98333,11
3.99167,11
4.00000,11
4.00833,11
4.01667,11
4.02500,10
4.03333,10
4.04167,10
4.05000,10
4.05833,11
4.06667,11
4.07500,11
4.08333,11
4.09167,11
4.10000,11
4.10833,11
4.11667,10
4.12500,10
4.13333,11
4.14167,11
4.15000,11
4.15833,11
4.16667,12
4.17500,12
4.18333,12
4.19167,12
4.20000,12
4.20833,12
4.21667,12
4.22500,12
4.23333,12
4.24167,12
4.25000,12
4.25833,11
4.26667,11
4.27500,11
4.28333,11
4.29167,11
4.30000,11
4.30833,11
4.31667,11
4.32500,11
4.33333,11
4.34167,11
4.35000,11
4.35833,12
4.36667,11
4.37500,11
4.38333,11
4.39167,11
4.40000,11
4.40833,11
4.41667,11
4.42500,11
4.43333,11
4.44167,11
4.45000,11
4.45833,11
4.46667,11
4.47500,11
4.48333,10
4.49167,10
4.50000,10
4.50833,10
4.51667,10
4.52500,11
4.53333,11
4.54167,11
4.55000,11
4.55833,11
4.56667,10
4.57500,10
4.58333,10
4.59167,10
4.60000,10
4.60833,10
4.61667,9
4.62500,9
4.63333,10
4.64167,9
4.65000,9
4.65833,9
4.66667,10
4.67500,10
4.68333,10
4.69167,10
4.70000,9
4.70833,9
4.71667,9
4.72500,8
4.73333,9
4.74167,9
4.75000,9
4.75833,9
4.76667,8
4.77500,8
4.78333,8
4.79167,7
4.80000,7
4.80833,7
4.81667,8
4.82500,8
4.83333,8
4.84167,8
4.85000,8
4.85833,8
4.86667,8
4.87500,8
4.88333,8
4.89167,8
4.90000,8
4.90833,8
4.91667,8
4.92500,8
4.93333,8
4.94167,8
4.95000,9
4.95833,9
4.96667,9
4.97500,9
4.98333,9
4.99167,9
5.00000,8
5.00833,8
5.01667,9
5.02500,9
5.03333,9
5.04167,9
5.05000,9
5.05833,9
5.06667,9
5.07500,9
5.08333,9
5.09167,9
5.10000,9
5.10833,8
5.11667,8
5.12500,8
5.13333,8
5.14167,8
5.15000,8
5.15833,8
5.16667,8
5.17500,8
5.18333,8
5.19167,8
5.20000,8
5.20833,8
5.21667,8
5.22500,8
5.23333,8
5.24167,8
5.25000,8
5.25833,7
5.26667,7
5.27500,7
5.28333,8
5.29167,8
5.30000,8
5.30833,8
5.31667,8
5.32500,8
5.33333,8
5.34167,8
5.35000,8
5.35833,8
5.36667,8
5.37500,8
5.38333,8
5.39167,8
5.40000,8
5.40833,8
5.41667,8
5.42500,8
5.43333,8
5.44167,8
5.45000,8
5.45833,8
5.46667,8
5.47500,8
5.48333,8
5.49167,8
5.50000,8
5.50833,8
5.51667,8
5.52500,8
5.53333,8
5.54167,8
5.55000,8
5.55833,8
5.56667,8
5.57500,8
5.58333,7
5.59167,8
5.60000,8
5.60833,8
5.61667,8
5.62500,8
5.63333,9
5.64167,9
5.65000,9
5.65833,9
5.66667,9
5.67500,9
5.68333,9
5.69167,8
5.70000,8
5.70833,8
5.71667,8
5.72500,9
5.73333,9
5.74167,9
5.75000,9
5.75833,9
5.76667,9
5.77500,8
5.78333,8
5.79167,8
5.80000,8
5.80833,8
5.81667,8
5.82500,8
5.83333,8
5.84167,7
5.85000,7
5.85833,7
5.86667,7
5.87500,7
5.88333,7
5.89167,7
5.90000,8
5.90833,8
5.91667,8
5.92500,8
5.93333,8
5.94167,8
5.95000,8
5.95833,8
5.96667,8
5.97500,8
5.98333,8
5.99167,8
6.00000,8
6.00833,8
6.01667,8
6.02500,8
6.03333,8
6.04167,8
6.05000,8
6.05833,9
6.06667,9
6.07500,9
6.08333,9
6.09167,9
6.10000,9
6.10833,9
6.11667,9
6.12500,9
6.13333,9
6.14167,9
6.15000,9
6.15833,9
6.16667,9
6.17500,8
6.18333,8
6.19167,8
6.20000,8
6.20833,8
6.21667,8
6.22500,9
6.23333,9
6.24167,9
6.25000,9
6.25833,9
6.26667,9
6.27500,10
6.28333,10
6.29167,10
6.30000,9
6.30833,9
6.31667,10
6.32500,10
6.33333,10
6.34167,10
6.35000,10
6.35833,10
6.36667,10
6.37500,10
6.38333,10
6.39167,9
6.40000,9
6.40833,9
6.41667,10
6.42500,10
6.43333,10
6.44167,10
6.45000,10
6.45833,10
6.46667,10
6.47500,10
6.48333,10
6.49167,10
6.50000,10
6.50833,10
6.51667,10
6.52500,10
6.53333,10
6.54167,10
6.55000,10
6.55833,10
6.56667,9
6.57500,10
6.58333,10
6.59167,10
6.60000,10
6.60833,10
6.61667,10
6.62500,10
6.63333,11
6.64167,11
6.65000,11
6.65833,10
6.66667,10
6.67500,10
6.68333,10
6.69167,11
6.70000,11
6.70833,11
6.71667,11
6.72500,10
6.73333,10
6.74167,10
6.75000,10
6.75833,10
6.76667,10
6.77500,10
6.78333,10
6.79167,10
6.80000,10
6.80833,10
6.81667,10
6.82500,10
6.83333,10
6.84167,11
6.85000,11
6.85833,11
6.86667,11
6.87500,11
6.88333,11
6.89167,11
6.90000,11
6.90833,11
6.91667,11
6.92500,11
6.93333,10
6.94167,10
6.95000,10
6.95833,10
6.96667,10
6.97500,11
6.98333,10
6.99167,10
7.00000,10
7.00833,10
7.01667,11
7.02500,11
7.03333,11
7.04167,12
7.05000,12
7.05833,12
7.06667,12
7.07500,12
7.08333,11
7.09167,11
7.10000,11
7.10833,11
7.11667,11
7.12500,11
7.13333,11
7.14167,11
7.15000,11
7.15833,11
7.16667,11
7.17500,11
7.18333,11
7.19167,11
7.20000,11
7.20833,11
7.21667,11
7.22500,11
7.23333,11
7.24167,11
7.25000,11
7.25833,11
7.26667,11
7.27500,11
7.28333,11
7.29167,11
7.30000,11
7.30833,11
7.31667,11
7.32500,11
7.33333,11
7.34167,11
7.35000,11
7.35833,11
7.36667,11
7.37500,11
7.38333,10
7.39167,11
7.40000,11
7.40833,11
7.41667,11
7.42500,11
7.43333,11
7.44167,11
7.45000,12
7.45833,12
7.46667,12
7.47500,11
7.48333,11
7.49167,11
7.50000,11
7.50833,11
7.51667,11
7.52500,11
7.53333,11
7.54167,11
7.55000,11
7.55833,12
7.56667,12
7.57500,12
7.58333,12
7.59167,12
7.60000,12
7.60833,12
7.61667,12
7.62500,12
7.63333,12
7.64167,12
7.65000,12
7.65833,12
7.66667,12
7.67500,12
7.68333,12
7.69167,11
7.70000,11
7.70833,11
7.71667,11
7.72500,11
7.73333,11
7.74167,12
7.75000,12
7.75833,12
7.76667,12
7.77500,12
7.78333,12
7.79167,13
7.80000,13
7.80833,13
7.81667,13
7.82500,12
7.83333,12
7.84167,12
7.85000,12
7.85833,12
7.86667,12
7.87500,12
7.88333,11
7.89167,11
7.90000,11
7.90833,11
7.91667,11
7.92500,11
7.93333,11
7.94167,12
7.95000,12
7.95833,12
7.96667,12
7.97500,12
7.98333,12
7.99167,12
8.00000,12
8.00833,12
8.01667,12
8.02500,12
8.03333,12
8.04167,12
8.05000,13
8.05833,13
8.06667,13
8.07500,13
8.08333,12
8.09167,12
8.10000,12
8.10833,12
8.11667,12
8.12500,12
8.13333,12
8.14167,11
8.15000,11
8.15833,12
8.16667,12
8.17500,12
8.18333,12
8.19167,12
8.20000,12
8.20833,12
8.21667,12
8.22500,12
8.23333,12
8.24167,12
8.25000,13
8.25833,13
8.26667,13
8.27500,12
8.28333,12
8.29167,12
8.30000,11
8.30833,11
8.31667,11
8.32500,11
8.33333,11
8.34167,11
8.35000,11
8.35833,11
8.36667,11
8.37500,11
8.38333,11
8.39167,11
8.40000,11
8.40833,11
8.41667,11
8.42500,11
8.43333,11
8.44167,11
8.45000,12
8.45833,12
8.46667,12
8.47500,13
8.48333,13
8.49167,13
8.50000,12
8.50833,12
8.51667,12
8.52500,13
8.53333,13
8.54167,13
8.55000,13
8.55833,13
8.56667,13
8.57500,13
8.58333,13
8.59167,13
8.60000,13
8.60833,13
8.61667,13
8.62500,13
8.63333,13
8.64167,13
8.65000,13
8.65833,13
8.66667,13
8.67500,13
8.68333,13
8.69167,13
8.70000,12
8.70833,12
8.71667,12
8.72500,12
8.73333,12
8.74167,12
8.75000,12
8.75833,12
8.76667,13
8.77500,13
8.78333,12
8.79167,12
8.80000,12
8.80833,12
8.81667,12
8.82500,12
8.83333,12
8.84167,12
8.85000,12
8.85833,12
8.86667,13
8.87500,13
8.88333,13
8.89167,13
8.90000,13
8.90833,13
8.91667,13
8.92500,13
8.93333,13
8.94167,13
8.95000,13
8.95833,13
8.96667,14
8.97500,14
8.98333,14
8.99167,15
9.00000,15
9.00833,15
9.01667,15
9.02500,15
9.03333,15
9.04167,14
9.05000,14
9.05833,13
9.06667,13
9.07500,13
9.08333,13
9.09167,13
9.10000,13
9.10833,14
9.11667,14
9.12500,14
9.13333,14
9.14167,14
9.15000,14
9.15833,14
9.16667,14
9.17500,14
9.18333,14
9.19167,13
9.20000,14
9.20833,14
9.21667,14
9.22500,14
9.23333,14
9.24167,14
9.25000,14
9.25833,14
9.26667,14
9.27500,14
9.28333,14
9.29167,14
9.30000,15
9.30833,15
9.31667,15
9.32500,15
9.33333,15
9.34167,15
9.35000,15
9.35833,14
9.36667,14
9.37500,14
9.38333,14
9.39167,14
9.40000,14
9.40833,14
9.41667,14
9.42500,14
9.43333,14
9.44167,14
9.45000,14
9.45833,14
9.46667,14
9.47500,14
9.48333,14
9.49167,14
9.50000,14
9.50833,14
9.51667,15
9.52500,15
9.53333,15
9.54167,15
9.55000,15
9.55833,15
9.56667,15
9.57500,15
9.58333,15
9.59167,15
9.60000,15
9.60833,15
9.61667,15
9.62500,15
9.63333,15
9.64167,15
9.65000,15
9.65833,15
9.66667,15
9.67500,15
9.68333,15
9.69167,16
9.70000,16
9.70833,16
9.71667,16
9.72500,16
9.73333,16
9.74167,16
9.75000,16
9.75833,16
9.76667,16
9.77500,16
9.78333,16
9.79167,16
9.80000,16
9.80833,16
9.81667,16
9.82500,16
9.83333,16
9.84167,16
9.85000,16
9.85833,16
9.86667,16
9.87500,16
9.88333,16
9.89167,16
9.90000,17
9.90833,17
9.91667,17
9.92500,17
9.93333,17
9.94167,17
9.95000,18
9.95833,18
9.96667,17
9.97500,17
9.98333,17
9.99167,17
10.00000,17
10.00833,17
10.01667,17
10.02500,17
10.03333,17
10.04167,17
10.05000,17
10.05833,17
10.06667,17
10.07500,17
10.08333,17
10.09167,17
10.10000,17
10.10833,18
10.11667,17
10.12500,17
10.13333,17
10.14167,17
10.15000,17
10.15833,17
10.16667,17
10.17500,18
10.18333,18
10.19167,17
10.20000,17
10.20833,17
10.21667,17
10.22500,17
10.23333,18
10.24167,18
10.25000,18
10.25833,18
10.26667,18
10.27500,19
10.28333,20
10.29167,20
10.30000,20
10.30833,21
10.31667,21
10.32500,22
10.33333,23
10.34167,23
10.35000,24
10.35833,24
10.36667,25
10.37500,25
10.38333,26
10.39167,26
10.40000,27
10.40833,28
10.41667,29
10.42500,29
10.43333,30
10.44167,30
10.45000,31
10.45833,31
10.46667,31
10.47500,31
10.48333,31
10.49167,30
10.50000,29
10.50833,26
10.51667,23
10.52500,19
10.53333,11
10.54167,1
10.55000,-13
10.55833,-32
10.56667,-57
10.57500,-91
10.58333,-134
10.59167,-189
10.60000,-258
10.60833,-344
10.61667,-449
10.62500,-574
10.63333,-722
10.64167,-894
10.65000,-1090
10.65833,-1310
10.66667,-1552
10.67500,-1813
10.68333,-2090
10.69167,-2375
10.70000,-2662
10.70833,-2941
10.71667,-3202
10.72500,-3433
10.73333,-3621
10.74167,-3752
10.75000,-3813
10.75833,-3788
10.76667,-3664
10.77500,-3427
10.78333,-3064
10.79167,-2562
10.80000,-1910
10.80833,-1100
10.81667,-123
10.82500,1028
10.83333,2356
10.84167,3865
10.85000,5555
10.85833,7427
10.86667,9476
10.87500,11698
10.88333,14086
10.89167,16629
10.90000,19315
10.90833,22130
10.91667,25055
10.92500,28069
10.93333,31146
10.94167,34257
10.95000,37367
10.95833,40439
10.96667,43429
10.97500,46293
10.98333,48981
10.99167,51442
11.00000,53626
11.00833,55484
11.01667,56974
11.02500,58058
11.03333,58708
11.04167,58908
11.05000,58652
11.05833,57950
11.06667,56820
11.07500,55295
11.08333,53416
11.09167,51233
11.10000,48800
11.10833,46173
11.11667,43410
11.12500,40565
11.13333,37689
11.14167,34828
11.15000,32023
11.15833,29306
11.16667,26703
11.17500,24236
11.18333,21917
11.19167,19756
11.20000,17756
11.20833,15918
11.21667,14238
11.22500,12711
11.23333,11329
11.24167,10085
11.25000,8969
11.25833,7971
11.26667,7081
11.27500,6290
11.28333,5589
11.29167,4968
11.30000,4420
11.30833,3937
11.31667,3511
11.32500,3137
11.33333,2809
11.34167,2520
11.35000,2266
11.35833,2043
11.36667,1847
11.37500,1675
11.38333,1523
11.39167,1390
11.40000,1273
11.40833,1170
11.41667,1078
11.42500,997
11.43333,926
11.44167,862
11.45000,805
11.45833,754
11.46667,709
11.47500,667
11.48333,630
11.49167,597
11.50000,567
11.50833,539
11.51667,514
11.52500,491
11.53333,470
11.54167,451
11.55000,433
11.55833,416
11.56667,400
11.57500,386
11.58333,373
11.59167,360
11.60000,349
11.60833,339
11.61667,329
11.62500,319
11.63333,310
11.64167,301
11.65000,293
11.65833,286
11.66667,278
11.67500,272
11.68333,265
11.69167,259
11.70000,254
11.70833,248
11.71667,243
11.72500,238
11.73333,233
11.74167,228
11.75000,224
11.75833,220
11.76667,215
11.77500,212
11.78333,208
11.79167,205
11.80000,202
11.80833,199
11.81667,196
11.82500,194
11.83333,191
11.84167,189
11.85000,186
11.85833,184
11.86667,182
11.87500,180
11.88333,178
11.89167,176
11.90000,174
11.90833,172
11.91667,170
11.92500,168
11.93333,167
11.94167,165
11.95000,164
11.95833,163
11.96667,161
11.97500,160
11.98333,159
11.99167,158
12.00000,156
12.00833,155
12.01667,153
12.02500,153
12.03333,152
12.04167,151
12.05000,150
12.05833,149
12.06667,148
12.07500,147
12.08333,146
12.09167,145
12.10000,144
12.10833,143
12.11667,142
12.12500,140
12.13333,139
12.14167,138
12.15000,137
12.15833,136
12.16667,135
12.17500,134
12.18333,133
12.19167,133
12.20000,132
12.20833,131
12.21667,130
12.22500,130
12.23333,129
12.24167,128
12.25000,128
12.25833,127
12.26667,126
12.27500,126
12.28333,125
12.29167,124
12.30000,124
12.30833,123
12.31667,122
12.32500,122
12.33333,121
12.34167,120
12.35000,120
12.35833,120
12.36667,119
12.37500,119
12.38333,119
12.39167,118
12.40000,118
12.40833,117
12.41667,117
12.42500,116
12.43333,116
12.44167,116
12.45000,116
12.45833,116
12.46667,115
12.47500,115
12.48333,114
12.49167,113
12.50000,113
12.50833,112
12.51667,111
12.52500,111
12.53333,110
12.54167,110
12.55000,110
12.55833,109
12.56667,109
12.57500,109
12.58333,109
12.59167,108
12.60000,107
12.60833,107
12.61667,106
12.62500,106
12.63333,105
12.64167,105
12.65000,104
12.65833,104
12.66667,103
12.67500,103
12.68333,102
12.69167,102
12.70000,101
12.70833,101
12.71667,101
12.72500,100
12.73333,100
12.74167,99
12.75000,99
12.75833,98
12.76667,98
12.77500,98
12.78333,98
12.79167,98
12.80000,98
12.80833,99
12.81667,98
12.82500,98
12.83333,98
12.84167,98
12.85000,98
12.85833,98
12.86667,98
12.87500,98
12.88333,97
12.89167,97
12.90000,98
12.90833,98
12.91667,98
12.92500,99
12.93333,99
12.94167,99
12.95000,100
12.95833,100
12.96667,100
12.97500,100
12.98333,100
12.99167,99
13.00000,99
13.00833,99
13.01667,99
13.02500,99
13.03333,99
13.04167,100
13.05000,100
13.05833,100
13.06667,100
13.07500,100
13.08333,100
13.09167,100
13.10000,100
13.10833,100
13.11667,100
13.12500,100
13.13333,101
13.14167,101
13.15000,101
13.15833,101
13.16667,101
13.17500,101
13.18333,101
13.19167,101
13.20000,101
13.20833,101
13.21667,101
13.22500,101
13.23333,101
13.24167,101
13.25000,101
13.25833,101
13.26667,100
13.27500,99
13.28333,99
13.29167,98
13.30000,98
13.30833,97
13.31667,96
13.32500,95
13.33333,95
13.34167,95
13.35000,94
13.35833,93
13.36667,92
13.37500,91
13.38333,90
13.39167,89
13.40000,88
13.40833,87
13.41667,86
13.42500,86
13.43333,85
13.44167,84
13.45000,83
13.45833,82
13.46667,81
13.47500,80
13.48333,79
13.49167,78
13.50000,77
13.50833,76
13.51667,75
13.52500,75
13.53333,74
13.54167,74
13.55000,73
13.55833,73
13.56667,72
13.57500,72
13.58333,71
13.59167,70
13.60000,70
13.60833,69
13.61667,68
13.62500,68
13.63333,68
13.64167,67
13.65000,67
13.65833,67
13.66667,66
13.67500,66
13.68333,66
13.69167,66
13.70000,66
13.70833,66
13.71667,65
13.72500,65
13.73333,65
13.74167,65
13.75000,65
13.75833,65
13.76667,65
13.77500,65
13.78333,65
13.79167,65
13.80000,65
13.80833,64
13.81667,64
13.82500,64
13.83333,64
13.84167,64
13.85000,64
13.85833,64
13.86667,64
13.87500,64
13.88333,65
13.89167,65
13.90000,65
13.90833,66
13.91667,66
13.92500,67
13.93333,67
13.94167,67
13.95000,67
13.95833,68
13.96667,68
13.97500,69
13.98333,69
13.99167,69
14.00000,70
14.00833,70
14.01667,71
14.02500,71
14.03333,72
14.04167,73
14.05000,73
14.05833,74
14.06667,75
14.07500,76
14.08333,77
14.09167,77
14.10000,78
14.10833,79
14.11667,81
14.12500,82
14.13333,84
14.14167,85
14.15000,87
14.15833,90
14.16667,92
14.17500,96
14.18333,99
14.19167,103
14.20000,109
14.20833,115
14.21667,123
14.22500,132
14.23333,144
14.24167,157
14.25000,173
14.25833,193
14.26667,216
14.27500,243
14.28333,276
14.29167,315
14.30000,362
14.30833,417
14.31667,482
14.32500,558
14.33333,647
14.34167,749
14.35000,868
14.35833,1004
14.36667,1159
14.37500,1335
14.38333,1533
14.39167,1756
14.40000,2005
14.40833,2282
14.41667,2588
14.42500,2924
14.43333,3293
14.44167,3695
14.45000,4131
14.45833,4602
14.46667,5109
14.47500,5652
14.48333,6232
14.49167,6850
14.50000,7505
14.50833,8197
14.51667,8927
14.52500,9695
14.53333,10499
14.54167,11341
14.55000,12219
14.55833,13133
14.56667,14083
14.57500,15067
14.58333,16085
14.59167,17138
14.60000,18224
14.60833,19342
14.61667,20492
14.62500,21673
14.63333,22886
14.64167,24128
14.65000,25401
14.65833,26701
14.66667,28031
14.67500,29388
14.68333,30774
14.69167,32186
14.70000,33625
14.70833,35090
14.71667,36581
14.72500,38098
14.73333,39639
14.74167,41205
14.75000,42796
14.75833,44410
14.76667,46048
14.77500,47710
14.78333,49395
14.79167,51103
14.80000,52834
14.80833,54586
14.81667,56361
14.82500,58157
14.83333,59975
14.84167,61814
14.85000,63673
14.85833,65553
14.86667,67452
14.87500,69370
14.88333,71305
14.89167,73258
14.90000,75228
14.90833,77212
14.91667,79210
14.92500,81220
14.93333,83240
14.94167,85265
14.95000,87292
14.95833,89316
14.96667,91327
14.97500,93315
14.98333,95263
14.99167,97152
15.00000,98954
15.00833,100636
15.01667,102157
15.02500,103469
15.03333,104520
15.04167,105252
15.05000,105608
15.05833,105532
15.06667,104976
15.07500,103902
15.08333,102285
15.09167,100117
15.10000,97407
15.10833,94184
15.11667,90494
15.12500,86395
15.13333,81963
15.14167,77278
15.15000,72426
15.15833,67491
15.16667,62555
15.17500,57694
15.18333,52972
15.19167,48444
15.20000,44152
15.20833,40129
15.21667,36395
15.22500,32962
15.23333,29831
15.24167,27001
15.25000,24461
15.25833,22200
15.26667,20203
15.27500,18453
15.28333,16933
15.29167,15627
15.30000,14519
15.30833,13594
15.31667,12841
15.32500,12245
15.33333,11797
15.34167,11487
15.35000,11305
15.35833,11245
15.36667,11299
15.37500,11461
15.38333,11726
15.39167,12086
15.40000,12537
15.40833,13073
15.41667,13688
15.42500,14374
15.43333,15126
15.44167,15936
15.45000,16795
15.45833,17698
15.46667,18634
15.47500,19594
15.48333,20570
15.49167,21552
15.50000,22530
15.50833,23494
15.51667,24435
15.52500,25343
15.53333,26209
15.54167,27024
15.55000,27780
15.55833,28469
15.56667,29084
15.57500,29620
15.58333,30073
15.59167,30437
15.60000,30710
15.60833,30890
15.61667,30975
15.62500,30967
15.63333,30865
15.64167,30673
15.65000,30392
15.65833,30027
15.66667,29582
15.67500,29063
15.68333,28474
15.69167,27822
15.70000,27113
15.70833,26354
15.71667,25551
15.72500,24711
15.73333,23841
15.74167,22948
15.75000,22037
15.75833,21115
15.76667,20187
15.77500,19259
15.78333,18336
15.79167,17422
15.80000,16523
15.80833,15641
15.81667,14780
15.82500,13942
15.83333,13131
15.84167,12347
15.85000,11594
15.85833,10871
15.86667,10180
15.87500,9522
15.88333,8895
15.89167,8302
15.90000,7741
15.90833,7211
15.91667,6713
15.92500,6245
15.93333,5807
15.94167,5397
15.95000,5014
15.95833,4657
15.96667,4326
15.97500,4018
15.98333,3733
15.99167,3469
16.00000,3224
16.00833,2999
16.01667,2791
16.02500,2599
16.03333,2423
16.04167,2261
16.05000,2112
16.05833,1976
16.06667,1850
16.07500,1735
16.08333,1630
16.09167,1534
16.10000,1445
16.10833,1364
16.11667,1290
16.12500,1221
16.13333,1159
16.14167,1102
16.15000,1049
16.15833,1002
16.16667,958
16.17500,918
16.18333,881
16.19167,847
16.20000,815
16.20833,786
16.21667,759
16.22500,734
16.23333,711
16.24167,690
16.25000,671
16.25833,652
16.26667,635
16.27500,619
16.28333,605
16.29167,591
16.30000,578
16.30833,566
16.31667,555
16.32500,544
16.33333,534
16.34167,525
16.35000,516
16.35833,508
16.36667,500
16.37500,492
16.38333,485
16.39167,478
16.40000,471
16.40833,465
16.41667,459
16.42500,453
16.43333,448
16.44167,443
16.45000,438
16.45833,433
16.46667,429
16.47500,424
16.48333,419
16.49167,415
16.50000,411
16.50833,407
16.51667,404
16.52500,400
16.53333,396
16.54167,393
16.55000,390
16.55833,387
16.56667,384
16.57500,381
16.58333,378
16.59167,375
16.60000,372
16.60833,369
16.61667,367
16.62500,364
16.63333,362
16.64167,360
16.65000,358
16.65833,355
16.66667,353
16.67500,350
16.68333,348
16.69167,346
16.70000,344
16.70833,343
16.71667,341
16.72500,339
16.73333,337
16.74167,335
16.75000,334
16.75833,332
16.76667,330
16.77500,328
16.78333,326
16.79167,325
16.80000,323
16.80833,321
16.81667,320
16.82500,319
16.83333,317
16.84167,315
16.85000,313
16.85833,311
16.86667,310
16.87500,308
16.88333,307
16.89167,305
16.90000,303
16.90833,302
16.91667,300
16.92500,298
16.93333,296
16.94167,295
16.95000,293
16.95833,291
16.96667,290
16.97500,288
16.98333,286
16.99167,285
17.00000,283
17.00833,281
17.01667,279
17.02500,278
17.03333,276
17.04167,275
17.05000,273
17.05833,271
17.06667,270
17.07500,268
17.08333,267
17.09167,265
17.10000,263
17.10833,262
17.11667,261
17.12500,259
17.13333,258
17.14167,257
17.15000,255
17.15833,254
17.16667,252
17.17500,250
17.18333,249
17.19167,247
17.20000,246
17.20833,245
17.21667,244
17.22500,242
17.23333,241
17.24167,240
17.25000,239
17.25833,238
17.26667,236
17.27500,235
17.28333,234
17.29167,233
17.30000,232
17.30833,231
17.31667,229
17.32500,228
17.33333,227
17.34167,226
17.35000,224
17.35833,223
17.36667,222
17.37500,221
17.38333,220
17.39167,219
17.40000,217
17.40833,216
17.41667,215
17.42500,214
17.43333,213
17.44167,211
17.45000,210
17.45833,209
17.46667,208
17.47500,207
17.48333,206
17.49167,205
17.50000,204
17.50833,203
17.51667,202
17.52500,201
17.53333,200
17.54167,199
17.55000,198
17.55833,197
17.56667,196
17.57500,195
17.58333,194
17.59167,193
17.60000,192
17.60833,191
17.61667,191
17.62500,190
17.63333,188
17.64167,187
17.65000,186
17.65833,186
17.66667,185
17.67500,184
17.68333,183
17.69167,183
17.70000,182
17.70833,181
17.71667,180
17.72500,179
17.73333,178
17.74167,177
17.75000,176
17.75833,175
17.76667,175
17.77500,174
17.78333,173
17.79167,173
17.80000,172
17.80833,171
17.81667,171
17.82500,170
17.83333,169
17.84167,168
17.85000,167
17.85833,166
17.86667,165
17.87500,165
17.88333,164
17.89167,163
17.90000,163
17.90833,162
17.91667,162
17.92500,162
17.93333,161
17.94167,160
17.95000,160
17.95833,159
17.96667,158
17.97500,157
17.98333,157
17.99167,156
18.00000,155
18.00833,154
18.01667,153
18.02500,153
18.03333,153
18.04167,152
18.05000,152
18.05833,151
18.06667,150
18.07500,150
18.08333,149
18.09167,148
18.10000,147
18.10833,147
18.11667,146
18.12500,145
18.13333,145
18.14167,144
18.15000,143
18.15833,142
18.16667,142
18.17500,142
18.18333,141
18.19167,141
18.20000,140
18.20833,140
18.21667,139
18.22500,138
18.23333,138
18.24167,137
18.25000,137
18.25833,136
18.26667,136
18.27500,135
18.28333,135
18.29167,134
18.30000,134
18.30833,133
18.31667,132
18.32500,132
18.33333,132
18.34167,131
18.35000,131
18.35833,130
18.36667,130
18.37500,129
18.38333,128
18.39167,128
18.40000,127
18.40833,127
18.41667,126
18.42500,126
18.43333,125
18.44167,124
18.45000,124
18.45833,124
18.46667,123
18.47500,123
18.48333,123
18.49167,123
18.50000,122
18.50833,122
18.51667,122
18.52500,122
18.53333,122
18.54167,121
18.55000,121
18.55833,121
18.56667,120
18.57500,120
18.58333,119
18.59167,119
18.60000,119
18.60833,119
18.61667,118
18.62500,118
18.63333,118
18.64167,118
18.65000,119
18.65833,119
18.66667,120
18.67500,120
18.68333,120
18.69167,121
18.70000,121
18.70833,122
18.71667,122
18.72500,123
18.73333,124
18.74167,125
18.75000,126
18.75833,127
18.76667,128
18.77500,129
18.78333,130
18.79167,131
18.80000,132
18.80833,134
18.81667,135
18.82500,137
18.83333,138
18.84167,140
18.85000,141
18.85833,142
18.86667,144
18.87500,145
18.88333,146
18.89167,148
18.90000,149
18.90833,150
18.91667,151
18.92500,151
18.93333,152
18.94167,152
18.95000,153
18.95833,153
18.96667,153
18.97500,153
18.98333,153
18.99167,153
19.00000,153
19.00833,152
19.01667,151
19.02500,150
19.03333,149
19.04167,148
19.05000,147
19.05833,145
19.06667,144
19.07500,142
19.08333,140
19.09167,138
19.10000,136
19.10833,134
19.11667,133
19.12500,131
19.13333,130
19.14167,128
19.15000,127
19.15833,125
19.16667,123
19.17500,121
19.18333,119
19.19167,117
19.20000,116
19.20833,114
19.21667,113
19.22500,111
19.23333,110
19.24167,109
19.25000,107
19.25833,106
19.26667,105
19.27500,104
19.28333,103
19.29167,102
19.30000,101
19.30833,100
19.31667,99
19.32500,98
19.33333,97
19.34167,96
19.35000,96
19.35833,95
19.36667,94
19.37500,94
19.38333,93
19.39167,92
19.40000,92
19.40833,91
19.41667,90
19.42500,90
19.43333,90
19.44167,89
19.45000,89
19.45833,89
19.46667,89
19.47500,89
19.48333,89
19.49167,88
19.50000,88
19.50833,87
19.51667,86
19.52500,86
19.53333,86
19.54167,86
19.55000,85
19.55833,85
19.56667,85
19.57500,85
19.58333,85
19.59167,84
19.60000,84
19.60833,83
19.61667,83
19.62500,83
19.63333,83
19.64167,82
19.65000,82
19.65833,83
19.66667,82
19.67500,82
19.68333,82
19.69167,82
19.70000,81
19.70833,81
19.71667,81
19.72500,81
19.73333,81
19.74167,80
19.75000,80
19.75833,79
19.76667,79
19.77500,79
19.78333,79
19.79167,79
19.80000,79
19.80833,79
19.81667,79
19.82500,78
19.83333,78
19.84167,78
19.85000,78
19.85833,78
19.86667,77
19.87500,77
19.88333,76
19.89167,76
19.90000,76
19.90833,76
19.91667,75
19.92500,75
19.93333,75
19.94167,75
19.95000,75
19.95833,75
19.96667,74
19.97500,74
19.98333,74
19.99167,74
20.00000,74
20.00833,74
20.01667,73
20.02500,73
20.03333,73
20.04167,73
20.05000,73
20.05833,72
20.06667,72
20.07500,72
20.08333,73
20.09167,73
20.10000,73
20.10833,73
20.11667,73
20.12500,73
20.13333,73
20.14167,73
20.15000,72
20.15833,72
20.16667,72
20.17500,71
20.18333,71
20.19167,71
20.20000,71
20.20833,71
20.21667,71
20.22500,70
20.23333,70
20.24167,70
20.25000,70
20.25833,70
20.26667,70
20.27500,70
20.28333,69
20.29167,69
20.30000,69
20.30833,69
20.31667,69
20.32500,69
20.33333,70
20.34167,70
20.35000,70
20.35833,69
20.36667,69
20.37500,69
20.38333,68
20.39167,68
20.40000,68
20.40833,68
20.41667,68
20.42500,68
20.43333,67
20.44167,67
20.45000,67
20.45833,67
20.46667,67
20.47500,67
20.48333,67
20.49167,67
20.50000,67
20.50833,67
20.51667,67
20.52500,67
20.53333,67
20.54167,67
20.55000,67
20.55833,67
20.56667,67
20.57500,67
20.58333,66
20.59167,66
20.60000,65
20.60833,65
20.61667,65
20.62500,65
20.63333,65
20.64167,64
20.65000,64
20.65833,64
20.66667,64
20.67500,64
20.68333,64
20.69167,64
20.70000,64
20.70833,64
20.71667,64
20.72500,64
20.73333,64
20.74167,64
20.75000,64
20.75833,64
20.76667,64
20.77500,64
20.78333,64
20.79167,63
20.80000,63
20.80833,63
20.81667,63
20.82500,63
20.83333,63
20.84167,63
20.85000,63
20.85833,63
20.86667,62
20.87500,62
20.88333,62
20.89167,62
20.90000,62
20.90833,62
20.91667,61
20.92500,61
20.93333,61
20.94167,62
20.95000,62
20.95833,62
20.96667,62
20.97500,61
20.98333,61
20.99167,61
21.00000,61
21.00833,60
21.01667,60
21.02500,60
21.03333,60
21.04167,60
21.05000,60
21.05833,61
21.06667,61
21.07500,61
21.08333,61
21.09167,61
21.10000,61
21.10833,61
21.11667,61
21.12500,61
21.13333,61
21.14167,61
21.15000,61
21.15833,61
21.16667,60
21.17500,60
21.18333,60
21.19167,61
21.20000,61
21.20833,62
21.21667,62
21.22500,63
21.23333,63
21.24167,64
21.25000,65
21.25833,65
21.26667,66
21.27500,67
21.28333,68
21.29167,69
21.30000,69
21.30833,70
21.31667,71
21.32500,72
21.33333,73
21.34167,74
21.35000,75
21.35833,76
21.36667,76
21.37500,77
21.38333,78
21.39167,79
21.40000,80
21.40833,80
21.41667,81
21.42500,82
21.43333,83
21.44167,84
21.45000,85
21.45833,85
21.46667,86
21.47500,86
21.48333,87
21.49167,87
21.50000,87
21.50833,88
21.51667,88
21.52500,88
21.53333,88
21.54167,88
21.55000,88
21.55833,88
21.56667,87
21.57500,87
21.58333,86
21.59167,86
21.60000,85
21.60833,84
21.61667,83
21.62500,83
21.63333,82
21.64167,82
21.65000,81
21.65833,81
21.66667,80
21.67500,80
21.68333,79
21.69167,78
21.70000,78
21.70833,77
21.71667,76
21.72500,75
21.73333,75
21.74167,74
21.75000,73
21.75833,73
21.76667,72
21.77500,72
21.78333,72
21.79167,71
21.80000,71
21.80833,71
21.81667,70
21.82500,70
21.83333,70
21.84167,69
21.85000,68
21.85833,68
21.86667,68
21.87500,68
21.88333,68
21.89167,68
21.90000,67
21.90833,67
21.91667,67
21.92500,67
21.93333,67
21.94167,66
21.95000,66
21.95833,66
21.96667,65
21.97500,65
21.98333,64
21.99167,64
22.00000,64
22.00833,64
22.01667,64
22.02500,64
22.03333,64
22.04167,64
22.05000,64
22.05833,64
22.06667,63
22.07500,63
22.08333,62
22.09167,62
22.10000,62
22.10833,62
22.11667,61
22.12500,61
22.13333,61
22.14167,60
22.15000,60
22.15833,59
22.16667,59
22.17500,59
22.18333,59
22.19167,59
22.20000,59
22.20833,59
22.21667,59
22.22500,59
22.23333,59
22.24167,58
22.25000,58
22.25833,57
22.26667,58
22.27500,58
22.28333,58
22.29167,57
22.30000,57
22.30833,57
22.31667,57
22.32500,56
22.33333,56
22.34167,56
22.35000,56
22.35833,55
22.36667,55
22.37500,55
22.38333,55
22.39167,54
22.40000,54
22.40833,54
22.41667,54
22.42500,54
22.43333,54
22.44167,54
22.45000,54
22.45833,54
22.46667,54
22.47500,54
22.48333,54
22.49167,54
22.50000,54
22.50833,55
22.51667,55
22.52500,55
22.53333,55
22.54167,55
22.55000,55
22.55833,54
22.56667,54
22.57500,54
22.58333,54
22.59167,54
22.60000,54
22.60833,54
22.61667,54
22.62500,54
22.63333,54
22.64167,54
22.65000,54
22.65833,54
22.66667,54
22.67500,54
22.68333,54
22.69167,54
22.70000,54
22.70833,55
22.71667,54
22.72500,54
22.73333,54
22.74167,54
22.75000,54
22.75833,54
22.76667,54
22.77500,54
22.78333,55
22.79167,55
22.80000,55
22.80833,56
22.81667,56
22.82500,56
22.83333,56
22.84167,56
22.85000,56
22.85833,56
22.86667,56
22.87500,57
22.88333,57
22.89167,58
22.90000,58
22.90833,58
22.91667,59
22.92500,59
22.93333,60
22.94167,60
22.95000,61
22.95833,61
22.96667,62
22.97500,63
22.98333,64
22.99167,65
23.00000,66
23.00833,67
23.01667,67
23.02500,68
23.03333,68
23.04167,69
23.05000,70
23.05833,70
23.06667,71
23.07500,72
23.08333,73
23.09167,73
23.10000,73
23.10833,74
23.11667,75
23.12500,75
23.13333,76
23.14167,76
23.15000,77
23.15833,77
23.16667,77
23.17500,78
23.18333,78
23.19167,78
23.20000,78
23.20833,78
23.21667,78
23.22500,78
23.23333,78
23.24167,78
23.25000,78
23.25833,78
23.26667,77
23.27500,77
23.28333,77
23.29167,77
23.30000,76
23.30833,76
23.31667,75
23.32500,74
23.33333,73
23.34167,73
23.35000,72
23.35833,72
23.36667,71
23.37500,70
23.38333,70
23.39167,69
23.40000,68
23.40833,67
23.41667,67
23.42500,66
23.43333,66
23.44167,65
23.45000,65
23.45833,64
23.46667,63
23.47500,63
23.48333,62
23.49167,62
23.50000,61
23.50833,60
23.51667,59
23.52500,59
23.53333,58
23.54167,58
23.55000,58
23.55833,57
23.56667,57
23.57500,57
23.58333,56
23.59167,56
23.60000,56
23.60833,56
23.61667,56
23.62500,55
23.63333,55
23.64167,54
23.65000,54
23.65833,54
23.66667,54
23.67500,53
23.68333,53
23.69167,53
23.70000,53
23.70833,53
23.71667,53
23.72500,53
23.73333,54
23.74167,54
23.75000,54
23.75833,54
23.76667,54
23.77500,54
23.78333,54
23.79167,54
23.80000,54
23.80833,53
23.81667,53
23.82500,53
23.83333,53
23.84167,53
23.85000,53
23.85833,53
23.86667,53
23.87500,53
23.88333,53
23.89167,52
23.90000,52
23.90833,52
23.91667,52
23.92500,52
23.93333,52
23.94167,52
23.95000,52
23.95833,52
23.96667,53
23.97500,53
23.98333,53
23.99167,53
24.00000,53
24.00833,53
24.01667,53
24.02500,53
24.03333,52
24.04167,52
24.05000,52
24.05833,52
24.06667,52
24.07500,52
24.08333,51
24.09167,51
24.10000,51
24.10833,51
24.11667,51
24.12500,52
24.13333,52
24.14167,52
24.15000,52
24.15833,52
24.16667,52
24.17500,52
24.18333,52
24.19167,52
24.20000,52
24.20833,52
24.21667,53
24.22500,52
24.23333,52
24.24167,53
24.25000,53
24.25833,52
24.26667,52
24.27500,52
24.28333,53
24.29167,53
24.30000,53
24.30833,53
24.31667,53
24.32500,53
24.33333,53
24.34167,53
24.35000,53
24.35833,53
24.36667,53
24.37500,54
24.38333,54
24.39167,54
24.40000,54
24.40833,54
24.41667,55
24.42500,55
24.43333,55
24.44167,55
24.45000,55
24.45833,56
24.46667,56
24.47500,57
24.48333,57
24.49167,58
24.50000,59
24.50833,59
24.51667,60
24.52500,62
24.53333,63
24.54167,64
24.55000,65
24.55833,67
24.56667,68
24.57500,69
24.58333,71
24.59167,72
24.60000,74
24.60833,76
24.61667,79
24.62500,81
24.63333,84
24.64167,87
24.65000,90
24.65833,93
24.66667,97
24.67500,101
24.68333,105
24.69167,109
24.70000,114
24.70833,119
24.71667,124
24.72500,130
24.73333,136
24.74167,142
24.75000,148
24.75833,155
24.76667,162
24.77500,170
24.78333,178
24.79167,186
24.80000,194
24.80833,203
24.81667,211
24.82500,219
24.83333,228
24.84167,236
24.85000,245
24.85833,254
24.86667,263
24.87500,272
24.88333,280
24.89167,288
24.90000,296
24.90833,304
24.91667,311
24.92500,319
24.93333,326
24.94167,332
24.95000,339
24.95833,345
24.96667,350
24.97500,355
24.98333,359
24.99167,363
25.00000,366
25.00833,369
25.01667,371
25.02500,372
25.03333,372
25.04167,372
25.05000,371
25.05833,370
25.06667,368
25.07500,365
25.08333,362
25.09167,358
25.10000,354
25.10833,350
25.11667,345
25.12500,339
25.13333,333
25.14167,327
25.15000,321
25.15833,314
25.16667,306
25.17500,299
25.18333,292
25.19167,284
25.20000,277
25.20833,268
25.21667,260
25.22500,252
25.23333,244
25.24167,236
25.25000,228
25.25833,220
25.26667,212
25.27500,204
25.28333,197
25.29167,190
25.30000,183
25.30833,177
25.31667,170
25.32500,164
25.33333,158
25.34167,151
25.35000,146
25.35833,140
25.36667,135
25.37500,130
25.38333,125
25.39167,121
25.40000,117
25.40833,113
25.41667,109
25.42500,105
25.43333,102
25.44167,99
25.45000,95
25.45833,93
25.46667,90
25.47500,88
25.48333,86
25.49167,83
25.50000,82
25.50833,80
25.51667,79
25.52500,77
25.53333,76
25.54167,75
25.55000,73
25.55833,72
25.56667,71
25.57500,70
25.58333,69
25.59167,68
25.60000,68
25.60833,67
25.61667,66
25.62500,66
25.63333,65
25.64167,64
25.65000,64
25.65833,63
25.66667,63
25.67500,62
25.68333,62
25.69167,62
25.70000,62
25.70833,62
25.71667,62
25.72500,61
25.73333,61
25.74167,61
25.75000,61
25.75833,61
25.76667,61
25.77500,61
25.78333,61
25.79167,61
25.80000,62
25.80833,62
25.81667,62
25.82500,62
25.83333,62
25.84167,62
25.85000,61
25.85833,61
25.86667,61
25.87500,61
25.88333,61
25.89167,61
25.90000,60
25.90833,60
25.91667,60
25.92500,60
25.93333,60
25.94167,60
25.95000,60
25.95833,60
25.96667,60
25.97500,60
25.98333,60
25.99167,60
26.00000,60
26.00833,61
26.01667,61
26.02500,61
26.03333,61
26.04167,61
26.05000,61
26.05833,61
26.06667,60
26.07500,60
26.08333,60
26.09167,60
26.10000,60
26.10833,61
26.11667,61
26.12500,62
26.13333,62
26.14167,62
26.15000,62
26.15833,62
26.16667,62
26.17500,62
26.18333,63
26.19167,63
26.20000,63
26.20833,62
26.21667,62
26.22500,62
26.23333,61
26.24167,61
26.25000,61
26.25833,61
26.26667,61
26.27500,61
26.28333,61
26.29167,61
26.30000,62
26.30833,62
26.31667,62
26.32500,62
26.33333,61
26.34167,61
26.35000,61
26.35833,61
26.36667,61
26.37500,61
26.38333,61
26.39167,60
26.40000,60
26.40833,60
26.41667,61
26.42500,61
26.43333,61
26.44167,62
26.45000,62
26.45833,62
26.46667,61
26.47500,61
26.48333,61
26.49167,61
26.50000,61
26.50833,62
26.51667,62
26.52500,63
26.53333,63
26.54167,63
26.55000,63
26.55833,63
26.56667,63
26.57500,62
26.58333,62
26.59167,62
26.60000,63
26.60833,63
26.61667,63
26.62500,63
26.63333,63
26.64167,63
26.65000,63
26.65833,63
26.66667,63
26.67500,63
26.68333,63
26.69167,63
26.70000,63
26.70833,63
26.71667,63
26.72500,63
26.73333,63
26.74167,63
26.75000,63
26.75833,63
26.76667,63
26.77500,63
26.78333,63
26.79167,63
26.80000,63
26.80833,63
26.81667,63
26.82500,63
26.83333,63
26.84167,63
26.85000,63
26.85833,63
26.86667,63
26.87500,63
26.88333,63
26.89167,64
26.90000,64
26.90833,64
26.91667,64
26.92500,64
26.93333,65
26.94167,65
26.95000,65
26.95833,65
26.96667,65
26.97500,65
26.98333,65
26.99167,65
27.00000,65
27.00833,66
27.01667,66
27.02500,66
27.03333,66
27.04167,66
27.05000,66
27.05833,66
27.06667,66
27.07500,65
27.08333,65
27.09167,65
27.10000,65
27.10833,66
27.11667,66
27.12500,66
27.13333,65
27.14167,66
27.15000,66
27.15833,66
27.16667,66
27.17500,66
27.18333,66
27.19167,66
27.20000,66
27.20833,66
27.21667,66
27.22500,66
27.23333,66
27.24167,65
27.25000,65
27.25833,66
27.26667,66
27.27500,66
27.28333,67
27.29167,67
27.30000,67
27.30833,67
27.31667,67
27.32500,67
27.33333,67
27.34167,67
27.35000,67
27.35833,67
27.36667,67
27.37500,67
27.38333,67
27.39167,67
27.40000,67
27.40833,67
27.41667,67
27.42500,67
27.43333,68
27.44167,68
27.45000,68
27.45833,68
27.46667,68
27.47500,68
27.48333,69
27.49167,69
27.50000,69
27.50833,69
27.51667,69
27.52500,69
27.53333,69
27.54167,69
27.55000,68
27.55833,68
27.56667,68
27.57500,67
27.58333,67
27.59167,67
27.60000,67
27.60833,67
27.61667,67
27.62500,67
27.63333,68
27.64167,68
27.65000,68
27.65833,68
27.66667,67
27.67500,67
27.68333,67
27.69167,66
27.70000,66
27.70833,65
27.71667,65
27.72500,65
27.73333,64
27.74167,64
27.75000,63
27.75833,63
27.76667,62
27.77500,62
27.78333,61
27.79167,60
27.80000,59
27.80833,58
27.81667,57
27.82500,56
27.83333,55
27.84167,54
27.85000,52
27.85833,50
27.86667,49
27.87500,47
27.88333,45
27.89167,42
27.90000,39
27.90833,36
27.91667,33
27.92500,30
27.93333,26
27.94167,22
27.95000,18
27.95833,14
27.96667,10
27.97500,6
27.98333,1
27.99167,-5
28.00000,-11
28.00833,-17
28.01667,-24
28.02500,-31
28.03333,-38
28.04167,-45
28.05000,-53
28.05833,-62
28.06667,-70
28.07500,-79
28.08333,-89
28.09167,-99
28.10000,-109
28.10833,-120
28.11667,-132
28.12500,-143
28.13333,-155
28.14167,-167
28.15000,-180
28.15833,-193
28.16667,-206
28.17500,-220
28.18333,-234
28.19167,-248
28.20000,-263
28.20833,-278
28.21667,-293
28.22500,-308
28.23333,-323
28.24167,-339
28.25000,-354
28.25833,-369
28.26667,-385
28.27500,-400
28.28333,-416
28.29167,-431
28.30000,-446
28.30833,-462
28.31667,-477
28.32500,-492
28.33333,-506
28.34167,-521
28.35000,-534
28.35833,-548
28.36667,-560
28.37500,-572
28.38333,-584
28.39167,-596
28.40000,-606
28.40833,-616
28.41667,-626
28.42500,-635
28.43333,-643
28.44167,-651
28.45000,-658
28.45833,-664
28.46667,-670
28.47500,-674
28.48333,-679
28.49167,-682
28.50000,-685
28.50833,-688
28.51667,-689
28.52500,-690
28.53333,-690
28.54167,-689
28.55000,-687
28.55833,-685
28.56667,-682
28.57500,-679
28.58333,-675
28.59167,-671
28.60000,-666
28.60833,-660
28.61667,-655
28.62500,-648
28.63333,-641
28.64167,-634
28.65000,-626
28.65833,-618
28.66667,-610
28.67500,-602
28.68333,-594
28.69167,-585
28.70000,-575
28.70833,-566
28.71667,-556
28.72500,-547
28.73333,-537
28.74167,-527
28.75000,-518
28.75833,-508
28.76667,-499
28.77500,-489
28.78333,-480
28.79167,-471
28.80000,-462
28.80833,-453
28.81667,-444
28.82500,-435
28.83333,-427
28.84167,-418
28.85000,-409
28.85833,-401
28.86667,-394
28.87500,-386
28.88333,-379
28.89167,-372
28.90000,-365
28.90833,-358
28.91667,-351
28.92500,-344
28.93333,-339
28.94167,-333
28.95000,-327
28.95833,-322
28.96667,-316
28.97500,-311
28.98333,-306
28.99167,-301
29.00000,-297
29.00833,-292
29.01667,-288
29.02500,-284
29.03333,-280
29.04167,-277
29.05000,-273
29.05833,-269
29.06667,-265
29.07500,-262
29.08333,-259
29.09167,-257
29.10000,-254
29.10833,-252
29.11667,-250
29.12500,-247
29.13333,-245
29.14167,-243
29.15000,-241
29.15833,-239
29.16667,-237
29.17500,-235
29.18333,-233
29.19167,-231
29.20000,-230
29.20833,-228
29.21667,-227
29.22500,-225
29.23333,-224
29.24167,-223
29.25000,-222
29.25833,-221
29.26667,-219
29.27500,-218
29.28333,-217
29.29167,-216
29.30000,-215
29.30833,-215
29.31667,-214
29.32500,-213
29.33333,-212
29.34167,-211
29.35000,-210
29.35833,-209
29.36667,-208
29.37500,-207
29.38333,-206
29.39167,-205
29.40000,-204
29.40833,-204
29.41667,-203
29.42500,-202
29.43333,-202
29.44167,-201
29.45000,-201
29.45833,-201
29.46667,-200
29.47500,-200
29.48333,-200
29.49167,-199
29.50000,-198
29.50833,-198
29.51667,-198
29.52500,-198
29.53333,-197
29.54167,-197
29.55000,-197
29.55833,-197
29.56667,-197
29.57500,-197
29.58333,-197
29.59167,-197
29.60000,-197
29.60833,-197
29.61667,-197
29.62500,-198
29.63333,-199
29.64167,-199
29.65000,-200
29.65833,-200
29.66667,-201
29.67500,-201
29.68333,-202
29.69167,-203
29.70000,-204
29.70833,-205
29.71667,-206
29.72500,-208
29.73333,-209
29.74167,-210
29.75000,-212
29.75833,-214
29.76667,-215
29.77500,-217
29.78333,-220
29.79167,-222
29.80000,-224
29.80833,-227
29.81667,-230
29.82500,-233
29.83333,-236
29.84167,-239
29.85000,-242
29.85833,-245
29.86667,-248
29.87500,-251
29.88333,-254
29.89167,-258
29.90000,-262
29.90833,-266
29.91667,-269
29.92500,-273
29.93333,-277
29.94167,-280
29.95000,-284
29.95833,-288
29.96667,-292
29.97500,-296
29.98333,-300
29.99167,-304
30.00000,-309
30.00833,-313
30.01667,-317
30.02500,-321
30.03333,-326
30.04167,-330
30.05000,-334
30.05833,-337
30.06667,-341
30.07500,-345
30.08333,-349
30.09167,-352
30.10000,-355
30.10833,-359
30.11667,-362
30.12500,-365
30.13333,-368
30.14167,-371
30.15000,-374
30.15833,-377
30.16667,-379
30.17500,-381
30.18333,-382
30.19167,-384
30.20000,-385
30.20833,-387
30.21667,-388
30.22500,-389
30.23333,-390
30.24167,-390
30.25000,-390
30.25833,-391
30.26667,-390
30.27500,-390
30.28333,-389
30.29167,-388
30.30000,-387
30.30833,-386
30.31667,-385
30.32500,-383
30.33333,-381
30.34167,-379
30.35000,-378
30.35833,-375
30.36667,-373
30.37500,-370
30.38333,-368
30.39167,-365
30.40000,-363
30.40833,-360
30.41667,-357
30.42500,-354
30.43333,-350
30.44167,-347
30.45000,-343
30.45833,-339
30.46667,-336
30.47500,-332
30.48333,-328
30.49167,-325
30.50000,-321
30.50833,-317
30.51667,-314
30.52500,-310
30.53333,-306
30.54167,-302
30.55000,-299
30.55833,-295
30.56667,-292
30.57500,-288
30.58333,-284
30.59167,-281
30.60000,-278
30.60833,-274
30.61667,-271
30.62500,-267
30.63333,-264
30.64167,-261
30.65000,-258
30.65833,-255
30.66667,-252
30.67500,-249
30.68333,-246
30.69167,-244
30.70000,-241
30.70833,-239
30.71667,-237
30.72500,-234
30.73333,-233
30.74167,-230
30.75000,-228
30.75833,-226
30.76667,-225
30.77500,-223
30.78333,-221
30.79167,-219
30.80000,-217
30.80833,-215
30.81667,-214
30.82500,-212
30.83333,-211
30.84167,-209
30.85000,-208
30.85833,-207
30.86667,-206
30.87500,-204
30.88333,-203
30.89167,-202
30.90000,-201
30.90833,-199
30.91667,-198
30.92500,-198
30.93333,-197
30.94167,-196
30.95000,-195
30.95833,-194
30.96667,-193
30.97500,-192
30.98333,-192
30.99167,-191
31.00000,-190
31.00833,-189
31.01667,-189
31.02500,-188
31.03333,-187
31.04167,-186
31.05000,-185
31.05833,-185
31.06667,-184
31.07500,-183
31.08333,-182
31.09167,-181
31.10000,-180
31.10833,-179
31.11667,-178
31.12500,-177
31.13333,-176
31.14167,-175
31.15000,-174
31.15833,-173
31.16667,-172
31.17500,-172
31.18333,-170
31.19167,-169
31.20000,-168
31.20833,-167
31.21667,-165
31.22500,-164
31.23333,-163
31.24167,-162
31.25000,-160
31.25833,-158
31.26667,-157
31.27500,-155
31.28333,-154
31.29167,-153
31.30000,-151
31.30833,-150
31.31667,-149
31.32500,-147
31.33333,-146
31.34167,-145
31.35000,-144
31.35833,-142
31.36667,-141
31.37500,-140
31.38333,-139
31.39167,-137
31.40000,-136
31.40833,-134
31.41667,-133
31.42500,-132
31.43333,-130
31.44167,-128
31.45000,-127
31.45833,-125
31.46667,-124
31.47500,-123
31.48333,-121
31.49167,-120
31.50000,-119
31.50833,-118
31.51667,-117
31.52500,-115
31.53333,-114
31.54167,-113
31.55000,-112
31.55833,-110
31.56667,-109
31.57500,-108
31.58333,-107
31.59167,-106
31.60000,-105
31.60833,-104
31.61667,-103
31.62500,-102
31.63333,-101
31.64167,-100
31.65000,-99
31.65833,-98
31.66667,-97
31.67500,-96
31.68333,-95
31.69167,-94
31.70000,-92
31.70833,-91
31.71667,-90
31.72500,-89
31.73333,-89
31.74167,-88
31.75000,-87
31.75833,-86
31.76667,-86
31.77500,-85
31.78333,-84
31.79167,-83
31.80000,-83
31.80833,-83
31.81667,-82
31.82500,-82
31.83333,-81
31.84167,-80
31.85000,-79
31.85833,-79
31.86667,-78
31.87500,-77
31.88333,-77
31.89167,-76
31.90000,-75
31.90833,-74
31.91667,-74
31.92500,-74
31.93333,-73
31.94167,-73
31.95000,-72
31.95833,-72
31.96667,-71
31.97500,-71
31.98333,-70
31.99167,-70
32.00000,-69
32.00833,-69
32.01667,-68
32.02500,-68
32.03333,-68
32.04167,-67
32.05000,-66
32.05833,-66
32.06667,-65
32.07500,-65
32.08333,-65
32.09167,-64
32.10000,-64
32.10833,-63
32.11667,-63
32.12500,-62
32.13333,-62
32.14167,-62
32.15000,-61
32.15833,-60
32.16667,-60
32.17500,-59
32.18333,-59
32.19167,-58
32.20000,-57
32.20833,-57
32.21667,-56
32.22500,-55
32.23333,-55
32.24167,-54
32.25000,-53
32.25833,-53
32.26667,-52
32.27500,-52
32.28333,-52
32.29167,-51
32.30000,-51
32.30833,-50
32.31667,-50
32.32500,-49
32.33333,-49
32.34167,-48
32.35000,-48
32.35833,-47
32.36667,-47
32.37500,-46
32.38333,-46
32.39167,-45
32.40000,-45
32.40833,-44
32.41667,-44
32.42500,-43
32.43333,-42
32.44167,-41
32.45000,-41
32.45833,-40
32.46667,-40
32.47500,-39
32.48333,-39
32.49167,-38
32.50000,-38
32.50833,-37
32.51667,-36
32.52500,-36
32.53333,-36
32.54167,-36
32.55000,-35
32.55833,-35
32.56667,-35
32.57500,-34
32.58333,-34
32.59167,-33
32.60000,-33
32.60833,-32
32.61667,-31
32.62500,-31
32.63333,-30
32.64167,-29
32.65000,-29
32.65833,-28
32.66667,-27
32.67500,-27
32.68333,-26
32.69167,-25
32.70000,-25
32.70833,-25
32.71667,-24
32.72500,-24
32.73333,-23
32.74167,-23
32.75000,-22
32.75833,-22
32.76667,-21
32.77500,-21
32.78333,-20
32.79167,-19
32.80000,-18
32.80833,-17
32.81667,-17
32.82500,-16
32.83333,-16
32.84167,-15
32.85000,-14
32.85833,-13
32.86667,-13
32.87500,-12
32.88333,-11
32.89167,-11
32.90000,-11
32.90833,-10
32.91667,-10
32.92500,-10
32.93333,-10
32.94167,-9
32.95000,-9
32.95833,-9
32.96667,-8
32.97500,-8
32.98333,-7
32.99167,-6
33.00000,-5
33.00833,-4
33.01667,-4
33.02500,-4
33.03333,-3
33.04167,-3
33.05000,-2
33.05833,-2
33.06667,-2
33.07500,-1
33.08333,-0
33.09167,0
33.10000,1
33.10833,1
33.11667,2
33.12500,2
33.13333,2
33.14167,3
33.15000,3
33.15833,4
33.16667,4
33.17500,4
33.18333,5
33.19167,5
33.20000,6
33.20833,7
33.21667,8
33.22500,9
33.23333,9
33.24167,10
33.25000,10
33.25833,11
33.26667,11
33.27500,12
33.28333,12
33.29167,12
33.30000,12
33.30833,13
33.31667,13
33.32500,13
33.33333,14
33.34167,14
33.35000,14
33.35833,15
33.36667,15
33.37500,16
33.38333,17
33.39167,17
33.40000,18
33.40833,18
33.41667,19
33.42500,19
33.43333,19
33.44167,20
33.45000,20
33.45833,20
33.46667,20
33.47500,21
33.48333,21
33.49167,22
33.50000,22
33.50833,22
33.51667,23
33.52500,24
33.53333,25
33.54167,25
33.55000,25
33.55833,25
33.56667,25
33.57500,26
33.58333,26
33.59167,26
33.60000,26
33.60833,26
33.61667,27
33.62500,27
33.63333,28
33.64167,28
33.65000,29
33.65833,29
33.66667,29
33.67500,30
33.68333,31
33.69167,32
33.70000,32
33.70833,32
33.71667,32
33.72500,32
33.73333,33
33.74167,33
33.75000,33
33.75833,33
33.76667,33
33.77500,34
33.78333,34
33.79167,34
33.80000,35
33.80833,35
33.81667,35
33.82500,35
33.83333,35
33.84167,36
33.85000,36
33.85833,37
33.86667,37
33.87500,37
33.88333,38
33.89167,38
33.90000,38
33.90833,39
33.91667,39
33.92500,39
33.93333,39
33.94167,40
33.95000,40
33.95833,40
33.96667,41
33.97500,41
33.98333,42
33.99167,42
34.00000,43
34.00833,43
34.01667,44
34.02500,44
34.03333,44
34.04167,45
34.05000,45
34.05833,45
34.06667,45
34.07500,45
34.08333,45
34.09167,44
34.10000,44
34.10833,45
34.11667,45
34.12500,45
34.13333,45
34.14167,46
34.15000,46
34.15833,46
34.16667,47
34.17500,47
34.18333,47
34.19167,47
34.20000,47
34.20833,47
34.21667,48
34.22500,48
34.23333,48
34.24167,48
34.25000,49
34.25833,49
34.26667,49
34.27500,49
34.28333,49
34.29167,49
34.30000,49
34.30833,49
34.31667,50
34.32500,50
34.33333,50
34.34167,50
34.35000,51
34.35833,51
34.36667,51
34.37500,51
34.38333,51
34.39167,51
34.40000,51
34.40833,51
34.41667,51
34.42500,52
34.43333,52
34.44167,53
34.45000,53
34.45833,53
34.46667,53
34.47500,53
34.48333,53
34.49167,53
34.50000,53
34.50833,53
34.51667,53
34.52500,53
34.53333,53
34.54167,53
34.55000,53
34.55833,54
34.56667,54
34.57500,54
34.58333,54
34.59167,54
34.60000,55
34.60833,55
34.61667,55
34.62500,55
34.63333,55
34.64167,55
34.65000,55
34.65833,55
34.66667,56
34.67500,55
34.68333,55
34.69167,55
34.70000,55
34.70833,55
34.71667,54
34.72500,54
34.73333,55
34.74167,55
34.75000,55
34.75833,55
34.76667,55
34.77500,55
34.78333,55
34.79167,56
34.80000,56
34.80833,56
34.81667,56
34.82500,56
34.83333,56
34.84167,56
34.85000,55
34.85833,55
34.86667,56
34.87500,56
34.88333,56
34.89167,56
34.90000,56
34.90833,56
34.91667,56
34.92500,56
34.93333,56
34.94167,56
34.95000,56
34.95833,56
34.96667,56
34.97500,56
34.98333,56
34.99167,56
35.00000,56
35.00833,56
35.01667,56
35.02500,56
35.03333,57
35.04167,57
35.05000,57
35.05833,57
35.06667,57
35.07500,57
35.08333,57
35.09167,57
35.10000,57
35.10833,57
35.11667,57
35.12500,57
35.13333,57
35.14167,57
35.15000,57
35.15833,57
35.16667,57
35.17500,57
35.18333,57
35.19167,57
35.20000,57
35.20833,57
35.21667,57
35.22500,57
35.23333,58
35.24167,58
35.25000,58
35.25833,58
35.26667,58
35.27500,57
35.28333,57
35.29167,57
35.30000,57
35.30833,57
35.31667,56
35.32500,56
35.33333,56
35.34167,56
35.35000,56
35.35833,56
35.36667,57
35.37500,57
35.38333,57
35.39167,57
35.40000,57
35.40833,57
35.41667,57
35.42500,57
35.43333,57
35.44167,57
35.45000,57
35.45833,57
35.46667,58
35.47500,58
35.48333,58
35.49167,58
35.50000,58
35.50833,57
35.51667,57
35.52500,57
35.53333,57
35.54167,57
35.55000,57
35.55833,57
35.56667,57
35.57500,57
35.58333,57
35.59167,57
35.60000,57
35.60833,58
35.61667,58
35.62500,58
35.63333,58
35.64167,59
35.65000,59
35.65833,60
35.66667,59
35.67500,59
35.68333,59
35.69167,59
35.70000,59
35.70833,59
35.71667,59
35.72500,59
35.73333,59
35.74167,59
35.75000,59
35.75833,59
35.76667,59
35.77500,59
35.78333,59
35.79167,60
35.80000,59
35.80833,59
35.81667,59
35.82500,59
35.83333,58
35.84167,59
35.85000,59
35.85833,59
35.86667,59
35.87500,59
35.88333,59
35.89167,59
35.90000,59
35.90833,59
35.91667,59
35.92500,59
35.93333,59
35.94167,59
35.95000,59
35.95833,60
35.96667,60
35.97500,60
35.98333,60
35.99167,60
36.00000,60
36.00833,60
36.01667,60
36.02500,60
36.03333,60
36.04167,60
36.05000,60
36.05833,60
36.06667,59
36.07500,59
36.08333,59
36.09167,60
36.10000,60
36.10833,60
36.11667,60
36.12500,60
36.13333,60
36.14167,60
36.15000,60
36.15833,60
36.16667,61
36.17500,60
36.18333,60
36.19167,60
36.20000,60
36.20833,60
36.21667,60
36.22500,60
36.23333,60
36.24167,60
36.25000,60
36.25833,60
36.26667,60
36.27500,61
36.28333,61
36.29167,61
36.30000,61
36.30833,60
36.31667,60
36.32500,60
36.33333,60
36.34167,61
36.35000,61
36.35833,61
36.36667,61
36.37500,61
36.38333,61
36.39167,61
36.40000,61
36.40833,62
36.41667,62
36.42500,62
36.43333,62
36.44167,62
36.45000,62
36.45833,62
36.46667,62
36.47500,62
36.48333,62
36.49167,62
36.50000,62
36.50833,62
36.51667,62
36.52500,62
36.53333,63
36.54167,63
36.55000,63
36.55833,63
36.56667,64
36.57500,64
36.58333,64
36.59167,64
36.60000,64
36.60833,64
36.61667,65
36.62500,66
36.63333,66
36.64167,67
36.65000,67
36.65833,67
36.66667,68
36.67500,68
36.68333,68
36.69167,69
36.70000,69
36.70833,69
36.71667,70
36.72500,70
36.73333,71
36.74167,71
36.75000,71
36.75833,72
36.76667,72
36.77500,73
36.78333,73
36.79167,74
36.80000,74
36.80833,75
36.81667,75
36.82500,75
36.83333,75
36.84167,76
36.85000,76
36.85833,77
36.86667,77
36.87500,78
36.88333,78
36.89167,78
36.90000,79
36.90833,79
36.91667,79
36.92500,80
36.93333,80
36.94167,80
36.95000,81
36.95833,81
36.96667,82
36.97500,82
36.98333,83
36.99167,83
37.00000,83
37.00833,83
37.01667,83
37.02500,84
37.03333,84
37.04167,85
37.05000,85
37.05833,86
37.06667,86
37.07500,86
37.08333,86
37.09167,86
37.10000,86
37.10833,86
37.11667,87
37.12500,87
37.13333,87
37.14167,86
37.15000,86
37.15833,86
37.16667,86
37.17500,86
37.18333,86
37.19167,86
37.20000,86
37.20833,87
37.21667,87
37.22500,87
37.23333,88
37.24167,87
37.25000,87
37.25833,87
37.26667,86
37.27500,86
37.28333,86
37.29167,86
37.30000,86
37.30833,86
37.31667,85
37.32500,85
37.33333,85
37.34167,84
37.35000,84
37.35833,83
37.36667,83
37.37500,83
37.38333,82
37.39167,82
37.40000,82
37.40833,82
37.41667,81
37.42500,81
37.43333,80
37.44167,80
37.45000,79
37.45833,79
37.46667,79
37.47500,78
37.48333,77
37.49167,77
37.50000,77
37.50833,76
37.51667,76
37.52500,76
37.53333,75
37.54167,75
37.55000,75
37.55833,75
37.56667,74
37.57500,74
37.58333,73
37.59167,73
37.60000,73
37.60833,72
37.61667,72
37.62500,72
37.63333,71
37.64167,71
37.65000,71
37.65833,71
37.66667,70
37.67500,70
37.68333,69
37.69167,69
37.70000,68
37.70833,68
37.71667,68
37.72500,68
37.73333,68
37.74167,67
37.75000,67
37.75833,67
37.76667,67
37.77500,66
37.78333,66
37.79167,66
37.80000,65
37.80833,65
37.81667,65
37.82500,65
37.83333,65
37.84167,65
37.85000,65
37.85833,65
37.86667,65
37.87500,65
37.88333,65
37.89167,65
37.90000,65
37.90833,64
37.91667,64
37.92500,64
37.93333,64
37.94167,63
37.95000,63
37.95833,63
37.96667,63
37.97500,63
37.98333,63
37.99167,63
38.00000,63
38.00833,63
38.01667,63
38.02500,63
38.03333,63
38.04167,63
38.05000,63
38.05833,62
38.06667,62
38.07500,62
38.08333,62
38.09167,62
38.10000,62
38.10833,62
38.11667,62
38.12500,62
38.13333,61
38.14167,61
38.15000,61
38.15833,61
38.16667,61
38.17500,61
38.18333,61
38.19167,61
38.20000,62
38.20833,62
38.21667,62
38.22500,62
38.23333,62
38.24167,61
38.25000,61
38.25833,61
38.26667,61
38.27500,61
38.28333,61
38.29167,62
38.30000,61
38.30833,61
38.31667,61
38.32500,61
38.33333,61
38.34167,61
38.35000,61
38.35833,61
38.36667,62
38.37500,62
38.38333,62
38.39167,62
38.40000,62
38.40833,62
38.41667,61
38.42500,61
38.43333,61
38.44167,61
38.45000,61
38.45833,61
38.46667,61
38.47500,61
38.48333,61
38.49167,61
38.50000,61
38.50833,61
38.51667,61
38.52500,61
38.53333,61
38.54167,61
38.55000,61
38.55833,62
38.56667,62
38.57500,62
38.58333,62
38.59167,62
38.60000,62
38.60833,61
38.61667,62
38.62500,61
38.63333,61
38.64167,61
38.65000,61
38.65833,61
38.66667,62
38.67500,62
38.68333,62
38.69167,62
38.70000,62
38.70833,63
38.71667,63
38.72500,63
38.73333,63
38.74167,63
38.75000,63
38.75833,63
38.76667,63
38.77500,63
38.78333,63
38.79167,62
38.80000,62
38.80833,62
38.81667,62
38.82500,62
38.83333,62
38.84167,62
38.85000,62
38.85833,62
38.86667,62
38.87500,62
38.88333,62
38.89167,62
38.90000,62
38.90833,63
38.91667,62
38.92500,62
38.93333,62
38.94167,62
38.95000,62
38.95833,62
38.96667,62
38.97500,63
38.98333,63
38.99167,63
39.00000,63
39.00833,63
39.01667,63
39.02500,62
39.03333,62
39.04167,62
39.05000,62
39.05833,62
39.06667,62
39.07500,62
39.08333,61
39.09167,61
39.10000,61
39.10833,62
39.11667,62
39.12500,62
39.13333,62
39.14167,62
39.15000,62
39.15833,63
39.16667,63
39.17500,63
39.18333,63
39.19167,63
39.20000,63
39.20833,63
39.21667,63
39.22500,62
39.23333,62
39.24167,62
39.25000,62
39.25833,62
39.26667,62
39.27500,62
39.28333,62
39.29167,62
39.30000,62
39.30833,62
39.31667,63
39.32500,63
39.33333,63
39.34167,63
39.35000,63
39.35833,63
39.36667,63
39.37500,63
39.38333,63
39.39167,63
39.40000,63
39.40833,63
39.41667,63
39.42500,63
39.43333,63
39.44167,62
39.45000,62
39.45833,62
39.46667,62
39.47500,62
39.48333,62
39.49167,62
39.50000,62
39.50833,62
39.51667,63
39.52500,63
39.53333,63
39.54167,64
39.55000,64
39.55833,64
39.56667,64
39.57500,64
39.58333,64
39.59167,64
39.60000,63
39.60833,63
39.61667,63
39.62500,63
39.63333,63
39.64167,62
39.65000,63
39.65833,63
39.66667,63
39.67500,63
39.68333,64
39.69167,63
39.70000,64
39.70833,64
39.71667,64
39.72500,64
39.73333,64
39.74167,64
39.75000,64
39.75833,64
39.76667,64
39.77500,64
39.78333,64
39.79167,64
39.80000,64
39.80833,64
39.81667,64
39.82500,64
39.83333,64
39.84167,64
39.85000,64
39.85833,64
39.86667,64
39.87500,64
39.88333,65
39.89167,64
39.90000,64
39.90833,64
39.91667,64
39.92500,64
39.93333,64
39.94167,65
39.95000,65
39.95833,64
39.96667,64
39.97500,64
39.98333,64
39.99167,64
40.00000,64

