[Header]
Application Name,LabSolutions
Version,5.97 SP1
Data File Name,C:\Users\cremerlab\Desktop\griffin\2021-03-31_NCM3722_NCglucose_turnover\2021-03-31_NCM3722_turnover_batch_3312021_003_024.lcd
Output Date,4/1/2021
Output Time,12:42:57 PM

[File Information]
Type,Data File
Generated,4/1/2021 12:02:37 PM
Generated by,System Administrator
Modified,4/1/2021 12:42:57 PM
Modified by,System Administrator

[Sample Information]
Operator Name,System Administrator
Acquired,4/1/2021 12:02:55 PM
Sample Type,1:Standard
Level,3
Sample Name,2021-03-31_NCM3722_NCglucose_replicate_04_timepoint_003
Sample ID,003
ISTD Amount1,1
ISTD Amount2,1
ISTD Amount3,1
ISTD Amount4,1
ISTD Amount5,1
ISTD Amount6,1
ISTD Amount7,1
ISTD Amount8,1
ISTD Amount9,1
ISTD Amount10,1
ISTD Amount11,1
ISTD Amount12,1
ISTD Amount13,1
ISTD Amount14,1
ISTD Amount15,1
ISTD Amount16,1
ISTD Amount17,1
ISTD Amount18,1
ISTD Amount19,1
ISTD Amount20,1
ISTD Amount21,1
ISTD Amount22,1
ISTD Amount23,1
ISTD Amount24,1
ISTD Amount25,1
ISTD Amount26,1
ISTD Amount27,1
ISTD Amount28,1
ISTD Amount29,1
ISTD Amount30,1
ISTD Amount31,1
ISTD Amount32,1
Sample Amount,1
Dilution Factor,1
Vial#,39
Injection Volume,20

[Original Files]
Data File,C:\Users\cremerlab\Desktop\griffin\2021-03-31_NCM3722_NCglucose_turnover\2021-03-31_NCM3722_turnover_batch_3312021_003_024.lcd
Method File,C:\LabSolutions\Data\Project1\organicacidsetc2.lcm
Batch File,C:\Users\cremerlab\Desktop\griffin\2021-03-31_NCM3722_NCglucose_turnover\2021-03-31_NCM3722_turnover_batch.lcb
Report Format File,c:\LabSolutions\System\DEFAULT.lsr

[File Description]


[Configuration]
Instrument Name,HPLC-PC-Instrument1
Instrument #,1
Line #,1
# of Detectors,2
Detector ID,Detector A,Detector B
Detector Name,Detector A,Detector B
# of Channels,1,1

[Peak Table(Detector A)]
# of Peaks,0

[Peak Table(Detector B)]
# of Peaks,5
Peak#,R.Time,I.Time,F.Time,Area,Height,A/H,Conc.,Mark,ID#,Name,k',Plate #,Plate Ht.,Tailing,Resolution,Sep.Factor,Area Ratio,Height Ratio,Conc. %,Norm Conc.
1,11.058,10.758,12.425,1170263,67652,17.298,0.000,   ,,,0.000,10747,13.958,1.288,0.000,0.000,0,0,0.000,0.000
2,15.098,14.100,15.392,3069724,116236,26.410,0.000,   ,,,0.365,7117,21.077,0.000,7.073,0.000,0,0,0.000,0.000
3,15.643,15.392,18.342,914751,37113,24.647,0.000, V ,,,0.415,8375,17.911,0.000,0.778,1.135,0,0,0.000,0.000
4,19.003,18.683,19.608,2275,103,22.128,0.000,   ,,,0.718,15568,9.635,1.187,5.197,1.733,0,0,0.000,0.000
5,25.064,24.600,25.667,5277,190,27.770,0.000,   ,,,1.267,17745,8.453,1.070,8.902,1.763,0,0,0.000,0.000

[LC Chromatogram(Detector B-Ch1)]
Interval(msec),500
# of Points,4801
Start Time(min),0.000
End Time(min),40.000
Intensity Units,mV
Intensity Multiplier,0.001
R.Time (min),Intensity
0.00000,0
0.00833,0
0.01667,0
0.02500,0
0.03333,1
0.04167,0
0.05000,0
0.05833,-0
0.06667,-0
0.07500,-1
0.08333,-0
0.09167,-0
0.10000,0
0.10833,0
0.11667,1
0.12500,0
0.13333,0
0.14167,0
0.15000,0
0.15833,0
0.16667,0
0.17500,0
0.18333,0
0.19167,1
0.20000,0
0.20833,1
0.21667,1
0.22500,1
0.23333,1
0.24167,2
0.25000,2
0.25833,2
0.26667,2
0.27500,2
0.28333,2
0.29167,2
0.30000,2
0.30833,2
0.31667,2
0.32500,1
0.33333,1
0.34167,1
0.35000,1
0.35833,1
0.36667,1
0.37500,1
0.38333,1
0.39167,1
0.40000,1
0.40833,1
0.41667,1
0.42500,2
0.43333,2
0.44167,2
0.45000,2
0.45833,2
0.46667,2
0.47500,3
0.48333,3
0.49167,3
0.50000,3
0.50833,3
0.51667,2
0.52500,2
0.53333,2
0.54167,2
0.55000,2
0.55833,2
0.56667,2
0.57500,2
0.58333,2
0.59167,2
0.60000,2
0.60833,2
0.61667,3
0.62500,3
0.63333,3
0.64167,3
0.65000,3
0.65833,3
0.66667,3
0.67500,3
0.68333,3
0.69167,3
0.70000,2
0.70833,2
0.71667,2
0.72500,2
0.73333,2
0.74167,2
0.75000,2
0.75833,2
0.76667,2
0.77500,2
0.78333,2
0.79167,2
0.80000,2
0.80833,2
0.81667,2
0.82500,2
0.83333,2
0.84167,3
0.85000,3
0.85833,3
0.86667,3
0.87500,3
0.88333,3
0.89167,3
0.90000,3
0.90833,2
0.91667,2
0.92500,3
0.93333,3
0.94167,3
0.95000,4
0.95833,4
0.96667,4
0.97500,3
0.98333,3
0.99167,3
1.00000,3
1.00833,3
1.01667,3
1.02500,3
1.03333,3
1.04167,3
1.05000,3
1.05833,3
1.06667,3
1.07500,4
1.08333,4
1.09167,4
1.10000,4
1.10833,5
1.11667,5
1.12500,5
1.13333,4
1.14167,4
1.15000,4
1.15833,4
1.16667,4
1.17500,4
1.18333,4
1.19167,4
1.20000,4
1.20833,3
1.21667,3
1.22500,4
1.23333,4
1.24167,4
1.25000,4
1.25833,4
1.26667,4
1.27500,5
1.28333,5
1.29167,5
1.30000,6
1.30833,6
1.31667,6
1.32500,6
1.33333,6
1.34167,6
1.35000,6
1.35833,6
1.36667,5
1.37500,5
1.38333,5
1.39167,5
1.40000,5
1.40833,5
1.41667,5
1.42500,4
1.43333,4
1.44167,4
1.45000,5
1.45833,5
1.46667,5
1.47500,5
1.48333,5
1.49167,5
1.50000,6
1.50833,6
1.51667,6
1.52500,6
1.53333,6
1.54167,6
1.55000,6
1.55833,6
1.56667,6
1.57500,6
1.58333,6
1.59167,6
1.60000,6
1.60833,7
1.61667,6
1.62500,6
1.63333,6
1.64167,6
1.65000,6
1.65833,6
1.66667,6
1.67500,7
1.68333,7
1.69167,7
1.70000,6
1.70833,6
1.71667,7
1.72500,7
1.73333,7
1.74167,7
1.75000,7
1.75833,7
1.76667,8
1.77500,8
1.78333,8
1.79167,8
1.80000,8
1.80833,8
1.81667,8
1.82500,8
1.83333,8
1.84167,8
1.85000,8
1.85833,8
1.86667,8
1.87500,8
1.88333,8
1.89167,9
1.90000,9
1.90833,9
1.91667,8
1.92500,8
1.93333,8
1.94167,9
1.95000,9
1.95833,9
1.96667,9
1.97500,9
1.98333,9
1.99167,9
2.00000,9
2.00833,10
2.01667,10
2.02500,10
2.03333,10
2.04167,10
2.05000,10
2.05833,10
2.06667,10
2.07500,10
2.08333,10
2.09167,9
2.10000,10
2.10833,10
2.11667,9
2.12500,9
2.13333,9
2.14167,9
2.15000,9
2.15833,9
2.16667,9
2.17500,9
2.18333,10
2.19167,10
2.20000,10
2.20833,10
2.21667,10
2.22500,9
2.23333,9
2.24167,10
2.25000,9
2.25833,9
2.26667,9
2.27500,9
2.28333,9
2.29167,9
2.30000,9
2.30833,9
2.31667,9
2.32500,9
2.33333,9
2.34167,8
2.35000,8
2.35833,8
2.36667,8
2.37500,9
2.38333,9
2.39167,9
2.40000,9
2.40833,9
2.41667,9
2.42500,9
2.43333,9
2.44167,9
2.45000,8
2.45833,8
2.46667,8
2.47500,8
2.48333,8
2.49167,8
2.50000,8
2.50833,8
2.51667,8
2.52500,8
2.53333,8
2.54167,8
2.55000,7
2.55833,7
2.56667,7
2.57500,7
2.58333,7
2.59167,7
2.60000,7
2.60833,7
2.61667,7
2.62500,7
2.63333,7
2.64167,7
2.65000,7
2.65833,7
2.66667,7
2.67500,7
2.68333,7
2.69167,7
2.70000,7
2.70833,7
2.71667,7
2.72500,6
2.73333,6
2.74167,6
2.75000,6
2.75833,6
2.76667,6
2.77500,6
2.78333,7
2.79167,7
2.80000,7
2.80833,7
2.81667,7
2.82500,7
2.83333,6
2.84167,6
2.85000,6
2.85833,6
2.86667,6
2.87500,6
2.88333,6
2.89167,6
2.90000,6
2.90833,7
2.91667,7
2.92500,7
2.93333,7
2.94167,7
2.95000,6
2.95833,6
2.96667,6
2.97500,6
2.98333,6
2.99167,6
3.00000,6
3.00833,6
3.01667,6
3.02500,6
3.03333,5
3.04167,6
3.05000,6
3.05833,6
3.06667,6
3.07500,7
3.08333,7
3.09167,7
3.10000,7
3.10833,7
3.11667,7
3.12500,7
3.13333,7
3.14167,7
3.15000,7
3.15833,7
3.16667,7
3.17500,7
3.18333,6
3.19167,7
3.20000,7
3.20833,7
3.21667,7
3.22500,7
3.23333,7
3.24167,8
3.25000,8
3.25833,8
3.26667,8
3.27500,7
3.28333,7
3.29167,8
3.30000,8
3.30833,8
3.31667,8
3.32500,7
3.33333,7
3.34167,7
3.35000,7
3.35833,7
3.36667,7
3.37500,7
3.38333,7
3.39167,7
3.40000,7
3.40833,7
3.41667,7
3.42500,8
3.43333,8
3.44167,8
3.45000,8
3.45833,8
3.46667,8
3.47500,8
3.48333,9
3.49167,9
3.50000,9
3.50833,9
3.51667,8
3.52500,8
3.53333,8
3.54167,8
3.55000,8
3.55833,8
3.56667,8
3.57500,8
3.58333,9
3.59167,9
3.60000,9
3.60833,8
3.61667,8
3.62500,8
3.63333,8
3.64167,8
3.65000,9
3.65833,9
3.66667,9
3.67500,9
3.68333,9
3.69167,9
3.70000,9
3.70833,10
3.71667,10
3.72500,10
3.73333,10
3.74167,10
3.75000,10
3.75833,10
3.76667,10
3.77500,10
3.78333,10
3.79167,10
3.80000,10
3.80833,10
3.81667,10
3.82500,10
3.83333,10
3.84167,10
3.85000,10
3.85833,10
3.86667,10
3.87500,10
3.88333,10
3.89167,10
3.90000,10
3.90833,10
3.91667,10
3.92500,10
3.93333,10
3.94167,10
3.95000,11
3.95833,11
3.96667,11
3.97500,12
3.98333,12
3.99167,12
4.00000,12
4.00833,11
4.01667,11
4.02500,11
4.03333,11
4.04167,11
4.05000,11
4.05833,11
4.06667,11
4.07500,11
4.08333,11
4.09167,11
4.10000,12
4.10833,12
4.11667,12
4.12500,12
4.13333,12
4.14167,12
4.15000,12
4.15833,13
4.16667,13
4.17500,13
4.18333,13
4.19167,13
4.20000,13
4.20833,12
4.21667,12
4.22500,12
4.23333,13
4.24167,13
4.25000,13
4.25833,12
4.26667,12
4.27500,12
4.28333,12
4.29167,12
4.30000,12
4.30833,12
4.31667,12
4.32500,12
4.33333,12
4.34167,12
4.35000,12
4.35833,12
4.36667,12
4.37500,12
4.38333,11
4.39167,11
4.40000,11
4.40833,11
4.41667,11
4.42500,11
4.43333,11
4.44167,11
4.45000,11
4.45833,11
4.46667,11
4.47500,11
4.48333,11
4.49167,11
4.50000,11
4.50833,11
4.51667,11
4.52500,11
4.53333,11
4.54167,11
4.55000,11
4.55833,11
4.56667,11
4.57500,11
4.58333,11
4.59167,11
4.60000,11
4.60833,10
4.61667,10
4.62500,10
4.63333,10
4.64167,10
4.65000,10
4.65833,10
4.66667,10
4.67500,10
4.68333,10
4.69167,10
4.70000,10
4.70833,10
4.71667,10
4.72500,10
4.73333,10
4.74167,10
4.75000,10
4.75833,10
4.76667,10
4.77500,10
4.78333,10
4.79167,10
4.80000,10
4.80833,10
4.81667,10
4.82500,10
4.83333,10
4.84167,10
4.85000,10
4.85833,10
4.86667,11
4.87500,11
4.88333,11
4.89167,11
4.90000,10
4.90833,10
4.91667,10
4.92500,10
4.93333,10
4.94167,10
4.95000,10
4.95833,10
4.96667,10
4.97500,10
4.98333,9
4.99167,9
5.00000,10
5.00833,10
5.01667,10
5.02500,10
5.03333,10
5.04167,10
5.05000,10
5.05833,10
5.06667,10
5.07500,11
5.08333,11
5.09167,11
5.10000,11
5.10833,10
5.11667,10
5.12500,10
5.13333,10
5.14167,10
5.15000,10
5.15833,10
5.16667,10
5.17500,9
5.18333,9
5.19167,9
5.20000,9
5.20833,9
5.21667,9
5.22500,10
5.23333,9
5.24167,9
5.25000,10
5.25833,10
5.26667,10
5.27500,10
5.28333,10
5.29167,10
5.30000,11
5.30833,11
5.31667,11
5.32500,11
5.33333,11
5.34167,11
5.35000,10
5.35833,10
5.36667,10
5.37500,10
5.38333,9
5.39167,10
5.40000,10
5.40833,10
5.41667,10
5.42500,10
5.43333,10
5.44167,11
5.45000,11
5.45833,11
5.46667,11
5.47500,11
5.48333,11
5.49167,10
5.50000,10
5.50833,10
5.51667,10
5.52500,10
5.53333,10
5.54167,10
5.55000,10
5.55833,10
5.56667,10
5.57500,10
5.58333,10
5.59167,10
5.60000,10
5.60833,10
5.61667,11
5.62500,11
5.63333,11
5.64167,11
5.65000,11
5.65833,11
5.66667,11
5.67500,11
5.68333,11
5.69167,11
5.70000,11
5.70833,11
5.71667,12
5.72500,12
5.73333,11
5.74167,11
5.75000,11
5.75833,11
5.76667,11
5.77500,11
5.78333,11
5.79167,11
5.80000,11
5.80833,11
5.81667,11
5.82500,11
5.83333,11
5.84167,11
5.85000,11
5.85833,12
5.86667,12
5.87500,12
5.88333,12
5.89167,12
5.90000,12
5.90833,12
5.91667,12
5.92500,13
5.93333,13
5.94167,13
5.95000,13
5.95833,12
5.96667,12
5.97500,12
5.98333,12
5.99167,12
6.00000,12
6.00833,12
6.01667,12
6.02500,11
6.03333,11
6.04167,12
6.05000,12
6.05833,12
6.06667,12
6.07500,12
6.08333,12
6.09167,12
6.10000,12
6.10833,12
6.11667,12
6.12500,12
6.13333,12
6.14167,12
6.15000,12
6.15833,12
6.16667,12
6.17500,12
6.18333,12
6.19167,12
6.20000,12
6.20833,12
6.21667,12
6.22500,12
6.23333,12
6.24167,12
6.25000,12
6.25833,12
6.26667,12
6.27500,12
6.28333,12
6.29167,12
6.30000,12
6.30833,12
6.31667,12
6.32500,12
6.33333,13
6.34167,13
6.35000,13
6.35833,13
6.36667,13
6.37500,12
6.38333,12
6.39167,13
6.40000,13
6.40833,13
6.41667,12
6.42500,12
6.43333,12
6.44167,11
6.45000,11
6.45833,11
6.46667,11
6.47500,11
6.48333,11
6.49167,12
6.50000,12
6.50833,12
6.51667,13
6.52500,13
6.53333,13
6.54167,13
6.55000,13
6.55833,13
6.56667,13
6.57500,13
6.58333,13
6.59167,13
6.60000,13
6.60833,13
6.61667,13
6.62500,13
6.63333,13
6.64167,13
6.65000,13
6.65833,12
6.66667,12
6.67500,12
6.68333,12
6.69167,12
6.70000,13
6.70833,13
6.71667,14
6.72500,14
6.73333,13
6.74167,13
6.75000,13
6.75833,13
6.76667,14
6.77500,13
6.78333,13
6.79167,13
6.80000,13
6.80833,14
6.81667,14
6.82500,14
6.83333,14
6.84167,14
6.85000,14
6.85833,14
6.86667,14
6.87500,14
6.88333,14
6.89167,13
6.90000,13
6.90833,13
6.91667,13
6.92500,13
6.93333,13
6.94167,13
6.95000,13
6.95833,13
6.96667,13
6.97500,14
6.98333,14
6.99167,14
7.00000,13
7.00833,13
7.01667,13
7.02500,13
7.03333,13
7.04167,13
7.05000,14
7.05833,14
7.06667,14
7.07500,14
7.08333,14
7.09167,14
7.10000,14
7.10833,14
7.11667,14
7.12500,14
7.13333,14
7.14167,14
7.15000,14
7.15833,14
7.16667,15
7.17500,15
7.18333,15
7.19167,15
7.20000,15
7.20833,15
7.21667,14
7.22500,14
7.23333,14
7.24167,14
7.25000,14
7.25833,14
7.26667,14
7.27500,14
7.28333,14
7.29167,14
7.30000,14
7.30833,14
7.31667,14
7.32500,14
7.33333,14
7.34167,14
7.35000,14
7.35833,14
7.36667,15
7.37500,15
7.38333,15
7.39167,15
7.40000,15
7.40833,16
7.41667,16
7.42500,16
7.43333,16
7.44167,15
7.45000,15
7.45833,15
7.46667,15
7.47500,15
7.48333,15
7.49167,14
7.50000,14
7.50833,14
7.51667,14
7.52500,15
7.53333,15
7.54167,15
7.55000,14
7.55833,14
7.56667,14
7.57500,14
7.58333,14
7.59167,15
7.60000,15
7.60833,15
7.61667,15
7.62500,15
7.63333,15
7.64167,15
7.65000,15
7.65833,15
7.66667,15
7.67500,15
7.68333,15
7.69167,15
7.70000,14
7.70833,14
7.71667,14
7.72500,14
7.73333,14
7.74167,13
7.75000,13
7.75833,14
7.76667,14
7.77500,14
7.78333,15
7.79167,15
7.80000,15
7.80833,15
7.81667,15
7.82500,14
7.83333,14
7.84167,14
7.85000,15
7.85833,14
7.86667,15
7.87500,15
7.88333,15
7.89167,16
7.90000,16
7.90833,16
7.91667,15
7.92500,15
7.93333,15
7.94167,15
7.95000,15
7.95833,15
7.96667,16
7.97500,16
7.98333,16
7.99167,16
8.00000,16
8.00833,16
8.01667,16
8.02500,16
8.03333,16
8.04167,16
8.05000,16
8.05833,16
8.06667,16
8.07500,16
8.08333,16
8.09167,15
8.10000,15
8.10833,16
8.11667,16
8.12500,16
8.13333,16
8.14167,16
8.15000,16
8.15833,15
8.16667,15
8.17500,15
8.18333,15
8.19167,15
8.20000,16
8.20833,16
8.21667,16
8.22500,16
8.23333,16
8.24167,16
8.25000,16
8.25833,17
8.26667,17
8.27500,16
8.28333,16
8.29167,16
8.30000,17
8.30833,17
8.31667,17
8.32500,17
8.33333,17
8.34167,17
8.35000,17
8.35833,17
8.36667,17
8.37500,16
8.38333,16
8.39167,16
8.40000,16
8.40833,15
8.41667,15
8.42500,15
8.43333,15
8.44167,15
8.45000,15
8.45833,15
8.46667,16
8.47500,16
8.48333,16
8.49167,16
8.50000,17
8.50833,17
8.51667,17
8.52500,17
8.53333,17
8.54167,17
8.55000,17
8.55833,17
8.56667,17
8.57500,17
8.58333,16
8.59167,16
8.60000,16
8.60833,16
8.61667,16
8.62500,16
8.63333,17
8.64167,17
8.65000,17
8.65833,17
8.66667,17
8.67500,17
8.68333,17
8.69167,17
8.70000,17
8.70833,16
8.71667,16
8.72500,16
8.73333,16
8.74167,16
8.75000,16
8.75833,16
8.76667,17
8.77500,17
8.78333,16
8.79167,16
8.80000,16
8.80833,16
8.81667,16
8.82500,15
8.83333,15
8.84167,16
8.85000,16
8.85833,16
8.86667,16
8.87500,17
8.88333,17
8.89167,17
8.90000,17
8.90833,17
8.91667,17
8.92500,17
8.93333,17
8.94167,17
8.95000,17
8.95833,17
8.96667,17
8.97500,17
8.98333,17
8.99167,17
9.00000,17
9.00833,17
9.01667,17
9.02500,17
9.03333,16
9.04167,16
9.05000,16
9.05833,16
9.06667,16
9.07500,16
9.08333,16
9.09167,17
9.10000,17
9.10833,17
9.11667,17
9.12500,17
9.13333,17
9.14167,17
9.15000,18
9.15833,17
9.16667,17
9.17500,17
9.18333,17
9.19167,17
9.20000,17
9.20833,17
9.21667,17
9.22500,17
9.23333,17
9.24167,17
9.25000,16
9.25833,16
9.26667,16
9.27500,16
9.28333,17
9.29167,17
9.30000,17
9.30833,17
9.31667,17
9.32500,17
9.33333,17
9.34167,18
9.35000,18
9.35833,17
9.36667,17
9.37500,17
9.38333,17
9.39167,17
9.40000,17
9.40833,17
9.41667,17
9.42500,17
9.43333,17
9.44167,17
9.45000,17
9.45833,17
9.46667,17
9.47500,17
9.48333,18
9.49167,18
9.50000,18
9.50833,18
9.51667,18
9.52500,18
9.53333,18
9.54167,18
9.55000,18
9.55833,18
9.56667,18
9.57500,18
9.58333,18
9.59167,18
9.60000,18
9.60833,18
9.61667,18
9.62500,18
9.63333,18
9.64167,18
9.65000,17
9.65833,17
9.66667,17
9.67500,17
9.68333,18
9.69167,18
9.70000,18
9.70833,18
9.71667,18
9.72500,18
9.73333,18
9.74167,18
9.75000,18
9.75833,18
9.76667,18
9.77500,19
9.78333,19
9.79167,19
9.80000,19
9.80833,19
9.81667,19
9.82500,19
9.83333,19
9.84167,19
9.85000,19
9.85833,19
9.86667,19
9.87500,19
9.88333,18
9.89167,18
9.90000,18
9.90833,18
9.91667,18
9.92500,19
9.93333,19
9.94167,19
9.95000,19
9.95833,19
9.96667,19
9.97500,20
9.98333,20
9.99167,20
10.00000,20
10.00833,20
10.01667,20
10.02500,20
10.03333,20
10.04167,19
10.05000,20
10.05833,20
10.06667,19
10.07500,19
10.08333,19
10.09167,19
10.10000,19
10.10833,19
10.11667,19
10.12500,19
10.13333,19
10.14167,19
10.15000,19
10.15833,19
10.16667,19
10.17500,19
10.18333,20
10.19167,20
10.20000,19
10.20833,19
10.21667,20
10.22500,20
10.23333,20
10.24167,20
10.25000,20
10.25833,21
10.26667,21
10.27500,21
10.28333,21
10.29167,21
10.30000,21
10.30833,21
10.31667,21
10.32500,21
10.33333,21
10.34167,21
10.35000,21
10.35833,21
10.36667,22
10.37500,23
10.38333,23
10.39167,23
10.40000,24
10.40833,24
10.41667,24
10.42500,24
10.43333,25
10.44167,25
10.45000,25
10.45833,26
10.46667,26
10.47500,25
10.48333,25
10.49167,25
10.50000,24
10.50833,21
10.51667,17
10.52500,12
10.53333,5
10.54167,-6
10.55000,-20
10.55833,-40
10.56667,-65
10.57500,-98
10.58333,-141
10.59167,-196
10.60000,-264
10.60833,-349
10.61667,-451
10.62500,-574
10.63333,-718
10.64167,-885
10.65000,-1076
10.65833,-1289
10.66667,-1523
10.67500,-1775
10.68333,-2041
10.69167,-2316
10.70000,-2591
10.70833,-2860
10.71667,-3112
10.72500,-3336
10.73333,-3520
10.74167,-3651
10.75000,-3716
10.75833,-3703
10.76667,-3596
10.77500,-3385
10.78333,-3055
10.79167,-2597
10.80000,-1998
10.80833,-1251
10.81667,-347
10.82500,721
10.83333,1957
10.84167,3365
10.85000,4947
10.85833,6704
10.86667,8634
10.87500,10735
10.88333,13002
10.89167,15428
10.90000,18008
10.90833,20729
10.91667,23580
10.92500,26547
10.93333,29611
10.94167,32753
10.95000,35948
10.95833,39168
10.96667,42382
10.97500,45551
10.98333,48634
10.99167,51587
11.00000,54359
11.00833,56900
11.01667,59159
11.02500,61084
11.03333,62630
11.04167,63756
11.05000,64433
11.05833,64639
11.06667,64366
11.07500,63621
11.08333,62421
11.09167,60798
11.10000,58795
11.10833,56460
11.11667,53852
11.12500,51030
11.13333,48054
11.14167,44984
11.15000,41874
11.15833,38773
11.16667,35727
11.17500,32770
11.18333,29931
11.19167,27234
11.20000,24693
11.20833,22318
11.21667,20116
11.22500,18085
11.23333,16224
11.24167,14528
11.25000,12988
11.25833,11597
11.26667,10345
11.27500,9221
11.28333,8216
11.29167,7319
11.30000,6521
11.30833,5812
11.31667,5183
11.32500,4627
11.33333,4135
11.34167,3700
11.35000,3316
11.35833,2977
11.36667,2679
11.37500,2417
11.38333,2185
11.39167,1981
11.40000,1800
11.40833,1641
11.41667,1501
11.42500,1376
11.43333,1266
11.44167,1169
11.45000,1082
11.45833,1005
11.46667,937
11.47500,875
11.48333,820
11.49167,770
11.50000,726
11.50833,686
11.51667,649
11.52500,616
11.53333,586
11.54167,559
11.55000,533
11.55833,510
11.56667,489
11.57500,469
11.58333,451
11.59167,434
11.60000,418
11.60833,403
11.61667,389
11.62500,376
11.63333,364
11.64167,353
11.65000,342
11.65833,332
11.66667,323
11.67500,315
11.68333,307
11.69167,299
11.70000,292
11.70833,285
11.71667,279
11.72500,273
11.73333,267
11.74167,262
11.75000,256
11.75833,251
11.76667,247
11.77500,242
11.78333,237
11.79167,233
11.80000,229
11.80833,226
11.81667,223
11.82500,220
11.83333,217
11.84167,214
11.85000,212
11.85833,209
11.86667,207
11.87500,205
11.88333,203
11.89167,201
11.90000,199
11.90833,198
11.91667,196
11.92500,194
11.93333,192
11.94167,191
11.95000,189
11.95833,188
11.96667,186
11.97500,185
11.98333,184
11.99167,183
12.00000,182
12.00833,180
12.01667,179
12.02500,178
12.03333,177
12.04167,176
12.05000,175
12.05833,173
12.06667,172
12.07500,171
12.08333,170
12.09167,169
12.10000,168
12.10833,167
12.11667,166
12.12500,165
12.13333,164
12.14167,163
12.15000,162
12.15833,161
12.16667,160
12.17500,159
12.18333,158
12.19167,157
12.20000,155
12.20833,154
12.21667,154
12.22500,153
12.23333,151
12.24167,150
12.25000,149
12.25833,148
12.26667,147
12.27500,146
12.28333,145
12.29167,144
12.30000,143
12.30833,142
12.31667,142
12.32500,141
12.33333,141
12.34167,141
12.35000,140
12.35833,139
12.36667,139
12.37500,138
12.38333,138
12.39167,137
12.40000,137
12.40833,136
12.41667,136
12.42500,135
12.43333,135
12.44167,134
12.45000,134
12.45833,133
12.46667,132
12.47500,132
12.48333,131
12.49167,131
12.50000,130
12.50833,130
12.51667,129
12.52500,129
12.53333,128
12.54167,127
12.55000,127
12.55833,127
12.56667,127
12.57500,126
12.58333,126
12.59167,125
12.60000,124
12.60833,124
12.61667,123
12.62500,123
12.63333,122
12.64167,122
12.65000,121
12.65833,121
12.66667,120
12.67500,120
12.68333,120
12.69167,119
12.70000,118
12.70833,118
12.71667,117
12.72500,116
12.73333,116
12.74167,116
12.75000,115
12.75833,115
12.76667,115
12.77500,115
12.78333,115
12.79167,115
12.80000,115
12.80833,114
12.81667,114
12.82500,114
12.83333,113
12.84167,113
12.85000,112
12.85833,112
12.86667,112
12.87500,112
12.88333,112
12.89167,112
12.90000,112
12.90833,113
12.91667,112
12.92500,112
12.93333,112
12.94167,112
12.95000,112
12.95833,112
12.96667,112
12.97500,112
12.98333,112
12.99167,112
13.00000,112
13.00833,112
13.01667,112
13.02500,112
13.03333,112
13.04167,112
13.05000,112
13.05833,112
13.06667,112
13.07500,112
13.08333,112
13.09167,112
13.10000,112
13.10833,112
13.11667,111
13.12500,111
13.13333,111
13.14167,111
13.15000,111
13.15833,111
13.16667,110
13.17500,110
13.18333,110
13.19167,109
13.20000,109
13.20833,109
13.21667,109
13.22500,109
13.23333,109
13.24167,109
13.25000,108
13.25833,108
13.26667,107
13.27500,106
13.28333,106
13.29167,105
13.30000,104
13.30833,104
13.31667,103
13.32500,102
13.33333,101
13.34167,101
13.35000,100
13.35833,99
13.36667,98
13.37500,97
13.38333,96
13.39167,95
13.40000,94
13.40833,93
13.41667,92
13.42500,91
13.43333,91
13.44167,90
13.45000,89
13.45833,88
13.46667,88
13.47500,87
13.48333,86
13.49167,85
13.50000,85
13.50833,84
13.51667,83
13.52500,82
13.53333,81
13.54167,80
13.55000,80
13.55833,79
13.56667,79
13.57500,78
13.58333,78
13.59167,78
13.60000,77
13.60833,77
13.61667,77
13.62500,76
13.63333,76
13.64167,75
13.65000,75
13.65833,75
13.66667,74
13.67500,74
13.68333,74
13.69167,74
13.70000,74
13.70833,74
13.71667,74
13.72500,74
13.73333,74
13.74167,74
13.75000,74
13.75833,74
13.76667,74
13.77500,75
13.78333,75
13.79167,76
13.80000,76
13.80833,76
13.81667,76
13.82500,76
13.83333,76
13.84167,76
13.85000,76
13.85833,76
13.86667,76
13.87500,76
13.88333,77
13.89167,77
13.90000,77
13.90833,77
13.91667,78
13.92500,78
13.93333,79
13.94167,79
13.95000,79
13.95833,80
13.96667,81
13.97500,81
13.98333,82
13.99167,83
14.00000,83
14.00833,83
14.01667,84
14.02500,85
14.03333,85
14.04167,86
14.05000,87
14.05833,88
14.06667,88
14.07500,89
14.08333,90
14.09167,90
14.10000,91
14.10833,92
14.11667,93
14.12500,94
14.13333,96
14.14167,97
14.15000,100
14.15833,102
14.16667,105
14.17500,108
14.18333,111
14.19167,116
14.20000,120
14.20833,126
14.21667,133
14.22500,141
14.23333,151
14.24167,163
14.25000,177
14.25833,195
14.26667,216
14.27500,242
14.28333,273
14.29167,309
14.30000,352
14.30833,404
14.31667,464
14.32500,535
14.33333,618
14.34167,715
14.35000,827
14.35833,955
14.36667,1102
14.37500,1268
14.38333,1457
14.39167,1669
14.40000,1906
14.40833,2170
14.41667,2463
14.42500,2784
14.43333,3137
14.44167,3523
14.45000,3941
14.45833,4394
14.46667,4882
14.47500,5406
14.48333,5967
14.49167,6564
14.50000,7198
14.50833,7869
14.51667,8577
14.52500,9323
14.53333,10105
14.54167,10923
14.55000,11778
14.55833,12669
14.56667,13595
14.57500,14555
14.58333,15550
14.59167,16578
14.60000,17639
14.60833,18732
14.61667,19857
14.62500,21012
14.63333,22198
14.64167,23414
14.65000,24660
14.65833,25934
14.66667,27236
14.67500,28566
14.68333,29923
14.69167,31307
14.70000,32717
14.70833,34153
14.71667,35615
14.72500,37102
14.73333,38614
14.74167,40151
14.75000,41711
14.75833,43296
14.76667,44904
14.77500,46536
14.78333,48191
14.79167,49868
14.80000,51569
14.80833,53291
14.81667,55037
14.82500,56804
14.83333,58593
14.84167,60403
14.85000,62235
14.85833,64089
14.86667,65964
14.87500,67859
14.88333,69774
14.89167,71709
14.90000,73664
14.90833,75637
14.91667,77629
14.92500,79638
14.93333,81664
14.94167,83707
14.95000,85764
14.95833,87836
14.96667,89919
14.97500,92013
14.98333,94113
14.99167,96217
15.00000,98320
15.00833,100415
15.01667,102491
15.02500,104536
15.03333,106532
15.04167,108454
15.05000,110272
15.05833,111946
15.06667,113431
15.07500,114673
15.08333,115613
15.09167,116190
15.10000,116341
15.10833,116010
15.11667,115148
15.12500,113718
15.13333,111700
15.14167,109094
15.15000,105917
15.15833,102207
15.16667,98022
15.17500,93430
15.18333,88514
15.19167,83364
15.20000,78072
15.20833,72729
15.21667,67421
15.22500,62224
15.23333,57205
15.24167,52419
15.25000,47909
15.25833,43705
15.26667,39827
15.27500,36284
15.28333,33077
15.29167,30203
15.30000,27650
15.30833,25404
15.31667,23452
15.32500,21775
15.33333,20355
15.34167,19175
15.35000,18219
15.35833,17471
15.36667,16915
15.37500,16539
15.38333,16329
15.39167,16275
15.40000,16364
15.40833,16587
15.41667,16934
15.42500,17396
15.43333,17962
15.44167,18624
15.45000,19372
15.45833,20197
15.46667,21088
15.47500,22036
15.48333,23030
15.49167,24061
15.50000,25116
15.50833,26185
15.51667,27258
15.52500,28323
15.53333,29369
15.54167,30386
15.55000,31364
15.55833,32292
15.56667,33162
15.57500,33964
15.58333,34692
15.59167,35338
15.60000,35896
15.60833,36360
15.61667,36728
15.62500,36997
15.63333,37163
15.64167,37227
15.65000,37188
15.65833,37048
15.66667,36808
15.67500,36473
15.68333,36046
15.69167,35531
15.70000,34934
15.70833,34260
15.71667,33516
15.72500,32708
15.73333,31844
15.74167,30929
15.75000,29972
15.75833,28979
15.76667,27957
15.77500,26913
15.78333,25854
15.79167,24786
15.80000,23714
15.80833,22645
15.81667,21583
15.82500,20534
15.83333,19501
15.84167,18489
15.85000,17500
15.85833,16538
15.86667,15606
15.87500,14704
15.88333,13835
15.89167,13000
15.90000,12201
15.90833,11437
15.91667,10710
15.92500,10018
15.93333,9363
15.94167,8743
15.95000,8158
15.95833,7607
15.96667,7089
15.97500,6604
15.98333,6149
15.99167,5724
16.00000,5327
16.00833,4958
16.01667,4614
16.02500,4295
16.03333,3999
16.04167,3724
16.05000,3471
16.05833,3236
16.06667,3019
16.07500,2819
16.08333,2635
16.09167,2465
16.10000,2309
16.10833,2165
16.11667,2033
16.12500,1912
16.13333,1801
16.14167,1699
16.15000,1605
16.15833,1519
16.16667,1439
16.17500,1366
16.18333,1299
16.19167,1238
16.20000,1182
16.20833,1130
16.21667,1082
16.22500,1039
16.23333,998
16.24167,960
16.25000,925
16.25833,893
16.26667,864
16.27500,836
16.28333,811
16.29167,787
16.30000,765
16.30833,745
16.31667,726
16.32500,708
16.33333,691
16.34167,676
16.35000,661
16.35833,648
16.36667,635
16.37500,623
16.38333,612
16.39167,601
16.40000,591
16.40833,581
16.41667,572
16.42500,563
16.43333,555
16.44167,547
16.45000,539
16.45833,532
16.46667,526
16.47500,519
16.48333,513
16.49167,507
16.50000,501
16.50833,495
16.51667,489
16.52500,484
16.53333,479
16.54167,474
16.55000,470
16.55833,465
16.56667,461
16.57500,457
16.58333,453
16.59167,450
16.60000,446
16.60833,442
16.61667,439
16.62500,435
16.63333,432
16.64167,428
16.65000,425
16.65833,421
16.66667,418
16.67500,415
16.68333,412
16.69167,408
16.70000,405
16.70833,402
16.71667,400
16.72500,397
16.73333,395
16.74167,392
16.75000,390
16.75833,387
16.76667,385
16.77500,383
16.78333,380
16.79167,378
16.80000,376
16.80833,374
16.81667,372
16.82500,369
16.83333,367
16.84167,364
16.85000,362
16.85833,360
16.86667,358
16.87500,356
16.88333,353
16.89167,351
16.90000,349
16.90833,347
16.91667,345
16.92500,343
16.93333,341
16.94167,339
16.95000,337
16.95833,335
16.96667,333
16.97500,332
16.98333,330
16.99167,328
17.00000,326
17.00833,324
17.01667,323
17.02500,321
17.03333,319
17.04167,317
17.05000,315
17.05833,313
17.06667,311
17.07500,309
17.08333,307
17.09167,306
17.10000,305
17.10833,304
17.11667,302
17.12500,301
17.13333,299
17.14167,298
17.15000,296
17.15833,295
17.16667,294
17.17500,292
17.18333,291
17.19167,289
17.20000,288
17.20833,286
17.21667,285
17.22500,283
17.23333,281
17.24167,280
17.25000,278
17.25833,277
17.26667,276
17.27500,275
17.28333,274
17.29167,272
17.30000,271
17.30833,269
17.31667,268
17.32500,267
17.33333,265
17.34167,264
17.35000,263
17.35833,261
17.36667,260
17.37500,259
17.38333,257
17.39167,256
17.40000,255
17.40833,254
17.41667,252
17.42500,251
17.43333,250
17.44167,249
17.45000,248
17.45833,247
17.46667,246
17.47500,245
17.48333,244
17.49167,242
17.50000,241
17.50833,240
17.51667,239
17.52500,237
17.53333,236
17.54167,235
17.55000,234
17.55833,233
17.56667,231
17.57500,230
17.58333,229
17.59167,228
17.60000,226
17.60833,225
17.61667,224
17.62500,223
17.63333,222
17.64167,221
17.65000,220
17.65833,219
17.66667,218
17.67500,217
17.68333,217
17.69167,216
17.70000,215
17.70833,214
17.71667,212
17.72500,211
17.73333,210
17.74167,209
17.75000,209
17.75833,208
17.76667,207
17.77500,206
17.78333,205
17.79167,204
17.80000,203
17.80833,202
17.81667,201
17.82500,200
17.83333,199
17.84167,198
17.85000,197
17.85833,197
17.86667,196
17.87500,195
17.88333,194
17.89167,193
17.90000,192
17.90833,191
17.91667,190
17.92500,189
17.93333,189
17.94167,189
17.95000,188
17.95833,188
17.96667,187
17.97500,187
17.98333,186
17.99167,185
18.00000,184
18.00833,183
18.01667,182
18.02500,181
18.03333,180
18.04167,179
18.05000,178
18.05833,178
18.06667,177
18.07500,177
18.08333,176
18.09167,175
18.10000,174
18.10833,173
18.11667,173
18.12500,172
18.13333,172
18.14167,171
18.15000,170
18.15833,169
18.16667,168
18.17500,167
18.18333,167
18.19167,166
18.20000,165
18.20833,165
18.21667,164
18.22500,164
18.23333,163
18.24167,162
18.25000,161
18.25833,161
18.26667,160
18.27500,159
18.28333,159
18.29167,158
18.30000,156
18.30833,156
18.31667,155
18.32500,154
18.33333,154
18.34167,154
18.35000,154
18.35833,153
18.36667,153
18.37500,152
18.38333,152
18.39167,151
18.40000,150
18.40833,149
18.41667,148
18.42500,148
18.43333,147
18.44167,146
18.45000,146
18.45833,146
18.46667,145
18.47500,145
18.48333,144
18.49167,143
18.50000,143
18.50833,142
18.51667,141
18.52500,141
18.53333,140
18.54167,140
18.55000,140
18.55833,140
18.56667,140
18.57500,140
18.58333,140
18.59167,140
18.60000,140
18.60833,140
18.61667,140
18.62500,139
18.63333,139
18.64167,140
18.65000,140
18.65833,140
18.66667,141
18.67500,141
18.68333,142
18.69167,143
18.70000,144
18.70833,145
18.71667,146
18.72500,148
18.73333,150
18.74167,152
18.75000,154
18.75833,156
18.76667,158
18.77500,161
18.78333,163
18.79167,166
18.80000,169
18.80833,173
18.81667,176
18.82500,179
18.83333,182
18.84167,185
18.85000,188
18.85833,192
18.86667,196
18.87500,199
18.88333,202
18.89167,205
18.90000,208
18.90833,211
18.91667,214
18.92500,217
18.93333,219
18.94167,221
18.95000,223
18.95833,225
18.96667,226
18.97500,228
18.98333,229
18.99167,230
19.00000,230
19.00833,230
19.01667,229
19.02500,228
19.03333,227
19.04167,226
19.05000,225
19.05833,224
19.06667,222
19.07500,219
19.08333,217
19.09167,214
19.10000,210
19.10833,207
19.11667,203
19.12500,200
19.13333,196
19.14167,193
19.15000,189
19.15833,186
19.16667,182
19.17500,179
19.18333,176
19.19167,173
19.20000,169
19.20833,166
19.21667,162
19.22500,159
19.23333,156
19.24167,152
19.25000,149
19.25833,146
19.26667,144
19.27500,141
19.28333,139
19.29167,136
19.30000,134
19.30833,132
19.31667,129
19.32500,127
19.33333,125
19.34167,123
19.35000,121
19.35833,119
19.36667,118
19.37500,117
19.38333,115
19.39167,114
19.40000,113
19.40833,112
19.41667,111
19.42500,111
19.43333,110
19.44167,109
19.45000,108
19.45833,108
19.46667,107
19.47500,106
19.48333,106
19.49167,105
19.50000,104
19.50833,104
19.51667,104
19.52500,103
19.53333,102
19.54167,102
19.55000,101
19.55833,101
19.56667,100
19.57500,100
19.58333,99
19.59167,99
19.60000,98
19.60833,98
19.61667,98
19.62500,97
19.63333,97
19.64167,96
19.65000,96
19.65833,96
19.66667,96
19.67500,96
19.68333,96
19.69167,96
19.70000,95
19.70833,95
19.71667,94
19.72500,94
19.73333,93
19.74167,93
19.75000,93
19.75833,92
19.76667,92
19.77500,92
19.78333,92
19.79167,92
19.80000,91
19.80833,91
19.81667,91
19.82500,91
19.83333,91
19.84167,91
19.85000,91
19.85833,90
19.86667,90
19.87500,90
19.88333,90
19.89167,90
19.90000,89
19.90833,89
19.91667,89
19.92500,88
19.93333,88
19.94167,88
19.95000,88
19.95833,88
19.96667,87
19.97500,87
19.98333,87
19.99167,87
20.00000,87
20.00833,87
20.01667,86
20.02500,86
20.03333,85
20.04167,85
20.05000,85
20.05833,85
20.06667,85
20.07500,85
20.08333,85
20.09167,85
20.10000,85
20.10833,85
20.11667,85
20.12500,85
20.13333,84
20.14167,84
20.15000,84
20.15833,84
20.16667,84
20.17500,83
20.18333,83
20.19167,82
20.20000,82
20.20833,82
20.21667,82
20.22500,82
20.23333,82
20.24167,82
20.25000,82
20.25833,81
20.26667,81
20.27500,81
20.28333,81
20.29167,81
20.30000,80
20.30833,80
20.31667,80
20.32500,80
20.33333,80
20.34167,80
20.35000,80
20.35833,80
20.36667,80
20.37500,80
20.38333,80
20.39167,79
20.40000,79
20.40833,79
20.41667,79
20.42500,78
20.43333,78
20.44167,78
20.45000,78
20.45833,78
20.46667,78
20.47500,78
20.48333,78
20.49167,78
20.50000,78
20.50833,78
20.51667,78
20.52500,77
20.53333,77
20.54167,77
20.55000,77
20.55833,77
20.56667,77
20.57500,77
20.58333,76
20.59167,76
20.60000,76
20.60833,76
20.61667,75
20.62500,75
20.63333,74
20.64167,74
20.65000,74
20.65833,74
20.66667,74
20.67500,74
20.68333,74
20.69167,74
20.70000,74
20.70833,74
20.71667,74
20.72500,74
20.73333,74
20.74167,75
20.75000,75
20.75833,74
20.76667,74
20.77500,74
20.78333,74
20.79167,74
20.80000,74
20.80833,74
20.81667,74
20.82500,74
20.83333,74
20.84167,73
20.85000,73
20.85833,72
20.86667,72
20.87500,72
20.88333,71
20.89167,71
20.90000,71
20.90833,71
20.91667,71
20.92500,71
20.93333,71
20.94167,71
20.95000,71
20.95833,71
20.96667,71
20.97500,71
20.98333,71
20.99167,71
21.00000,71
21.00833,71
21.01667,71
21.02500,71
21.03333,71
21.04167,71
21.05000,71
21.05833,70
21.06667,70
21.07500,70
21.08333,69
21.09167,69
21.10000,69
21.10833,69
21.11667,69
21.12500,69
21.13333,69
21.14167,68
21.15000,68
21.15833,68
21.16667,68
21.17500,68
21.18333,68
21.19167,68
21.20000,68
21.20833,68
21.21667,68
21.22500,67
21.23333,67
21.24167,67
21.25000,68
21.25833,68
21.26667,68
21.27500,68
21.28333,68
21.29167,68
21.30000,67
21.30833,67
21.31667,66
21.32500,66
21.33333,65
21.34167,65
21.35000,66
21.35833,66
21.36667,66
21.37500,66
21.38333,66
21.39167,66
21.40000,66
21.40833,67
21.41667,67
21.42500,67
21.43333,67
21.44167,68
21.45000,68
21.45833,68
21.46667,68
21.47500,68
21.48333,68
21.49167,67
21.50000,67
21.50833,67
21.51667,66
21.52500,66
21.53333,66
21.54167,66
21.55000,66
21.55833,66
21.56667,66
21.57500,66
21.58333,66
21.59167,66
21.60000,66
21.60833,66
21.61667,66
21.62500,66
21.63333,67
21.64167,67
21.65000,67
21.65833,67
21.66667,67
21.67500,67
21.68333,68
21.69167,68
21.70000,68
21.70833,68
21.71667,67
21.72500,67
21.73333,67
21.74167,67
21.75000,67
21.75833,67
21.76667,66
21.77500,66
21.78333,66
21.79167,67
21.80000,67
21.80833,67
21.81667,67
21.82500,67
21.83333,67
21.84167,67
21.85000,67
21.85833,67
21.86667,68
21.87500,68
21.88333,68
21.89167,69
21.90000,69
21.90833,69
21.91667,69
21.92500,69
21.93333,69
21.94167,68
21.95000,68
21.95833,68
21.96667,68
21.97500,68
21.98333,68
21.99167,68
22.00000,67
22.00833,67
22.01667,67
22.02500,67
22.03333,67
22.04167,68
22.05000,68
22.05833,68
22.06667,68
22.07500,68
22.08333,68
22.09167,68
22.10000,67
22.10833,67
22.11667,67
22.12500,67
22.13333,67
22.14167,67
22.15000,66
22.15833,66
22.16667,66
22.17500,66
22.18333,65
22.19167,65
22.20000,64
22.20833,64
22.21667,64
22.22500,64
22.23333,64
22.24167,64
22.25000,65
22.25833,65
22.26667,65
22.27500,65
22.28333,65
22.29167,65
22.30000,65
22.30833,64
22.31667,64
22.32500,64
22.33333,64
22.34167,64
22.35000,63
22.35833,63
22.36667,63
22.37500,63
22.38333,63
22.39167,63
22.40000,63
22.40833,63
22.41667,62
22.42500,62
22.43333,62
22.44167,62
22.45000,62
22.45833,62
22.46667,62
22.47500,62
22.48333,62
22.49167,62
22.50000,62
22.50833,62
22.51667,62
22.52500,63
22.53333,63
22.54167,63
22.55000,63
22.55833,63
22.56667,63
22.57500,63
22.58333,63
22.59167,63
22.60000,62
22.60833,62
22.61667,62
22.62500,62
22.63333,62
22.64167,62
22.65000,62
22.65833,62
22.66667,62
22.67500,62
22.68333,62
22.69167,62
22.70000,63
22.70833,63
22.71667,62
22.72500,62
22.73333,61
22.74167,61
22.75000,62
22.75833,62
22.76667,62
22.77500,62
22.78333,63
22.79167,63
22.80000,63
22.80833,63
22.81667,63
22.82500,63
22.83333,63
22.84167,63
22.85000,63
22.85833,63
22.86667,63
22.87500,63
22.88333,64
22.89167,64
22.90000,65
22.90833,66
22.91667,66
22.92500,66
22.93333,67
22.94167,67
22.95000,68
22.95833,68
22.96667,69
22.97500,69
22.98333,70
22.99167,71
23.00000,72
23.00833,73
23.01667,73
23.02500,73
23.03333,74
23.04167,74
23.05000,74
23.05833,75
23.06667,76
23.07500,76
23.08333,77
23.09167,77
23.10000,78
23.10833,78
23.11667,79
23.12500,80
23.13333,81
23.14167,81
23.15000,81
23.15833,82
23.16667,82
23.17500,83
23.18333,84
23.19167,84
23.20000,84
23.20833,85
23.21667,85
23.22500,85
23.23333,86
23.24167,86
23.25000,86
23.25833,86
23.26667,85
23.27500,85
23.28333,85
23.29167,85
23.30000,85
23.30833,84
23.31667,84
23.32500,83
23.33333,82
23.34167,82
23.35000,82
23.35833,81
23.36667,81
23.37500,81
23.38333,80
23.39167,80
23.40000,79
23.40833,79
23.41667,78
23.42500,77
23.43333,76
23.44167,76
23.45000,75
23.45833,74
23.46667,73
23.47500,73
23.48333,72
23.49167,71
23.50000,70
23.50833,70
23.51667,69
23.52500,69
23.53333,69
23.54167,68
23.55000,67
23.55833,66
23.56667,66
23.57500,66
23.58333,66
23.59167,65
23.60000,65
23.60833,64
23.61667,64
23.62500,64
23.63333,64
23.64167,64
23.65000,63
23.65833,63
23.66667,63
23.67500,63
23.68333,62
23.69167,62
23.70000,61
23.70833,61
23.71667,60
23.72500,60
23.73333,61
23.74167,61
23.75000,61
23.75833,61
23.76667,61
23.77500,60
23.78333,60
23.79167,60
23.80000,60
23.80833,60
23.81667,60
23.82500,60
23.83333,60
23.84167,60
23.85000,60
23.85833,60
23.86667,60
23.87500,60
23.88333,60
23.89167,60
23.90000,60
23.90833,60
23.91667,60
23.92500,60
23.93333,60
23.94167,60
23.95000,60
23.95833,60
23.96667,60
23.97500,60
23.98333,60
23.99167,60
24.00000,60
24.00833,60
24.01667,60
24.02500,60
24.03333,60
24.04167,60
24.05000,60
24.05833,60
24.06667,60
24.07500,60
24.08333,60
24.09167,60
24.10000,60
24.10833,59
24.11667,59
24.12500,59
24.13333,58
24.14167,59
24.15000,59
24.15833,59
24.16667,59
24.17500,59
24.18333,60
24.19167,59
24.20000,59
24.20833,59
24.21667,59
24.22500,59
24.23333,59
24.24167,59
24.25000,59
24.25833,59
24.26667,60
24.27500,60
24.28333,61
24.29167,61
24.30000,61
24.30833,61
24.31667,61
24.32500,61
24.33333,60
24.34167,60
24.35000,60
24.35833,60
24.36667,60
24.37500,60
24.38333,60
24.39167,60
24.40000,61
24.40833,61
24.41667,61
24.42500,61
24.43333,62
24.44167,62
24.45000,62
24.45833,62
24.46667,62
24.47500,63
24.48333,63
24.49167,63
24.50000,63
24.50833,64
24.51667,64
24.52500,64
24.53333,65
24.54167,65
24.55000,65
24.55833,66
24.56667,67
24.57500,67
24.58333,68
24.59167,69
24.60000,71
24.60833,72
24.61667,73
24.62500,75
24.63333,76
24.64167,78
24.65000,80
24.65833,82
24.66667,84
24.67500,86
24.68333,88
24.69167,91
24.70000,93
24.70833,96
24.71667,98
24.72500,101
24.73333,104
24.74167,108
24.75000,112
24.75833,116
24.76667,120
24.77500,124
24.78333,128
24.79167,132
24.80000,137
24.80833,142
24.81667,147
24.82500,152
24.83333,158
24.84167,163
24.85000,168
24.85833,174
24.86667,179
24.87500,184
24.88333,190
24.89167,195
24.90000,200
24.90833,206
24.91667,211
24.92500,216
24.93333,221
24.94167,225
24.95000,229
24.95833,234
24.96667,238
24.97500,241
24.98333,244
24.99167,247
25.00000,250
25.00833,252
25.01667,254
25.02500,256
25.03333,257
25.04167,258
25.05000,259
25.05833,260
25.06667,260
25.07500,259
25.08333,259
25.09167,257
25.10000,256
25.10833,254
25.11667,252
25.12500,249
25.13333,246
25.14167,243
25.15000,239
25.15833,236
25.16667,232
25.17500,228
25.18333,223
25.19167,219
25.20000,214
25.20833,209
25.21667,205
25.22500,200
25.23333,195
25.24167,190
25.25000,185
25.25833,180
25.26667,175
25.27500,170
25.28333,166
25.29167,161
25.30000,157
25.30833,152
25.31667,148
25.32500,144
25.33333,140
25.34167,136
25.35000,132
25.35833,129
25.36667,125
25.37500,121
25.38333,118
25.39167,115
25.40000,111
25.40833,108
25.41667,105
25.42500,103
25.43333,100
25.44167,97
25.45000,95
25.45833,92
25.46667,90
25.47500,88
25.48333,86
25.49167,85
25.50000,83
25.50833,82
25.51667,81
25.52500,80
25.53333,79
25.54167,78
25.55000,77
25.55833,76
25.56667,75
25.57500,75
25.58333,74
25.59167,74
25.60000,73
25.60833,72
25.61667,72
25.62500,71
25.63333,71
25.64167,70
25.65000,70
25.65833,69
25.66667,69
25.67500,69
25.68333,69
25.69167,69
25.70000,68
25.70833,68
25.71667,67
25.72500,67
25.73333,67
25.74167,67
25.75000,67
25.75833,67
25.76667,66
25.77500,66
25.78333,66
25.79167,66
25.80000,66
25.80833,66
25.81667,67
25.82500,67
25.83333,67
25.84167,67
25.85000,67
25.85833,67
25.86667,67
25.87500,67
25.88333,67
25.89167,67
25.90000,67
25.90833,67
25.91667,67
25.92500,67
25.93333,67
25.94167,67
25.95000,67
25.95833,67
25.96667,67
25.97500,67
25.98333,67
25.99167,67
26.00000,67
26.00833,67
26.01667,67
26.02500,67
26.03333,67
26.04167,67
26.05000,67
26.05833,66
26.06667,66
26.07500,66
26.08333,66
26.09167,66
26.10000,66
26.10833,66
26.11667,66
26.12500,66
26.13333,66
26.14167,67
26.15000,67
26.15833,68
26.16667,68
26.17500,68
26.18333,68
26.19167,68
26.20000,68
26.20833,68
26.21667,67
26.22500,67
26.23333,67
26.24167,67
26.25000,67
26.25833,67
26.26667,67
26.27500,66
26.28333,66
26.29167,66
26.30000,66
26.30833,66
26.31667,67
26.32500,67
26.33333,67
26.34167,67
26.35000,67
26.35833,67
26.36667,67
26.37500,67
26.38333,67
26.39167,67
26.40000,67
26.40833,67
26.41667,66
26.42500,66
26.43333,66
26.44167,67
26.45000,67
26.45833,67
26.46667,67
26.47500,67
26.48333,67
26.49167,67
26.50000,67
26.50833,67
26.51667,67
26.52500,67
26.53333,68
26.54167,68
26.55000,68
26.55833,68
26.56667,68
26.57500,68
26.58333,68
26.59167,68
26.60000,68
26.60833,68
26.61667,68
26.62500,68
26.63333,69
26.64167,69
26.65000,69
26.65833,69
26.66667,69
26.67500,69
26.68333,69
26.69167,69
26.70000,69
26.70833,70
26.71667,70
26.72500,69
26.73333,69
26.74167,69
26.75000,69
26.75833,68
26.76667,68
26.77500,68
26.78333,68
26.79167,68
26.80000,69
26.80833,69
26.81667,69
26.82500,69
26.83333,69
26.84167,69
26.85000,69
26.85833,70
26.86667,69
26.87500,69
26.88333,69
26.89167,69
26.90000,69
26.90833,69
26.91667,68
26.92500,68
26.93333,68
26.94167,68
26.95000,69
26.95833,69
26.96667,69
26.97500,69
26.98333,70
26.99167,70
27.00000,70
27.00833,71
27.01667,71
27.02500,71
27.03333,71
27.04167,71
27.05000,71
27.05833,71
27.06667,71
27.07500,72
27.08333,72
27.09167,72
27.10000,72
27.10833,71
27.11667,71
27.12500,70
27.13333,71
27.14167,71
27.15000,71
27.15833,71
27.16667,72
27.17500,72
27.18333,72
27.19167,72
27.20000,71
27.20833,71
27.21667,71
27.22500,72
27.23333,72
27.24167,72
27.25000,72
27.25833,72
27.26667,72
27.27500,72
27.28333,72
27.29167,73
27.30000,73
27.30833,73
27.31667,73
27.32500,74
27.33333,74
27.34167,74
27.35000,74
27.35833,74
27.36667,73
27.37500,73
27.38333,73
27.39167,73
27.40000,73
27.40833,73
27.41667,74
27.42500,74
27.43333,74
27.44167,75
27.45000,75
27.45833,75
27.46667,75
27.47500,75
27.48333,75
27.49167,74
27.50000,74
27.50833,74
27.51667,74
27.52500,75
27.53333,75
27.54167,75
27.55000,75
27.55833,75
27.56667,75
27.57500,75
27.58333,75
27.59167,75
27.60000,74
27.60833,74
27.61667,74
27.62500,74
27.63333,74
27.64167,74
27.65000,74
27.65833,74
27.66667,74
27.67500,74
27.68333,74
27.69167,75
27.70000,75
27.70833,75
27.71667,75
27.72500,74
27.73333,74
27.74167,74
27.75000,74
27.75833,74
27.76667,74
27.77500,73
27.78333,73
27.79167,73
27.80000,72
27.80833,71
27.81667,71
27.82500,70
27.83333,70
27.84167,69
27.85000,69
27.85833,68
27.86667,67
27.87500,67
27.88333,67
27.89167,66
27.90000,66
27.90833,65
27.91667,64
27.92500,63
27.93333,62
27.94167,61
27.95000,60
27.95833,59
27.96667,58
27.97500,57
27.98333,56
27.99167,54
28.00000,53
28.00833,51
28.01667,49
28.02500,47
28.03333,46
28.04167,43
28.05000,41
28.05833,39
28.06667,36
28.07500,34
28.08333,31
28.09167,29
28.10000,26
28.10833,24
28.11667,21
28.12500,18
28.13333,15
28.14167,13
28.15000,10
28.15833,7
28.16667,4
28.17500,0
28.18333,-3
28.19167,-6
28.20000,-10
28.20833,-13
28.21667,-17
28.22500,-20
28.23333,-23
28.24167,-26
28.25000,-30
28.25833,-33
28.26667,-37
28.27500,-40
28.28333,-43
28.29167,-45
28.30000,-48
28.30833,-51
28.31667,-54
28.32500,-57
28.33333,-59
28.34167,-61
28.35000,-64
28.35833,-66
28.36667,-67
28.37500,-69
28.38333,-71
28.39167,-72
28.40000,-73
28.40833,-74
28.41667,-76
28.42500,-77
28.43333,-78
28.44167,-79
28.45000,-79
28.45833,-79
28.46667,-80
28.47500,-79
28.48333,-79
28.49167,-79
28.50000,-79
28.50833,-78
28.51667,-77
28.52500,-75
28.53333,-74
28.54167,-72
28.55000,-71
28.55833,-69
28.56667,-67
28.57500,-65
28.58333,-63
28.59167,-60
28.60000,-58
28.60833,-56
28.61667,-53
28.62500,-51
28.63333,-48
28.64167,-45
28.65000,-42
28.65833,-39
28.66667,-36
28.67500,-34
28.68333,-31
28.69167,-28
28.70000,-26
28.70833,-23
28.71667,-21
28.72500,-18
28.73333,-15
28.74167,-12
28.75000,-9
28.75833,-7
28.76667,-4
28.77500,-1
28.78333,2
28.79167,4
28.80000,7
28.80833,9
28.81667,11
28.82500,14
28.83333,16
28.84167,19
28.85000,21
28.85833,23
28.86667,25
28.87500,27
28.88333,29
28.89167,31
28.90000,33
28.90833,34
28.91667,36
28.92500,37
28.93333,38
28.94167,40
28.95000,41
28.95833,43
28.96667,44
28.97500,45
28.98333,47
28.99167,49
29.00000,50
29.00833,51
29.01667,52
29.02500,53
29.03333,54
29.04167,55
29.05000,56
29.05833,56
29.06667,57
29.07500,57
29.08333,58
29.09167,59
29.10000,59
29.10833,60
29.11667,61
29.12500,62
29.13333,62
29.14167,62
29.15000,63
29.15833,63
29.16667,64
29.17500,64
29.18333,65
29.19167,65
29.20000,65
29.20833,66
29.21667,66
29.22500,66
29.23333,66
29.24167,66
29.25000,66
29.25833,67
29.26667,67
29.27500,67
29.28333,68
29.29167,68
29.30000,68
29.30833,69
29.31667,69
29.32500,69
29.33333,69
29.34167,70
29.35000,70
29.35833,69
29.36667,69
29.37500,69
29.38333,69
29.39167,69
29.40000,69
29.40833,69
29.41667,69
29.42500,69
29.43333,69
29.44167,68
29.45000,68
29.45833,68
29.46667,68
29.47500,68
29.48333,68
29.49167,69
29.50000,69
29.50833,69
29.51667,69
29.52500,69
29.53333,69
29.54167,68
29.55000,68
29.55833,68
29.56667,68
29.57500,68
29.58333,68
29.59167,68
29.60000,68
29.60833,67
29.61667,67
29.62500,66
29.63333,66
29.64167,65
29.65000,64
29.65833,64
29.66667,63
29.67500,63
29.68333,63
29.69167,63
29.70000,63
29.70833,63
29.71667,62
29.72500,62
29.73333,62
29.74167,61
29.75000,60
29.75833,59
29.76667,58
29.77500,57
29.78333,56
29.79167,56
29.80000,55
29.80833,54
29.81667,53
29.82500,52
29.83333,51
29.84167,50
29.85000,48
29.85833,47
29.86667,46
29.87500,45
29.88333,44
29.89167,43
29.90000,42
29.90833,41
29.91667,40
29.92500,39
29.93333,39
29.94167,38
29.95000,37
29.95833,36
29.96667,35
29.97500,33
29.98333,32
29.99167,31
30.00000,31
30.00833,30
30.01667,29
30.02500,28
30.03333,26
30.04167,25
30.05000,24
30.05833,23
30.06667,22
30.07500,21
30.08333,20
30.09167,19
30.10000,19
30.10833,19
30.11667,18
30.12500,17
30.13333,17
30.14167,17
30.15000,16
30.15833,16
30.16667,15
30.17500,15
30.18333,14
30.19167,14
30.20000,14
30.20833,13
30.21667,14
30.22500,14
30.23333,14
30.24167,14
30.25000,14
30.25833,15
30.26667,15
30.27500,15
30.28333,15
30.29167,16
30.30000,17
30.30833,17
30.31667,17
30.32500,18
30.33333,19
30.34167,20
30.35000,20
30.35833,21
30.36667,22
30.37500,23
30.38333,24
30.39167,24
30.40000,25
30.40833,26
30.41667,27
30.42500,28
30.43333,29
30.44167,30
30.45000,32
30.45833,32
30.46667,33
30.47500,34
30.48333,35
30.49167,35
30.50000,36
30.50833,38
30.51667,39
30.52500,40
30.53333,40
30.54167,41
30.55000,42
30.55833,43
30.56667,44
30.57500,44
30.58333,45
30.59167,45
30.60000,46
30.60833,47
30.61667,48
30.62500,49
30.63333,50
30.64167,51
30.65000,51
30.65833,51
30.66667,52
30.67500,53
30.68333,54
30.69167,54
30.70000,54
30.70833,55
30.71667,55
30.72500,55
30.73333,55
30.74167,55
30.75000,55
30.75833,55
30.76667,55
30.77500,55
30.78333,55
30.79167,55
30.80000,56
30.80833,56
30.81667,56
30.82500,56
30.83333,56
30.84167,56
30.85000,56
30.85833,56
30.86667,56
30.87500,56
30.88333,56
30.89167,56
30.90000,56
30.90833,56
30.91667,56
30.92500,55
30.93333,55
30.94167,55
30.95000,54
30.95833,54
30.96667,54
30.97500,54
30.98333,53
30.99167,53
31.00000,53
31.00833,54
31.01667,53
31.02500,53
31.03333,53
31.04167,53
31.05000,53
31.05833,53
31.06667,52
31.07500,52
31.08333,52
31.09167,52
31.10000,52
31.10833,52
31.11667,53
31.12500,53
31.13333,53
31.14167,53
31.15000,53
31.15833,53
31.16667,53
31.17500,53
31.18333,53
31.19167,54
31.20000,54
31.20833,54
31.21667,55
31.22500,55
31.23333,55
31.24167,56
31.25000,56
31.25833,57
31.26667,57
31.27500,58
31.28333,58
31.29167,59
31.30000,59
31.30833,59
31.31667,60
31.32500,60
31.33333,61
31.34167,61
31.35000,62
31.35833,62
31.36667,62
31.37500,62
31.38333,63
31.39167,63
31.40000,64
31.40833,64
31.41667,65
31.42500,65
31.43333,66
31.44167,66
31.45000,67
31.45833,68
31.46667,68
31.47500,69
31.48333,69
31.49167,70
31.50000,70
31.50833,71
31.51667,71
31.52500,71
31.53333,72
31.54167,72
31.55000,72
31.55833,73
31.56667,73
31.57500,74
31.58333,75
31.59167,75
31.60000,75
31.60833,75
31.61667,75
31.62500,76
31.63333,76
31.64167,77
31.65000,77
31.65833,77
31.66667,77
31.67500,77
31.68333,77
31.69167,77
31.70000,78
31.70833,78
31.71667,78
31.72500,79
31.73333,79
31.74167,79
31.75000,78
31.75833,78
31.76667,78
31.77500,78
31.78333,78
31.79167,78
31.80000,79
31.80833,79
31.81667,79
31.82500,79
31.83333,79
31.84167,79
31.85000,79
31.85833,79
31.86667,79
31.87500,79
31.88333,79
31.89167,79
31.90000,79
31.90833,79
31.91667,79
31.92500,80
31.93333,80
31.94167,80
31.95000,80
31.95833,79
31.96667,79
31.97500,79
31.98333,79
31.99167,79
32.00000,78
32.00833,78
32.01667,78
32.02500,77
32.03333,77
32.04167,77
32.05000,77
32.05833,77
32.06667,77
32.07500,77
32.08333,76
32.09167,76
32.10000,76
32.10833,77
32.11667,76
32.12500,76
32.13333,76
32.14167,77
32.15000,77
32.15833,77
32.16667,77
32.17500,77
32.18333,76
32.19167,76
32.20000,76
32.20833,76
32.21667,76
32.22500,76
32.23333,76
32.24167,76
32.25000,76
32.25833,76
32.26667,76
32.27500,76
32.28333,76
32.29167,76
32.30000,76
32.30833,76
32.31667,76
32.32500,76
32.33333,76
32.34167,76
32.35000,76
32.35833,76
32.36667,76
32.37500,76
32.38333,76
32.39167,77
32.40000,77
32.40833,77
32.41667,77
32.42500,76
32.43333,76
32.44167,76
32.45000,76
32.45833,76
32.46667,76
32.47500,76
32.48333,75
32.49167,75
32.50000,75
32.50833,75
32.51667,75
32.52500,75
32.53333,75
32.54167,75
32.55000,76
32.55833,76
32.56667,76
32.57500,76
32.58333,76
32.59167,76
32.60000,76
32.60833,77
32.61667,77
32.62500,77
32.63333,77
32.64167,77
32.65000,77
32.65833,77
32.66667,76
32.67500,76
32.68333,76
32.69167,76
32.70000,76
32.70833,76
32.71667,76
32.72500,76
32.73333,76
32.74167,76
32.75000,76
32.75833,76
32.76667,76
32.77500,76
32.78333,75
32.79167,75
32.80000,75
32.80833,75
32.81667,75
32.82500,75
32.83333,76
32.84167,76
32.85000,76
32.85833,77
32.86667,77
32.87500,77
32.88333,77
32.89167,77
32.90000,77
32.90833,77
32.91667,77
32.92500,77
32.93333,77
32.94167,77
32.95000,77
32.95833,76
32.96667,76
32.97500,76
32.98333,76
32.99167,76
33.00000,76
33.00833,76
33.01667,77
33.02500,77
33.03333,77
33.04167,77
33.05000,77
33.05833,77
33.06667,77
33.07500,77
33.08333,77
33.09167,77
33.10000,77
33.10833,77
33.11667,77
33.12500,77
33.13333,77
33.14167,77
33.15000,76
33.15833,76
33.16667,76
33.17500,76
33.18333,77
33.19167,77
33.20000,77
33.20833,77
33.21667,77
33.22500,77
33.23333,77
33.24167,77
33.25000,77
33.25833,77
33.26667,77
33.27500,78
33.28333,78
33.29167,78
33.30000,78
33.30833,78
33.31667,78
33.32500,78
33.33333,78
33.34167,78
33.35000,78
33.35833,78
33.36667,78
33.37500,78
33.38333,78
33.39167,77
33.40000,77
33.40833,77
33.41667,77
33.42500,77
33.43333,77
33.44167,77
33.45000,77
33.45833,77
33.46667,77
33.47500,77
33.48333,78
33.49167,78
33.50000,78
33.50833,78
33.51667,78
33.52500,78
33.53333,78
33.54167,78
33.55000,78
33.55833,78
33.56667,78
33.57500,78
33.58333,78
33.59167,77
33.60000,77
33.60833,77
33.61667,77
33.62500,77
33.63333,76
33.64167,77
33.65000,77
33.65833,78
33.66667,78
33.67500,77
33.68333,78
33.69167,78
33.70000,77
33.70833,77
33.71667,77
33.72500,77
33.73333,77
33.74167,77
33.75000,78
33.75833,78
33.76667,78
33.77500,78
33.78333,78
33.79167,78
33.80000,77
33.80833,77
33.81667,77
33.82500,77
33.83333,77
33.84167,77
33.85000,77
33.85833,77
33.86667,77
33.87500,77
33.88333,77
33.89167,77
33.90000,77
33.90833,77
33.91667,77
33.92500,77
33.93333,77
33.94167,77
33.95000,77
33.95833,77
33.96667,77
33.97500,77
33.98333,77
33.99167,78
34.00000,78
34.00833,78
34.01667,78
34.02500,77
34.03333,77
34.04167,77
34.05000,77
34.05833,76
34.06667,76
34.07500,76
34.08333,77
34.09167,77
34.10000,77
34.10833,77
34.11667,77
34.12500,77
34.13333,77
34.14167,78
34.15000,78
34.15833,77
34.16667,77
34.17500,77
34.18333,77
34.19167,78
34.20000,78
34.20833,78
34.21667,78
34.22500,78
34.23333,78
34.24167,78
34.25000,78
34.25833,78
34.26667,78
34.27500,78
34.28333,78
34.29167,78
34.30000,78
34.30833,78
34.31667,78
34.32500,77
34.33333,77
34.34167,78
34.35000,78
34.35833,78
34.36667,79
34.37500,79
34.38333,79
34.39167,79
34.40000,78
34.40833,78
34.41667,78
34.42500,78
34.43333,78
34.44167,78
34.45000,78
34.45833,78
34.46667,78
34.47500,78
34.48333,77
34.49167,77
34.50000,77
34.50833,77
34.51667,77
34.52500,76
34.53333,76
34.54167,77
34.55000,77
34.55833,77
34.56667,77
34.57500,77
34.58333,78
34.59167,78
34.60000,78
34.60833,78
34.61667,78
34.62500,77
34.63333,77
34.64167,77
34.65000,77
34.65833,77
34.66667,77
34.67500,77
34.68333,77
34.69167,77
34.70000,78
34.70833,78
34.71667,78
34.72500,77
34.73333,77
34.74167,77
34.75000,77
34.75833,77
34.76667,77
34.77500,77
34.78333,77
34.79167,77
34.80000,77
34.80833,77
34.81667,77
34.82500,78
34.83333,78
34.84167,78
34.85000,78
34.85833,78
34.86667,78
34.87500,78
34.88333,78
34.89167,78
34.90000,78
34.90833,78
34.91667,78
34.92500,78
34.93333,78
34.94167,78
34.95000,79
34.95833,79
34.96667,78
34.97500,78
34.98333,78
34.99167,78
35.00000,78
35.00833,78
35.01667,78
35.02500,78
35.03333,78
35.04167,79
35.05000,79
35.05833,79
35.06667,79
35.07500,79
35.08333,79
35.09167,79
35.10000,79
35.10833,79
35.11667,79
35.12500,78
35.13333,78
35.14167,78
35.15000,78
35.15833,78
35.16667,78
35.17500,77
35.18333,77
35.19167,78
35.20000,78
35.20833,78
35.21667,79
35.22500,79
35.23333,79
35.24167,78
35.25000,78
35.25833,78
35.26667,78
35.27500,78
35.28333,79
35.29167,79
35.30000,79
35.30833,79
35.31667,79
35.32500,79
35.33333,79
35.34167,79
35.35000,79
35.35833,79
35.36667,79
35.37500,79
35.38333,79
35.39167,79
35.40000,79
35.40833,79
35.41667,79
35.42500,79
35.43333,79
35.44167,79
35.45000,79
35.45833,79
35.46667,80
35.47500,80
35.48333,80
35.49167,80
35.50000,80
35.50833,80
35.51667,80
35.52500,80
35.53333,80
35.54167,80
35.55000,80
35.55833,80
35.56667,80
35.57500,79
35.58333,79
35.59167,79
35.60000,79
35.60833,79
35.61667,79
35.62500,79
35.63333,79
35.64167,79
35.65000,79
35.65833,79
35.66667,79
35.67500,78
35.68333,78
35.69167,79
35.70000,79
35.70833,79
35.71667,79
35.72500,79
35.73333,79
35.74167,79
35.75000,79
35.75833,79
35.76667,79
35.77500,80
35.78333,80
35.79167,80
35.80000,80
35.80833,80
35.81667,80
35.82500,80
35.83333,80
35.84167,80
35.85000,80
35.85833,80
35.86667,80
35.87500,81
35.88333,81
35.89167,81
35.90000,81
35.90833,81
35.91667,80
35.92500,80
35.93333,80
35.94167,80
35.95000,80
35.95833,80
35.96667,80
35.97500,81
35.98333,81
35.99167,81
36.00000,81
36.00833,81
36.01667,81
36.02500,81
36.03333,81
36.04167,81
36.05000,80
36.05833,80
36.06667,80
36.07500,80
36.08333,80
36.09167,79
36.10000,79
36.10833,79
36.11667,80
36.12500,80
36.13333,80
36.14167,80
36.15000,80
36.15833,80
36.16667,80
36.17500,80
36.18333,80
36.19167,80
36.20000,80
36.20833,80
36.21667,80
36.22500,80
36.23333,80
36.24167,80
36.25000,80
36.25833,80
36.26667,80
36.27500,80
36.28333,80
36.29167,80
36.30000,80
36.30833,80
36.31667,80
36.32500,80
36.33333,81
36.34167,80
36.35000,80
36.35833,80
36.36667,80
36.37500,80
36.38333,80
36.39167,80
36.40000,80
36.40833,80
36.41667,80
36.42500,80
36.43333,80
36.44167,80
36.45000,80
36.45833,80
36.46667,80
36.47500,80
36.48333,79
36.49167,79
36.50000,79
36.50833,80
36.51667,80
36.52500,79
36.53333,80
36.54167,80
36.55000,80
36.55833,80
36.56667,80
36.57500,80
36.58333,80
36.59167,81
36.60000,80
36.60833,80
36.61667,80
36.62500,80
36.63333,80
36.64167,80
36.65000,80
36.65833,80
36.66667,81
36.67500,81
36.68333,81
36.69167,81
36.70000,81
36.70833,81
36.71667,81
36.72500,81
36.73333,81
36.74167,82
36.75000,82
36.75833,82
36.76667,82
36.77500,82
36.78333,82
36.79167,82
36.80000,82
36.80833,82
36.81667,82
36.82500,82
36.83333,83
36.84167,83
36.85000,83
36.85833,82
36.86667,82
36.87500,83
36.88333,83
36.89167,82
36.90000,82
36.90833,82
36.91667,82
36.92500,82
36.93333,82
36.94167,82
36.95000,82
36.95833,83
36.96667,82
36.97500,82
36.98333,82
36.99167,82
37.00000,83
37.00833,83
37.01667,83
37.02500,83
37.03333,83
37.04167,83
37.05000,83
37.05833,84
37.06667,84
37.07500,84
37.08333,84
37.09167,83
37.10000,83
37.10833,83
37.11667,83
37.12500,83
37.13333,83
37.14167,83
37.15000,83
37.15833,83
37.16667,83
37.17500,83
37.18333,83
37.19167,84
37.20000,84
37.20833,84
37.21667,84
37.22500,84
37.23333,84
37.24167,84
37.25000,84
37.25833,84
37.26667,84
37.27500,84
37.28333,84
37.29167,84
37.30000,84
37.30833,84
37.31667,83
37.32500,83
37.33333,83
37.34167,83
37.35000,83
37.35833,82
37.36667,83
37.37500,83
37.38333,83
37.39167,83
37.40000,83
37.40833,83
37.41667,83
37.42500,83
37.43333,83
37.44167,83
37.45000,84
37.45833,84
37.46667,84
37.47500,84
37.48333,83
37.49167,83
37.50000,83
37.50833,83
37.51667,83
37.52500,83
37.53333,82
37.54167,82
37.55000,83
37.55833,83
37.56667,83
37.57500,82
37.58333,83
37.59167,83
37.60000,83
37.60833,82
37.61667,82
37.62500,82
37.63333,83
37.64167,83
37.65000,84
37.65833,84
37.66667,84
37.67500,84
37.68333,84
37.69167,84
37.70000,84
37.70833,85
37.71667,85
37.72500,84
37.73333,84
37.74167,84
37.75000,84
37.75833,84
37.76667,84
37.77500,84
37.78333,84
37.79167,84
37.80000,84
37.80833,84
37.81667,84
37.82500,85
37.83333,85
37.84167,85
37.85000,85
37.85833,85
37.86667,85
37.87500,85
37.88333,85
37.89167,85
37.90000,85
37.90833,85
37.91667,85
37.92500,85
37.93333,85
37.94167,85
37.95000,85
37.95833,85
37.96667,86
37.97500,86
37.98333,86
37.99167,86
38.00000,86
38.00833,85
38.01667,85
38.02500,85
38.03333,85
38.04167,85
38.05000,85
38.05833,85
38.06667,86
38.07500,86
38.08333,86
38.09167,85
38.10000,85
38.10833,85
38.11667,86
38.12500,86
38.13333,86
38.14167,86
38.15000,86
38.15833,86
38.16667,86
38.17500,86
38.18333,85
38.19167,85
38.20000,85
38.20833,85
38.21667,85
38.22500,85
38.23333,86
38.24167,86
38.25000,86
38.25833,86
38.26667,86
38.27500,86
38.28333,86
38.29167,86
38.30000,86
38.30833,87
38.31667,86
38.32500,86
38.33333,86
38.34167,86
38.35000,86
38.35833,86
38.36667,86
38.37500,87
38.38333,87
38.39167,87
38.40000,87
38.40833,86
38.41667,86
38.42500,86
38.43333,86
38.44167,86
38.45000,86
38.45833,86
38.46667,86
38.47500,86
38.48333,86
38.49167,86
38.50000,86
38.50833,86
38.51667,86
38.52500,86
38.53333,86
38.54167,86
38.55000,86
38.55833,87
38.56667,87
38.57500,87
38.58333,87
38.59167,87
38.60000,88
38.60833,87
38.61667,87
38.62500,87
38.63333,87
38.64167,87
38.65000,87
38.65833,87
38.66667,86
38.67500,86
38.68333,86
38.69167,86
38.70000,86
38.70833,86
38.71667,86
38.72500,86
38.73333,86
38.74167,86
38.75000,86
38.75833,86
38.76667,87
38.77500,87
38.78333,87
38.79167,87
38.80000,87
38.80833,87
38.81667,87
38.82500,87
38.83333,87
38.84167,87
38.85000,87
38.85833,86
38.86667,86
38.87500,86
38.88333,86
38.89167,86
38.90000,86
38.90833,86
38.91667,86
38.92500,86
38.93333,86
38.94167,86
38.95000,86
38.95833,86
38.96667,86
38.97500,86
38.98333,87
38.99167,87
39.00000,87
39.00833,88
39.01667,88
39.02500,88
39.03333,88
39.04167,88
39.05000,88
39.05833,88
39.06667,87
39.07500,87
39.08333,86
39.09167,86
39.10000,86
39.10833,87
39.11667,87
39.12500,87
39.13333,88
39.14167,88
39.15000,88
39.15833,88
39.16667,88
39.17500,88
39.18333,88
39.19167,88
39.20000,88
39.20833,88
39.21667,88
39.22500,89
39.23333,89
39.24167,89
39.25000,89
39.25833,89
39.26667,89
39.27500,88
39.28333,88
39.29167,88
39.30000,88
39.30833,88
39.31667,88
39.32500,89
39.33333,89
39.34167,89
39.35000,89
39.35833,89
39.36667,88
39.37500,88
39.38333,89
39.39167,89
39.40000,89
39.40833,89
39.41667,89
39.42500,89
39.43333,89
39.44167,90
39.45000,90
39.45833,90
39.46667,90
39.47500,90
39.48333,89
39.49167,89
39.50000,89
39.50833,88
39.51667,88
39.52500,88
39.53333,88
39.54167,88
39.55000,88
39.55833,89
39.56667,89
39.57500,89
39.58333,90
39.59167,90
39.60000,89
39.60833,89
39.61667,90
39.62500,90
39.63333,90
39.64167,90
39.65000,90
39.65833,90
39.66667,90
39.67500,90
39.68333,90
39.69167,90
39.70000,90
39.70833,90
39.71667,90
39.72500,90
39.73333,90
39.74167,90
39.75000,90
39.75833,90
39.76667,90
39.77500,90
39.78333,90
39.79167,89
39.80000,89
39.80833,89
39.81667,89
39.82500,89
39.83333,89
39.84167,90
39.85000,90
39.85833,90
39.86667,91
39.87500,90
39.88333,90
39.89167,90
39.90000,90
39.90833,91
39.91667,91
39.92500,91
39.93333,90
39.94167,90
39.95000,90
39.95833,90
39.96667,90
39.97500,90
39.98333,90
39.99167,90
40.00000,90

