[Header]
Application Name,LabSolutions
Version,5.97 SP1
Data File Name,C:\Users\cremerlab\Desktop\griffin\2021-03-31_NCM3722_NCglucose_turnover\2021-03-31_NCM3722_turnover_batch_3312021_004_018.lcd
Output Date,4/1/2021
Output Time,8:00:18 AM

[File Information]
Type,Data File
Generated,4/1/2021 7:19:58 AM
Generated by,System Administrator
Modified,4/1/2021 8:00:18 AM
Modified by,System Administrator

[Sample Information]
Operator Name,System Administrator
Acquired,4/1/2021 7:20:17 AM
Sample Type,1:Standard
Level,4
Sample Name,2021-03-31_NCM3722_NCglucose_replicate_03_timepoint_004
Sample ID,004
ISTD Amount1,1
ISTD Amount2,1
ISTD Amount3,1
ISTD Amount4,1
ISTD Amount5,1
ISTD Amount6,1
ISTD Amount7,1
ISTD Amount8,1
ISTD Amount9,1
ISTD Amount10,1
ISTD Amount11,1
ISTD Amount12,1
ISTD Amount13,1
ISTD Amount14,1
ISTD Amount15,1
ISTD Amount16,1
ISTD Amount17,1
ISTD Amount18,1
ISTD Amount19,1
ISTD Amount20,1
ISTD Amount21,1
ISTD Amount22,1
ISTD Amount23,1
ISTD Amount24,1
ISTD Amount25,1
ISTD Amount26,1
ISTD Amount27,1
ISTD Amount28,1
ISTD Amount29,1
ISTD Amount30,1
ISTD Amount31,1
ISTD Amount32,1
Sample Amount,1
Dilution Factor,1
Vial#,31
Injection Volume,20

[Original Files]
Data File,C:\Users\cremerlab\Desktop\griffin\2021-03-31_NCM3722_NCglucose_turnover\2021-03-31_NCM3722_turnover_batch_3312021_004_018.lcd
Method File,C:\LabSolutions\Data\Project1\organicacidsetc2.lcm
Batch File,C:\Users\cremerlab\Desktop\griffin\2021-03-31_NCM3722_NCglucose_turnover\2021-03-31_NCM3722_turnover_batch.lcb
Report Format File,c:\LabSolutions\System\DEFAULT.lsr

[File Description]


[Configuration]
Instrument Name,HPLC-PC-Instrument1
Instrument #,1
Line #,1
# of Detectors,2
Detector ID,Detector A,Detector B
Detector Name,Detector A,Detector B
# of Channels,1,1

[Peak Table(Detector A)]
# of Peaks,0

[Peak Table(Detector B)]
# of Peaks,5
Peak#,R.Time,I.Time,F.Time,Area,Height,A/H,Conc.,Mark,ID#,Name,k',Plate #,Plate Ht.,Tailing,Resolution,Sep.Factor,Area Ratio,Height Ratio,Conc. %,Norm Conc.
1,11.056,10.758,12.583,1140552,65060,17.531,0.000,   ,,,0.000,10763,13.936,1.312,0.000,0.000,0,0,0.000,0.000
2,15.088,14.108,15.383,2921009,111881,26.108,0.000,   ,,,0.365,7243,20.708,0.000,7.101,0.000,0,0,0.000,0.000
3,15.643,15.383,18.433,858811,34700,24.750,0.000, V ,,,0.415,8560,17.524,0.000,0.801,1.138,0,0,0.000,0.000
4,18.994,18.692,19.483,2010,92,21.790,0.000,   ,,,0.718,16675,8.995,1.200,5.300,1.731,0,0,0.000,0.000
5,25.062,24.592,25.650,6272,226,27.794,0.000,   ,,,1.267,18024,8.322,1.072,9.090,1.764,0,0,0.000,0.000

[LC Chromatogram(Detector B-Ch1)]
Interval(msec),500
# of Points,4801
Start Time(min),0.000
End Time(min),40.000
Intensity Units,mV
Intensity Multiplier,0.001
R.Time (min),Intensity
0.00000,0
0.00833,0
0.01667,0
0.02500,0
0.03333,0
0.04167,-0
0.05000,-0
0.05833,-1
0.06667,-1
0.07500,-1
0.08333,-0
0.09167,-0
0.10000,-0
0.10833,-0
0.11667,0
0.12500,0
0.13333,0
0.14167,1
0.15000,1
0.15833,1
0.16667,1
0.17500,1
0.18333,1
0.19167,0
0.20000,0
0.20833,0
0.21667,1
0.22500,1
0.23333,1
0.24167,2
0.25000,2
0.25833,3
0.26667,3
0.27500,3
0.28333,3
0.29167,2
0.30000,2
0.30833,2
0.31667,2
0.32500,1
0.33333,1
0.34167,1
0.35000,1
0.35833,0
0.36667,0
0.37500,0
0.38333,1
0.39167,1
0.40000,1
0.40833,1
0.41667,1
0.42500,1
0.43333,2
0.44167,2
0.45000,2
0.45833,2
0.46667,2
0.47500,2
0.48333,2
0.49167,2
0.50000,2
0.50833,2
0.51667,3
0.52500,3
0.53333,3
0.54167,3
0.55000,3
0.55833,4
0.56667,5
0.57500,5
0.58333,5
0.59167,6
0.60000,6
0.60833,6
0.61667,5
0.62500,5
0.63333,4
0.64167,4
0.65000,3
0.65833,2
0.66667,1
0.67500,0
0.68333,-0
0.69167,-1
0.70000,-2
0.70833,-3
0.71667,-3
0.72500,-3
0.73333,-4
0.74167,-4
0.75000,-4
0.75833,-4
0.76667,-3
0.77500,-3
0.78333,-2
0.79167,-2
0.80000,-1
0.80833,-2
0.81667,-2
0.82500,-2
0.83333,-2
0.84167,-1
0.85000,-1
0.85833,-0
0.86667,-0
0.87500,0
0.88333,1
0.89167,1
0.90000,2
0.90833,2
0.91667,2
0.92500,2
0.93333,2
0.94167,1
0.95000,1
0.95833,1
0.96667,2
0.97500,2
0.98333,2
0.99167,2
1.00000,3
1.00833,3
1.01667,3
1.02500,3
1.03333,3
1.04167,3
1.05000,4
1.05833,4
1.06667,4
1.07500,4
1.08333,4
1.09167,4
1.10000,4
1.10833,4
1.11667,3
1.12500,3
1.13333,3
1.14167,3
1.15000,3
1.15833,3
1.16667,3
1.17500,3
1.18333,4
1.19167,4
1.20000,4
1.20833,5
1.21667,5
1.22500,4
1.23333,4
1.24167,4
1.25000,4
1.25833,4
1.26667,4
1.27500,4
1.28333,4
1.29167,4
1.30000,4
1.30833,4
1.31667,4
1.32500,4
1.33333,4
1.34167,4
1.35000,4
1.35833,3
1.36667,3
1.37500,3
1.38333,4
1.39167,4
1.40000,4
1.40833,4
1.41667,4
1.42500,4
1.43333,4
1.44167,4
1.45000,4
1.45833,4
1.46667,4
1.47500,4
1.48333,4
1.49167,4
1.50000,4
1.50833,4
1.51667,4
1.52500,4
1.53333,3
1.54167,4
1.55000,4
1.55833,4
1.56667,4
1.57500,5
1.58333,5
1.59167,5
1.60000,5
1.60833,5
1.61667,5
1.62500,5
1.63333,5
1.64167,6
1.65000,6
1.65833,6
1.66667,7
1.67500,6
1.68333,6
1.69167,6
1.70000,6
1.70833,6
1.71667,6
1.72500,7
1.73333,7
1.74167,7
1.75000,7
1.75833,7
1.76667,7
1.77500,7
1.78333,7
1.79167,7
1.80000,8
1.80833,8
1.81667,8
1.82500,8
1.83333,8
1.84167,8
1.85000,8
1.85833,8
1.86667,8
1.87500,8
1.88333,8
1.89167,8
1.90000,8
1.90833,7
1.91667,7
1.92500,8
1.93333,8
1.94167,8
1.95000,8
1.95833,8
1.96667,8
1.97500,8
1.98333,8
1.99167,9
2.00000,9
2.00833,9
2.01667,9
2.02500,9
2.03333,9
2.04167,9
2.05000,10
2.05833,10
2.06667,10
2.07500,10
2.08333,10
2.09167,9
2.10000,9
2.10833,9
2.11667,9
2.12500,9
2.13333,9
2.14167,9
2.15000,9
2.15833,9
2.16667,9
2.17500,9
2.18333,9
2.19167,10
2.20000,10
2.20833,10
2.21667,10
2.22500,9
2.23333,9
2.24167,9
2.25000,9
2.25833,9
2.26667,9
2.27500,10
2.28333,10
2.29167,10
2.30000,10
2.30833,10
2.31667,10
2.32500,10
2.33333,10
2.34167,10
2.35000,10
2.35833,10
2.36667,9
2.37500,9
2.38333,9
2.39167,9
2.40000,9
2.40833,9
2.41667,9
2.42500,9
2.43333,9
2.44167,9
2.45000,9
2.45833,9
2.46667,9
2.47500,9
2.48333,9
2.49167,8
2.50000,8
2.50833,8
2.51667,8
2.52500,8
2.53333,8
2.54167,8
2.55000,7
2.55833,7
2.56667,7
2.57500,7
2.58333,7
2.59167,7
2.60000,8
2.60833,8
2.61667,8
2.62500,8
2.63333,8
2.64167,9
2.65000,9
2.65833,8
2.66667,8
2.67500,8
2.68333,8
2.69167,8
2.70000,8
2.70833,8
2.71667,8
2.72500,8
2.73333,7
2.74167,7
2.75000,8
2.75833,8
2.76667,8
2.77500,8
2.78333,8
2.79167,7
2.80000,7
2.80833,7
2.81667,7
2.82500,7
2.83333,8
2.84167,8
2.85000,8
2.85833,8
2.86667,8
2.87500,8
2.88333,8
2.89167,8
2.90000,8
2.90833,8
2.91667,8
2.92500,8
2.93333,8
2.94167,8
2.95000,8
2.95833,8
2.96667,8
2.97500,8
2.98333,8
2.99167,8
3.00000,8
3.00833,8
3.01667,8
3.02500,8
3.03333,7
3.04167,7
3.05000,7
3.05833,7
3.06667,7
3.07500,7
3.08333,6
3.09167,6
3.10000,6
3.10833,7
3.11667,7
3.12500,7
3.13333,7
3.14167,7
3.15000,7
3.15833,7
3.16667,7
3.17500,7
3.18333,7
3.19167,7
3.20000,7
3.20833,7
3.21667,7
3.22500,7
3.23333,7
3.24167,8
3.25000,8
3.25833,8
3.26667,8
3.27500,8
3.28333,8
3.29167,8
3.30000,8
3.30833,8
3.31667,8
3.32500,8
3.33333,8
3.34167,8
3.35000,8
3.35833,8
3.36667,8
3.37500,9
3.38333,9
3.39167,9
3.40000,9
3.40833,9
3.41667,9
3.42500,9
3.43333,9
3.44167,9
3.45000,9
3.45833,9
3.46667,9
3.47500,9
3.48333,9
3.49167,9
3.50000,9
3.50833,9
3.51667,9
3.52500,9
3.53333,9
3.54167,9
3.55000,9
3.55833,9
3.56667,9
3.57500,9
3.58333,9
3.59167,9
3.60000,9
3.60833,10
3.61667,10
3.62500,10
3.63333,11
3.64167,11
3.65000,12
3.65833,12
3.66667,11
3.67500,11
3.68333,11
3.69167,11
3.70000,11
3.70833,11
3.71667,11
3.72500,11
3.73333,11
3.74167,11
3.75000,11
3.75833,11
3.76667,11
3.77500,11
3.78333,11
3.79167,12
3.80000,12
3.80833,12
3.81667,12
3.82500,12
3.83333,12
3.84167,12
3.85000,12
3.85833,12
3.86667,13
3.87500,13
3.88333,13
3.89167,13
3.90000,13
3.90833,13
3.91667,13
3.92500,13
3.93333,13
3.94167,13
3.95000,13
3.95833,13
3.96667,13
3.97500,13
3.98333,13
3.99167,13
4.00000,13
4.00833,13
4.01667,14
4.02500,14
4.03333,14
4.04167,14
4.05000,14
4.05833,15
4.06667,15
4.07500,15
4.08333,15
4.09167,15
4.10000,15
4.10833,15
4.11667,15
4.12500,15
4.13333,15
4.14167,15
4.15000,15
4.15833,15
4.16667,15
4.17500,15
4.18333,15
4.19167,15
4.20000,15
4.20833,15
4.21667,15
4.22500,15
4.23333,14
4.24167,14
4.25000,14
4.25833,14
4.26667,14
4.27500,14
4.28333,14
4.29167,14
4.30000,14
4.30833,14
4.31667,14
4.32500,14
4.33333,14
4.34167,14
4.35000,14
4.35833,14
4.36667,14
4.37500,14
4.38333,14
4.39167,15
4.40000,15
4.40833,15
4.41667,15
4.42500,15
4.43333,15
4.44167,15
4.45000,14
4.45833,14
4.46667,14
4.47500,14
4.48333,14
4.49167,15
4.50000,15
4.50833,15
4.51667,15
4.52500,15
4.53333,14
4.54167,14
4.55000,14
4.55833,14
4.56667,14
4.57500,14
4.58333,14
4.59167,14
4.60000,14
4.60833,14
4.61667,14
4.62500,14
4.63333,14
4.64167,13
4.65000,13
4.65833,13
4.66667,14
4.67500,14
4.68333,14
4.69167,14
4.70000,13
4.70833,13
4.71667,13
4.72500,13
4.73333,13
4.74167,13
4.75000,13
4.75833,13
4.76667,13
4.77500,13
4.78333,13
4.79167,13
4.80000,13
4.80833,13
4.81667,13
4.82500,13
4.83333,13
4.84167,13
4.85000,13
4.85833,13
4.86667,13
4.87500,13
4.88333,13
4.89167,13
4.90000,13
4.90833,13
4.91667,13
4.92500,13
4.93333,13
4.94167,13
4.95000,13
4.95833,13
4.96667,14
4.97500,14
4.98333,14
4.99167,14
5.00000,14
5.00833,14
5.01667,14
5.02500,13
5.03333,13
5.04167,13
5.05000,13
5.05833,14
5.06667,14
5.07500,14
5.08333,14
5.09167,14
5.10000,14
5.10833,14
5.11667,14
5.12500,14
5.13333,14
5.14167,14
5.15000,14
5.15833,14
5.16667,14
5.17500,14
5.18333,14
5.19167,15
5.20000,15
5.20833,15
5.21667,15
5.22500,15
5.23333,14
5.24167,14
5.25000,14
5.25833,15
5.26667,15
5.27500,15
5.28333,15
5.29167,15
5.30000,15
5.30833,15
5.31667,14
5.32500,14
5.33333,14
5.34167,14
5.35000,14
5.35833,14
5.36667,14
5.37500,14
5.38333,14
5.39167,14
5.40000,15
5.40833,15
5.41667,15
5.42500,15
5.43333,16
5.44167,16
5.45000,16
5.45833,16
5.46667,16
5.47500,16
5.48333,16
5.49167,16
5.50000,16
5.50833,16
5.51667,16
5.52500,16
5.53333,16
5.54167,15
5.55000,15
5.55833,15
5.56667,15
5.57500,15
5.58333,15
5.59167,15
5.60000,15
5.60833,15
5.61667,15
5.62500,15
5.63333,16
5.64167,16
5.65000,16
5.65833,16
5.66667,15
5.67500,15
5.68333,15
5.69167,15
5.70000,15
5.70833,15
5.71667,15
5.72500,15
5.73333,15
5.74167,15
5.75000,15
5.75833,15
5.76667,15
5.77500,15
5.78333,16
5.79167,16
5.80000,16
5.80833,15
5.81667,15
5.82500,15
5.83333,15
5.84167,15
5.85000,15
5.85833,15
5.86667,15
5.87500,15
5.88333,15
5.89167,16
5.90000,15
5.90833,15
5.91667,16
5.92500,16
5.93333,16
5.94167,16
5.95000,16
5.95833,15
5.96667,15
5.97500,15
5.98333,15
5.99167,16
6.00000,16
6.00833,16
6.01667,15
6.02500,15
6.03333,15
6.04167,15
6.05000,15
6.05833,15
6.06667,15
6.07500,16
6.08333,16
6.09167,16
6.10000,16
6.10833,16
6.11667,16
6.12500,16
6.13333,16
6.14167,16
6.15000,16
6.15833,16
6.16667,16
6.17500,16
6.18333,16
6.19167,16
6.20000,16
6.20833,16
6.21667,16
6.22500,16
6.23333,16
6.24167,16
6.25000,16
6.25833,17
6.26667,17
6.27500,17
6.28333,17
6.29167,17
6.30000,18
6.30833,18
6.31667,18
6.32500,19
6.33333,19
6.34167,18
6.35000,18
6.35833,18
6.36667,18
6.37500,18
6.38333,18
6.39167,18
6.40000,18
6.40833,17
6.41667,17
6.42500,17
6.43333,18
6.44167,18
6.45000,18
6.45833,18
6.46667,18
6.47500,18
6.48333,18
6.49167,18
6.50000,18
6.50833,18
6.51667,18
6.52500,18
6.53333,18
6.54167,18
6.55000,18
6.55833,18
6.56667,18
6.57500,18
6.58333,18
6.59167,19
6.60000,19
6.60833,19
6.61667,19
6.62500,18
6.63333,18
6.64167,19
6.65000,19
6.65833,19
6.66667,19
6.67500,19
6.68333,19
6.69167,19
6.70000,19
6.70833,19
6.71667,19
6.72500,19
6.73333,19
6.74167,19
6.75000,19
6.75833,19
6.76667,19
6.77500,18
6.78333,19
6.79167,18
6.80000,18
6.80833,18
6.81667,18
6.82500,18
6.83333,18
6.84167,18
6.85000,18
6.85833,18
6.86667,19
6.87500,19
6.88333,19
6.89167,19
6.90000,19
6.90833,19
6.91667,19
6.92500,19
6.93333,19
6.94167,19
6.95000,19
6.95833,19
6.96667,19
6.97500,19
6.98333,19
6.99167,19
7.00000,19
7.00833,19
7.01667,19
7.02500,19
7.03333,19
7.04167,18
7.05000,18
7.05833,18
7.06667,18
7.07500,19
7.08333,19
7.09167,19
7.10000,19
7.10833,20
7.11667,20
7.12500,20
7.13333,20
7.14167,20
7.15000,20
7.15833,20
7.16667,20
7.17500,20
7.18333,20
7.19167,20
7.20000,20
7.20833,20
7.21667,19
7.22500,19
7.23333,19
7.24167,19
7.25000,19
7.25833,19
7.26667,20
7.27500,19
7.28333,19
7.29167,19
7.30000,19
7.30833,19
7.31667,19
7.32500,19
7.33333,19
7.34167,19
7.35000,20
7.35833,20
7.36667,20
7.37500,20
7.38333,20
7.39167,19
7.40000,19
7.40833,19
7.41667,19
7.42500,20
7.43333,20
7.44167,20
7.45000,20
7.45833,20
7.46667,20
7.47500,20
7.48333,20
7.49167,20
7.50000,20
7.50833,20
7.51667,20
7.52500,20
7.53333,21
7.54167,21
7.55000,21
7.55833,22
7.56667,22
7.57500,21
7.58333,21
7.59167,21
7.60000,21
7.60833,21
7.61667,21
7.62500,21
7.63333,21
7.64167,21
7.65000,21
7.65833,21
7.66667,21
7.67500,21
7.68333,21
7.69167,21
7.70000,21
7.70833,21
7.71667,22
7.72500,22
7.73333,22
7.74167,22
7.75000,21
7.75833,21
7.76667,22
7.77500,22
7.78333,22
7.79167,22
7.80000,22
7.80833,22
7.81667,22
7.82500,21
7.83333,21
7.84167,21
7.85000,21
7.85833,21
7.86667,21
7.87500,21
7.88333,21
7.89167,21
7.90000,21
7.90833,22
7.91667,22
7.92500,23
7.93333,23
7.94167,23
7.95000,23
7.95833,22
7.96667,22
7.97500,22
7.98333,22
7.99167,23
8.00000,23
8.00833,22
8.01667,23
8.02500,23
8.03333,23
8.04167,22
8.05000,23
8.05833,23
8.06667,23
8.07500,23
8.08333,23
8.09167,23
8.10000,24
8.10833,24
8.11667,25
8.12500,25
8.13333,25
8.14167,24
8.15000,24
8.15833,25
8.16667,25
8.17500,24
8.18333,24
8.19167,24
8.20000,24
8.20833,24
8.21667,24
8.22500,24
8.23333,24
8.24167,24
8.25000,24
8.25833,24
8.26667,25
8.27500,25
8.28333,25
8.29167,25
8.30000,25
8.30833,25
8.31667,26
8.32500,25
8.33333,25
8.34167,25
8.35000,25
8.35833,25
8.36667,25
8.37500,25
8.38333,26
8.39167,26
8.40000,26
8.40833,26
8.41667,26
8.42500,26
8.43333,26
8.44167,26
8.45000,26
8.45833,26
8.46667,27
8.47500,26
8.48333,26
8.49167,27
8.50000,27
8.50833,26
8.51667,26
8.52500,26
8.53333,27
8.54167,27
8.55000,27
8.55833,27
8.56667,27
8.57500,27
8.58333,27
8.59167,27
8.60000,27
8.60833,27
8.61667,28
8.62500,27
8.63333,27
8.64167,27
8.65000,27
8.65833,27
8.66667,27
8.67500,27
8.68333,26
8.69167,26
8.70000,26
8.70833,26
8.71667,27
8.72500,27
8.73333,27
8.74167,27
8.75000,28
8.75833,28
8.76667,28
8.77500,28
8.78333,27
8.79167,27
8.80000,28
8.80833,28
8.81667,28
8.82500,28
8.83333,27
8.84167,27
8.85000,27
8.85833,27
8.86667,27
8.87500,27
8.88333,27
8.89167,26
8.90000,27
8.90833,27
8.91667,27
8.92500,27
8.93333,27
8.94167,27
8.95000,27
8.95833,27
8.96667,27
8.97500,27
8.98333,27
8.99167,27
9.00000,27
9.00833,28
9.01667,28
9.02500,28
9.03333,28
9.04167,28
9.05000,27
9.05833,27
9.06667,27
9.07500,27
9.08333,27
9.09167,27
9.10000,27
9.10833,27
9.11667,26
9.12500,26
9.13333,26
9.14167,27
9.15000,26
9.15833,26
9.16667,26
9.17500,26
9.18333,26
9.19167,26
9.20000,27
9.20833,27
9.21667,27
9.22500,27
9.23333,27
9.24167,27
9.25000,27
9.25833,26
9.26667,26
9.27500,26
9.28333,27
9.29167,27
9.30000,27
9.30833,27
9.31667,27
9.32500,27
9.33333,27
9.34167,27
9.35000,27
9.35833,27
9.36667,27
9.37500,27
9.38333,27
9.39167,27
9.40000,28
9.40833,28
9.41667,28
9.42500,28
9.43333,28
9.44167,28
9.45000,28
9.45833,28
9.46667,28
9.47500,27
9.48333,27
9.49167,27
9.50000,27
9.50833,27
9.51667,27
9.52500,27
9.53333,27
9.54167,27
9.55000,27
9.55833,27
9.56667,27
9.57500,28
9.58333,28
9.59167,28
9.60000,28
9.60833,28
9.61667,28
9.62500,28
9.63333,28
9.64167,29
9.65000,29
9.65833,29
9.66667,28
9.67500,28
9.68333,28
9.69167,28
9.70000,28
9.70833,27
9.71667,27
9.72500,27
9.73333,27
9.74167,27
9.75000,28
9.75833,28
9.76667,28
9.77500,28
9.78333,29
9.79167,29
9.80000,29
9.80833,29
9.81667,29
9.82500,28
9.83333,28
9.84167,28
9.85000,29
9.85833,29
9.86667,29
9.87500,29
9.88333,28
9.89167,28
9.90000,28
9.90833,28
9.91667,28
9.92500,28
9.93333,29
9.94167,28
9.95000,28
9.95833,28
9.96667,28
9.97500,28
9.98333,29
9.99167,29
10.00000,29
10.00833,29
10.01667,29
10.02500,29
10.03333,29
10.04167,29
10.05000,29
10.05833,28
10.06667,29
10.07500,29
10.08333,29
10.09167,29
10.10000,29
10.10833,29
10.11667,29
10.12500,30
10.13333,29
10.14167,29
10.15000,29
10.15833,29
10.16667,29
10.17500,30
10.18333,30
10.19167,30
10.20000,30
10.20833,30
10.21667,30
10.22500,30
10.23333,30
10.24167,30
10.25000,30
10.25833,31
10.26667,31
10.27500,31
10.28333,31
10.29167,32
10.30000,32
10.30833,32
10.31667,33
10.32500,34
10.33333,34
10.34167,34
10.35000,35
10.35833,35
10.36667,35
10.37500,36
10.38333,36
10.39167,36
10.40000,37
10.40833,37
10.41667,38
10.42500,39
10.43333,39
10.44167,40
10.45000,41
10.45833,41
10.46667,41
10.47500,41
10.48333,41
10.49167,40
10.50000,38
10.50833,36
10.51667,33
10.52500,29
10.53333,23
10.54167,14
10.55000,2
10.55833,-15
10.56667,-37
10.57500,-66
10.58333,-104
10.59167,-153
10.60000,-214
10.60833,-291
10.61667,-384
10.62500,-496
10.63333,-628
10.64167,-783
10.65000,-960
10.65833,-1159
10.66667,-1379
10.67500,-1618
10.68333,-1871
10.69167,-2134
10.70000,-2401
10.70833,-2662
10.71667,-2908
10.72500,-3130
10.73333,-3315
10.74167,-3451
10.75000,-3526
10.75833,-3525
10.76667,-3436
10.77500,-3246
10.78333,-2941
10.79167,-2511
10.80000,-1945
10.80833,-1233
10.81667,-367
10.82500,659
10.83333,1850
10.84167,3211
10.85000,4744
10.85833,6449
10.86667,8326
10.87500,10370
10.88333,12578
10.89167,14944
10.90000,17459
10.90833,20112
10.91667,22892
10.92500,25783
10.93333,28768
10.94167,31825
10.95000,34929
10.95833,38052
10.96667,41162
10.97500,44220
10.98333,47186
10.99167,50015
11.00000,52659
11.00833,55069
11.01667,57197
11.02500,58993
11.03333,60416
11.04167,61430
11.05000,62008
11.05833,62132
11.06667,61798
11.07500,61014
11.08333,59799
11.09167,58186
11.10000,56217
11.10833,53940
11.11667,51410
11.12500,48684
11.13333,45820
11.14167,42872
11.15000,39892
11.15833,36926
11.16667,34015
11.17500,31192
11.18333,28484
11.19167,25912
11.20000,23491
11.20833,21230
11.21667,19132
11.22500,17199
11.23333,15428
11.24167,13813
11.25000,12348
11.25833,11023
11.26667,9832
11.27500,8762
11.28333,7806
11.29167,6952
11.30000,6192
11.30833,5517
11.31667,4919
11.32500,4389
11.33333,3922
11.34167,3508
11.35000,3143
11.35833,2822
11.36667,2539
11.37500,2290
11.38333,2070
11.39167,1877
11.40000,1706
11.40833,1556
11.41667,1423
11.42500,1306
11.43333,1202
11.44167,1110
11.45000,1029
11.45833,956
11.46667,892
11.47500,834
11.48333,783
11.49167,736
11.50000,694
11.50833,656
11.51667,622
11.52500,591
11.53333,563
11.54167,538
11.55000,515
11.55833,493
11.56667,474
11.57500,456
11.58333,439
11.59167,424
11.60000,409
11.60833,396
11.61667,383
11.62500,371
11.63333,360
11.64167,350
11.65000,340
11.65833,331
11.66667,323
11.67500,315
11.68333,307
11.69167,300
11.70000,293
11.70833,287
11.71667,281
11.72500,275
11.73333,270
11.74167,264
11.75000,260
11.75833,255
11.76667,251
11.77500,247
11.78333,243
11.79167,239
11.80000,236
11.80833,232
11.81667,229
11.82500,226
11.83333,223
11.84167,221
11.85000,218
11.85833,216
11.86667,214
11.87500,212
11.88333,210
11.89167,208
11.90000,206
11.90833,204
11.91667,203
11.92500,201
11.93333,199
11.94167,197
11.95000,196
11.95833,195
11.96667,193
11.97500,192
11.98333,191
11.99167,190
12.00000,189
12.00833,187
12.01667,186
12.02500,186
12.03333,185
12.04167,184
12.05000,183
12.05833,182
12.06667,180
12.07500,179
12.08333,178
12.09167,177
12.10000,176
12.10833,174
12.11667,173
12.12500,172
12.13333,171
12.14167,170
12.15000,169
12.15833,168
12.16667,168
12.17500,167
12.18333,166
12.19167,165
12.20000,164
12.20833,163
12.21667,161
12.22500,160
12.23333,159
12.24167,158
12.25000,158
12.25833,157
12.26667,156
12.27500,156
12.28333,155
12.29167,154
12.30000,153
12.30833,152
12.31667,151
12.32500,150
12.33333,150
12.34167,149
12.35000,148
12.35833,147
12.36667,147
12.37500,146
12.38333,145
12.39167,145
12.40000,144
12.40833,144
12.41667,144
12.42500,143
12.43333,143
12.44167,142
12.45000,142
12.45833,141
12.46667,140
12.47500,140
12.48333,140
12.49167,139
12.50000,139
12.50833,138
12.51667,138
12.52500,137
12.53333,136
12.54167,135
12.55000,135
12.55833,134
12.56667,134
12.57500,133
12.58333,133
12.59167,132
12.60000,132
12.60833,132
12.61667,132
12.62500,132
12.63333,131
12.64167,131
12.65000,130
12.65833,130
12.66667,129
12.67500,129
12.68333,128
12.69167,127
12.70000,127
12.70833,126
12.71667,126
12.72500,125
12.73333,125
12.74167,124
12.75000,124
12.75833,124
12.76667,124
12.77500,124
12.78333,124
12.79167,123
12.80000,123
12.80833,122
12.81667,122
12.82500,122
12.83333,122
12.84167,122
12.85000,122
12.85833,122
12.86667,121
12.87500,121
12.88333,121
12.89167,121
12.90000,121
12.90833,121
12.91667,122
12.92500,122
12.93333,121
12.94167,121
12.95000,121
12.95833,121
12.96667,121
12.97500,121
12.98333,121
12.99167,121
13.00000,121
13.00833,122
13.01667,122
13.02500,122
13.03333,122
13.04167,122
13.05000,122
13.05833,122
13.06667,122
13.07500,122
13.08333,122
13.09167,122
13.10000,123
13.10833,123
13.11667,122
13.12500,122
13.13333,122
13.14167,121
13.15000,121
13.15833,120
13.16667,120
13.17500,119
13.18333,119
13.19167,119
13.20000,119
13.20833,119
13.21667,118
13.22500,118
13.23333,118
13.24167,118
13.25000,117
13.25833,117
13.26667,116
13.27500,115
13.28333,115
13.29167,114
13.30000,114
13.30833,114
13.31667,113
13.32500,113
13.33333,112
13.34167,111
13.35000,110
13.35833,109
13.36667,108
13.37500,107
13.38333,106
13.39167,106
13.40000,105
13.40833,104
13.41667,103
13.42500,102
13.43333,102
13.44167,101
13.45000,101
13.45833,100
13.46667,99
13.47500,98
13.48333,97
13.49167,97
13.50000,96
13.50833,95
13.51667,94
13.52500,93
13.53333,93
13.54167,92
13.55000,91
13.55833,91
13.56667,90
13.57500,89
13.58333,89
13.59167,88
13.60000,87
13.60833,87
13.61667,87
13.62500,87
13.63333,86
13.64167,86
13.65000,86
13.65833,86
13.66667,85
13.67500,85
13.68333,85
13.69167,85
13.70000,84
13.70833,84
13.71667,84
13.72500,84
13.73333,84
13.74167,84
13.75000,84
13.75833,84
13.76667,84
13.77500,84
13.78333,84
13.79167,84
13.80000,84
13.80833,85
13.81667,85
13.82500,85
13.83333,85
13.84167,85
13.85000,85
13.85833,85
13.86667,85
13.87500,86
13.88333,86
13.89167,87
13.90000,87
13.90833,87
13.91667,87
13.92500,88
13.93333,88
13.94167,88
13.95000,89
13.95833,89
13.96667,90
13.97500,90
13.98333,90
13.99167,90
14.00000,91
14.00833,91
14.01667,92
14.02500,93
14.03333,94
14.04167,94
14.05000,95
14.05833,96
14.06667,96
14.07500,97
14.08333,98
14.09167,99
14.10000,99
14.10833,100
14.11667,102
14.12500,103
14.13333,104
14.14167,106
14.15000,108
14.15833,110
14.16667,112
14.17500,115
14.18333,118
14.19167,122
14.20000,126
14.20833,131
14.21667,138
14.22500,146
14.23333,156
14.24167,167
14.25000,182
14.25833,198
14.26667,218
14.27500,242
14.28333,271
14.29167,306
14.30000,347
14.30833,395
14.31667,453
14.32500,521
14.33333,600
14.34167,691
14.35000,797
14.35833,919
14.36667,1059
14.37500,1219
14.38333,1399
14.39167,1603
14.40000,1831
14.40833,2086
14.41667,2368
14.42500,2680
14.43333,3022
14.44167,3397
14.45000,3804
14.45833,4245
14.46667,4721
14.47500,5232
14.48333,5780
14.49167,6365
14.50000,6987
14.50833,7646
14.51667,8341
14.52500,9074
14.53333,9844
14.54167,10650
14.55000,11493
14.55833,12371
14.56667,13284
14.57500,14233
14.58333,15215
14.59167,16232
14.60000,17282
14.60833,18364
14.61667,19478
14.62500,20624
14.63333,21800
14.64167,23006
14.65000,24242
14.65833,25506
14.66667,26799
14.67500,28120
14.68333,29467
14.69167,30842
14.70000,32242
14.70833,33669
14.71667,35122
14.72500,36600
14.73333,38102
14.74167,39629
14.75000,41180
14.75833,42754
14.76667,44352
14.77500,45973
14.78333,47618
14.79167,49285
14.80000,50974
14.80833,52685
14.81667,54419
14.82500,56174
14.83333,57951
14.84167,59749
14.85000,61568
14.85833,63408
14.86667,65267
14.87500,67147
14.88333,69046
14.89167,70964
14.90000,72900
14.90833,74854
14.91667,76826
14.92500,78813
14.93333,80816
14.94167,82833
14.95000,84862
14.95833,86902
14.96667,88951
14.97500,91004
14.98333,93060
14.99167,95111
15.00000,97152
15.00833,99170
15.01667,101153
15.02500,103079
15.03333,104925
15.04167,106658
15.05000,108236
15.05833,109614
15.06667,110738
15.07500,111549
15.08333,111987
15.09167,111994
15.10000,111517
15.10833,110511
15.11667,108949
15.12500,106815
15.13333,104115
15.14167,100873
15.15000,97133
15.15833,92952
15.16667,88405
15.17500,83574
15.18333,78546
15.19167,73411
15.20000,68253
15.20833,63153
15.21667,58181
15.22500,53397
15.23333,48850
15.24167,44576
15.25000,40601
15.25833,36939
15.26667,33597
15.27500,30574
15.28333,27862
15.29167,25451
15.30000,23328
15.30833,21475
15.31667,19877
15.32500,18517
15.33333,17378
15.34167,16444
15.35000,15702
15.35833,15138
15.36667,14740
15.37500,14495
15.38333,14394
15.39167,14428
15.40000,14587
15.40833,14863
15.41667,15248
15.42500,15734
15.43333,16313
15.44167,16977
15.45000,17717
15.45833,18526
15.46667,19394
15.47500,20313
15.48333,21273
15.49167,22264
15.50000,23277
15.50833,24301
15.51667,25327
15.52500,26345
15.53333,27343
15.54167,28313
15.55000,29244
15.55833,30127
15.56667,30955
15.57500,31718
15.58333,32410
15.59167,33023
15.60000,33553
15.60833,33995
15.61667,34344
15.62500,34599
15.63333,34758
15.64167,34819
15.65000,34784
15.65833,34653
15.66667,34429
15.67500,34114
15.68333,33712
15.69167,33228
15.70000,32666
15.70833,32033
15.71667,31333
15.72500,30573
15.73333,29760
15.74167,28901
15.75000,28002
15.75833,27069
15.76667,26110
15.77500,25130
15.78333,24137
15.79167,23135
15.80000,22130
15.80833,21129
15.81667,20134
15.82500,19152
15.83333,18186
15.84167,17239
15.85000,16314
15.85833,15414
15.86667,14541
15.87500,13698
15.88333,12886
15.89167,12107
15.90000,11361
15.90833,10647
15.91667,9968
15.92500,9323
15.93333,8712
15.94167,8134
15.95000,7589
15.95833,7075
15.96667,6593
15.97500,6140
15.98333,5717
15.99167,5321
16.00000,4952
16.00833,4609
16.01667,4290
16.02500,3993
16.03333,3719
16.04167,3464
16.05000,3229
16.05833,3011
16.06667,2810
16.07500,2624
16.08333,2454
16.09167,2297
16.10000,2152
16.10833,2019
16.11667,1897
16.12500,1785
16.13333,1682
16.14167,1588
16.15000,1501
16.15833,1421
16.16667,1348
16.17500,1281
16.18333,1219
16.19167,1163
16.20000,1111
16.20833,1063
16.21667,1020
16.22500,979
16.23333,942
16.24167,907
16.25000,876
16.25833,847
16.26667,820
16.27500,795
16.28333,772
16.29167,750
16.30000,730
16.30833,712
16.31667,695
16.32500,679
16.33333,664
16.34167,650
16.35000,636
16.35833,623
16.36667,611
16.37500,600
16.38333,589
16.39167,579
16.40000,570
16.40833,561
16.41667,552
16.42500,545
16.43333,537
16.44167,530
16.45000,524
16.45833,518
16.46667,512
16.47500,506
16.48333,500
16.49167,494
16.50000,489
16.50833,484
16.51667,479
16.52500,474
16.53333,470
16.54167,466
16.55000,461
16.55833,457
16.56667,452
16.57500,448
16.58333,444
16.59167,441
16.60000,437
16.60833,434
16.61667,430
16.62500,427
16.63333,425
16.64167,422
16.65000,419
16.65833,416
16.66667,413
16.67500,410
16.68333,407
16.69167,404
16.70000,402
16.70833,400
16.71667,397
16.72500,394
16.73333,392
16.74167,389
16.75000,386
16.75833,383
16.76667,381
16.77500,378
16.78333,376
16.79167,374
16.80000,372
16.80833,370
16.81667,368
16.82500,366
16.83333,363
16.84167,361
16.85000,359
16.85833,357
16.86667,355
16.87500,353
16.88333,351
16.89167,349
16.90000,347
16.90833,345
16.91667,344
16.92500,342
16.93333,340
16.94167,338
16.95000,336
16.95833,334
16.96667,332
16.97500,330
16.98333,328
16.99167,326
17.00000,324
17.00833,322
17.01667,320
17.02500,319
17.03333,317
17.04167,315
17.05000,313
17.05833,312
17.06667,311
17.07500,309
17.08333,307
17.09167,305
17.10000,304
17.10833,302
17.11667,301
17.12500,300
17.13333,299
17.14167,297
17.15000,296
17.15833,294
17.16667,292
17.17500,291
17.18333,289
17.19167,287
17.20000,286
17.20833,284
17.21667,283
17.22500,281
17.23333,280
17.24167,279
17.25000,278
17.25833,277
17.26667,276
17.27500,274
17.28333,273
17.29167,272
17.30000,270
17.30833,269
17.31667,268
17.32500,267
17.33333,266
17.34167,266
17.35000,265
17.35833,263
17.36667,261
17.37500,260
17.38333,258
17.39167,256
17.40000,255
17.40833,253
17.41667,252
17.42500,251
17.43333,250
17.44167,249
17.45000,248
17.45833,247
17.46667,246
17.47500,245
17.48333,244
17.49167,242
17.50000,241
17.50833,240
17.51667,239
17.52500,238
17.53333,237
17.54167,236
17.55000,235
17.55833,235
17.56667,234
17.57500,232
17.58333,231
17.59167,229
17.60000,228
17.60833,227
17.61667,225
17.62500,224
17.63333,224
17.64167,223
17.65000,222
17.65833,221
17.66667,221
17.67500,220
17.68333,219
17.69167,219
17.70000,218
17.70833,217
17.71667,216
17.72500,215
17.73333,214
17.74167,213
17.75000,212
17.75833,211
17.76667,210
17.77500,210
17.78333,209
17.79167,208
17.80000,207
17.80833,206
17.81667,205
17.82500,204
17.83333,203
17.84167,203
17.85000,202
17.85833,201
17.86667,200
17.87500,199
17.88333,199
17.89167,198
17.90000,197
17.90833,196
17.91667,196
17.92500,195
17.93333,195
17.94167,194
17.95000,193
17.95833,193
17.96667,192
17.97500,192
17.98333,191
17.99167,190
18.00000,189
18.00833,188
18.01667,187
18.02500,186
18.03333,185
18.04167,185
18.05000,184
18.05833,183
18.06667,183
18.07500,182
18.08333,182
18.09167,181
18.10000,181
18.10833,180
18.11667,179
18.12500,178
18.13333,178
18.14167,177
18.15000,177
18.15833,176
18.16667,175
18.17500,174
18.18333,174
18.19167,173
18.20000,173
18.20833,172
18.21667,171
18.22500,170
18.23333,169
18.24167,168
18.25000,168
18.25833,167
18.26667,166
18.27500,166
18.28333,165
18.29167,165
18.30000,164
18.30833,164
18.31667,163
18.32500,163
18.33333,162
18.34167,162
18.35000,161
18.35833,161
18.36667,160
18.37500,159
18.38333,158
18.39167,157
18.40000,156
18.40833,155
18.41667,155
18.42500,155
18.43333,154
18.44167,154
18.45000,153
18.45833,153
18.46667,152
18.47500,152
18.48333,152
18.49167,152
18.50000,151
18.50833,151
18.51667,150
18.52500,150
18.53333,150
18.54167,150
18.55000,150
18.55833,150
18.56667,149
18.57500,149
18.58333,148
18.59167,148
18.60000,147
18.60833,147
18.61667,147
18.62500,147
18.63333,147
18.64167,147
18.65000,147
18.65833,148
18.66667,148
18.67500,149
18.68333,150
18.69167,151
18.70000,152
18.70833,153
18.71667,155
18.72500,156
18.73333,158
18.74167,160
18.75000,161
18.75833,163
18.76667,165
18.77500,166
18.78333,169
18.79167,171
18.80000,174
18.80833,176
18.81667,180
18.82500,183
18.83333,187
18.84167,190
18.85000,193
18.85833,196
18.86667,199
18.87500,202
18.88333,205
18.89167,208
18.90000,211
18.90833,214
18.91667,216
18.92500,219
18.93333,221
18.94167,224
18.95000,226
18.95833,227
18.96667,228
18.97500,229
18.98333,229
18.99167,230
19.00000,229
19.00833,229
19.01667,229
19.02500,228
19.03333,227
19.04167,226
19.05000,224
19.05833,223
19.06667,221
19.07500,219
19.08333,216
19.09167,214
19.10000,211
19.10833,208
19.11667,205
19.12500,202
19.13333,199
19.14167,195
19.15000,192
19.15833,189
19.16667,186
19.17500,182
19.18333,179
19.19167,176
19.20000,173
19.20833,170
19.21667,167
19.22500,164
19.23333,161
19.24167,158
19.25000,155
19.25833,153
19.26667,150
19.27500,148
19.28333,145
19.29167,143
19.30000,140
19.30833,138
19.31667,137
19.32500,135
19.33333,133
19.34167,131
19.35000,130
19.35833,129
19.36667,128
19.37500,126
19.38333,125
19.39167,123
19.40000,122
19.40833,121
19.41667,120
19.42500,119
19.43333,118
19.44167,118
19.45000,117
19.45833,116
19.46667,116
19.47500,116
19.48333,115
19.49167,115
19.50000,114
19.50833,114
19.51667,114
19.52500,113
19.53333,113
19.54167,112
19.55000,112
19.55833,111
19.56667,111
19.57500,110
19.58333,110
19.59167,109
19.60000,109
19.60833,108
19.61667,108
19.62500,107
19.63333,107
19.64167,107
19.65000,107
19.65833,107
19.66667,106
19.67500,106
19.68333,106
19.69167,106
19.70000,106
19.70833,106
19.71667,106
19.72500,106
19.73333,106
19.74167,105
19.75000,105
19.75833,104
19.76667,104
19.77500,104
19.78333,104
19.79167,104
19.80000,103
19.80833,103
19.81667,102
19.82500,102
19.83333,101
19.84167,101
19.85000,101
19.85833,100
19.86667,100
19.87500,100
19.88333,100
19.89167,100
19.90000,100
19.90833,100
19.91667,100
19.92500,100
19.93333,100
19.94167,100
19.95000,100
19.95833,100
19.96667,100
19.97500,100
19.98333,100
19.99167,99
20.00000,99
20.00833,98
20.01667,98
20.02500,98
20.03333,97
20.04167,97
20.05000,97
20.05833,97
20.06667,97
20.07500,96
20.08333,96
20.09167,96
20.10000,96
20.10833,96
20.11667,96
20.12500,96
20.13333,96
20.14167,96
20.15000,95
20.15833,95
20.16667,94
20.17500,94
20.18333,94
20.19167,94
20.20000,94
20.20833,94
20.21667,94
20.22500,94
20.23333,94
20.24167,94
20.25000,94
20.25833,93
20.26667,93
20.27500,93
20.28333,93
20.29167,93
20.30000,93
20.30833,93
20.31667,93
20.32500,93
20.33333,93
20.34167,92
20.35000,92
20.35833,92
20.36667,91
20.37500,91
20.38333,91
20.39167,90
20.40000,90
20.40833,90
20.41667,89
20.42500,89
20.43333,89
20.44167,89
20.45000,89
20.45833,89
20.46667,89
20.47500,89
20.48333,89
20.49167,89
20.50000,89
20.50833,89
20.51667,89
20.52500,89
20.53333,89
20.54167,89
20.55000,88
20.55833,88
20.56667,88
20.57500,88
20.58333,88
20.59167,88
20.60000,88
20.60833,88
20.61667,88
20.62500,87
20.63333,87
20.64167,87
20.65000,87
20.65833,86
20.66667,86
20.67500,86
20.68333,86
20.69167,86
20.70000,86
20.70833,86
20.71667,86
20.72500,86
20.73333,86
20.74167,86
20.75000,85
20.75833,85
20.76667,85
20.77500,84
20.78333,84
20.79167,84
20.80000,84
20.80833,84
20.81667,84
20.82500,84
20.83333,84
20.84167,84
20.85000,84
20.85833,84
20.86667,84
20.87500,84
20.88333,84
20.89167,84
20.90000,84
20.90833,84
20.91667,84
20.92500,84
20.93333,84
20.94167,84
20.95000,83
20.95833,83
20.96667,83
20.97500,83
20.98333,83
20.99167,82
21.00000,82
21.00833,82
21.01667,82
21.02500,82
21.03333,81
21.04167,81
21.05000,81
21.05833,81
21.06667,81
21.07500,81
21.08333,81
21.09167,81
21.10000,81
21.10833,82
21.11667,82
21.12500,82
21.13333,82
21.14167,82
21.15000,81
21.15833,81
21.16667,82
21.17500,82
21.18333,82
21.19167,82
21.20000,82
21.20833,82
21.21667,82
21.22500,81
21.23333,81
21.24167,81
21.25000,81
21.25833,80
21.26667,80
21.27500,80
21.28333,80
21.29167,80
21.30000,80
21.30833,80
21.31667,80
21.32500,79
21.33333,80
21.34167,80
21.35000,80
21.35833,80
21.36667,79
21.37500,80
21.38333,80
21.39167,80
21.40000,80
21.40833,80
21.41667,80
21.42500,80
21.43333,80
21.44167,80
21.45000,79
21.45833,79
21.46667,79
21.47500,79
21.48333,79
21.49167,79
21.50000,79
21.50833,79
21.51667,79
21.52500,79
21.53333,79
21.54167,79
21.55000,80
21.55833,80
21.56667,80
21.57500,79
21.58333,79
21.59167,79
21.60000,79
21.60833,80
21.61667,80
21.62500,80
21.63333,80
21.64167,80
21.65000,80
21.65833,80
21.66667,80
21.67500,80
21.68333,80
21.69167,80
21.70000,80
21.70833,80
21.71667,80
21.72500,80
21.73333,80
21.74167,80
21.75000,80
21.75833,81
21.76667,81
21.77500,82
21.78333,82
21.79167,82
21.80000,83
21.80833,83
21.81667,83
21.82500,83
21.83333,82
21.84167,82
21.85000,82
21.85833,82
21.86667,82
21.87500,81
21.88333,81
21.89167,81
21.90000,81
21.90833,81
21.91667,82
21.92500,82
21.93333,82
21.94167,83
21.95000,83
21.95833,83
21.96667,83
21.97500,83
21.98333,83
21.99167,83
22.00000,83
22.00833,82
22.01667,82
22.02500,82
22.03333,82
22.04167,82
22.05000,81
22.05833,81
22.06667,81
22.07500,81
22.08333,81
22.09167,80
22.10000,80
22.10833,80
22.11667,80
22.12500,79
22.13333,79
22.14167,79
22.15000,79
22.15833,79
22.16667,79
22.17500,80
22.18333,80
22.19167,80
22.20000,79
22.20833,79
22.21667,79
22.22500,79
22.23333,79
22.24167,78
22.25000,78
22.25833,78
22.26667,77
22.27500,77
22.28333,77
22.29167,77
22.30000,77
22.30833,77
22.31667,77
22.32500,76
22.33333,76
22.34167,76
22.35000,77
22.35833,77
22.36667,77
22.37500,77
22.38333,77
22.39167,77
22.40000,77
22.40833,77
22.41667,76
22.42500,76
22.43333,76
22.44167,76
22.45000,76
22.45833,76
22.46667,76
22.47500,76
22.48333,76
22.49167,76
22.50000,76
22.50833,76
22.51667,76
22.52500,76
22.53333,76
22.54167,76
22.55000,76
22.55833,76
22.56667,76
22.57500,76
22.58333,76
22.59167,76
22.60000,75
22.60833,75
22.61667,76
22.62500,76
22.63333,76
22.64167,76
22.65000,76
22.65833,76
22.66667,76
22.67500,76
22.68333,76
22.69167,76
22.70000,76
22.70833,76
22.71667,75
22.72500,75
22.73333,75
22.74167,75
22.75000,76
22.75833,76
22.76667,76
22.77500,76
22.78333,76
22.79167,76
22.80000,77
22.80833,77
22.81667,77
22.82500,77
22.83333,78
22.84167,78
22.85000,78
22.85833,78
22.86667,78
22.87500,78
22.88333,78
22.89167,78
22.90000,78
22.90833,79
22.91667,79
22.92500,80
22.93333,80
22.94167,80
22.95000,81
22.95833,81
22.96667,82
22.97500,83
22.98333,84
22.99167,84
23.00000,85
23.00833,85
23.01667,86
23.02500,87
23.03333,88
23.04167,88
23.05000,89
23.05833,90
23.06667,90
23.07500,91
23.08333,91
23.09167,92
23.10000,92
23.10833,93
23.11667,93
23.12500,94
23.13333,95
23.14167,95
23.15000,96
23.15833,96
23.16667,97
23.17500,98
23.18333,99
23.19167,99
23.20000,99
23.20833,99
23.21667,99
23.22500,99
23.23333,99
23.24167,99
23.25000,99
23.25833,99
23.26667,99
23.27500,98
23.28333,98
23.29167,98
23.30000,98
23.30833,98
23.31667,97
23.32500,97
23.33333,96
23.34167,95
23.35000,95
23.35833,95
23.36667,94
23.37500,94
23.38333,94
23.39167,93
23.40000,93
23.40833,92
23.41667,91
23.42500,90
23.43333,89
23.44167,88
23.45000,88
23.45833,87
23.46667,86
23.47500,85
23.48333,85
23.49167,85
23.50000,85
23.50833,84
23.51667,83
23.52500,83
23.53333,82
23.54167,81
23.55000,81
23.55833,80
23.56667,79
23.57500,79
23.58333,79
23.59167,79
23.60000,78
23.60833,78
23.61667,78
23.62500,77
23.63333,77
23.64167,77
23.65000,77
23.65833,76
23.66667,76
23.67500,76
23.68333,76
23.69167,76
23.70000,75
23.70833,75
23.71667,74
23.72500,75
23.73333,75
23.74167,75
23.75000,75
23.75833,75
23.76667,75
23.77500,75
23.78333,75
23.79167,75
23.80000,75
23.80833,75
23.81667,75
23.82500,74
23.83333,74
23.84167,74
23.85000,74
23.85833,74
23.86667,74
23.87500,74
23.88333,74
23.89167,74
23.90000,74
23.90833,74
23.91667,74
23.92500,74
23.93333,73
23.94167,73
23.95000,73
23.95833,73
23.96667,72
23.97500,72
23.98333,72
23.99167,72
24.00000,72
24.00833,72
24.01667,73
24.02500,73
24.03333,73
24.04167,73
24.05000,73
24.05833,73
24.06667,73
24.07500,73
24.08333,74
24.09167,74
24.10000,74
24.10833,75
24.11667,75
24.12500,75
24.13333,74
24.14167,74
24.15000,74
24.15833,74
24.16667,74
24.17500,74
24.18333,74
24.19167,74
24.20000,74
24.20833,74
24.21667,74
24.22500,74
24.23333,74
24.24167,74
24.25000,74
24.25833,74
24.26667,74
24.27500,74
24.28333,74
24.29167,75
24.30000,75
24.30833,75
24.31667,75
24.32500,75
24.33333,75
24.34167,75
24.35000,75
24.35833,74
24.36667,74
24.37500,74
24.38333,74
24.39167,75
24.40000,75
24.40833,75
24.41667,75
24.42500,76
24.43333,76
24.44167,77
24.45000,77
24.45833,77
24.46667,78
24.47500,78
24.48333,79
24.49167,79
24.50000,80
24.50833,80
24.51667,81
24.52500,81
24.53333,81
24.54167,82
24.55000,82
24.55833,83
24.56667,83
24.57500,84
24.58333,85
24.59167,86
24.60000,87
24.60833,88
24.61667,89
24.62500,91
24.63333,93
24.64167,95
24.65000,97
24.65833,99
24.66667,102
24.67500,104
24.68333,107
24.69167,110
24.70000,113
24.70833,116
24.71667,120
24.72500,124
24.73333,128
24.74167,132
24.75000,136
24.75833,140
24.76667,145
24.77500,150
24.78333,155
24.79167,160
24.80000,166
24.80833,172
24.81667,178
24.82500,184
24.83333,190
24.84167,196
24.85000,202
24.85833,208
24.86667,215
24.87500,221
24.88333,228
24.89167,234
24.90000,240
24.90833,246
24.91667,252
24.92500,258
24.93333,264
24.94167,270
24.95000,275
24.95833,280
24.96667,285
24.97500,289
24.98333,293
24.99167,297
25.00000,300
25.00833,302
25.01667,304
25.02500,306
25.03333,308
25.04167,309
25.05000,310
25.05833,310
25.06667,310
25.07500,310
25.08333,309
25.09167,308
25.10000,306
25.10833,304
25.11667,301
25.12500,298
25.13333,295
25.14167,291
25.15000,287
25.15833,283
25.16667,278
25.17500,273
25.18333,267
25.19167,262
25.20000,256
25.20833,251
25.21667,246
25.22500,240
25.23333,234
25.24167,228
25.25000,222
25.25833,216
25.26667,210
25.27500,204
25.28333,198
25.29167,193
25.30000,188
25.30833,183
25.31667,178
25.32500,172
25.33333,167
25.34167,162
25.35000,157
25.35833,153
25.36667,149
25.37500,145
25.38333,141
25.39167,137
25.40000,133
25.40833,129
25.41667,125
25.42500,122
25.43333,120
25.44167,117
25.45000,114
25.45833,112
25.46667,110
25.47500,107
25.48333,105
25.49167,103
25.50000,101
25.50833,100
25.51667,98
25.52500,96
25.53333,95
25.54167,94
25.55000,93
25.55833,91
25.56667,90
25.57500,89
25.58333,88
25.59167,88
25.60000,87
25.60833,86
25.61667,85
25.62500,85
25.63333,84
25.64167,84
25.65000,83
25.65833,83
25.66667,83
25.67500,82
25.68333,82
25.69167,82
25.70000,81
25.70833,81
25.71667,81
25.72500,81
25.73333,81
25.74167,81
25.75000,80
25.75833,80
25.76667,80
25.77500,80
25.78333,80
25.79167,80
25.80000,80
25.80833,81
25.81667,81
25.82500,80
25.83333,80
25.84167,80
25.85000,80
25.85833,80
25.86667,80
25.87500,80
25.88333,80
25.89167,80
25.90000,80
25.90833,80
25.91667,80
25.92500,80
25.93333,80
25.94167,80
25.95000,81
25.95833,81
25.96667,81
25.97500,80
25.98333,80
25.99167,80
26.00000,80
26.00833,80
26.01667,80
26.02500,80
26.03333,80
26.04167,80
26.05000,80
26.05833,80
26.06667,80
26.07500,80
26.08333,81
26.09167,81
26.10000,81
26.10833,81
26.11667,81
26.12500,80
26.13333,80
26.14167,80
26.15000,80
26.15833,80
26.16667,81
26.17500,81
26.18333,81
26.19167,81
26.20000,81
26.20833,81
26.21667,81
26.22500,80
26.23333,81
26.24167,81
26.25000,81
26.25833,81
26.26667,80
26.27500,80
26.28333,81
26.29167,81
26.30000,81
26.30833,81
26.31667,81
26.32500,81
26.33333,81
26.34167,81
26.35000,82
26.35833,82
26.36667,82
26.37500,82
26.38333,82
26.39167,82
26.40000,82
26.40833,81
26.41667,81
26.42500,81
26.43333,81
26.44167,81
26.45000,82
26.45833,82
26.46667,82
26.47500,82
26.48333,82
26.49167,82
26.50000,82
26.50833,82
26.51667,82
26.52500,82
26.53333,82
26.54167,82
26.55000,82
26.55833,82
26.56667,82
26.57500,82
26.58333,82
26.59167,82
26.60000,82
26.60833,82
26.61667,82
26.62500,82
26.63333,82
26.64167,82
26.65000,82
26.65833,81
26.66667,82
26.67500,82
26.68333,82
26.69167,81
26.70000,81
26.70833,81
26.71667,81
26.72500,81
26.73333,81
26.74167,81
26.75000,81
26.75833,81
26.76667,82
26.77500,82
26.78333,82
26.79167,82
26.80000,83
26.80833,83
26.81667,83
26.82500,83
26.83333,82
26.84167,82
26.85000,82
26.85833,82
26.86667,82
26.87500,82
26.88333,82
26.89167,82
26.90000,82
26.90833,82
26.91667,82
26.92500,82
26.93333,82
26.94167,82
26.95000,82
26.95833,82
26.96667,82
26.97500,83
26.98333,83
26.99167,84
27.00000,84
27.00833,84
27.01667,84
27.02500,84
27.03333,84
27.04167,84
27.05000,83
27.05833,83
27.06667,82
27.07500,82
27.08333,82
27.09167,82
27.10000,83
27.10833,83
27.11667,84
27.12500,84
27.13333,84
27.14167,84
27.15000,84
27.15833,84
27.16667,84
27.17500,84
27.18333,84
27.19167,85
27.20000,85
27.20833,85
27.21667,85
27.22500,85
27.23333,85
27.24167,85
27.25000,85
27.25833,85
27.26667,85
27.27500,85
27.28333,85
27.29167,85
27.30000,85
27.30833,85
27.31667,85
27.32500,86
27.33333,85
27.34167,85
27.35000,85
27.35833,85
27.36667,86
27.37500,86
27.38333,87
27.39167,87
27.40000,87
27.40833,87
27.41667,87
27.42500,87
27.43333,87
27.44167,87
27.45000,87
27.45833,87
27.46667,87
27.47500,87
27.48333,87
27.49167,87
27.50000,87
27.50833,87
27.51667,87
27.52500,88
27.53333,88
27.54167,87
27.55000,87
27.55833,87
27.56667,87
27.57500,86
27.58333,86
27.59167,86
27.60000,86
27.60833,87
27.61667,87
27.62500,87
27.63333,87
27.64167,86
27.65000,86
27.65833,86
27.66667,85
27.67500,85
27.68333,84
27.69167,84
27.70000,84
27.70833,83
27.71667,83
27.72500,82
27.73333,82
27.74167,81
27.75000,80
27.75833,79
27.76667,79
27.77500,78
27.78333,77
27.79167,75
27.80000,73
27.80833,72
27.81667,70
27.82500,69
27.83333,67
27.84167,65
27.85000,63
27.85833,60
27.86667,58
27.87500,55
27.88333,52
27.89167,49
27.90000,46
27.90833,42
27.91667,39
27.92500,35
27.93333,31
27.94167,26
27.95000,21
27.95833,16
27.96667,10
27.97500,5
27.98333,-1
27.99167,-8
28.00000,-15
28.00833,-22
28.01667,-29
28.02500,-37
28.03333,-44
28.04167,-53
28.05000,-62
28.05833,-71
28.06667,-81
28.07500,-92
28.08333,-102
28.09167,-113
28.10000,-124
28.10833,-136
28.11667,-147
28.12500,-159
28.13333,-171
28.14167,-184
28.15000,-197
28.15833,-209
28.16667,-223
28.17500,-236
28.18333,-250
28.19167,-264
28.20000,-278
28.20833,-292
28.21667,-306
28.22500,-320
28.23333,-334
28.24167,-348
28.25000,-361
28.25833,-375
28.26667,-388
28.27500,-402
28.28333,-415
28.29167,-428
28.30000,-441
28.30833,-453
28.31667,-465
28.32500,-477
28.33333,-488
28.34167,-498
28.35000,-508
28.35833,-518
28.36667,-527
28.37500,-535
28.38333,-543
28.39167,-550
28.40000,-556
28.40833,-562
28.41667,-567
28.42500,-572
28.43333,-575
28.44167,-578
28.45000,-581
28.45833,-583
28.46667,-584
28.47500,-585
28.48333,-585
28.49167,-584
28.50000,-583
28.50833,-581
28.51667,-578
28.52500,-575
28.53333,-571
28.54167,-566
28.55000,-561
28.55833,-555
28.56667,-549
28.57500,-542
28.58333,-534
28.59167,-526
28.60000,-518
28.60833,-510
28.61667,-501
28.62500,-492
28.63333,-483
28.64167,-474
28.65000,-464
28.65833,-454
28.66667,-444
28.67500,-433
28.68333,-423
28.69167,-412
28.70000,-402
28.70833,-391
28.71667,-381
28.72500,-370
28.73333,-359
28.74167,-349
28.75000,-338
28.75833,-327
28.76667,-317
28.77500,-307
28.78333,-297
28.79167,-287
28.80000,-277
28.80833,-268
28.81667,-258
28.82500,-249
28.83333,-241
28.84167,-232
28.85000,-224
28.85833,-215
28.86667,-208
28.87500,-200
28.88333,-192
28.89167,-185
28.90000,-177
28.90833,-171
28.91667,-164
28.92500,-157
28.93333,-151
28.94167,-144
28.95000,-138
28.95833,-133
28.96667,-128
28.97500,-122
28.98333,-118
28.99167,-113
29.00000,-109
29.00833,-104
29.01667,-99
29.02500,-95
29.03333,-91
29.04167,-87
29.05000,-83
29.05833,-79
29.06667,-76
29.07500,-73
29.08333,-70
29.09167,-67
29.10000,-65
29.10833,-62
29.11667,-59
29.12500,-57
29.13333,-54
29.14167,-52
29.15000,-49
29.15833,-47
29.16667,-45
29.17500,-43
29.18333,-41
29.19167,-38
29.20000,-37
29.20833,-35
29.21667,-33
29.22500,-32
29.23333,-30
29.24167,-29
29.25000,-28
29.25833,-26
29.26667,-24
29.27500,-23
29.28333,-22
29.29167,-21
29.30000,-20
29.30833,-20
29.31667,-19
29.32500,-18
29.33333,-17
29.34167,-16
29.35000,-15
29.35833,-14
29.36667,-13
29.37500,-12
29.38333,-11
29.39167,-10
29.40000,-10
29.40833,-9
29.41667,-9
29.42500,-8
29.43333,-8
29.44167,-8
29.45000,-7
29.45833,-7
29.46667,-6
29.47500,-6
29.48333,-6
29.49167,-6
29.50000,-6
29.50833,-6
29.51667,-6
29.52500,-6
29.53333,-6
29.54167,-6
29.55000,-6
29.55833,-6
29.56667,-6
29.57500,-6
29.58333,-6
29.59167,-6
29.60000,-6
29.60833,-6
29.61667,-7
29.62500,-7
29.63333,-8
29.64167,-8
29.65000,-10
29.65833,-11
29.66667,-11
29.67500,-12
29.68333,-13
29.69167,-15
29.70000,-16
29.70833,-17
29.71667,-19
29.72500,-21
29.73333,-22
29.74167,-24
29.75000,-26
29.75833,-28
29.76667,-30
29.77500,-31
29.78333,-33
29.79167,-36
29.80000,-38
29.80833,-40
29.81667,-43
29.82500,-46
29.83333,-48
29.84167,-51
29.85000,-53
29.85833,-56
29.86667,-59
29.87500,-63
29.88333,-66
29.89167,-69
29.90000,-72
29.90833,-75
29.91667,-79
29.92500,-82
29.93333,-85
29.94167,-88
29.95000,-92
29.95833,-95
29.96667,-98
29.97500,-101
29.98333,-104
29.99167,-108
30.00000,-111
30.00833,-114
30.01667,-117
30.02500,-120
30.03333,-123
30.04167,-126
30.05000,-129
30.05833,-131
30.06667,-134
30.07500,-137
30.08333,-139
30.09167,-141
30.10000,-143
30.10833,-145
30.11667,-147
30.12500,-149
30.13333,-150
30.14167,-152
30.15000,-153
30.15833,-154
30.16667,-155
30.17500,-155
30.18333,-156
30.19167,-156
30.20000,-156
30.20833,-157
30.21667,-157
30.22500,-157
30.23333,-156
30.24167,-155
30.25000,-155
30.25833,-154
30.26667,-153
30.27500,-151
30.28333,-150
30.29167,-148
30.30000,-147
30.30833,-145
30.31667,-143
30.32500,-141
30.33333,-139
30.34167,-137
30.35000,-134
30.35833,-131
30.36667,-129
30.37500,-126
30.38333,-123
30.39167,-120
30.40000,-117
30.40833,-114
30.41667,-111
30.42500,-108
30.43333,-105
30.44167,-101
30.45000,-98
30.45833,-94
30.46667,-91
30.47500,-88
30.48333,-85
30.49167,-82
30.50000,-79
30.50833,-76
30.51667,-73
30.52500,-69
30.53333,-66
30.54167,-63
30.55000,-59
30.55833,-56
30.56667,-53
30.57500,-50
30.58333,-47
30.59167,-44
30.60000,-41
30.60833,-39
30.61667,-36
30.62500,-34
30.63333,-31
30.64167,-29
30.65000,-27
30.65833,-24
30.66667,-22
30.67500,-20
30.68333,-18
30.69167,-16
30.70000,-14
30.70833,-13
30.71667,-11
30.72500,-9
30.73333,-8
30.74167,-6
30.75000,-4
30.75833,-2
30.76667,-1
30.77500,0
30.78333,2
30.79167,3
30.80000,5
30.80833,6
30.81667,6
30.82500,7
30.83333,8
30.84167,9
30.85000,10
30.85833,10
30.86667,11
30.87500,12
30.88333,13
30.89167,13
30.90000,14
30.90833,14
30.91667,14
30.92500,14
30.93333,14
30.94167,15
30.95000,16
30.95833,16
30.96667,17
30.97500,18
30.98333,19
30.99167,19
31.00000,20
31.00833,20
31.01667,21
31.02500,21
31.03333,22
31.04167,22
31.05000,23
31.05833,23
31.06667,24
31.07500,24
31.08333,24
31.09167,25
31.10000,25
31.10833,25
31.11667,26
31.12500,27
31.13333,27
31.14167,28
31.15000,28
31.15833,29
31.16667,30
31.17500,30
31.18333,31
31.19167,32
31.20000,32
31.20833,33
31.21667,34
31.22500,35
31.23333,36
31.24167,37
31.25000,37
31.25833,38
31.26667,38
31.27500,39
31.28333,40
31.29167,41
31.30000,42
31.30833,43
31.31667,43
31.32500,44
31.33333,45
31.34167,46
31.35000,47
31.35833,48
31.36667,49
31.37500,50
31.38333,51
31.39167,52
31.40000,52
31.40833,53
31.41667,53
31.42500,54
31.43333,55
31.44167,56
31.45000,57
31.45833,58
31.46667,59
31.47500,60
31.48333,60
31.49167,61
31.50000,62
31.50833,63
31.51667,64
31.52500,64
31.53333,65
31.54167,65
31.55000,66
31.55833,67
31.56667,67
31.57500,68
31.58333,68
31.59167,69
31.60000,69
31.60833,70
31.61667,71
31.62500,71
31.63333,71
31.64167,72
31.65000,72
31.65833,73
31.66667,73
31.67500,74
31.68333,74
31.69167,75
31.70000,75
31.70833,76
31.71667,76
31.72500,77
31.73333,77
31.74167,78
31.75000,78
31.75833,78
31.76667,78
31.77500,79
31.78333,79
31.79167,80
31.80000,80
31.80833,80
31.81667,80
31.82500,80
31.83333,80
31.84167,80
31.85000,80
31.85833,80
31.86667,80
31.87500,80
31.88333,81
31.89167,81
31.90000,81
31.90833,82
31.91667,82
31.92500,82
31.93333,81
31.94167,81
31.95000,81
31.95833,81
31.96667,81
31.97500,81
31.98333,81
31.99167,82
32.00000,82
32.00833,82
32.01667,82
32.02500,82
32.03333,82
32.04167,82
32.05000,82
32.05833,81
32.06667,81
32.07500,81
32.08333,81
32.09167,81
32.10000,81
32.10833,81
32.11667,81
32.12500,81
32.13333,81
32.14167,81
32.15000,81
32.15833,81
32.16667,81
32.17500,81
32.18333,81
32.19167,81
32.20000,81
32.20833,81
32.21667,81
32.22500,81
32.23333,82
32.24167,82
32.25000,82
32.25833,82
32.26667,82
32.27500,82
32.28333,82
32.29167,82
32.30000,82
32.30833,82
32.31667,82
32.32500,82
32.33333,81
32.34167,81
32.35000,81
32.35833,81
32.36667,81
32.37500,81
32.38333,81
32.39167,81
32.40000,81
32.40833,82
32.41667,82
32.42500,82
32.43333,82
32.44167,82
32.45000,82
32.45833,82
32.46667,82
32.47500,83
32.48333,83
32.49167,83
32.50000,82
32.50833,82
32.51667,82
32.52500,82
32.53333,82
32.54167,82
32.55000,82
32.55833,82
32.56667,82
32.57500,82
32.58333,83
32.59167,83
32.60000,83
32.60833,83
32.61667,83
32.62500,84
32.63333,84
32.64167,84
32.65000,83
32.65833,83
32.66667,83
32.67500,83
32.68333,84
32.69167,84
32.70000,84
32.70833,84
32.71667,84
32.72500,84
32.73333,84
32.74167,84
32.75000,84
32.75833,83
32.76667,83
32.77500,83
32.78333,83
32.79167,83
32.80000,84
32.80833,84
32.81667,84
32.82500,85
32.83333,85
32.84167,84
32.85000,84
32.85833,84
32.86667,84
32.87500,84
32.88333,84
32.89167,84
32.90000,84
32.90833,85
32.91667,85
32.92500,85
32.93333,85
32.94167,85
32.95000,85
32.95833,85
32.96667,85
32.97500,85
32.98333,85
32.99167,86
33.00000,86
33.00833,86
33.01667,86
33.02500,86
33.03333,86
33.04167,86
33.05000,86
33.05833,86
33.06667,86
33.07500,86
33.08333,86
33.09167,86
33.10000,85
33.10833,85
33.11667,86
33.12500,86
33.13333,86
33.14167,86
33.15000,87
33.15833,87
33.16667,87
33.17500,87
33.18333,87
33.19167,87
33.20000,87
33.20833,87
33.21667,87
33.22500,87
33.23333,87
33.24167,87
33.25000,87
33.25833,87
33.26667,87
33.27500,87
33.28333,87
33.29167,87
33.30000,87
33.30833,87
33.31667,87
33.32500,87
33.33333,88
33.34167,88
33.35000,88
33.35833,88
33.36667,88
33.37500,88
33.38333,87
33.39167,87
33.40000,87
33.40833,87
33.41667,87
33.42500,87
33.43333,87
33.44167,88
33.45000,88
33.45833,88
33.46667,88
33.47500,88
33.48333,88
33.49167,88
33.50000,89
33.50833,89
33.51667,89
33.52500,89
33.53333,89
33.54167,88
33.55000,88
33.55833,88
33.56667,87
33.57500,87
33.58333,87
33.59167,86
33.60000,87
33.60833,87
33.61667,87
33.62500,87
33.63333,87
33.64167,88
33.65000,88
33.65833,88
33.66667,89
33.67500,89
33.68333,89
33.69167,89
33.70000,88
33.70833,88
33.71667,88
33.72500,88
33.73333,88
33.74167,88
33.75000,88
33.75833,88
33.76667,88
33.77500,88
33.78333,89
33.79167,88
33.80000,88
33.80833,88
33.81667,88
33.82500,88
33.83333,88
33.84167,88
33.85000,88
33.85833,88
33.86667,88
33.87500,88
33.88333,88
33.89167,88
33.90000,88
33.90833,88
33.91667,89
33.92500,88
33.93333,89
33.94167,88
33.95000,88
33.95833,88
33.96667,88
33.97500,88
33.98333,87
33.99167,88
34.00000,88
34.00833,88
34.01667,88
34.02500,88
34.03333,88
34.04167,88
34.05000,88
34.05833,88
34.06667,88
34.07500,89
34.08333,89
34.09167,89
34.10000,89
34.10833,89
34.11667,89
34.12500,89
34.13333,89
34.14167,88
34.15000,88
34.15833,88
34.16667,88
34.17500,88
34.18333,88
34.19167,88
34.20000,89
34.20833,89
34.21667,89
34.22500,90
34.23333,90
34.24167,89
34.25000,89
34.25833,90
34.26667,90
34.27500,90
34.28333,90
34.29167,90
34.30000,90
34.30833,90
34.31667,89
34.32500,89
34.33333,89
34.34167,89
34.35000,89
34.35833,89
34.36667,89
34.37500,89
34.38333,89
34.39167,89
34.40000,90
34.40833,90
34.41667,90
34.42500,91
34.43333,91
34.44167,91
34.45000,91
34.45833,90
34.46667,90
34.47500,90
34.48333,91
34.49167,91
34.50000,91
34.50833,91
34.51667,90
34.52500,90
34.53333,90
34.54167,90
34.55000,90
34.55833,90
34.56667,90
34.57500,90
34.58333,90
34.59167,91
34.60000,91
34.60833,91
34.61667,91
34.62500,91
34.63333,91
34.64167,92
34.65000,92
34.65833,92
34.66667,92
34.67500,91
34.68333,91
34.69167,92
34.70000,92
34.70833,92
34.71667,92
34.72500,92
34.73333,92
34.74167,92
34.75000,92
34.75833,92
34.76667,92
34.77500,92
34.78333,92
34.79167,91
34.80000,91
34.80833,92
34.81667,92
34.82500,92
34.83333,92
34.84167,92
34.85000,92
34.85833,92
34.86667,92
34.87500,92
34.88333,92
34.89167,92
34.90000,93
34.90833,93
34.91667,93
34.92500,93
34.93333,93
34.94167,92
34.95000,92
34.95833,92
34.96667,92
34.97500,92
34.98333,92
34.99167,92
35.00000,92
35.00833,92
35.01667,92
35.02500,93
35.03333,93
35.04167,93
35.05000,93
35.05833,93
35.06667,93
35.07500,93
35.08333,93
35.09167,93
35.10000,93
35.10833,93
35.11667,93
35.12500,93
35.13333,93
35.14167,93
35.15000,93
35.15833,92
35.16667,92
35.17500,92
35.18333,91
35.19167,91
35.20000,92
35.20833,92
35.21667,92
35.22500,92
35.23333,93
35.24167,93
35.25000,93
35.25833,93
35.26667,93
35.27500,93
35.28333,93
35.29167,93
35.30000,93
35.30833,94
35.31667,94
35.32500,94
35.33333,93
35.34167,93
35.35000,92
35.35833,92
35.36667,92
35.37500,92
35.38333,92
35.39167,92
35.40000,93
35.40833,93
35.41667,93
35.42500,93
35.43333,93
35.44167,93
35.45000,93
35.45833,93
35.46667,93
35.47500,93
35.48333,93
35.49167,93
35.50000,93
35.50833,93
35.51667,93
35.52500,93
35.53333,93
35.54167,93
35.55000,93
35.55833,93
35.56667,93
35.57500,93
35.58333,93
35.59167,93
35.60000,92
35.60833,92
35.61667,93
35.62500,93
35.63333,93
35.64167,93
35.65000,93
35.65833,93
35.66667,93
35.67500,94
35.68333,94
35.69167,94
35.70000,94
35.70833,94
35.71667,94
35.72500,94
35.73333,94
35.74167,94
35.75000,94
35.75833,94
35.76667,94
35.77500,93
35.78333,93
35.79167,94
35.80000,94
35.80833,94
35.81667,94
35.82500,94
35.83333,94
35.84167,94
35.85000,94
35.85833,94
35.86667,94
35.87500,93
35.88333,93
35.89167,93
35.90000,94
35.90833,94
35.91667,95
35.92500,95
35.93333,95
35.94167,96
35.95000,96
35.95833,95
35.96667,95
35.97500,95
35.98333,95
35.99167,94
36.00000,94
36.00833,94
36.01667,94
36.02500,94
36.03333,94
36.04167,94
36.05000,95
36.05833,95
36.06667,95
36.07500,94
36.08333,94
36.09167,94
36.10000,94
36.10833,94
36.11667,94
36.12500,94
36.13333,94
36.14167,94
36.15000,94
36.15833,94
36.16667,93
36.17500,93
36.18333,93
36.19167,94
36.20000,94
36.20833,94
36.21667,94
36.22500,94
36.23333,94
36.24167,94
36.25000,94
36.25833,95
36.26667,94
36.27500,94
36.28333,94
36.29167,94
36.30000,94
36.30833,94
36.31667,93
36.32500,94
36.33333,94
36.34167,94
36.35000,95
36.35833,95
36.36667,96
36.37500,96
36.38333,96
36.39167,96
36.40000,96
36.40833,95
36.41667,95
36.42500,95
36.43333,95
36.44167,95
36.45000,95
36.45833,95
36.46667,95
36.47500,95
36.48333,95
36.49167,96
36.50000,96
36.50833,96
36.51667,97
36.52500,96
36.53333,96
36.54167,96
36.55000,97
36.55833,97
36.56667,97
36.57500,97
36.58333,97
36.59167,97
36.60000,97
36.60833,97
36.61667,97
36.62500,97
36.63333,97
36.64167,97
36.65000,97
36.65833,98
36.66667,98
36.67500,98
36.68333,98
36.69167,99
36.70000,99
36.70833,99
36.71667,100
36.72500,100
36.73333,100
36.74167,100
36.75000,100
36.75833,101
36.76667,101
36.77500,101
36.78333,101
36.79167,101
36.80000,102
36.80833,102
36.81667,102
36.82500,102
36.83333,102
36.84167,102
36.85000,103
36.85833,103
36.86667,103
36.87500,104
36.88333,104
36.89167,104
36.90000,103
36.90833,104
36.91667,104
36.92500,104
36.93333,104
36.94167,105
36.95000,105
36.95833,105
36.96667,105
36.97500,105
36.98333,105
36.99167,105
37.00000,106
37.00833,106
37.01667,106
37.02500,106
37.03333,106
37.04167,106
37.05000,106
37.05833,106
37.06667,106
37.07500,106
37.08333,106
37.09167,106
37.10000,106
37.10833,106
37.11667,106
37.12500,106
37.13333,106
37.14167,106
37.15000,106
37.15833,106
37.16667,106
37.17500,106
37.18333,106
37.19167,107
37.20000,107
37.20833,107
37.21667,107
37.22500,107
37.23333,107
37.24167,107
37.25000,106
37.25833,106
37.26667,106
37.27500,106
37.28333,106
37.29167,106
37.30000,106
37.30833,106
37.31667,106
37.32500,106
37.33333,106
37.34167,106
37.35000,106
37.35833,105
37.36667,105
37.37500,105
37.38333,105
37.39167,105
37.40000,104
37.40833,104
37.41667,104
37.42500,104
37.43333,104
37.44167,104
37.45000,103
37.45833,103
37.46667,102
37.47500,102
37.48333,102
37.49167,102
37.50000,102
37.50833,102
37.51667,102
37.52500,101
37.53333,101
37.54167,101
37.55000,102
37.55833,102
37.56667,102
37.57500,101
37.58333,101
37.59167,101
37.60000,101
37.60833,101
37.61667,101
37.62500,100
37.63333,100
37.64167,100
37.65000,100
37.65833,100
37.66667,100
37.67500,100
37.68333,99
37.69167,99
37.70000,99
37.70833,98
37.71667,98
37.72500,98
37.73333,99
37.74167,99
37.75000,99
37.75833,99
37.76667,98
37.77500,98
37.78333,98
37.79167,98
37.80000,98
37.80833,98
37.81667,99
37.82500,99
37.83333,99
37.84167,99
37.85000,99
37.85833,99
37.86667,98
37.87500,98
37.88333,98
37.89167,97
37.90000,97
37.90833,97
37.91667,98
37.92500,98
37.93333,98
37.94167,99
37.95000,99
37.95833,99
37.96667,99
37.97500,98
37.98333,98
37.99167,98
38.00000,98
38.00833,98
38.01667,98
38.02500,98
38.03333,98
38.04167,98
38.05000,97
38.05833,97
38.06667,97
38.07500,97
38.08333,97
38.09167,97
38.10000,97
38.10833,97
38.11667,97
38.12500,97
38.13333,97
38.14167,97
38.15000,97
38.15833,97
38.16667,97
38.17500,97
38.18333,97
38.19167,97
38.20000,98
38.20833,98
38.21667,98
38.22500,98
38.23333,98
38.24167,98
38.25000,98
38.25833,98
38.26667,98
38.27500,98
38.28333,98
38.29167,98
38.30000,97
38.30833,97
38.31667,97
38.32500,97
38.33333,97
38.34167,97
38.35000,97
38.35833,97
38.36667,97
38.37500,97
38.38333,98
38.39167,98
38.40000,99
38.40833,98
38.41667,98
38.42500,98
38.43333,98
38.44167,98
38.45000,99
38.45833,99
38.46667,99
38.47500,99
38.48333,99
38.49167,98
38.50000,98
38.50833,98
38.51667,98
38.52500,98
38.53333,98
38.54167,98
38.55000,98
38.55833,98
38.56667,98
38.57500,98
38.58333,98
38.59167,99
38.60000,99
38.60833,99
38.61667,99
38.62500,99
38.63333,99
38.64167,99
38.65000,99
38.65833,99
38.66667,99
38.67500,99
38.68333,99
38.69167,99
38.70000,99
38.70833,98
38.71667,98
38.72500,98
38.73333,98
38.74167,98
38.75000,98
38.75833,98
38.76667,98
38.77500,99
38.78333,99
38.79167,99
38.80000,100
38.80833,100
38.81667,100
38.82500,100
38.83333,100
38.84167,100
38.85000,100
38.85833,100
38.86667,100
38.87500,100
38.88333,100
38.89167,100
38.90000,100
38.90833,100
38.91667,100
38.92500,99
38.93333,99
38.94167,99
38.95000,99
38.95833,98
38.96667,98
38.97500,98
38.98333,98
38.99167,98
39.00000,98
39.00833,99
39.01667,99
39.02500,99
39.03333,99
39.04167,100
39.05000,100
39.05833,100
39.06667,100
39.07500,100
39.08333,99
39.09167,99
39.10000,100
39.10833,100
39.11667,100
39.12500,100
39.13333,100
39.14167,100
39.15000,99
39.15833,99
39.16667,100
39.17500,100
39.18333,100
39.19167,100
39.20000,100
39.20833,99
39.21667,99
39.22500,100
39.23333,100
39.24167,100
39.25000,100
39.25833,100
39.26667,100
39.27500,100
39.28333,100
39.29167,100
39.30000,100
39.30833,100
39.31667,100
39.32500,100
39.33333,99
39.34167,99
39.35000,99
39.35833,99
39.36667,99
39.37500,100
39.38333,100
39.39167,100
39.40000,100
39.40833,101
39.41667,101
39.42500,101
39.43333,101
39.44167,100
39.45000,100
39.45833,100
39.46667,101
39.47500,100
39.48333,101
39.49167,101
39.50000,101
39.50833,101
39.51667,100
39.52500,100
39.53333,100
39.54167,100
39.55000,100
39.55833,100
39.56667,100
39.57500,100
39.58333,100
39.59167,100
39.60000,100
39.60833,100
39.61667,100
39.62500,101
39.63333,101
39.64167,101
39.65000,101
39.65833,102
39.66667,101
39.67500,101
39.68333,101
39.69167,101
39.70000,101
39.70833,101
39.71667,100
39.72500,100
39.73333,100
39.74167,100
39.75000,100
39.75833,100
39.76667,100
39.77500,100
39.78333,100
39.79167,100
39.80000,100
39.80833,100
39.81667,100
39.82500,100
39.83333,100
39.84167,100
39.85000,100
39.85833,101
39.86667,101
39.87500,101
39.88333,101
39.89167,101
39.90000,101
39.90833,101
39.91667,101
39.92500,101
39.93333,101
39.94167,101
39.95000,100
39.95833,100
39.96667,100
39.97500,100
39.98333,100
39.99167,100
40.00000,101

