[Header]
Application Name,LabSolutions
Version,5.97 SP1
Data File Name,C:\Users\cremerlab\Desktop\griffin\2021-03-31_NCM3722_NCglucose_turnover\2021-03-31_NCM3722_turnover_batch_3312021_005_005.lcd
Output Date,3/31/2021
Output Time,9:54:41 PM

[File Information]
Type,Data File
Generated,3/31/2021 9:14:21 PM
Generated by,System Administrator
Modified,3/31/2021 9:54:41 PM
Modified by,System Administrator

[Sample Information]
Operator Name,System Administrator
Acquired,3/31/2021 9:14:40 PM
Sample Type,1:Standard
Level,5
Sample Name,2021-03-31_NCM3722_NCglucose_replicate_01_timepoint_005
Sample ID,005
ISTD Amount1,1
ISTD Amount2,1
ISTD Amount3,1
ISTD Amount4,1
ISTD Amount5,1
ISTD Amount6,1
ISTD Amount7,1
ISTD Amount8,1
ISTD Amount9,1
ISTD Amount10,1
ISTD Amount11,1
ISTD Amount12,1
ISTD Amount13,1
ISTD Amount14,1
ISTD Amount15,1
ISTD Amount16,1
ISTD Amount17,1
ISTD Amount18,1
ISTD Amount19,1
ISTD Amount20,1
ISTD Amount21,1
ISTD Amount22,1
ISTD Amount23,1
ISTD Amount24,1
ISTD Amount25,1
ISTD Amount26,1
ISTD Amount27,1
ISTD Amount28,1
ISTD Amount29,1
ISTD Amount30,1
ISTD Amount31,1
ISTD Amount32,1
Sample Amount,1
Dilution Factor,1
Vial#,14
Injection Volume,20

[Original Files]
Data File,C:\Users\cremerlab\Desktop\griffin\2021-03-31_NCM3722_NCglucose_turnover\2021-03-31_NCM3722_turnover_batch_3312021_005_005.lcd
Method File,C:\LabSolutions\Data\Project1\organicacidsetc2.lcm
Batch File,C:\Users\cremerlab\Desktop\griffin\2021-03-31_NCM3722_NCglucose_turnover\2021-03-31_NCM3722_turnover_batch.lcb
Report Format File,c:\LabSolutions\System\DEFAULT.lsr

[File Description]


[Configuration]
Instrument Name,HPLC-PC-Instrument1
Instrument #,1
Line #,1
# of Detectors,2
Detector ID,Detector A,Detector B
Detector Name,Detector A,Detector B
# of Channels,1,1

[Peak Table(Detector A)]
# of Peaks,0

[Peak Table(Detector B)]
# of Peaks,4
Peak#,R.Time,I.Time,F.Time,Area,Height,A/H,Conc.,Mark,ID#,Name,k',Plate #,Plate Ht.,Tailing,Resolution,Sep.Factor,Area Ratio,Height Ratio,Conc. %,Norm Conc.
1,11.054,10.750,12.767,1268214,71284,17.791,0.000,   ,,,0.000,10695,14.025,1.294,0.000,0.000,0,0,0.000,0.000
2,15.096,14.092,15.383,3169692,118846,26.671,0.000,   ,,,0.366,6988,21.466,0.000,7.030,0.000,0,0,0.000,0.000
3,15.627,15.383,18.542,942513,37856,24.897,0.000, V ,,,0.414,7719,19.432,0.000,0.741,1.131,0,0,0.000,0.000
4,25.041,24.550,25.717,8302,293,28.313,0.000,   ,,,1.265,17432,8.605,1.101,12.806,3.058,0,0,0.000,0.000

[LC Chromatogram(Detector B-Ch1)]
Interval(msec),500
# of Points,4801
Start Time(min),0.000
End Time(min),40.000
Intensity Units,mV
Intensity Multiplier,0.001
R.Time (min),Intensity
0.00000,0
0.00833,0
0.01667,0
0.02500,0
0.03333,-0
0.04167,-0
0.05000,-0
0.05833,-0
0.06667,-0
0.07500,-0
0.08333,-0
0.09167,-0
0.10000,-0
0.10833,0
0.11667,1
0.12500,1
0.13333,1
0.14167,1
0.15000,1
0.15833,0
0.16667,-0
0.17500,-0
0.18333,-1
0.19167,-1
0.20000,-1
0.20833,-1
0.21667,-1
0.22500,-1
0.23333,-1
0.24167,-0
0.25000,-0
0.25833,0
0.26667,0
0.27500,0
0.28333,1
0.29167,1
0.30000,1
0.30833,1
0.31667,1
0.32500,1
0.33333,0
0.34167,0
0.35000,0
0.35833,-0
0.36667,-0
0.37500,-0
0.38333,-0
0.39167,0
0.40000,0
0.40833,0
0.41667,0
0.42500,0
0.43333,0
0.44167,0
0.45000,0
0.45833,0
0.46667,0
0.47500,0
0.48333,0
0.49167,0
0.50000,0
0.50833,0
0.51667,0
0.52500,0
0.53333,0
0.54167,0
0.55000,0
0.55833,0
0.56667,1
0.57500,0
0.58333,0
0.59167,1
0.60000,1
0.60833,1
0.61667,1
0.62500,0
0.63333,-0
0.64167,-0
0.65000,-0
0.65833,0
0.66667,0
0.67500,-0
0.68333,-0
0.69167,-1
0.70000,-1
0.70833,-1
0.71667,-1
0.72500,-1
0.73333,-2
0.74167,-2
0.75000,-2
0.75833,-2
0.76667,-2
0.77500,-1
0.78333,-1
0.79167,-1
0.80000,-0
0.80833,-0
0.81667,-0
0.82500,-1
0.83333,-1
0.84167,-1
0.85000,-2
0.85833,-2
0.86667,-1
0.87500,-1
0.88333,-1
0.89167,-0
0.90000,0
0.90833,0
0.91667,-0
0.92500,-0
0.93333,-1
0.94167,-0
0.95000,-0
0.95833,-0
0.96667,-0
0.97500,-1
0.98333,-1
0.99167,-1
1.00000,-2
1.00833,-2
1.01667,-2
1.02500,-2
1.03333,-2
1.04167,-2
1.05000,-2
1.05833,-2
1.06667,-2
1.07500,-2
1.08333,-2
1.09167,-2
1.10000,-1
1.10833,-1
1.11667,-1
1.12500,-1
1.13333,-1
1.14167,-1
1.15000,-1
1.15833,-0
1.16667,-0
1.17500,-0
1.18333,-0
1.19167,-0
1.20000,-0
1.20833,-1
1.21667,-1
1.22500,-1
1.23333,-1
1.24167,-1
1.25000,-1
1.25833,-1
1.26667,-1
1.27500,-1
1.28333,-1
1.29167,-1
1.30000,-2
1.30833,-2
1.31667,-2
1.32500,-2
1.33333,-2
1.34167,-2
1.35000,-1
1.35833,-1
1.36667,-1
1.37500,-1
1.38333,-1
1.39167,-1
1.40000,-1
1.40833,-1
1.41667,-0
1.42500,-0
1.43333,-0
1.44167,-0
1.45000,-0
1.45833,-0
1.46667,0
1.47500,0
1.48333,-0
1.49167,-0
1.50000,-0
1.50833,-1
1.51667,-1
1.52500,-1
1.53333,-1
1.54167,-1
1.55000,-1
1.55833,-1
1.56667,-1
1.57500,-1
1.58333,-1
1.59167,-0
1.60000,-1
1.60833,-1
1.61667,-1
1.62500,-1
1.63333,-1
1.64167,-1
1.65000,-0
1.65833,-0
1.66667,-0
1.67500,0
1.68333,0
1.69167,-0
1.70000,-0
1.70833,-0
1.71667,0
1.72500,0
1.73333,0
1.74167,0
1.75000,0
1.75833,1
1.76667,1
1.77500,1
1.78333,1
1.79167,1
1.80000,1
1.80833,1
1.81667,1
1.82500,1
1.83333,2
1.84167,2
1.85000,1
1.85833,1
1.86667,1
1.87500,1
1.88333,1
1.89167,1
1.90000,1
1.90833,2
1.91667,2
1.92500,2
1.93333,2
1.94167,2
1.95000,2
1.95833,2
1.96667,2
1.97500,2
1.98333,2
1.99167,2
2.00000,2
2.00833,2
2.01667,3
2.02500,3
2.03333,3
2.04167,3
2.05000,3
2.05833,3
2.06667,3
2.07500,3
2.08333,3
2.09167,3
2.10000,3
2.10833,3
2.11667,3
2.12500,2
2.13333,2
2.14167,2
2.15000,2
2.15833,3
2.16667,3
2.17500,3
2.18333,4
2.19167,4
2.20000,4
2.20833,4
2.21667,3
2.22500,3
2.23333,3
2.24167,3
2.25000,3
2.25833,3
2.26667,3
2.27500,3
2.28333,3
2.29167,2
2.30000,2
2.30833,2
2.31667,2
2.32500,2
2.33333,2
2.34167,2
2.35000,2
2.35833,2
2.36667,2
2.37500,2
2.38333,2
2.39167,2
2.40000,2
2.40833,1
2.41667,1
2.42500,1
2.43333,2
2.44167,1
2.45000,1
2.45833,1
2.46667,1
2.47500,1
2.48333,1
2.49167,1
2.50000,0
2.50833,0
2.51667,0
2.52500,0
2.53333,0
2.54167,0
2.55000,-0
2.55833,-0
2.56667,-0
2.57500,-0
2.58333,-1
2.59167,-1
2.60000,-1
2.60833,-1
2.61667,-1
2.62500,-1
2.63333,-1
2.64167,-1
2.65000,-0
2.65833,-0
2.66667,-1
2.67500,-1
2.68333,-1
2.69167,-2
2.70000,-2
2.70833,-2
2.71667,-2
2.72500,-2
2.73333,-2
2.74167,-2
2.75000,-2
2.75833,-2
2.76667,-2
2.77500,-2
2.78333,-2
2.79167,-3
2.80000,-3
2.80833,-3
2.81667,-3
2.82500,-3
2.83333,-3
2.84167,-3
2.85000,-3
2.85833,-3
2.86667,-3
2.87500,-3
2.88333,-3
2.89167,-2
2.90000,-2
2.90833,-2
2.91667,-2
2.92500,-2
2.93333,-2
2.94167,-2
2.95000,-2
2.95833,-3
2.96667,-3
2.97500,-3
2.98333,-4
2.99167,-4
3.00000,-4
3.00833,-4
3.01667,-4
3.02500,-4
3.03333,-3
3.04167,-3
3.05000,-3
3.05833,-3
3.06667,-3
3.07500,-3
3.08333,-3
3.09167,-3
3.10000,-3
3.10833,-3
3.11667,-3
3.12500,-3
3.13333,-4
3.14167,-4
3.15000,-4
3.15833,-4
3.16667,-4
3.17500,-4
3.18333,-3
3.19167,-3
3.20000,-3
3.20833,-3
3.21667,-3
3.22500,-3
3.23333,-3
3.24167,-3
3.25000,-3
3.25833,-3
3.26667,-3
3.27500,-3
3.28333,-3
3.29167,-3
3.30000,-4
3.30833,-4
3.31667,-4
3.32500,-4
3.33333,-4
3.34167,-4
3.35000,-4
3.35833,-4
3.36667,-4
3.37500,-4
3.38333,-4
3.39167,-4
3.40000,-3
3.40833,-3
3.41667,-3
3.42500,-3
3.43333,-3
3.44167,-3
3.45000,-3
3.45833,-3
3.46667,-3
3.47500,-3
3.48333,-3
3.49167,-3
3.50000,-3
3.50833,-3
3.51667,-2
3.52500,-2
3.53333,-2
3.54167,-3
3.55000,-3
3.55833,-4
3.56667,-3
3.57500,-3
3.58333,-4
3.59167,-3
3.60000,-3
3.60833,-3
3.61667,-3
3.62500,-3
3.63333,-3
3.64167,-3
3.65000,-3
3.65833,-2
3.66667,-2
3.67500,-2
3.68333,-2
3.69167,-2
3.70000,-2
3.70833,-2
3.71667,-2
3.72500,-2
3.73333,-2
3.74167,-2
3.75000,-1
3.75833,-2
3.76667,-2
3.77500,-2
3.78333,-2
3.79167,-2
3.80000,-2
3.80833,-2
3.81667,-2
3.82500,-2
3.83333,-1
3.84167,-1
3.85000,-1
3.85833,-1
3.86667,-1
3.87500,-1
3.88333,-1
3.89167,-1
3.90000,-1
3.90833,-1
3.91667,-1
3.92500,-1
3.93333,-1
3.94167,-0
3.95000,-0
3.95833,-0
3.96667,-0
3.97500,-0
3.98333,-0
3.99167,0
4.00000,0
4.00833,0
4.01667,-0
4.02500,-0
4.03333,-0
4.04167,-0
4.05000,-0
4.05833,-0
4.06667,-0
4.07500,-0
4.08333,-0
4.09167,-0
4.10000,-0
4.10833,-0
4.11667,-0
4.12500,0
4.13333,0
4.14167,0
4.15000,0
4.15833,0
4.16667,0
4.17500,1
4.18333,1
4.19167,1
4.20000,1
4.20833,1
4.21667,1
4.22500,1
4.23333,1
4.24167,1
4.25000,1
4.25833,1
4.26667,1
4.27500,0
4.28333,0
4.29167,-0
4.30000,-0
4.30833,-0
4.31667,-0
4.32500,-0
4.33333,-1
4.34167,-1
4.35000,-1
4.35833,-0
4.36667,-0
4.37500,-1
4.38333,-1
4.39167,-1
4.40000,-1
4.40833,-1
4.41667,-1
4.42500,-2
4.43333,-1
4.44167,-1
4.45000,-1
4.45833,-2
4.46667,-1
4.47500,-1
4.48333,-1
4.49167,-1
4.50000,-1
4.50833,-1
4.51667,-1
4.52500,-2
4.53333,-2
4.54167,-2
4.55000,-2
4.55833,-2
4.56667,-2
4.57500,-2
4.58333,-1
4.59167,-1
4.60000,-2
4.60833,-2
4.61667,-2
4.62500,-3
4.63333,-3
4.64167,-3
4.65000,-3
4.65833,-3
4.66667,-3
4.67500,-3
4.68333,-3
4.69167,-3
4.70000,-3
4.70833,-4
4.71667,-4
4.72500,-4
4.73333,-4
4.74167,-4
4.75000,-4
4.75833,-4
4.76667,-4
4.77500,-4
4.78333,-4
4.79167,-3
4.80000,-3
4.80833,-4
4.81667,-4
4.82500,-4
4.83333,-3
4.84167,-3
4.85000,-4
4.85833,-4
4.86667,-4
4.87500,-4
4.88333,-3
4.89167,-3
4.90000,-3
4.90833,-3
4.91667,-3
4.92500,-3
4.93333,-4
4.94167,-4
4.95000,-4
4.95833,-4
4.96667,-4
4.97500,-4
4.98333,-4
4.99167,-5
5.00000,-4
5.00833,-4
5.01667,-4
5.02500,-5
5.03333,-5
5.04167,-5
5.05000,-5
5.05833,-5
5.06667,-5
5.07500,-5
5.08333,-4
5.09167,-5
5.10000,-5
5.10833,-4
5.11667,-4
5.12500,-4
5.13333,-4
5.14167,-4
5.15000,-4
5.15833,-4
5.16667,-4
5.17500,-5
5.18333,-5
5.19167,-5
5.20000,-5
5.20833,-5
5.21667,-5
5.22500,-5
5.23333,-5
5.24167,-5
5.25000,-5
5.25833,-5
5.26667,-5
5.27500,-5
5.28333,-5
5.29167,-5
5.30000,-5
5.30833,-5
5.31667,-5
5.32500,-5
5.33333,-5
5.34167,-5
5.35000,-5
5.35833,-5
5.36667,-5
5.37500,-5
5.38333,-5
5.39167,-6
5.40000,-6
5.40833,-6
5.41667,-6
5.42500,-6
5.43333,-6
5.44167,-6
5.45000,-6
5.45833,-6
5.46667,-6
5.47500,-6
5.48333,-6
5.49167,-6
5.50000,-6
5.50833,-6
5.51667,-6
5.52500,-5
5.53333,-6
5.54167,-6
5.55000,-6
5.55833,-6
5.56667,-6
5.57500,-6
5.58333,-6
5.59167,-6
5.60000,-6
5.60833,-6
5.61667,-6
5.62500,-6
5.63333,-6
5.64167,-6
5.65000,-6
5.65833,-7
5.66667,-7
5.67500,-7
5.68333,-6
5.69167,-6
5.70000,-6
5.70833,-6
5.71667,-6
5.72500,-6
5.73333,-6
5.74167,-6
5.75000,-6
5.75833,-6
5.76667,-6
5.77500,-6
5.78333,-6
5.79167,-6
5.80000,-6
5.80833,-6
5.81667,-6
5.82500,-6
5.83333,-6
5.84167,-6
5.85000,-6
5.85833,-6
5.86667,-6
5.87500,-6
5.88333,-6
5.89167,-6
5.90000,-6
5.90833,-6
5.91667,-6
5.92500,-6
5.93333,-6
5.94167,-6
5.95000,-6
5.95833,-6
5.96667,-6
5.97500,-6
5.98333,-6
5.99167,-6
6.00000,-7
6.00833,-7
6.01667,-6
6.02500,-6
6.03333,-6
6.04167,-6
6.05000,-6
6.05833,-6
6.06667,-6
6.07500,-6
6.08333,-6
6.09167,-6
6.10000,-7
6.10833,-7
6.11667,-6
6.12500,-7
6.13333,-7
6.14167,-7
6.15000,-7
6.15833,-7
6.16667,-7
6.17500,-7
6.18333,-6
6.19167,-7
6.20000,-7
6.20833,-7
6.21667,-7
6.22500,-7
6.23333,-7
6.24167,-7
6.25000,-7
6.25833,-6
6.26667,-7
6.27500,-7
6.28333,-7
6.29167,-7
6.30000,-7
6.30833,-7
6.31667,-7
6.32500,-7
6.33333,-7
6.34167,-7
6.35000,-7
6.35833,-7
6.36667,-6
6.37500,-6
6.38333,-7
6.39167,-6
6.40000,-7
6.40833,-6
6.41667,-6
6.42500,-6
6.43333,-6
6.44167,-7
6.45000,-7
6.45833,-7
6.46667,-7
6.47500,-7
6.48333,-7
6.49167,-7
6.50000,-7
6.50833,-7
6.51667,-6
6.52500,-6
6.53333,-6
6.54167,-6
6.55000,-6
6.55833,-6
6.56667,-6
6.57500,-6
6.58333,-7
6.59167,-7
6.60000,-7
6.60833,-7
6.61667,-7
6.62500,-7
6.63333,-6
6.64167,-6
6.65000,-6
6.65833,-6
6.66667,-6
6.67500,-6
6.68333,-6
6.69167,-6
6.70000,-6
6.70833,-6
6.71667,-6
6.72500,-6
6.73333,-7
6.74167,-7
6.75000,-7
6.75833,-7
6.76667,-7
6.77500,-7
6.78333,-7
6.79167,-7
6.80000,-7
6.80833,-7
6.81667,-6
6.82500,-6
6.83333,-6
6.84167,-6
6.85000,-6
6.85833,-6
6.86667,-6
6.87500,-6
6.88333,-6
6.89167,-7
6.90000,-7
6.90833,-7
6.91667,-7
6.92500,-6
6.93333,-7
6.94167,-7
6.95000,-7
6.95833,-7
6.96667,-7
6.97500,-7
6.98333,-7
6.99167,-7
7.00000,-6
7.00833,-7
7.01667,-7
7.02500,-7
7.03333,-7
7.04167,-6
7.05000,-6
7.05833,-6
7.06667,-6
7.07500,-6
7.08333,-6
7.09167,-6
7.10000,-6
7.10833,-6
7.11667,-6
7.12500,-6
7.13333,-6
7.14167,-5
7.15000,-5
7.15833,-5
7.16667,-5
7.17500,-5
7.18333,-5
7.19167,-5
7.20000,-6
7.20833,-6
7.21667,-6
7.22500,-6
7.23333,-6
7.24167,-6
7.25000,-6
7.25833,-6
7.26667,-6
7.27500,-6
7.28333,-6
7.29167,-7
7.30000,-7
7.30833,-7
7.31667,-7
7.32500,-7
7.33333,-7
7.34167,-7
7.35000,-7
7.35833,-6
7.36667,-6
7.37500,-6
7.38333,-6
7.39167,-7
7.40000,-7
7.40833,-8
7.41667,-8
7.42500,-9
7.43333,-9
7.44167,-8
7.45000,-8
7.45833,-7
7.46667,-7
7.47500,-7
7.48333,-7
7.49167,-7
7.50000,-7
7.50833,-6
7.51667,-6
7.52500,-7
7.53333,-7
7.54167,-7
7.55000,-7
7.55833,-7
7.56667,-7
7.57500,-7
7.58333,-8
7.59167,-8
7.60000,-9
7.60833,-9
7.61667,-9
7.62500,-9
7.63333,-8
7.64167,-8
7.65000,-7
7.65833,-7
7.66667,-7
7.67500,-7
7.68333,-6
7.69167,-6
7.70000,-6
7.70833,-6
7.71667,-6
7.72500,-6
7.73333,-6
7.74167,-6
7.75000,-6
7.75833,-6
7.76667,-6
7.77500,-6
7.78333,-7
7.79167,-7
7.80000,-7
7.80833,-7
7.81667,-7
7.82500,-7
7.83333,-7
7.84167,-7
7.85000,-8
7.85833,-8
7.86667,-8
7.87500,-8
7.88333,-8
7.89167,-7
7.90000,-7
7.90833,-7
7.91667,-7
7.92500,-7
7.93333,-7
7.94167,-8
7.95000,-8
7.95833,-8
7.96667,-8
7.97500,-8
7.98333,-8
7.99167,-8
8.00000,-8
8.00833,-8
8.01667,-8
8.02500,-8
8.03333,-8
8.04167,-9
8.05000,-8
8.05833,-8
8.06667,-8
8.07500,-8
8.08333,-8
8.09167,-8
8.10000,-8
8.10833,-9
8.11667,-9
8.12500,-8
8.13333,-8
8.14167,-8
8.15000,-8
8.15833,-8
8.16667,-8
8.17500,-8
8.18333,-8
8.19167,-8
8.20000,-8
8.20833,-8
8.21667,-8
8.22500,-8
8.23333,-8
8.24167,-8
8.25000,-8
8.25833,-9
8.26667,-9
8.27500,-9
8.28333,-8
8.29167,-8
8.30000,-8
8.30833,-8
8.31667,-8
8.32500,-8
8.33333,-8
8.34167,-8
8.35000,-8
8.35833,-8
8.36667,-8
8.37500,-8
8.38333,-8
8.39167,-8
8.40000,-8
8.40833,-8
8.41667,-8
8.42500,-8
8.43333,-9
8.44167,-9
8.45000,-9
8.45833,-9
8.46667,-9
8.47500,-9
8.48333,-10
8.49167,-10
8.50000,-9
8.50833,-9
8.51667,-9
8.52500,-9
8.53333,-9
8.54167,-9
8.55000,-9
8.55833,-10
8.56667,-10
8.57500,-10
8.58333,-9
8.59167,-9
8.60000,-9
8.60833,-9
8.61667,-10
8.62500,-10
8.63333,-10
8.64167,-10
8.65000,-10
8.65833,-10
8.66667,-10
8.67500,-10
8.68333,-10
8.69167,-10
8.70000,-10
8.70833,-10
8.71667,-10
8.72500,-10
8.73333,-10
8.74167,-10
8.75000,-10
8.75833,-9
8.76667,-9
8.77500,-9
8.78333,-9
8.79167,-9
8.80000,-9
8.80833,-9
8.81667,-10
8.82500,-10
8.83333,-10
8.84167,-10
8.85000,-10
8.85833,-10
8.86667,-10
8.87500,-10
8.88333,-10
8.89167,-10
8.90000,-10
8.90833,-10
8.91667,-10
8.92500,-10
8.93333,-10
8.94167,-10
8.95000,-10
8.95833,-10
8.96667,-10
8.97500,-10
8.98333,-10
8.99167,-10
9.00000,-10
9.00833,-9
9.01667,-9
9.02500,-9
9.03333,-8
9.04167,-8
9.05000,-8
9.05833,-8
9.06667,-9
9.07500,-9
9.08333,-9
9.09167,-9
9.10000,-10
9.10833,-10
9.11667,-10
9.12500,-10
9.13333,-10
9.14167,-10
9.15000,-10
9.15833,-10
9.16667,-10
9.17500,-10
9.18333,-10
9.19167,-9
9.20000,-9
9.20833,-9
9.21667,-9
9.22500,-9
9.23333,-9
9.24167,-9
9.25000,-9
9.25833,-9
9.26667,-9
9.27500,-9
9.28333,-8
9.29167,-8
9.30000,-8
9.30833,-8
9.31667,-9
9.32500,-9
9.33333,-9
9.34167,-9
9.35000,-9
9.35833,-9
9.36667,-9
9.37500,-9
9.38333,-9
9.39167,-9
9.40000,-9
9.40833,-9
9.41667,-10
9.42500,-9
9.43333,-10
9.44167,-10
9.45000,-10
9.45833,-10
9.46667,-10
9.47500,-10
9.48333,-10
9.49167,-10
9.50000,-10
9.50833,-10
9.51667,-10
9.52500,-10
9.53333,-10
9.54167,-9
9.55000,-9
9.55833,-10
9.56667,-10
9.57500,-10
9.58333,-10
9.59167,-10
9.60000,-10
9.60833,-10
9.61667,-10
9.62500,-10
9.63333,-10
9.64167,-9
9.65000,-8
9.65833,-8
9.66667,-8
9.67500,-8
9.68333,-8
9.69167,-8
9.70000,-8
9.70833,-9
9.71667,-9
9.72500,-9
9.73333,-9
9.74167,-9
9.75000,-9
9.75833,-9
9.76667,-9
9.77500,-9
9.78333,-9
9.79167,-9
9.80000,-9
9.80833,-9
9.81667,-9
9.82500,-9
9.83333,-9
9.84167,-9
9.85000,-9
9.85833,-9
9.86667,-9
9.87500,-9
9.88333,-9
9.89167,-9
9.90000,-9
9.90833,-9
9.91667,-9
9.92500,-9
9.93333,-10
9.94167,-10
9.95000,-10
9.95833,-10
9.96667,-10
9.97500,-9
9.98333,-9
9.99167,-9
10.00000,-8
10.00833,-8
10.01667,-8
10.02500,-8
10.03333,-8
10.04167,-8
10.05000,-8
10.05833,-8
10.06667,-8
10.07500,-8
10.08333,-8
10.09167,-8
10.10000,-8
10.10833,-8
10.11667,-8
10.12500,-8
10.13333,-8
10.14167,-8
10.15000,-8
10.15833,-8
10.16667,-8
10.17500,-8
10.18333,-8
10.19167,-8
10.20000,-8
10.20833,-8
10.21667,-8
10.22500,-7
10.23333,-8
10.24167,-8
10.25000,-8
10.25833,-8
10.26667,-8
10.27500,-8
10.28333,-8
10.29167,-8
10.30000,-8
10.30833,-8
10.31667,-8
10.32500,-8
10.33333,-8
10.34167,-8
10.35000,-8
10.35833,-7
10.36667,-7
10.37500,-7
10.38333,-7
10.39167,-6
10.40000,-6
10.40833,-5
10.41667,-5
10.42500,-4
10.43333,-4
10.44167,-3
10.45000,-3
10.45833,-3
10.46667,-3
10.47500,-4
10.48333,-4
10.49167,-6
10.50000,-8
10.50833,-12
10.51667,-17
10.52500,-24
10.53333,-33
10.54167,-47
10.55000,-66
10.55833,-91
10.56667,-123
10.57500,-166
10.58333,-219
10.59167,-286
10.60000,-370
10.60833,-471
10.61667,-592
10.62500,-735
10.63333,-900
10.64167,-1090
10.65000,-1302
10.65833,-1536
10.66667,-1788
10.67500,-2055
10.68333,-2330
10.69167,-2608
10.70000,-2879
10.70833,-3134
10.71667,-3361
10.72500,-3549
10.73333,-3684
10.74167,-3755
10.75000,-3746
10.75833,-3645
10.76667,-3439
10.77500,-3114
10.78333,-2660
10.79167,-2065
10.80000,-1320
10.80833,-417
10.81667,651
10.82500,1889
10.83333,3301
10.84167,4890
10.85000,6656
10.85833,8599
10.86667,10716
10.87500,13003
10.88333,15456
10.89167,18068
10.90000,20829
10.90833,23729
10.91667,26754
10.92500,29888
10.93333,33112
10.94167,36405
10.95000,39741
10.95833,43089
10.96667,46414
10.97500,49677
10.98333,52833
10.99167,55833
11.00000,58626
11.00833,61158
11.01667,63373
11.02500,65219
11.03333,66649
11.04167,67624
11.05000,68115
11.05833,68103
11.06667,67587
11.07500,66575
11.08333,65095
11.09167,63182
11.10000,60886
11.10833,58265
11.11667,55380
11.12500,52296
11.13333,49078
11.14167,45787
11.15000,42481
11.15833,39209
11.16667,36014
11.17500,32931
11.18333,29989
11.19167,27208
11.20000,24602
11.20833,22177
11.21667,19938
11.22500,17882
11.23333,16005
11.24167,14300
11.25000,12758
11.25833,11369
11.26667,10121
11.27500,9005
11.28333,8010
11.29167,7123
11.30000,6336
11.30833,5638
11.31667,5020
11.32500,4474
11.33333,3992
11.34167,3567
11.35000,3192
11.35833,2862
11.36667,2571
11.37500,2315
11.38333,2090
11.39167,1892
11.40000,1717
11.40833,1562
11.41667,1426
11.42500,1306
11.43333,1200
11.44167,1105
11.45000,1021
11.45833,945
11.46667,879
11.47500,819
11.48333,765
11.49167,716
11.50000,672
11.50833,632
11.51667,597
11.52500,564
11.53333,535
11.54167,508
11.55000,483
11.55833,460
11.56667,439
11.57500,419
11.58333,401
11.59167,385
11.60000,370
11.60833,355
11.61667,342
11.62500,329
11.63333,318
11.64167,307
11.65000,296
11.65833,287
11.66667,278
11.67500,269
11.68333,261
11.69167,253
11.70000,246
11.70833,239
11.71667,233
11.72500,227
11.73333,221
11.74167,216
11.75000,211
11.75833,206
11.76667,202
11.77500,198
11.78333,194
11.79167,190
11.80000,187
11.80833,183
11.81667,181
11.82500,178
11.83333,176
11.84167,173
11.85000,171
11.85833,169
11.86667,167
11.87500,165
11.88333,163
11.89167,161
11.90000,160
11.90833,158
11.91667,157
11.92500,156
11.93333,155
11.94167,154
11.95000,152
11.95833,151
11.96667,150
11.97500,149
11.98333,148
11.99167,147
12.00000,146
12.00833,145
12.01667,145
12.02500,144
12.03333,143
12.04167,142
12.05000,141
12.05833,140
12.06667,139
12.07500,138
12.08333,137
12.09167,136
12.10000,136
12.10833,134
12.11667,133
12.12500,132
12.13333,132
12.14167,131
12.15000,130
12.15833,129
12.16667,128
12.17500,127
12.18333,126
12.19167,125
12.20000,125
12.20833,124
12.21667,123
12.22500,122
12.23333,121
12.24167,120
12.25000,120
12.25833,119
12.26667,118
12.27500,118
12.28333,117
12.29167,116
12.30000,115
12.30833,114
12.31667,114
12.32500,113
12.33333,112
12.34167,112
12.35000,111
12.35833,111
12.36667,110
12.37500,109
12.38333,108
12.39167,108
12.40000,107
12.40833,106
12.41667,106
12.42500,105
12.43333,104
12.44167,104
12.45000,103
12.45833,102
12.46667,102
12.47500,101
12.48333,101
12.49167,100
12.50000,100
12.50833,99
12.51667,98
12.52500,98
12.53333,97
12.54167,97
12.55000,96
12.55833,96
12.56667,95
12.57500,94
12.58333,93
12.59167,93
12.60000,92
12.60833,92
12.61667,91
12.62500,90
12.63333,90
12.64167,89
12.65000,88
12.65833,88
12.66667,87
12.67500,86
12.68333,86
12.69167,85
12.70000,84
12.70833,84
12.71667,84
12.72500,83
12.73333,82
12.74167,82
12.75000,81
12.75833,81
12.76667,81
12.77500,81
12.78333,81
12.79167,80
12.80000,80
12.80833,80
12.81667,80
12.82500,80
12.83333,80
12.84167,80
12.85000,80
12.85833,80
12.86667,79
12.87500,80
12.88333,80
12.89167,80
12.90000,80
12.90833,80
12.91667,80
12.92500,80
12.93333,81
12.94167,81
12.95000,81
12.95833,81
12.96667,81
12.97500,81
12.98333,81
12.99167,81
13.00000,81
13.00833,81
13.01667,81
13.02500,81
13.03333,81
13.04167,81
13.05000,81
13.05833,81
13.06667,81
13.07500,81
13.08333,81
13.09167,81
13.10000,81
13.10833,81
13.11667,81
13.12500,81
13.13333,81
13.14167,80
13.15000,80
13.15833,80
13.16667,80
13.17500,80
13.18333,80
13.19167,79
13.20000,79
13.20833,79
13.21667,78
13.22500,78
13.23333,77
13.24167,77
13.25000,77
13.25833,76
13.26667,76
13.27500,75
13.28333,74
13.29167,74
13.30000,73
13.30833,72
13.31667,71
13.32500,70
13.33333,69
13.34167,68
13.35000,67
13.35833,66
13.36667,65
13.37500,64
13.38333,64
13.39167,63
13.40000,63
13.40833,62
13.41667,61
13.42500,60
13.43333,59
13.44167,58
13.45000,57
13.45833,56
13.46667,55
13.47500,54
13.48333,53
13.49167,51
13.50000,50
13.50833,49
13.51667,48
13.52500,47
13.53333,46
13.54167,45
13.55000,44
13.55833,44
13.56667,43
13.57500,43
13.58333,42
13.59167,42
13.60000,41
13.60833,41
13.61667,41
13.62500,40
13.63333,40
13.64167,40
13.65000,39
13.65833,39
13.66667,40
13.67500,40
13.68333,39
13.69167,39
13.70000,39
13.70833,39
13.71667,39
13.72500,39
13.73333,39
13.74167,39
13.75000,38
13.75833,38
13.76667,38
13.77500,38
13.78333,39
13.79167,39
13.80000,39
13.80833,40
13.81667,40
13.82500,41
13.83333,41
13.84167,41
13.85000,42
13.85833,42
13.86667,43
13.87500,43
13.88333,43
13.89167,44
13.90000,44
13.90833,45
13.91667,45
13.92500,46
13.93333,47
13.94167,48
13.95000,48
13.95833,49
13.96667,49
13.97500,50
13.98333,50
13.99167,51
14.00000,52
14.00833,52
14.01667,53
14.02500,53
14.03333,54
14.04167,55
14.05000,56
14.05833,57
14.06667,58
14.07500,59
14.08333,60
14.09167,62
14.10000,63
14.10833,64
14.11667,65
14.12500,66
14.13333,68
14.14167,70
14.15000,72
14.15833,75
14.16667,78
14.17500,81
14.18333,85
14.19167,90
14.20000,96
14.20833,103
14.21667,112
14.22500,122
14.23333,134
14.24167,149
14.25000,167
14.25833,189
14.26667,214
14.27500,245
14.28333,282
14.29167,326
14.30000,378
14.30833,440
14.31667,512
14.32500,596
14.33333,694
14.34167,807
14.35000,937
14.35833,1085
14.36667,1254
14.37500,1445
14.38333,1660
14.39167,1901
14.40000,2168
14.40833,2463
14.41667,2789
14.42500,3146
14.43333,3536
14.44167,3960
14.45000,4419
14.45833,4913
14.46667,5442
14.47500,6009
14.48333,6612
14.49167,7253
14.50000,7930
14.50833,8645
14.51667,9396
14.52500,10185
14.53333,11011
14.54167,11873
14.55000,12771
14.55833,13705
14.56667,14673
14.57500,15675
14.58333,16711
14.59167,17780
14.60000,18881
14.60833,20014
14.61667,21178
14.62500,22372
14.63333,23597
14.64167,24851
14.65000,26134
14.65833,27445
14.66667,28785
14.67500,30151
14.68333,31544
14.69167,32964
14.70000,34410
14.70833,35881
14.71667,37378
14.72500,38900
14.73333,40447
14.74167,42018
14.75000,43613
14.75833,45232
14.76667,46875
14.77500,48541
14.78333,50230
14.79167,51942
14.80000,53677
14.80833,55434
14.81667,57214
14.82500,59016
14.83333,60840
14.84167,62687
14.85000,64554
14.85833,66442
14.86667,68351
14.87500,70282
14.88333,72232
14.89167,74203
14.90000,76194
14.90833,78204
14.91667,80232
14.92500,82279
14.93333,84342
14.94167,86422
14.95000,88517
14.95833,90625
14.96667,92745
14.97500,94875
14.98333,97012
14.99167,99150
15.00000,101286
15.00833,103410
15.01667,105513
15.02500,107578
15.03333,109586
15.04167,111510
15.05000,113316
15.05833,114962
15.06667,116401
15.07500,117576
15.08333,118428
15.09167,118894
15.10000,118914
15.10833,118434
15.11667,117408
15.12500,115804
15.13333,113608
15.14167,110824
15.15000,107475
15.15833,103604
15.16667,99273
15.17500,94554
15.18333,89535
15.19167,84305
15.20000,78959
15.20833,73586
15.21667,68271
15.22500,63089
15.23333,58106
15.24167,53373
15.25000,48931
15.25833,44806
15.26667,41017
15.27500,37570
15.28333,34465
15.29167,31696
15.30000,29252
15.30833,27117
15.31667,25274
15.32500,23706
15.33333,22395
15.34167,21322
15.35000,20470
15.35833,19825
15.36667,19368
15.37500,19088
15.38333,18969
15.39167,19001
15.40000,19172
15.40833,19470
15.41667,19885
15.42500,20406
15.43333,21022
15.44167,21725
15.45000,22504
15.45833,23347
15.46667,24246
15.47500,25188
15.48333,26163
15.49167,27160
15.50000,28168
15.50833,29175
15.51667,30172
15.52500,31146
15.53333,32088
15.54167,32988
15.55000,33836
15.55833,34622
15.56667,35340
15.57500,35981
15.58333,36539
15.59167,37009
15.60000,37386
15.60833,37666
15.61667,37847
15.62500,37927
15.63333,37907
15.64167,37786
15.65000,37567
15.65833,37252
15.66667,36843
15.67500,36347
15.68333,35766
15.69167,35107
15.70000,34376
15.70833,33578
15.71667,32722
15.72500,31813
15.73333,30859
15.74167,29866
15.75000,28841
15.75833,27792
15.76667,26724
15.77500,25645
15.78333,24560
15.79167,23475
15.80000,22395
15.80833,21326
15.81667,20271
15.82500,19235
15.83333,18221
15.84167,17233
15.85000,16273
15.85833,15343
15.86667,14446
15.87500,13582
15.88333,12754
15.89167,11962
15.90000,11206
15.90833,10486
15.91667,9802
15.92500,9155
15.93333,8544
15.94167,7967
15.95000,7424
15.95833,6915
15.96667,6437
15.97500,5990
15.98333,5572
15.99167,5183
16.00000,4821
16.00833,4484
16.01667,4171
16.02500,3881
16.03333,3612
16.04167,3364
16.05000,3134
16.05833,2923
16.06667,2727
16.07500,2548
16.08333,2382
16.09167,2229
16.10000,2089
16.10833,1961
16.11667,1843
16.12500,1735
16.13333,1635
16.14167,1543
16.15000,1459
16.15833,1382
16.16667,1311
16.17500,1246
16.18333,1186
16.19167,1131
16.20000,1081
16.20833,1035
16.21667,992
16.22500,952
16.23333,915
16.24167,882
16.25000,851
16.25833,823
16.26667,797
16.27500,772
16.28333,749
16.29167,728
16.30000,708
16.30833,690
16.31667,672
16.32500,656
16.33333,641
16.34167,627
16.35000,614
16.35833,602
16.36667,590
16.37500,579
16.38333,568
16.39167,558
16.40000,548
16.40833,539
16.41667,531
16.42500,523
16.43333,515
16.44167,507
16.45000,500
16.45833,494
16.46667,487
16.47500,481
16.48333,475
16.49167,469
16.50000,463
16.50833,458
16.51667,453
16.52500,448
16.53333,443
16.54167,438
16.55000,434
16.55833,430
16.56667,426
16.57500,422
16.58333,417
16.59167,413
16.60000,409
16.60833,405
16.61667,402
16.62500,398
16.63333,395
16.64167,391
16.65000,388
16.65833,385
16.66667,381
16.67500,378
16.68333,375
16.69167,372
16.70000,369
16.70833,366
16.71667,363
16.72500,360
16.73333,357
16.74167,355
16.75000,352
16.75833,349
16.76667,347
16.77500,345
16.78333,342
16.79167,339
16.80000,337
16.80833,334
16.81667,332
16.82500,329
16.83333,327
16.84167,324
16.85000,321
16.85833,319
16.86667,317
16.87500,314
16.88333,312
16.89167,310
16.90000,309
16.90833,307
16.91667,304
16.92500,302
16.93333,300
16.94167,298
16.95000,296
16.95833,294
16.96667,292
16.97500,290
16.98333,288
16.99167,286
17.00000,284
17.00833,283
17.01667,281
17.02500,278
17.03333,276
17.04167,274
17.05000,272
17.05833,270
17.06667,268
17.07500,267
17.08333,264
17.09167,262
17.10000,261
17.10833,259
17.11667,257
17.12500,255
17.13333,254
17.14167,252
17.15000,251
17.15833,249
17.16667,248
17.17500,247
17.18333,245
17.19167,243
17.20000,242
17.20833,240
17.21667,239
17.22500,238
17.23333,236
17.24167,234
17.25000,233
17.25833,231
17.26667,230
17.27500,228
17.28333,227
17.29167,225
17.30000,224
17.30833,223
17.31667,221
17.32500,220
17.33333,218
17.34167,216
17.35000,215
17.35833,214
17.36667,212
17.37500,210
17.38333,209
17.39167,208
17.40000,207
17.40833,206
17.41667,205
17.42500,203
17.43333,202
17.44167,200
17.45000,199
17.45833,197
17.46667,196
17.47500,195
17.48333,194
17.49167,193
17.50000,192
17.50833,190
17.51667,189
17.52500,188
17.53333,187
17.54167,186
17.55000,185
17.55833,183
17.56667,182
17.57500,181
17.58333,180
17.59167,178
17.60000,177
17.60833,176
17.61667,175
17.62500,174
17.63333,173
17.64167,172
17.65000,171
17.65833,170
17.66667,168
17.67500,167
17.68333,167
17.69167,166
17.70000,165
17.70833,165
17.71667,164
17.72500,162
17.73333,161
17.74167,160
17.75000,159
17.75833,158
17.76667,157
17.77500,156
17.78333,155
17.79167,154
17.80000,153
17.80833,152
17.81667,150
17.82500,150
17.83333,149
17.84167,148
17.85000,147
17.85833,146
17.86667,146
17.87500,145
17.88333,144
17.89167,143
17.90000,142
17.90833,141
17.91667,141
17.92500,140
17.93333,139
17.94167,138
17.95000,137
17.95833,137
17.96667,136
17.97500,135
17.98333,134
17.99167,134
18.00000,133
18.00833,132
18.01667,131
18.02500,130
18.03333,129
18.04167,129
18.05000,128
18.05833,127
18.06667,127
18.07500,126
18.08333,126
18.09167,125
18.10000,124
18.10833,123
18.11667,122
18.12500,121
18.13333,121
18.14167,120
18.15000,120
18.15833,119
18.16667,119
18.17500,118
18.18333,117
18.19167,116
18.20000,116
18.20833,115
18.21667,114
18.22500,113
18.23333,112
18.24167,111
18.25000,110
18.25833,109
18.26667,109
18.27500,108
18.28333,107
18.29167,106
18.30000,106
18.30833,105
18.31667,104
18.32500,103
18.33333,103
18.34167,102
18.35000,101
18.35833,101
18.36667,101
18.37500,100
18.38333,100
18.39167,99
18.40000,99
18.40833,98
18.41667,98
18.42500,97
18.43333,96
18.44167,95
18.45000,95
18.45833,94
18.46667,94
18.47500,93
18.48333,93
18.49167,93
18.50000,92
18.50833,92
18.51667,91
18.52500,90
18.53333,90
18.54167,90
18.55000,90
18.55833,89
18.56667,89
18.57500,88
18.58333,88
18.59167,88
18.60000,87
18.60833,88
18.61667,88
18.62500,88
18.63333,88
18.64167,88
18.65000,88
18.65833,88
18.66667,88
18.67500,88
18.68333,88
18.69167,89
18.70000,89
18.70833,90
18.71667,91
18.72500,91
18.73333,92
18.74167,94
18.75000,95
18.75833,96
18.76667,97
18.77500,98
18.78333,100
18.79167,101
18.80000,103
18.80833,105
18.81667,106
18.82500,108
18.83333,110
18.84167,112
18.85000,113
18.85833,114
18.86667,115
18.87500,117
18.88333,119
18.89167,120
18.90000,122
18.90833,124
18.91667,125
18.92500,126
18.93333,127
18.94167,128
18.95000,128
18.95833,129
18.96667,128
18.97500,128
18.98333,127
18.99167,127
19.00000,126
19.00833,126
19.01667,125
19.02500,124
19.03333,123
19.04167,122
19.05000,120
19.05833,119
19.06667,117
19.07500,116
19.08333,114
19.09167,111
19.10000,109
19.10833,107
19.11667,105
19.12500,103
19.13333,101
19.14167,99
19.15000,96
19.15833,94
19.16667,92
19.17500,90
19.18333,88
19.19167,86
19.20000,84
19.20833,82
19.21667,80
19.22500,78
19.23333,77
19.24167,75
19.25000,74
19.25833,72
19.26667,70
19.27500,69
19.28333,67
19.29167,66
19.30000,64
19.30833,63
19.31667,62
19.32500,61
19.33333,59
19.34167,58
19.35000,57
19.35833,56
19.36667,55
19.37500,55
19.38333,54
19.39167,53
19.40000,53
19.40833,52
19.41667,51
19.42500,50
19.43333,49
19.44167,49
19.45000,49
19.45833,49
19.46667,48
19.47500,48
19.48333,48
19.49167,47
19.50000,47
19.50833,46
19.51667,45
19.52500,45
19.53333,45
19.54167,44
19.55000,44
19.55833,44
19.56667,43
19.57500,43
19.58333,42
19.59167,42
19.60000,41
19.60833,41
19.61667,40
19.62500,40
19.63333,40
19.64167,40
19.65000,40
19.65833,40
19.66667,40
19.67500,40
19.68333,39
19.69167,39
19.70000,38
19.70833,38
19.71667,37
19.72500,37
19.73333,36
19.74167,36
19.75000,36
19.75833,35
19.76667,35
19.77500,35
19.78333,35
19.79167,34
19.80000,34
19.80833,34
19.81667,34
19.82500,34
19.83333,34
19.84167,33
19.85000,33
19.85833,32
19.86667,32
19.87500,31
19.88333,31
19.89167,31
19.90000,31
19.90833,31
19.91667,31
19.92500,31
19.93333,31
19.94167,30
19.95000,30
19.95833,30
19.96667,30
19.97500,30
19.98333,29
19.99167,29
20.00000,28
20.00833,28
20.01667,28
20.02500,27
20.03333,27
20.04167,27
20.05000,27
20.05833,27
20.06667,26
20.07500,26
20.08333,26
20.09167,26
20.10000,26
20.10833,26
20.11667,26
20.12500,26
20.13333,26
20.14167,26
20.15000,25
20.15833,25
20.16667,25
20.17500,24
20.18333,24
20.19167,24
20.20000,24
20.20833,24
20.21667,23
20.22500,23
20.23333,23
20.24167,23
20.25000,23
20.25833,23
20.26667,23
20.27500,23
20.28333,23
20.29167,22
20.30000,22
20.30833,22
20.31667,22
20.32500,21
20.33333,21
20.34167,21
20.35000,20
20.35833,20
20.36667,20
20.37500,20
20.38333,20
20.39167,19
20.40000,19
20.40833,19
20.41667,19
20.42500,19
20.43333,19
20.44167,19
20.45000,19
20.45833,19
20.46667,18
20.47500,18
20.48333,18
20.49167,18
20.50000,17
20.50833,18
20.51667,18
20.52500,17
20.53333,17
20.54167,17
20.55000,17
20.55833,17
20.56667,17
20.57500,17
20.58333,17
20.59167,17
20.60000,17
20.60833,16
20.61667,16
20.62500,16
20.63333,16
20.64167,16
20.65000,16
20.65833,16
20.66667,16
20.67500,15
20.68333,15
20.69167,15
20.70000,14
20.70833,14
20.71667,14
20.72500,14
20.73333,14
20.74167,14
20.75000,14
20.75833,13
20.76667,13
20.77500,13
20.78333,12
20.79167,12
20.80000,12
20.80833,12
20.81667,12
20.82500,12
20.83333,12
20.84167,12
20.85000,12
20.85833,12
20.86667,12
20.87500,11
20.88333,11
20.89167,11
20.90000,11
20.90833,11
20.91667,11
20.92500,11
20.93333,11
20.94167,11
20.95000,11
20.95833,11
20.96667,10
20.97500,10
20.98333,10
20.99167,10
21.00000,10
21.00833,10
21.01667,9
21.02500,9
21.03333,8
21.04167,8
21.05000,8
21.05833,8
21.06667,9
21.07500,9
21.08333,8
21.09167,9
21.10000,9
21.10833,8
21.11667,8
21.12500,8
21.13333,8
21.14167,8
21.15000,8
21.15833,7
21.16667,7
21.17500,6
21.18333,6
21.19167,6
21.20000,5
21.20833,5
21.21667,5
21.22500,6
21.23333,6
21.24167,6
21.25000,6
21.25833,5
21.26667,5
21.27500,5
21.28333,5
21.29167,5
21.30000,6
21.30833,5
21.31667,5
21.32500,5
21.33333,5
21.34167,5
21.35000,5
21.35833,5
21.36667,4
21.37500,4
21.38333,4
21.39167,4
21.40000,4
21.40833,4
21.41667,4
21.42500,4
21.43333,4
21.44167,4
21.45000,4
21.45833,4
21.46667,4
21.47500,3
21.48333,3
21.49167,3
21.50000,3
21.50833,4
21.51667,4
21.52500,4
21.53333,4
21.54167,4
21.55000,4
21.55833,4
21.56667,4
21.57500,5
21.58333,5
21.59167,5
21.60000,5
21.60833,5
21.61667,5
21.62500,4
21.63333,4
21.64167,4
21.65000,4
21.65833,4
21.66667,5
21.67500,5
21.68333,5
21.69167,4
21.70000,4
21.70833,4
21.71667,5
21.72500,5
21.73333,5
21.74167,5
21.75000,5
21.75833,5
21.76667,5
21.77500,5
21.78333,5
21.79167,5
21.80000,5
21.80833,5
21.81667,5
21.82500,5
21.83333,5
21.84167,5
21.85000,5
21.85833,5
21.86667,5
21.87500,5
21.88333,5
21.89167,5
21.90000,5
21.90833,5
21.91667,6
21.92500,6
21.93333,6
21.94167,6
21.95000,6
21.95833,5
21.96667,5
21.97500,5
21.98333,5
21.99167,5
22.00000,5
22.00833,5
22.01667,5
22.02500,5
22.03333,5
22.04167,4
22.05000,5
22.05833,5
22.06667,5
22.07500,5
22.08333,5
22.09167,5
22.10000,4
22.10833,4
22.11667,4
22.12500,3
22.13333,3
22.14167,2
22.15000,2
22.15833,1
22.16667,1
22.17500,1
22.18333,1
22.19167,1
22.20000,1
22.20833,0
22.21667,0
22.22500,0
22.23333,-0
22.24167,-0
22.25000,-0
22.25833,-0
22.26667,-0
22.27500,-1
22.28333,-2
22.29167,-2
22.30000,-2
22.30833,-2
22.31667,-2
22.32500,-3
22.33333,-3
22.34167,-3
22.35000,-3
22.35833,-3
22.36667,-3
22.37500,-3
22.38333,-3
22.39167,-3
22.40000,-3
22.40833,-4
22.41667,-4
22.42500,-5
22.43333,-5
22.44167,-5
22.45000,-5
22.45833,-5
22.46667,-4
22.47500,-4
22.48333,-4
22.49167,-4
22.50000,-4
22.50833,-4
22.51667,-4
22.52500,-4
22.53333,-4
22.54167,-4
22.55000,-4
22.55833,-4
22.56667,-4
22.57500,-4
22.58333,-4
22.59167,-4
22.60000,-4
22.60833,-4
22.61667,-4
22.62500,-4
22.63333,-4
22.64167,-4
22.65000,-4
22.65833,-4
22.66667,-4
22.67500,-4
22.68333,-4
22.69167,-4
22.70000,-5
22.70833,-4
22.71667,-4
22.72500,-4
22.73333,-4
22.74167,-4
22.75000,-4
22.75833,-4
22.76667,-4
22.77500,-5
22.78333,-5
22.79167,-5
22.80000,-5
22.80833,-5
22.81667,-4
22.82500,-4
22.83333,-4
22.84167,-4
22.85000,-4
22.85833,-3
22.86667,-3
22.87500,-2
22.88333,-2
22.89167,-1
22.90000,-1
22.90833,-1
22.91667,-0
22.92500,0
22.93333,1
22.94167,2
22.95000,2
22.95833,3
22.96667,4
22.97500,4
22.98333,5
22.99167,5
23.00000,6
23.00833,7
23.01667,8
23.02500,9
23.03333,9
23.04167,9
23.05000,10
23.05833,10
23.06667,11
23.07500,12
23.08333,13
23.09167,14
23.10000,14
23.10833,15
23.11667,16
23.12500,16
23.13333,17
23.14167,17
23.15000,18
23.15833,18
23.16667,19
23.17500,19
23.18333,20
23.19167,20
23.20000,20
23.20833,21
23.21667,20
23.22500,20
23.23333,20
23.24167,20
23.25000,20
23.25833,20
23.26667,20
23.27500,19
23.28333,19
23.29167,19
23.30000,18
23.30833,18
23.31667,17
23.32500,17
23.33333,16
23.34167,15
23.35000,14
23.35833,13
23.36667,12
23.37500,11
23.38333,11
23.39167,10
23.40000,9
23.40833,9
23.41667,8
23.42500,7
23.43333,7
23.44167,6
23.45000,5
23.45833,4
23.46667,4
23.47500,3
23.48333,3
23.49167,2
23.50000,2
23.50833,1
23.51667,0
23.52500,-1
23.53333,-1
23.54167,-2
23.55000,-3
23.55833,-3
23.56667,-4
23.57500,-4
23.58333,-5
23.59167,-5
23.60000,-5
23.60833,-5
23.61667,-6
23.62500,-6
23.63333,-6
23.64167,-6
23.65000,-7
23.65833,-7
23.66667,-7
23.67500,-7
23.68333,-7
23.69167,-7
23.70000,-7
23.70833,-7
23.71667,-7
23.72500,-7
23.73333,-8
23.74167,-8
23.75000,-9
23.75833,-9
23.76667,-9
23.77500,-10
23.78333,-10
23.79167,-10
23.80000,-10
23.80833,-10
23.81667,-9
23.82500,-9
23.83333,-9
23.84167,-9
23.85000,-9
23.85833,-9
23.86667,-10
23.87500,-10
23.88333,-10
23.89167,-10
23.90000,-10
23.90833,-10
23.91667,-10
23.92500,-10
23.93333,-10
23.94167,-10
23.95000,-10
23.95833,-10
23.96667,-11
23.97500,-11
23.98333,-10
23.99167,-10
24.00000,-10
24.00833,-10
24.01667,-10
24.02500,-10
24.03333,-11
24.04167,-11
24.05000,-11
24.05833,-12
24.06667,-12
24.07500,-12
24.08333,-12
24.09167,-11
24.10000,-11
24.10833,-11
24.11667,-11
24.12500,-11
24.13333,-11
24.14167,-11
24.15000,-10
24.15833,-10
24.16667,-10
24.17500,-10
24.18333,-11
24.19167,-11
24.20000,-11
24.20833,-11
24.21667,-11
24.22500,-11
24.23333,-11
24.24167,-11
24.25000,-11
24.25833,-11
24.26667,-11
24.27500,-11
24.28333,-11
24.29167,-11
24.30000,-11
24.30833,-10
24.31667,-10
24.32500,-10
24.33333,-10
24.34167,-10
24.35000,-10
24.35833,-10
24.36667,-10
24.37500,-10
24.38333,-10
24.39167,-9
24.40000,-9
24.40833,-8
24.41667,-8
24.42500,-8
24.43333,-8
24.44167,-9
24.45000,-8
24.45833,-8
24.46667,-7
24.47500,-7
24.48333,-7
24.49167,-6
24.50000,-6
24.50833,-5
24.51667,-5
24.52500,-4
24.53333,-3
24.54167,-2
24.55000,-1
24.55833,0
24.56667,2
24.57500,3
24.58333,4
24.59167,6
24.60000,8
24.60833,10
24.61667,12
24.62500,14
24.63333,16
24.64167,19
24.65000,22
24.65833,25
24.66667,28
24.67500,31
24.68333,35
24.69167,39
24.70000,43
24.70833,48
24.71667,52
24.72500,57
24.73333,62
24.74167,68
24.75000,74
24.75833,81
24.76667,88
24.77500,95
24.78333,102
24.79167,109
24.80000,117
24.80833,124
24.81667,132
24.82500,139
24.83333,148
24.84167,156
24.85000,165
24.85833,173
24.86667,181
24.87500,189
24.88333,197
24.89167,205
24.90000,212
24.90833,220
24.91667,227
24.92500,234
24.93333,241
24.94167,247
24.95000,253
24.95833,259
24.96667,264
24.97500,270
24.98333,274
24.99167,279
25.00000,282
25.00833,285
25.01667,287
25.02500,288
25.03333,289
25.04167,290
25.05000,289
25.05833,288
25.06667,287
25.07500,285
25.08333,283
25.09167,281
25.10000,278
25.10833,274
25.11667,270
25.12500,265
25.13333,260
25.14167,255
25.15000,249
25.15833,242
25.16667,236
25.17500,230
25.18333,223
25.19167,216
25.20000,209
25.20833,202
25.21667,194
25.22500,187
25.23333,180
25.24167,172
25.25000,164
25.25833,157
25.26667,150
25.27500,142
25.28333,135
25.29167,128
25.30000,121
25.30833,114
25.31667,108
25.32500,102
25.33333,96
25.34167,90
25.35000,84
25.35833,79
25.36667,73
25.37500,68
25.38333,63
25.39167,59
25.40000,55
25.40833,50
25.41667,46
25.42500,42
25.43333,38
25.44167,35
25.45000,32
25.45833,29
25.46667,26
25.47500,24
25.48333,21
25.49167,19
25.50000,17
25.50833,15
25.51667,13
25.52500,12
25.53333,10
25.54167,8
25.55000,7
25.55833,5
25.56667,4
25.57500,3
25.58333,1
25.59167,0
25.60000,-0
25.60833,-1
25.61667,-2
25.62500,-2
25.63333,-3
25.64167,-3
25.65000,-4
25.65833,-4
25.66667,-5
25.67500,-5
25.68333,-6
25.69167,-6
25.70000,-7
25.70833,-7
25.71667,-8
25.72500,-8
25.73333,-8
25.74167,-8
25.75000,-8
25.75833,-8
25.76667,-8
25.77500,-8
25.78333,-8
25.79167,-7
25.80000,-8
25.80833,-8
25.81667,-8
25.82500,-8
25.83333,-8
25.84167,-9
25.85000,-9
25.85833,-9
25.86667,-9
25.87500,-9
25.88333,-9
25.89167,-10
25.90000,-10
25.90833,-9
25.91667,-9
25.92500,-9
25.93333,-9
25.94167,-9
25.95000,-9
25.95833,-9
25.96667,-9
25.97500,-9
25.98333,-9
25.99167,-10
26.00000,-10
26.00833,-10
26.01667,-10
26.02500,-10
26.03333,-9
26.04167,-9
26.05000,-9
26.05833,-9
26.06667,-9
26.07500,-9
26.08333,-9
26.09167,-9
26.10000,-9
26.10833,-9
26.11667,-9
26.12500,-9
26.13333,-9
26.14167,-9
26.15000,-9
26.15833,-9
26.16667,-9
26.17500,-9
26.18333,-9
26.19167,-9
26.20000,-9
26.20833,-9
26.21667,-9
26.22500,-9
26.23333,-9
26.24167,-10
26.25000,-10
26.25833,-10
26.26667,-10
26.27500,-10
26.28333,-10
26.29167,-10
26.30000,-10
26.30833,-10
26.31667,-10
26.32500,-10
26.33333,-10
26.34167,-10
26.35000,-11
26.35833,-11
26.36667,-11
26.37500,-11
26.38333,-11
26.39167,-11
26.40000,-11
26.40833,-11
26.41667,-10
26.42500,-10
26.43333,-10
26.44167,-10
26.45000,-10
26.45833,-10
26.46667,-10
26.47500,-10
26.48333,-10
26.49167,-10
26.50000,-10
26.50833,-10
26.51667,-10
26.52500,-9
26.53333,-9
26.54167,-9
26.55000,-9
26.55833,-9
26.56667,-9
26.57500,-9
26.58333,-9
26.59167,-10
26.60000,-10
26.60833,-10
26.61667,-10
26.62500,-10
26.63333,-11
26.64167,-11
26.65000,-11
26.65833,-11
26.66667,-11
26.67500,-10
26.68333,-10
26.69167,-10
26.70000,-10
26.70833,-10
26.71667,-10
26.72500,-10
26.73333,-10
26.74167,-10
26.75000,-10
26.75833,-11
26.76667,-11
26.77500,-11
26.78333,-10
26.79167,-10
26.80000,-10
26.80833,-10
26.81667,-10
26.82500,-10
26.83333,-10
26.84167,-10
26.85000,-10
26.85833,-10
26.86667,-9
26.87500,-9
26.88333,-9
26.89167,-9
26.90000,-9
26.90833,-10
26.91667,-10
26.92500,-10
26.93333,-10
26.94167,-10
26.95000,-10
26.95833,-10
26.96667,-10
26.97500,-10
26.98333,-10
26.99167,-10
27.00000,-10
27.00833,-9
27.01667,-9
27.02500,-9
27.03333,-10
27.04167,-10
27.05000,-10
27.05833,-10
27.06667,-10
27.07500,-10
27.08333,-10
27.09167,-10
27.10000,-9
27.10833,-9
27.11667,-9
27.12500,-9
27.13333,-9
27.14167,-9
27.15000,-9
27.15833,-9
27.16667,-9
27.17500,-9
27.18333,-8
27.19167,-8
27.20000,-8
27.20833,-8
27.21667,-8
27.22500,-8
27.23333,-9
27.24167,-8
27.25000,-8
27.25833,-9
27.26667,-9
27.27500,-9
27.28333,-9
27.29167,-8
27.30000,-8
27.30833,-8
27.31667,-8
27.32500,-9
27.33333,-9
27.34167,-8
27.35000,-8
27.35833,-8
27.36667,-8
27.37500,-8
27.38333,-8
27.39167,-7
27.40000,-7
27.40833,-7
27.41667,-7
27.42500,-7
27.43333,-7
27.44167,-7
27.45000,-7
27.45833,-7
27.46667,-7
27.47500,-7
27.48333,-7
27.49167,-7
27.50000,-7
27.50833,-6
27.51667,-6
27.52500,-6
27.53333,-6
27.54167,-7
27.55000,-7
27.55833,-7
27.56667,-7
27.57500,-7
27.58333,-7
27.59167,-7
27.60000,-7
27.60833,-7
27.61667,-7
27.62500,-7
27.63333,-6
27.64167,-7
27.65000,-7
27.65833,-7
27.66667,-7
27.67500,-7
27.68333,-7
27.69167,-6
27.70000,-7
27.70833,-7
27.71667,-7
27.72500,-7
27.73333,-7
27.74167,-7
27.75000,-8
27.75833,-8
27.76667,-8
27.77500,-8
27.78333,-8
27.79167,-8
27.80000,-8
27.80833,-8
27.81667,-9
27.82500,-10
27.83333,-10
27.84167,-11
27.85000,-12
27.85833,-12
27.86667,-12
27.87500,-13
27.88333,-13
27.89167,-14
27.90000,-14
27.90833,-15
27.91667,-16
27.92500,-17
27.93333,-18
27.94167,-18
27.95000,-19
27.95833,-20
27.96667,-21
27.97500,-22
27.98333,-23
27.99167,-25
28.00000,-26
28.00833,-28
28.01667,-30
28.02500,-31
28.03333,-33
28.04167,-34
28.05000,-36
28.05833,-38
28.06667,-40
28.07500,-42
28.08333,-44
28.09167,-47
28.10000,-50
28.10833,-52
28.11667,-55
28.12500,-58
28.13333,-60
28.14167,-63
28.15000,-66
28.15833,-68
28.16667,-71
28.17500,-74
28.18333,-78
28.19167,-81
28.20000,-84
28.20833,-87
28.21667,-91
28.22500,-94
28.23333,-97
28.24167,-100
28.25000,-103
28.25833,-107
28.26667,-110
28.27500,-113
28.28333,-116
28.29167,-119
28.30000,-122
28.30833,-125
28.31667,-128
28.32500,-131
28.33333,-134
28.34167,-137
28.35000,-140
28.35833,-142
28.36667,-145
28.37500,-147
28.38333,-149
28.39167,-151
28.40000,-153
28.40833,-154
28.41667,-156
28.42500,-157
28.43333,-158
28.44167,-159
28.45000,-160
28.45833,-161
28.46667,-161
28.47500,-162
28.48333,-162
28.49167,-163
28.50000,-163
28.50833,-162
28.51667,-162
28.52500,-161
28.53333,-160
28.54167,-159
28.55000,-158
28.55833,-157
28.56667,-155
28.57500,-153
28.58333,-152
28.59167,-150
28.60000,-148
28.60833,-146
28.61667,-144
28.62500,-141
28.63333,-139
28.64167,-136
28.65000,-133
28.65833,-131
28.66667,-128
28.67500,-126
28.68333,-123
28.69167,-121
28.70000,-118
28.70833,-116
28.71667,-113
28.72500,-110
28.73333,-107
28.74167,-104
28.75000,-101
28.75833,-99
28.76667,-96
28.77500,-93
28.78333,-90
28.79167,-88
28.80000,-85
28.80833,-82
28.81667,-79
28.82500,-77
28.83333,-74
28.84167,-72
28.85000,-69
28.85833,-67
28.86667,-65
28.87500,-63
28.88333,-61
28.89167,-59
28.90000,-57
28.90833,-55
28.91667,-54
28.92500,-53
28.93333,-51
28.94167,-49
28.95000,-48
28.95833,-46
28.96667,-44
28.97500,-43
28.98333,-41
28.99167,-40
29.00000,-39
29.00833,-38
29.01667,-37
29.02500,-36
29.03333,-35
29.04167,-34
29.05000,-33
29.05833,-32
29.06667,-31
29.07500,-31
29.08333,-30
29.09167,-29
29.10000,-29
29.10833,-28
29.11667,-27
29.12500,-26
29.13333,-25
29.14167,-24
29.15000,-24
29.15833,-23
29.16667,-23
29.17500,-23
29.18333,-23
29.19167,-22
29.20000,-22
29.20833,-22
29.21667,-21
29.22500,-21
29.23333,-21
29.24167,-20
29.25000,-20
29.25833,-20
29.26667,-19
29.27500,-19
29.28333,-19
29.29167,-18
29.30000,-18
29.30833,-18
29.31667,-18
29.32500,-18
29.33333,-18
29.34167,-18
29.35000,-18
29.35833,-18
29.36667,-18
29.37500,-18
29.38333,-17
29.39167,-17
29.40000,-17
29.40833,-17
29.41667,-17
29.42500,-17
29.43333,-17
29.44167,-17
29.45000,-17
29.45833,-17
29.46667,-17
29.47500,-17
29.48333,-17
29.49167,-17
29.50000,-17
29.50833,-17
29.51667,-18
29.52500,-18
29.53333,-18
29.54167,-18
29.55000,-18
29.55833,-18
29.56667,-18
29.57500,-18
29.58333,-18
29.59167,-19
29.60000,-19
29.60833,-19
29.61667,-19
29.62500,-19
29.63333,-19
29.64167,-20
29.65000,-20
29.65833,-20
29.66667,-20
29.67500,-21
29.68333,-21
29.69167,-22
29.70000,-23
29.70833,-23
29.71667,-24
29.72500,-25
29.73333,-25
29.74167,-26
29.75000,-27
29.75833,-27
29.76667,-28
29.77500,-29
29.78333,-30
29.79167,-30
29.80000,-31
29.80833,-32
29.81667,-33
29.82500,-33
29.83333,-35
29.84167,-35
29.85000,-36
29.85833,-37
29.86667,-38
29.87500,-38
29.88333,-39
29.89167,-40
29.90000,-41
29.90833,-42
29.91667,-43
29.92500,-45
29.93333,-46
29.94167,-47
29.95000,-48
29.95833,-49
29.96667,-50
29.97500,-52
29.98333,-53
29.99167,-53
30.00000,-54
30.00833,-55
30.01667,-56
30.02500,-57
30.03333,-58
30.04167,-59
30.05000,-60
30.05833,-61
30.06667,-63
30.07500,-63
30.08333,-64
30.09167,-65
30.10000,-66
30.10833,-66
30.11667,-67
30.12500,-68
30.13333,-68
30.14167,-69
30.15000,-70
30.15833,-71
30.16667,-71
30.17500,-72
30.18333,-72
30.19167,-73
30.20000,-73
30.20833,-74
30.21667,-74
30.22500,-74
30.23333,-73
30.24167,-73
30.25000,-74
30.25833,-73
30.26667,-73
30.27500,-73
30.28333,-73
30.29167,-73
30.30000,-73
30.30833,-72
30.31667,-72
30.32500,-72
30.33333,-71
30.34167,-71
30.35000,-70
30.35833,-69
30.36667,-69
30.37500,-68
30.38333,-68
30.39167,-67
30.40000,-66
30.40833,-65
30.41667,-63
30.42500,-62
30.43333,-61
30.44167,-60
30.45000,-60
30.45833,-59
30.46667,-58
30.47500,-57
30.48333,-56
30.49167,-55
30.50000,-54
30.50833,-54
30.51667,-53
30.52500,-52
30.53333,-52
30.54167,-51
30.55000,-50
30.55833,-49
30.56667,-49
30.57500,-48
30.58333,-48
30.59167,-47
30.60000,-46
30.60833,-46
30.61667,-45
30.62500,-45
30.63333,-44
30.64167,-44
30.65000,-44
30.65833,-44
30.66667,-43
30.67500,-43
30.68333,-43
30.69167,-42
30.70000,-42
30.70833,-41
30.71667,-41
30.72500,-41
30.73333,-41
30.74167,-41
30.75000,-41
30.75833,-41
30.76667,-41
30.77500,-41
30.78333,-41
30.79167,-42
30.80000,-42
30.80833,-42
30.81667,-42
30.82500,-42
30.83333,-42
30.84167,-43
30.85000,-43
30.85833,-44
30.86667,-44
30.87500,-44
30.88333,-44
30.89167,-45
30.90000,-45
30.90833,-46
30.91667,-46
30.92500,-46
30.93333,-47
30.94167,-47
30.95000,-48
30.95833,-48
30.96667,-49
30.97500,-49
30.98333,-49
30.99167,-49
31.00000,-50
31.00833,-50
31.01667,-51
31.02500,-52
31.03333,-52
31.04167,-53
31.05000,-53
31.05833,-53
31.06667,-53
31.07500,-53
31.08333,-54
31.09167,-54
31.10000,-54
31.10833,-54
31.11667,-54
31.12500,-54
31.13333,-54
31.14167,-53
31.15000,-53
31.15833,-53
31.16667,-53
31.17500,-53
31.18333,-53
31.19167,-53
31.20000,-52
31.20833,-52
31.21667,-51
31.22500,-51
31.23333,-51
31.24167,-50
31.25000,-50
31.25833,-49
31.26667,-49
31.27500,-48
31.28333,-47
31.29167,-47
31.30000,-46
31.30833,-45
31.31667,-45
31.32500,-44
31.33333,-43
31.34167,-43
31.35000,-42
31.35833,-41
31.36667,-40
31.37500,-39
31.38333,-39
31.39167,-38
31.40000,-38
31.40833,-37
31.41667,-36
31.42500,-36
31.43333,-35
31.44167,-34
31.45000,-34
31.45833,-33
31.46667,-32
31.47500,-32
31.48333,-31
31.49167,-31
31.50000,-30
31.50833,-29
31.51667,-28
31.52500,-28
31.53333,-27
31.54167,-26
31.55000,-26
31.55833,-25
31.56667,-24
31.57500,-24
31.58333,-23
31.59167,-23
31.60000,-22
31.60833,-21
31.61667,-21
31.62500,-21
31.63333,-20
31.64167,-20
31.65000,-19
31.65833,-19
31.66667,-19
31.67500,-18
31.68333,-18
31.69167,-17
31.70000,-17
31.70833,-17
31.71667,-16
31.72500,-16
31.73333,-16
31.74167,-16
31.75000,-15
31.75833,-15
31.76667,-15
31.77500,-15
31.78333,-14
31.79167,-14
31.80000,-14
31.80833,-14
31.81667,-14
31.82500,-14
31.83333,-14
31.84167,-14
31.85000,-14
31.85833,-14
31.86667,-14
31.87500,-13
31.88333,-13
31.89167,-14
31.90000,-14
31.90833,-14
31.91667,-14
31.92500,-13
31.93333,-13
31.94167,-14
31.95000,-14
31.95833,-14
31.96667,-14
31.97500,-14
31.98333,-14
31.99167,-14
32.00000,-14
32.00833,-14
32.01667,-14
32.02500,-15
32.03333,-15
32.04167,-15
32.05000,-15
32.05833,-15
32.06667,-15
32.07500,-16
32.08333,-16
32.09167,-16
32.10000,-16
32.10833,-16
32.11667,-16
32.12500,-16
32.13333,-16
32.14167,-17
32.15000,-16
32.15833,-16
32.16667,-16
32.17500,-16
32.18333,-16
32.19167,-16
32.20000,-16
32.20833,-16
32.21667,-16
32.22500,-17
32.23333,-17
32.24167,-17
32.25000,-18
32.25833,-18
32.26667,-18
32.27500,-18
32.28333,-18
32.29167,-18
32.30000,-18
32.30833,-18
32.31667,-18
32.32500,-17
32.33333,-17
32.34167,-18
32.35000,-18
32.35833,-18
32.36667,-18
32.37500,-18
32.38333,-18
32.39167,-18
32.40000,-18
32.40833,-17
32.41667,-18
32.42500,-18
32.43333,-18
32.44167,-18
32.45000,-18
32.45833,-19
32.46667,-19
32.47500,-19
32.48333,-19
32.49167,-19
32.50000,-19
32.50833,-19
32.51667,-19
32.52500,-19
32.53333,-19
32.54167,-19
32.55000,-19
32.55833,-19
32.56667,-19
32.57500,-19
32.58333,-19
32.59167,-19
32.60000,-19
32.60833,-18
32.61667,-18
32.62500,-18
32.63333,-18
32.64167,-19
32.65000,-19
32.65833,-19
32.66667,-19
32.67500,-19
32.68333,-19
32.69167,-19
32.70000,-19
32.70833,-19
32.71667,-19
32.72500,-19
32.73333,-19
32.74167,-19
32.75000,-19
32.75833,-19
32.76667,-19
32.77500,-19
32.78333,-19
32.79167,-19
32.80000,-19
32.80833,-19
32.81667,-20
32.82500,-20
32.83333,-20
32.84167,-19
32.85000,-19
32.85833,-19
32.86667,-19
32.87500,-18
32.88333,-18
32.89167,-18
32.90000,-18
32.90833,-18
32.91667,-18
32.92500,-18
32.93333,-19
32.94167,-19
32.95000,-20
32.95833,-20
32.96667,-20
32.97500,-20
32.98333,-20
32.99167,-20
33.00000,-20
33.00833,-20
33.01667,-20
33.02500,-19
33.03333,-20
33.04167,-20
33.05000,-19
33.05833,-19
33.06667,-19
33.07500,-19
33.08333,-18
33.09167,-18
33.10000,-18
33.10833,-18
33.11667,-18
33.12500,-18
33.13333,-18
33.14167,-18
33.15000,-18
33.15833,-18
33.16667,-18
33.17500,-18
33.18333,-18
33.19167,-18
33.20000,-18
33.20833,-18
33.21667,-18
33.22500,-18
33.23333,-18
33.24167,-19
33.25000,-19
33.25833,-19
33.26667,-19
33.27500,-19
33.28333,-18
33.29167,-19
33.30000,-19
33.30833,-19
33.31667,-18
33.32500,-18
33.33333,-18
33.34167,-19
33.35000,-19
33.35833,-19
33.36667,-19
33.37500,-19
33.38333,-19
33.39167,-19
33.40000,-19
33.40833,-19
33.41667,-18
33.42500,-18
33.43333,-18
33.44167,-18
33.45000,-19
33.45833,-19
33.46667,-19
33.47500,-19
33.48333,-19
33.49167,-19
33.50000,-19
33.50833,-20
33.51667,-20
33.52500,-20
33.53333,-20
33.54167,-20
33.55000,-20
33.55833,-20
33.56667,-19
33.57500,-19
33.58333,-20
33.59167,-20
33.60000,-20
33.60833,-20
33.61667,-20
33.62500,-20
33.63333,-20
33.64167,-20
33.65000,-21
33.65833,-20
33.66667,-20
33.67500,-20
33.68333,-20
33.69167,-21
33.70000,-21
33.70833,-21
33.71667,-21
33.72500,-21
33.73333,-21
33.74167,-22
33.75000,-21
33.75833,-21
33.76667,-21
33.77500,-21
33.78333,-21
33.79167,-21
33.80000,-21
33.80833,-21
33.81667,-22
33.82500,-22
33.83333,-21
33.84167,-21
33.85000,-21
33.85833,-21
33.86667,-21
33.87500,-21
33.88333,-21
33.89167,-21
33.90000,-21
33.90833,-21
33.91667,-22
33.92500,-22
33.93333,-22
33.94167,-22
33.95000,-22
33.95833,-22
33.96667,-22
33.97500,-22
33.98333,-22
33.99167,-22
34.00000,-22
34.00833,-22
34.01667,-22
34.02500,-23
34.03333,-23
34.04167,-23
34.05000,-23
34.05833,-23
34.06667,-22
34.07500,-22
34.08333,-22
34.09167,-22
34.10000,-22
34.10833,-21
34.11667,-21
34.12500,-21
34.13333,-21
34.14167,-21
34.15000,-21
34.15833,-21
34.16667,-22
34.17500,-22
34.18333,-22
34.19167,-21
34.20000,-21
34.20833,-21
34.21667,-21
34.22500,-21
34.23333,-22
34.24167,-22
34.25000,-22
34.25833,-21
34.26667,-21
34.27500,-21
34.28333,-21
34.29167,-21
34.30000,-22
34.30833,-22
34.31667,-22
34.32500,-22
34.33333,-22
34.34167,-22
34.35000,-21
34.35833,-21
34.36667,-21
34.37500,-21
34.38333,-21
34.39167,-21
34.40000,-21
34.40833,-21
34.41667,-21
34.42500,-21
34.43333,-21
34.44167,-21
34.45000,-21
34.45833,-21
34.46667,-21
34.47500,-22
34.48333,-22
34.49167,-22
34.50000,-21
34.50833,-21
34.51667,-21
34.52500,-21
34.53333,-21
34.54167,-21
34.55000,-21
34.55833,-22
34.56667,-21
34.57500,-21
34.58333,-21
34.59167,-21
34.60000,-21
34.60833,-21
34.61667,-21
34.62500,-21
34.63333,-22
34.64167,-22
34.65000,-22
34.65833,-22
34.66667,-22
34.67500,-22
34.68333,-22
34.69167,-22
34.70000,-22
34.70833,-22
34.71667,-21
34.72500,-21
34.73333,-21
34.74167,-21
34.75000,-21
34.75833,-21
34.76667,-21
34.77500,-21
34.78333,-21
34.79167,-21
34.80000,-21
34.80833,-22
34.81667,-22
34.82500,-22
34.83333,-22
34.84167,-21
34.85000,-21
34.85833,-21
34.86667,-21
34.87500,-21
34.88333,-21
34.89167,-21
34.90000,-21
34.90833,-20
34.91667,-20
34.92500,-21
34.93333,-21
34.94167,-21
34.95000,-21
34.95833,-22
34.96667,-22
34.97500,-22
34.98333,-22
34.99167,-22
35.00000,-22
35.00833,-22
35.01667,-22
35.02500,-22
35.03333,-22
35.04167,-22
35.05000,-22
35.05833,-22
35.06667,-23
35.07500,-23
35.08333,-23
35.09167,-22
35.10000,-22
35.10833,-22
35.11667,-22
35.12500,-22
35.13333,-23
35.14167,-23
35.15000,-23
35.15833,-23
35.16667,-23
35.17500,-23
35.18333,-23
35.19167,-23
35.20000,-23
35.20833,-22
35.21667,-22
35.22500,-22
35.23333,-22
35.24167,-22
35.25000,-22
35.25833,-23
35.26667,-23
35.27500,-22
35.28333,-22
35.29167,-22
35.30000,-22
35.30833,-22
35.31667,-22
35.32500,-22
35.33333,-22
35.34167,-22
35.35000,-22
35.35833,-22
35.36667,-22
35.37500,-22
35.38333,-22
35.39167,-22
35.40000,-22
35.40833,-22
35.41667,-22
35.42500,-22
35.43333,-23
35.44167,-23
35.45000,-23
35.45833,-23
35.46667,-23
35.47500,-23
35.48333,-22
35.49167,-22
35.50000,-22
35.50833,-22
35.51667,-22
35.52500,-22
35.53333,-23
35.54167,-23
35.55000,-22
35.55833,-22
35.56667,-22
35.57500,-22
35.58333,-22
35.59167,-22
35.60000,-22
35.60833,-22
35.61667,-23
35.62500,-22
35.63333,-22
35.64167,-22
35.65000,-21
35.65833,-21
35.66667,-22
35.67500,-22
35.68333,-22
35.69167,-22
35.70000,-23
35.70833,-22
35.71667,-22
35.72500,-22
35.73333,-23
35.74167,-23
35.75000,-22
35.75833,-22
35.76667,-23
35.77500,-23
35.78333,-23
35.79167,-23
35.80000,-22
35.80833,-22
35.81667,-22
35.82500,-22
35.83333,-22
35.84167,-22
35.85000,-22
35.85833,-22
35.86667,-22
35.87500,-21
35.88333,-21
35.89167,-21
35.90000,-21
35.90833,-21
35.91667,-21
35.92500,-21
35.93333,-22
35.94167,-22
35.95000,-22
35.95833,-23
35.96667,-23
35.97500,-23
35.98333,-23
35.99167,-23
36.00000,-23
36.00833,-24
36.01667,-24
36.02500,-24
36.03333,-24
36.04167,-24
36.05000,-24
36.05833,-24
36.06667,-24
36.07500,-24
36.08333,-24
36.09167,-23
36.10000,-23
36.10833,-23
36.11667,-23
36.12500,-23
36.13333,-23
36.14167,-23
36.15000,-23
36.15833,-23
36.16667,-23
36.17500,-23
36.18333,-23
36.19167,-23
36.20000,-23
36.20833,-23
36.21667,-23
36.22500,-23
36.23333,-23
36.24167,-23
36.25000,-23
36.25833,-23
36.26667,-23
36.27500,-24
36.28333,-23
36.29167,-23
36.30000,-23
36.30833,-23
36.31667,-23
36.32500,-23
36.33333,-23
36.34167,-23
36.35000,-23
36.35833,-23
36.36667,-23
36.37500,-24
36.38333,-24
36.39167,-24
36.40000,-24
36.40833,-24
36.41667,-24
36.42500,-24
36.43333,-25
36.44167,-25
36.45000,-24
36.45833,-24
36.46667,-24
36.47500,-24
36.48333,-24
36.49167,-24
36.50000,-24
36.50833,-23
36.51667,-23
36.52500,-23
36.53333,-23
36.54167,-23
36.55000,-23
36.55833,-23
36.56667,-23
36.57500,-23
36.58333,-23
36.59167,-22
36.60000,-22
36.60833,-22
36.61667,-22
36.62500,-22
36.63333,-22
36.64167,-22
36.65000,-22
36.65833,-23
36.66667,-23
36.67500,-23
36.68333,-23
36.69167,-23
36.70000,-23
36.70833,-22
36.71667,-22
36.72500,-23
36.73333,-23
36.74167,-23
36.75000,-23
36.75833,-23
36.76667,-23
36.77500,-23
36.78333,-24
36.79167,-24
36.80000,-24
36.80833,-24
36.81667,-24
36.82500,-23
36.83333,-23
36.84167,-23
36.85000,-23
36.85833,-22
36.86667,-23
36.87500,-23
36.88333,-23
36.89167,-23
36.90000,-23
36.90833,-24
36.91667,-24
36.92500,-24
36.93333,-24
36.94167,-24
36.95000,-24
36.95833,-24
36.96667,-24
36.97500,-24
36.98333,-24
36.99167,-23
37.00000,-23
37.00833,-23
37.01667,-23
37.02500,-22
37.03333,-22
37.04167,-22
37.05000,-22
37.05833,-22
37.06667,-23
37.07500,-23
37.08333,-23
37.09167,-23
37.10000,-23
37.10833,-23
37.11667,-24
37.12500,-24
37.13333,-24
37.14167,-24
37.15000,-24
37.15833,-24
37.16667,-24
37.17500,-24
37.18333,-25
37.19167,-25
37.20000,-25
37.20833,-24
37.21667,-24
37.22500,-25
37.23333,-25
37.24167,-24
37.25000,-24
37.25833,-24
37.26667,-24
37.27500,-24
37.28333,-24
37.29167,-24
37.30000,-25
37.30833,-25
37.31667,-25
37.32500,-25
37.33333,-25
37.34167,-25
37.35000,-25
37.35833,-25
37.36667,-25
37.37500,-25
37.38333,-25
37.39167,-24
37.40000,-24
37.40833,-24
37.41667,-24
37.42500,-24
37.43333,-24
37.44167,-25
37.45000,-25
37.45833,-25
37.46667,-25
37.47500,-25
37.48333,-25
37.49167,-25
37.50000,-25
37.50833,-25
37.51667,-25
37.52500,-25
37.53333,-25
37.54167,-25
37.55000,-25
37.55833,-26
37.56667,-26
37.57500,-26
37.58333,-26
37.59167,-26
37.60000,-25
37.60833,-25
37.61667,-25
37.62500,-25
37.63333,-25
37.64167,-25
37.65000,-25
37.65833,-25
37.66667,-25
37.67500,-25
37.68333,-25
37.69167,-25
37.70000,-25
37.70833,-25
37.71667,-25
37.72500,-25
37.73333,-25
37.74167,-25
37.75000,-25
37.75833,-25
37.76667,-25
37.77500,-25
37.78333,-25
37.79167,-25
37.80000,-25
37.80833,-26
37.81667,-26
37.82500,-25
37.83333,-25
37.84167,-25
37.85000,-26
37.85833,-25
37.86667,-25
37.87500,-25
37.88333,-25
37.89167,-25
37.90000,-25
37.90833,-25
37.91667,-25
37.92500,-25
37.93333,-25
37.94167,-25
37.95000,-25
37.95833,-26
37.96667,-26
37.97500,-25
37.98333,-25
37.99167,-25
38.00000,-25
38.00833,-26
38.01667,-26
38.02500,-25
38.03333,-25
38.04167,-25
38.05000,-25
38.05833,-25
38.06667,-25
38.07500,-25
38.08333,-25
38.09167,-25
38.10000,-25
38.10833,-25
38.11667,-25
38.12500,-25
38.13333,-25
38.14167,-25
38.15000,-25
38.15833,-25
38.16667,-26
38.17500,-26
38.18333,-26
38.19167,-26
38.20000,-26
38.20833,-26
38.21667,-26
38.22500,-25
38.23333,-25
38.24167,-25
38.25000,-25
38.25833,-25
38.26667,-25
38.27500,-25
38.28333,-25
38.29167,-26
38.30000,-26
38.30833,-26
38.31667,-26
38.32500,-26
38.33333,-26
38.34167,-26
38.35000,-26
38.35833,-26
38.36667,-26
38.37500,-26
38.38333,-26
38.39167,-26
38.40000,-26
38.40833,-26
38.41667,-26
38.42500,-26
38.43333,-26
38.44167,-26
38.45000,-26
38.45833,-26
38.46667,-26
38.47500,-26
38.48333,-26
38.49167,-26
38.50000,-26
38.50833,-26
38.51667,-26
38.52500,-26
38.53333,-26
38.54167,-26
38.55000,-25
38.55833,-25
38.56667,-26
38.57500,-26
38.58333,-26
38.59167,-26
38.60000,-26
38.60833,-26
38.61667,-25
38.62500,-26
38.63333,-26
38.64167,-26
38.65000,-26
38.65833,-26
38.66667,-26
38.67500,-26
38.68333,-26
38.69167,-26
38.70000,-26
38.70833,-26
38.71667,-26
38.72500,-25
38.73333,-25
38.74167,-25
38.75000,-25
38.75833,-25
38.76667,-25
38.77500,-25
38.78333,-25
38.79167,-26
38.80000,-26
38.80833,-27
38.81667,-27
38.82500,-27
38.83333,-27
38.84167,-27
38.85000,-26
38.85833,-26
38.86667,-26
38.87500,-26
38.88333,-26
38.89167,-25
38.90000,-25
38.90833,-25
38.91667,-25
38.92500,-25
38.93333,-25
38.94167,-25
38.95000,-25
38.95833,-25
38.96667,-25
38.97500,-26
38.98333,-26
38.99167,-26
39.00000,-26
39.00833,-26
39.01667,-26
39.02500,-26
39.03333,-26
39.04167,-26
39.05000,-26
39.05833,-26
39.06667,-26
39.07500,-26
39.08333,-26
39.09167,-26
39.10000,-26
39.10833,-26
39.11667,-27
39.12500,-27
39.13333,-27
39.14167,-27
39.15000,-27
39.15833,-27
39.16667,-27
39.17500,-27
39.18333,-27
39.19167,-27
39.20000,-27
39.20833,-27
39.21667,-27
39.22500,-27
39.23333,-27
39.24167,-27
39.25000,-27
39.25833,-27
39.26667,-27
39.27500,-27
39.28333,-27
39.29167,-28
39.30000,-28
39.30833,-28
39.31667,-28
39.32500,-28
39.33333,-28
39.34167,-28
39.35000,-28
39.35833,-28
39.36667,-28
39.37500,-27
39.38333,-27
39.39167,-27
39.40000,-27
39.40833,-27
39.41667,-27
39.42500,-27
39.43333,-27
39.44167,-27
39.45000,-27
39.45833,-27
39.46667,-27
39.47500,-28
39.48333,-28
39.49167,-28
39.50000,-28
39.50833,-27
39.51667,-27
39.52500,-27
39.53333,-27
39.54167,-27
39.55000,-27
39.55833,-27
39.56667,-27
39.57500,-27
39.58333,-27
39.59167,-27
39.60000,-27
39.60833,-28
39.61667,-27
39.62500,-28
39.63333,-28
39.64167,-28
39.65000,-28
39.65833,-27
39.66667,-27
39.67500,-27
39.68333,-27
39.69167,-28
39.70000,-28
39.70833,-28
39.71667,-28
39.72500,-28
39.73333,-28
39.74167,-28
39.75000,-28
39.75833,-27
39.76667,-28
39.77500,-28
39.78333,-28
39.79167,-28
39.80000,-28
39.80833,-28
39.81667,-28
39.82500,-28
39.83333,-28
39.84167,-28
39.85000,-28
39.85833,-29
39.86667,-29
39.87500,-29
39.88333,-29
39.89167,-29
39.90000,-29
39.90833,-29
39.91667,-29
39.92500,-29
39.93333,-29
39.94167,-29
39.95000,-29
39.95833,-30
39.96667,-29
39.97500,-29
39.98333,-29
39.99167,-29
40.00000,-29

