[Header]
Application Name,LabSolutions
Version,5.97 SP1
Data File Name,C:\Users\cremerlab\Desktop\griffin\2021-03-31_NCM3722_NCglucose_turnover\2021-03-31_NCM3722_turnover_batch_3312021_004_032.lcd
Output Date,4/1/2021
Output Time,6:46:21 PM

[File Information]
Type,Data File
Generated,4/1/2021 6:06:01 PM
Generated by,System Administrator
Modified,4/1/2021 6:46:21 PM
Modified by,System Administrator

[Sample Information]
Operator Name,System Administrator
Acquired,4/1/2021 6:06:20 PM
Sample Type,1:Standard
Level,4
Sample Name,2021-03-31_glucose_glycerol_acetate_calibration_15mM
Sample ID,004
ISTD Amount1,1
ISTD Amount2,1
ISTD Amount3,1
ISTD Amount4,1
ISTD Amount5,1
ISTD Amount6,1
ISTD Amount7,1
ISTD Amount8,1
ISTD Amount9,1
ISTD Amount10,1
ISTD Amount11,1
ISTD Amount12,1
ISTD Amount13,1
ISTD Amount14,1
ISTD Amount15,1
ISTD Amount16,1
ISTD Amount17,1
ISTD Amount18,1
ISTD Amount19,1
ISTD Amount20,1
ISTD Amount21,1
ISTD Amount22,1
ISTD Amount23,1
ISTD Amount24,1
ISTD Amount25,1
ISTD Amount26,1
ISTD Amount27,1
ISTD Amount28,1
ISTD Amount29,1
ISTD Amount30,1
ISTD Amount31,1
ISTD Amount32,1
Sample Amount,1
Dilution Factor,1
Vial#,4
Injection Volume,20

[Original Files]
Data File,C:\Users\cremerlab\Desktop\griffin\2021-03-31_NCM3722_NCglucose_turnover\2021-03-31_NCM3722_turnover_batch_3312021_004_032.lcd
Method File,C:\LabSolutions\Data\Project1\organicacidsetc2.lcm
Batch File,C:\Users\cremerlab\Desktop\griffin\2021-03-31_NCM3722_NCglucose_turnover\2021-03-31_NCM3722_turnover_batch.lcb
Report Format File,c:\LabSolutions\System\DEFAULT.lsr

[File Description]


[Configuration]
Instrument Name,HPLC-PC-Instrument1
Instrument #,1
Line #,1
# of Detectors,2
Detector ID,Detector A,Detector B
Detector Name,Detector A,Detector B
# of Channels,1,1

[Peak Table(Detector A)]
# of Peaks,0

[Peak Table(Detector B)]
# of Peaks,3
Peak#,R.Time,I.Time,F.Time,Area,Height,A/H,Conc.,Mark,ID#,Name,k',Plate #,Plate Ht.,Tailing,Resolution,Sep.Factor,Area Ratio,Height Ratio,Conc. %,Norm Conc.
1,15.649,14.967,17.700,1581346,65356,24.196,0.000,   ,,,0.000,9762,15.366,1.154,0.000,0.000,0,0,0.000,0.000
2,22.076,21.350,23.425,441792,16320,27.070,0.000,   ,,,0.411,15409,9.735,1.092,9.557,0.000,0,0,0.000,0.000
3,25.062,24.325,26.033,180605,6163,29.307,0.000,   ,,,0.602,16752,8.954,1.064,4.020,1.465,0,0,0.000,0.000

[LC Chromatogram(Detector B-Ch1)]
Interval(msec),500
# of Points,4801
Start Time(min),0.000
End Time(min),40.000
Intensity Units,mV
Intensity Multiplier,0.001
R.Time (min),Intensity
0.00000,1
0.00833,1
0.01667,-0
0.02500,-0
0.03333,-0
0.04167,-0
0.05000,-0
0.05833,-0
0.06667,-0
0.07500,-0
0.08333,-0
0.09167,-0
0.10000,-0
0.10833,-1
0.11667,-1
0.12500,-1
0.13333,-1
0.14167,-1
0.15000,-1
0.15833,-1
0.16667,-1
0.17500,-1
0.18333,-1
0.19167,-1
0.20000,-1
0.20833,-1
0.21667,-0
0.22500,-0
0.23333,-0
0.24167,-0
0.25000,-0
0.25833,0
0.26667,0
0.27500,0
0.28333,0
0.29167,1
0.30000,1
0.30833,1
0.31667,0
0.32500,0
0.33333,0
0.34167,-0
0.35000,-1
0.35833,-1
0.36667,-1
0.37500,-1
0.38333,-0
0.39167,-0
0.40000,0
0.40833,0
0.41667,0
0.42500,1
0.43333,0
0.44167,0
0.45000,0
0.45833,1
0.46667,1
0.47500,1
0.48333,1
0.49167,1
0.50000,1
0.50833,1
0.51667,2
0.52500,2
0.53333,2
0.54167,2
0.55000,2
0.55833,2
0.56667,2
0.57500,2
0.58333,2
0.59167,2
0.60000,2
0.60833,2
0.61667,1
0.62500,1
0.63333,1
0.64167,1
0.65000,1
0.65833,0
0.66667,0
0.67500,-0
0.68333,-0
0.69167,-0
0.70000,0
0.70833,0
0.71667,0
0.72500,0
0.73333,0
0.74167,0
0.75000,0
0.75833,0
0.76667,-0
0.77500,-0
0.78333,0
0.79167,0
0.80000,0
0.80833,1
0.81667,1
0.82500,1
0.83333,1
0.84167,1
0.85000,1
0.85833,1
0.86667,1
0.87500,1
0.88333,1
0.89167,1
0.90000,1
0.90833,1
0.91667,1
0.92500,1
0.93333,1
0.94167,2
0.95000,2
0.95833,2
0.96667,1
0.97500,1
0.98333,1
0.99167,1
1.00000,2
1.00833,2
1.01667,2
1.02500,2
1.03333,2
1.04167,2
1.05000,2
1.05833,2
1.06667,2
1.07500,2
1.08333,1
1.09167,1
1.10000,2
1.10833,2
1.11667,2
1.12500,2
1.13333,2
1.14167,2
1.15000,2
1.15833,2
1.16667,2
1.17500,2
1.18333,2
1.19167,2
1.20000,2
1.20833,2
1.21667,2
1.22500,2
1.23333,1
1.24167,1
1.25000,2
1.25833,2
1.26667,2
1.27500,2
1.28333,2
1.29167,2
1.30000,2
1.30833,2
1.31667,2
1.32500,2
1.33333,3
1.34167,3
1.35000,3
1.35833,3
1.36667,3
1.37500,3
1.38333,3
1.39167,3
1.40000,4
1.40833,4
1.41667,4
1.42500,4
1.43333,4
1.44167,4
1.45000,4
1.45833,4
1.46667,4
1.47500,4
1.48333,5
1.49167,5
1.50000,5
1.50833,5
1.51667,5
1.52500,4
1.53333,4
1.54167,4
1.55000,4
1.55833,4
1.56667,4
1.57500,4
1.58333,4
1.59167,3
1.60000,3
1.60833,3
1.61667,3
1.62500,3
1.63333,4
1.64167,4
1.65000,4
1.65833,4
1.66667,5
1.67500,5
1.68333,5
1.69167,4
1.70000,4
1.70833,4
1.71667,4
1.72500,4
1.73333,4
1.74167,4
1.75000,4
1.75833,4
1.76667,4
1.77500,4
1.78333,4
1.79167,4
1.80000,3
1.80833,3
1.81667,4
1.82500,4
1.83333,5
1.84167,5
1.85000,5
1.85833,5
1.86667,5
1.87500,5
1.88333,5
1.89167,5
1.90000,5
1.90833,5
1.91667,5
1.92500,4
1.93333,4
1.94167,4
1.95000,4
1.95833,4
1.96667,4
1.97500,4
1.98333,5
1.99167,5
2.00000,5
2.00833,5
2.01667,4
2.02500,4
2.03333,4
2.04167,4
2.05000,4
2.05833,4
2.06667,4
2.07500,4
2.08333,4
2.09167,5
2.10000,5
2.10833,5
2.11667,5
2.12500,5
2.13333,6
2.14167,6
2.15000,6
2.15833,6
2.16667,5
2.17500,5
2.18333,5
2.19167,5
2.20000,5
2.20833,5
2.21667,5
2.22500,5
2.23333,4
2.24167,4
2.25000,4
2.25833,4
2.26667,4
2.27500,4
2.28333,4
2.29167,4
2.30000,5
2.30833,5
2.31667,5
2.32500,5
2.33333,5
2.34167,5
2.35000,5
2.35833,5
2.36667,5
2.37500,5
2.38333,5
2.39167,5
2.40000,5
2.40833,5
2.41667,5
2.42500,5
2.43333,5
2.44167,5
2.45000,5
2.45833,5
2.46667,5
2.47500,5
2.48333,5
2.49167,4
2.50000,5
2.50833,5
2.51667,5
2.52500,5
2.53333,5
2.54167,6
2.55000,6
2.55833,6
2.56667,6
2.57500,6
2.58333,6
2.59167,6
2.60000,7
2.60833,7
2.61667,7
2.62500,7
2.63333,7
2.64167,7
2.65000,7
2.65833,6
2.66667,7
2.67500,7
2.68333,7
2.69167,7
2.70000,7
2.70833,6
2.71667,6
2.72500,6
2.73333,6
2.74167,6
2.75000,6
2.75833,7
2.76667,7
2.77500,7
2.78333,7
2.79167,8
2.80000,8
2.80833,8
2.81667,8
2.82500,8
2.83333,8
2.84167,8
2.85000,8
2.85833,7
2.86667,7
2.87500,7
2.88333,7
2.89167,7
2.90000,7
2.90833,7
2.91667,7
2.92500,7
2.93333,6
2.94167,6
2.95000,6
2.95833,6
2.96667,6
2.97500,6
2.98333,6
2.99167,6
3.00000,6
3.00833,6
3.01667,7
3.02500,7
3.03333,7
3.04167,7
3.05000,8
3.05833,8
3.06667,8
3.07500,7
3.08333,7
3.09167,7
3.10000,7
3.10833,7
3.11667,7
3.12500,7
3.13333,7
3.14167,7
3.15000,7
3.15833,7
3.16667,7
3.17500,7
3.18333,7
3.19167,7
3.20000,7
3.20833,7
3.21667,7
3.22500,7
3.23333,8
3.24167,8
3.25000,8
3.25833,8
3.26667,8
3.27500,7
3.28333,8
3.29167,8
3.30000,8
3.30833,8
3.31667,8
3.32500,8
3.33333,8
3.34167,8
3.35000,8
3.35833,9
3.36667,9
3.37500,9
3.38333,9
3.39167,9
3.40000,9
3.40833,8
3.41667,8
3.42500,8
3.43333,8
3.44167,8
3.45000,9
3.45833,9
3.46667,9
3.47500,9
3.48333,9
3.49167,9
3.50000,9
3.50833,9
3.51667,9
3.52500,9
3.53333,9
3.54167,10
3.55000,10
3.55833,10
3.56667,10
3.57500,10
3.58333,10
3.59167,10
3.60000,9
3.60833,9
3.61667,9
3.62500,9
3.63333,9
3.64167,9
3.65000,9
3.65833,9
3.66667,9
3.67500,9
3.68333,9
3.69167,9
3.70000,9
3.70833,9
3.71667,9
3.72500,9
3.73333,9
3.74167,9
3.75000,9
3.75833,9
3.76667,9
3.77500,10
3.78333,10
3.79167,10
3.80000,10
3.80833,10
3.81667,10
3.82500,10
3.83333,10
3.84167,10
3.85000,10
3.85833,10
3.86667,10
3.87500,10
3.88333,10
3.89167,10
3.90000,10
3.90833,10
3.91667,9
3.92500,9
3.93333,9
3.94167,9
3.95000,9
3.95833,9
3.96667,9
3.97500,9
3.98333,10
3.99167,10
4.00000,10
4.00833,11
4.01667,11
4.02500,11
4.03333,10
4.04167,10
4.05000,10
4.05833,10
4.06667,10
4.07500,10
4.08333,10
4.09167,10
4.10000,10
4.10833,10
4.11667,11
4.12500,11
4.13333,11
4.14167,11
4.15000,10
4.15833,10
4.16667,10
4.17500,10
4.18333,10
4.19167,10
4.20000,11
4.20833,11
4.21667,11
4.22500,11
4.23333,11
4.24167,11
4.25000,11
4.25833,11
4.26667,11
4.27500,11
4.28333,10
4.29167,11
4.30000,11
4.30833,11
4.31667,11
4.32500,11
4.33333,12
4.34167,11
4.35000,11
4.35833,11
4.36667,11
4.37500,10
4.38333,10
4.39167,10
4.40000,10
4.40833,9
4.41667,9
4.42500,10
4.43333,11
4.44167,11
4.45000,12
4.45833,12
4.46667,12
4.47500,12
4.48333,12
4.49167,12
4.50000,11
4.50833,11
4.51667,11
4.52500,11
4.53333,12
4.54167,12
4.55000,12
4.55833,11
4.56667,11
4.57500,11
4.58333,11
4.59167,11
4.60000,12
4.60833,12
4.61667,12
4.62500,12
4.63333,12
4.64167,11
4.65000,11
4.65833,11
4.66667,11
4.67500,12
4.68333,12
4.69167,12
4.70000,12
4.70833,12
4.71667,13
4.72500,13
4.73333,13
4.74167,13
4.75000,13
4.75833,13
4.76667,13
4.77500,13
4.78333,13
4.79167,13
4.80000,13
4.80833,13
4.81667,13
4.82500,13
4.83333,13
4.84167,13
4.85000,13
4.85833,14
4.86667,13
4.87500,13
4.88333,13
4.89167,13
4.90000,13
4.90833,13
4.91667,13
4.92500,13
4.93333,14
4.94167,14
4.95000,14
4.95833,14
4.96667,14
4.97500,13
4.98333,13
4.99167,13
5.00000,14
5.00833,14
5.01667,14
5.02500,14
5.03333,14
5.04167,14
5.05000,14
5.05833,14
5.06667,13
5.07500,13
5.08333,13
5.09167,13
5.10000,13
5.10833,14
5.11667,14
5.12500,14
5.13333,14
5.14167,14
5.15000,14
5.15833,14
5.16667,14
5.17500,14
5.18333,14
5.19167,14
5.20000,14
5.20833,14
5.21667,14
5.22500,13
5.23333,13
5.24167,14
5.25000,14
5.25833,14
5.26667,14
5.27500,14
5.28333,14
5.29167,14
5.30000,14
5.30833,14
5.31667,14
5.32500,14
5.33333,14
5.34167,14
5.35000,13
5.35833,13
5.36667,13
5.37500,13
5.38333,14
5.39167,14
5.40000,14
5.40833,14
5.41667,15
5.42500,15
5.43333,15
5.44167,15
5.45000,15
5.45833,15
5.46667,15
5.47500,15
5.48333,15
5.49167,15
5.50000,15
5.50833,15
5.51667,16
5.52500,16
5.53333,15
5.54167,15
5.55000,15
5.55833,14
5.56667,14
5.57500,14
5.58333,14
5.59167,14
5.60000,14
5.60833,14
5.61667,14
5.62500,14
5.63333,14
5.64167,14
5.65000,14
5.65833,15
5.66667,15
5.67500,15
5.68333,15
5.69167,15
5.70000,15
5.70833,16
5.71667,16
5.72500,16
5.73333,16
5.74167,16
5.75000,15
5.75833,15
5.76667,15
5.77500,15
5.78333,15
5.79167,15
5.80000,15
5.80833,15
5.81667,15
5.82500,15
5.83333,15
5.84167,15
5.85000,15
5.85833,15
5.86667,15
5.87500,15
5.88333,15
5.89167,15
5.90000,15
5.90833,15
5.91667,15
5.92500,15
5.93333,15
5.94167,15
5.95000,16
5.95833,16
5.96667,16
5.97500,16
5.98333,15
5.99167,15
6.00000,16
6.00833,16
6.01667,16
6.02500,16
6.03333,16
6.04167,16
6.05000,16
6.05833,16
6.06667,15
6.07500,15
6.08333,15
6.09167,15
6.10000,15
6.10833,16
6.11667,16
6.12500,16
6.13333,16
6.14167,16
6.15000,16
6.15833,16
6.16667,16
6.17500,16
6.18333,16
6.19167,16
6.20000,16
6.20833,16
6.21667,17
6.22500,17
6.23333,17
6.24167,17
6.25000,17
6.25833,17
6.26667,17
6.27500,17
6.28333,17
6.29167,17
6.30000,16
6.30833,16
6.31667,16
6.32500,17
6.33333,17
6.34167,17
6.35000,17
6.35833,17
6.36667,17
6.37500,17
6.38333,16
6.39167,16
6.40000,16
6.40833,16
6.41667,16
6.42500,16
6.43333,16
6.44167,16
6.45000,16
6.45833,16
6.46667,16
6.47500,16
6.48333,17
6.49167,17
6.50000,17
6.50833,17
6.51667,17
6.52500,17
6.53333,17
6.54167,16
6.55000,16
6.55833,16
6.56667,17
6.57500,17
6.58333,17
6.59167,17
6.60000,17
6.60833,17
6.61667,17
6.62500,17
6.63333,18
6.64167,18
6.65000,18
6.65833,18
6.66667,18
6.67500,18
6.68333,18
6.69167,18
6.70000,18
6.70833,18
6.71667,18
6.72500,18
6.73333,18
6.74167,18
6.75000,18
6.75833,18
6.76667,18
6.77500,18
6.78333,18
6.79167,18
6.80000,18
6.80833,18
6.81667,17
6.82500,17
6.83333,17
6.84167,17
6.85000,18
6.85833,18
6.86667,18
6.87500,18
6.88333,18
6.89167,18
6.90000,18
6.90833,18
6.91667,17
6.92500,17
6.93333,18
6.94167,18
6.95000,18
6.95833,19
6.96667,19
6.97500,19
6.98333,19
6.99167,19
7.00000,19
7.00833,19
7.01667,19
7.02500,18
7.03333,18
7.04167,18
7.05000,18
7.05833,18
7.06667,18
7.07500,18
7.08333,18
7.09167,18
7.10000,19
7.10833,19
7.11667,19
7.12500,19
7.13333,19
7.14167,19
7.15000,19
7.15833,19
7.16667,19
7.17500,19
7.18333,19
7.19167,19
7.20000,19
7.20833,19
7.21667,19
7.22500,19
7.23333,19
7.24167,19
7.25000,19
7.25833,19
7.26667,20
7.27500,20
7.28333,20
7.29167,20
7.30000,20
7.30833,20
7.31667,20
7.32500,20
7.33333,20
7.34167,20
7.35000,19
7.35833,19
7.36667,19
7.37500,20
7.38333,20
7.39167,20
7.40000,20
7.40833,20
7.41667,20
7.42500,20
7.43333,20
7.44167,21
7.45000,20
7.45833,20
7.46667,20
7.47500,21
7.48333,21
7.49167,21
7.50000,21
7.50833,20
7.51667,20
7.52500,20
7.53333,20
7.54167,21
7.55000,21
7.55833,20
7.56667,20
7.57500,21
7.58333,21
7.59167,20
7.60000,20
7.60833,20
7.61667,20
7.62500,20
7.63333,20
7.64167,20
7.65000,20
7.65833,20
7.66667,21
7.67500,21
7.68333,21
7.69167,21
7.70000,21
7.70833,21
7.71667,21
7.72500,20
7.73333,20
7.74167,20
7.75000,20
7.75833,20
7.76667,21
7.77500,21
7.78333,21
7.79167,21
7.80000,21
7.80833,21
7.81667,21
7.82500,21
7.83333,21
7.84167,21
7.85000,21
7.85833,21
7.86667,21
7.87500,21
7.88333,22
7.89167,22
7.90000,22
7.90833,22
7.91667,22
7.92500,22
7.93333,22
7.94167,22
7.95000,22
7.95833,22
7.96667,22
7.97500,22
7.98333,21
7.99167,21
8.00000,21
8.00833,22
8.01667,22
8.02500,22
8.03333,22
8.04167,22
8.05000,22
8.05833,22
8.06667,22
8.07500,22
8.08333,22
8.09167,22
8.10000,22
8.10833,22
8.11667,22
8.12500,22
8.13333,23
8.14167,23
8.15000,23
8.15833,23
8.16667,23
8.17500,22
8.18333,23
8.19167,23
8.20000,23
8.20833,22
8.21667,22
8.22500,22
8.23333,22
8.24167,22
8.25000,22
8.25833,22
8.26667,22
8.27500,22
8.28333,22
8.29167,23
8.30000,22
8.30833,22
8.31667,22
8.32500,23
8.33333,23
8.34167,23
8.35000,23
8.35833,23
8.36667,23
8.37500,23
8.38333,23
8.39167,24
8.40000,24
8.40833,24
8.41667,24
8.42500,23
8.43333,23
8.44167,23
8.45000,23
8.45833,23
8.46667,23
8.47500,23
8.48333,23
8.49167,23
8.50000,23
8.50833,23
8.51667,23
8.52500,24
8.53333,24
8.54167,24
8.55000,24
8.55833,24
8.56667,24
8.57500,24
8.58333,24
8.59167,24
8.60000,24
8.60833,24
8.61667,24
8.62500,24
8.63333,25
8.64167,25
8.65000,25
8.65833,24
8.66667,24
8.67500,24
8.68333,24
8.69167,23
8.70000,23
8.70833,23
8.71667,23
8.72500,23
8.73333,23
8.74167,24
8.75000,24
8.75833,24
8.76667,23
8.77500,23
8.78333,23
8.79167,23
8.80000,24
8.80833,24
8.81667,24
8.82500,24
8.83333,25
8.84167,25
8.85000,25
8.85833,24
8.86667,24
8.87500,24
8.88333,24
8.89167,24
8.90000,24
8.90833,24
8.91667,24
8.92500,24
8.93333,24
8.94167,24
8.95000,23
8.95833,23
8.96667,24
8.97500,24
8.98333,24
8.99167,25
9.00000,24
9.00833,24
9.01667,24
9.02500,24
9.03333,24
9.04167,25
9.05000,25
9.05833,25
9.06667,25
9.07500,25
9.08333,25
9.09167,25
9.10000,25
9.10833,25
9.11667,25
9.12500,24
9.13333,24
9.14167,25
9.15000,24
9.15833,24
9.16667,24
9.17500,24
9.18333,24
9.19167,24
9.20000,24
9.20833,24
9.21667,24
9.22500,24
9.23333,24
9.24167,25
9.25000,25
9.25833,25
9.26667,25
9.27500,25
9.28333,25
9.29167,25
9.30000,25
9.30833,25
9.31667,25
9.32500,25
9.33333,25
9.34167,25
9.35000,25
9.35833,25
9.36667,25
9.37500,25
9.38333,25
9.39167,25
9.40000,25
9.40833,25
9.41667,24
9.42500,24
9.43333,24
9.44167,24
9.45000,24
9.45833,24
9.46667,25
9.47500,25
9.48333,25
9.49167,25
9.50000,26
9.50833,26
9.51667,26
9.52500,25
9.53333,25
9.54167,25
9.55000,25
9.55833,25
9.56667,25
9.57500,25
9.58333,25
9.59167,25
9.60000,25
9.60833,25
9.61667,25
9.62500,25
9.63333,25
9.64167,25
9.65000,25
9.65833,25
9.66667,26
9.67500,26
9.68333,25
9.69167,25
9.70000,25
9.70833,26
9.71667,26
9.72500,26
9.73333,26
9.74167,26
9.75000,26
9.75833,26
9.76667,26
9.77500,26
9.78333,26
9.79167,26
9.80000,26
9.80833,26
9.81667,27
9.82500,27
9.83333,27
9.84167,26
9.85000,26
9.85833,26
9.86667,26
9.87500,26
9.88333,26
9.89167,26
9.90000,26
9.90833,26
9.91667,27
9.92500,27
9.93333,27
9.94167,27
9.95000,27
9.95833,27
9.96667,27
9.97500,27
9.98333,27
9.99167,27
10.00000,28
10.00833,28
10.01667,28
10.02500,28
10.03333,28
10.04167,28
10.05000,28
10.05833,28
10.06667,29
10.07500,28
10.08333,27
10.09167,27
10.10000,27
10.10833,27
10.11667,27
10.12500,26
10.13333,26
10.14167,25
10.15000,25
10.15833,26
10.16667,26
10.17500,26
10.18333,27
10.19167,27
10.20000,27
10.20833,27
10.21667,27
10.22500,27
10.23333,27
10.24167,27
10.25000,27
10.25833,26
10.26667,26
10.27500,26
10.28333,26
10.29167,26
10.30000,27
10.30833,27
10.31667,27
10.32500,27
10.33333,26
10.34167,26
10.35000,26
10.35833,26
10.36667,26
10.37500,27
10.38333,26
10.39167,26
10.40000,27
10.40833,27
10.41667,27
10.42500,28
10.43333,28
10.44167,28
10.45000,27
10.45833,27
10.46667,27
10.47500,26
10.48333,26
10.49167,26
10.50000,25
10.50833,25
10.51667,24
10.52500,23
10.53333,22
10.54167,21
10.55000,20
10.55833,19
10.56667,18
10.57500,16
10.58333,14
10.59167,10
10.60000,6
10.60833,-0
10.61667,-8
10.62500,-19
10.63333,-34
10.64167,-54
10.65000,-82
10.65833,-118
10.66667,-165
10.67500,-227
10.68333,-307
10.69167,-409
10.70000,-539
10.70833,-701
10.71667,-902
10.72500,-1148
10.73333,-1447
10.74167,-1804
10.75000,-2227
10.75833,-2721
10.76667,-3292
10.77500,-3943
10.78333,-4676
10.79167,-5490
10.80000,-6384
10.80833,-7351
10.81667,-8384
10.82500,-9472
10.83333,-10602
10.84167,-11760
10.85000,-12928
10.85833,-14088
10.86667,-15222
10.87500,-16312
10.88333,-17340
10.89167,-18290
10.90000,-19146
10.90833,-19896
10.91667,-20530
10.92500,-21039
10.93333,-21421
10.94167,-21670
10.95000,-21789
10.95833,-21779
10.96667,-21645
10.97500,-21395
10.98333,-21036
10.99167,-20577
11.00000,-20028
11.00833,-19402
11.01667,-18708
11.02500,-17957
11.03333,-17163
11.04167,-16334
11.05000,-15482
11.05833,-14617
11.06667,-13748
11.07500,-12882
11.08333,-12027
11.09167,-11190
11.10000,-10377
11.10833,-9591
11.11667,-8838
11.12500,-8120
11.13333,-7439
11.14167,-6798
11.15000,-6196
11.15833,-5634
11.16667,-5111
11.17500,-4628
11.18333,-4182
11.19167,-3774
11.20000,-3401
11.20833,-3061
11.21667,-2752
11.22500,-2473
11.23333,-2220
11.24167,-1993
11.25000,-1790
11.25833,-1607
11.26667,-1445
11.27500,-1299
11.28333,-1170
11.29167,-1055
11.30000,-953
11.30833,-862
11.31667,-782
11.32500,-711
11.33333,-647
11.34167,-591
11.35000,-540
11.35833,-495
11.36667,-455
11.37500,-420
11.38333,-388
11.39167,-360
11.40000,-335
11.40833,-312
11.41667,-292
11.42500,-273
11.43333,-257
11.44167,-241
11.45000,-227
11.45833,-214
11.46667,-202
11.47500,-192
11.48333,-182
11.49167,-173
11.50000,-165
11.50833,-157
11.51667,-150
11.52500,-143
11.53333,-137
11.54167,-131
11.55000,-125
11.55833,-120
11.56667,-115
11.57500,-111
11.58333,-106
11.59167,-102
11.60000,-98
11.60833,-94
11.61667,-91
11.62500,-87
11.63333,-84
11.64167,-81
11.65000,-78
11.65833,-75
11.66667,-72
11.67500,-69
11.68333,-67
11.69167,-65
11.70000,-63
11.70833,-61
11.71667,-59
11.72500,-57
11.73333,-55
11.74167,-53
11.75000,-51
11.75833,-50
11.76667,-48
11.77500,-47
11.78333,-45
11.79167,-44
11.80000,-42
11.80833,-40
11.81667,-39
11.82500,-37
11.83333,-36
11.84167,-35
11.85000,-33
11.85833,-32
11.86667,-30
11.87500,-29
11.88333,-28
11.89167,-26
11.90000,-25
11.90833,-24
11.91667,-23
11.92500,-22
11.93333,-21
11.94167,-20
11.95000,-19
11.95833,-18
11.96667,-18
11.97500,-17
11.98333,-17
11.99167,-16
12.00000,-16
12.00833,-15
12.01667,-14
12.02500,-13
12.03333,-12
12.04167,-12
12.05000,-11
12.05833,-11
12.06667,-10
12.07500,-10
12.08333,-10
12.09167,-10
12.10000,-10
12.10833,-10
12.11667,-10
12.12500,-9
12.13333,-9
12.14167,-9
12.15000,-9
12.15833,-8
12.16667,-8
12.17500,-8
12.18333,-8
12.19167,-8
12.20000,-8
12.20833,-8
12.21667,-8
12.22500,-8
12.23333,-8
12.24167,-8
12.25000,-8
12.25833,-8
12.26667,-8
12.27500,-8
12.28333,-8
12.29167,-8
12.30000,-7
12.30833,-7
12.31667,-7
12.32500,-7
12.33333,-6
12.34167,-6
12.35000,-6
12.35833,-5
12.36667,-5
12.37500,-5
12.38333,-5
12.39167,-5
12.40000,-4
12.40833,-4
12.41667,-4
12.42500,-3
12.43333,-3
12.44167,-3
12.45000,-3
12.45833,-3
12.46667,-3
12.47500,-3
12.48333,-3
12.49167,-3
12.50000,-2
12.50833,-2
12.51667,-1
12.52500,-1
12.53333,-0
12.54167,-0
12.55000,-0
12.55833,0
12.56667,1
12.57500,1
12.58333,1
12.59167,1
12.60000,2
12.60833,2
12.61667,2
12.62500,3
12.63333,3
12.64167,3
12.65000,3
12.65833,3
12.66667,4
12.67500,4
12.68333,4
12.69167,4
12.70000,5
12.70833,5
12.71667,5
12.72500,6
12.73333,6
12.74167,7
12.75000,7
12.75833,8
12.76667,8
12.77500,9
12.78333,10
12.79167,11
12.80000,12
12.80833,12
12.81667,13
12.82500,14
12.83333,15
12.84167,16
12.85000,17
12.85833,18
12.86667,19
12.87500,20
12.88333,21
12.89167,22
12.90000,22
12.90833,23
12.91667,24
12.92500,25
12.93333,27
12.94167,28
12.95000,29
12.95833,31
12.96667,32
12.97500,33
12.98333,34
12.99167,35
13.00000,36
13.00833,38
13.01667,39
13.02500,41
13.03333,43
13.04167,44
13.05000,45
13.05833,46
13.06667,46
13.07500,47
13.08333,48
13.09167,49
13.10000,50
13.10833,51
13.11667,52
13.12500,52
13.13333,53
13.14167,54
13.15000,54
13.15833,54
13.16667,54
13.17500,55
13.18333,55
13.19167,56
13.20000,57
13.20833,57
13.21667,58
13.22500,58
13.23333,58
13.24167,59
13.25000,59
13.25833,60
13.26667,59
13.27500,59
13.28333,59
13.29167,59
13.30000,58
13.30833,58
13.31667,57
13.32500,57
13.33333,57
13.34167,56
13.35000,55
13.35833,54
13.36667,53
13.37500,53
13.38333,52
13.39167,51
13.40000,50
13.40833,49
13.41667,48
13.42500,47
13.43333,46
13.44167,45
13.45000,44
13.45833,43
13.46667,42
13.47500,41
13.48333,40
13.49167,40
13.50000,39
13.50833,38
13.51667,37
13.52500,36
13.53333,35
13.54167,34
13.55000,33
13.55833,33
13.56667,32
13.57500,31
13.58333,31
13.59167,31
13.60000,30
13.60833,30
13.61667,29
13.62500,29
13.63333,28
13.64167,28
13.65000,28
13.65833,28
13.66667,28
13.67500,27
13.68333,27
13.69167,27
13.70000,27
13.70833,26
13.71667,25
13.72500,26
13.73333,26
13.74167,26
13.75000,26
13.75833,26
13.76667,25
13.77500,25
13.78333,24
13.79167,24
13.80000,25
13.80833,25
13.81667,25
13.82500,25
13.83333,24
13.84167,24
13.85000,24
13.85833,24
13.86667,24
13.87500,24
13.88333,24
13.89167,24
13.90000,24
13.90833,24
13.91667,25
13.92500,25
13.93333,25
13.94167,26
13.95000,26
13.95833,26
13.96667,26
13.97500,26
13.98333,26
13.99167,26
14.00000,26
14.00833,26
14.01667,26
14.02500,26
14.03333,26
14.04167,26
14.05000,26
14.05833,26
14.06667,26
14.07500,26
14.08333,26
14.09167,26
14.10000,26
14.10833,25
14.11667,25
14.12500,25
14.13333,25
14.14167,26
14.15000,26
14.15833,26
14.16667,26
14.17500,26
14.18333,26
14.19167,27
14.20000,27
14.20833,27
14.21667,27
14.22500,27
14.23333,27
14.24167,28
14.25000,28
14.25833,28
14.26667,28
14.27500,28
14.28333,28
14.29167,28
14.30000,28
14.30833,28
14.31667,27
14.32500,27
14.33333,27
14.34167,27
14.35000,27
14.35833,27
14.36667,27
14.37500,28
14.38333,28
14.39167,28
14.40000,29
14.40833,29
14.41667,29
14.42500,29
14.43333,29
14.44167,29
14.45000,29
14.45833,29
14.46667,29
14.47500,29
14.48333,29
14.49167,29
14.50000,29
14.50833,30
14.51667,30
14.52500,30
14.53333,30
14.54167,29
14.55000,29
14.55833,29
14.56667,30
14.57500,30
14.58333,30
14.59167,30
14.60000,30
14.60833,30
14.61667,30
14.62500,31
14.63333,31
14.64167,31
14.65000,31
14.65833,31
14.66667,31
14.67500,31
14.68333,31
14.69167,31
14.70000,31
14.70833,32
14.71667,32
14.72500,32
14.73333,32
14.74167,32
14.75000,33
14.75833,33
14.76667,32
14.77500,32
14.78333,32
14.79167,32
14.80000,32
14.80833,32
14.81667,32
14.82500,32
14.83333,32
14.84167,32
14.85000,32
14.85833,33
14.86667,33
14.87500,34
14.88333,34
14.89167,35
14.90000,36
14.90833,36
14.91667,37
14.92500,38
14.93333,39
14.94167,40
14.95000,41
14.95833,42
14.96667,43
14.97500,44
14.98333,45
14.99167,46
15.00000,48
15.00833,50
15.01667,52
15.02500,54
15.03333,57
15.04167,61
15.05000,65
15.05833,70
15.06667,76
15.07500,82
15.08333,90
15.09167,98
15.10000,108
15.10833,119
15.11667,133
15.12500,149
15.13333,168
15.14167,191
15.15000,218
15.15833,250
15.16667,289
15.17500,334
15.18333,388
15.19167,452
15.20000,527
15.20833,617
15.21667,722
15.22500,847
15.23333,992
15.24167,1163
15.25000,1361
15.25833,1593
15.26667,1860
15.27500,2168
15.28333,2522
15.29167,2927
15.30000,3388
15.30833,3910
15.31667,4499
15.32500,5160
15.33333,5898
15.34167,6719
15.35000,7627
15.35833,8627
15.36667,9724
15.37500,10920
15.38333,12217
15.39167,13617
15.40000,15121
15.40833,16727
15.41667,18435
15.42500,20239
15.43333,22137
15.44167,24121
15.45000,26184
15.45833,28318
15.46667,30511
15.47500,32754
15.48333,35032
15.49167,37333
15.50000,39640
15.50833,41939
15.51667,44215
15.52500,46450
15.53333,48627
15.54167,50732
15.55000,52747
15.55833,54657
15.56667,56447
15.57500,58104
15.58333,59615
15.59167,60969
15.60000,62156
15.60833,63166
15.61667,63995
15.62500,64636
15.63333,65089
15.64167,65350
15.65000,65422
15.65833,65306
15.66667,65006
15.67500,64527
15.68333,63876
15.69167,63063
15.70000,62096
15.70833,60985
15.71667,59741
15.72500,58377
15.73333,56903
15.74167,55333
15.75000,53679
15.75833,51955
15.76667,50171
15.77500,48342
15.78333,46479
15.79167,44592
15.80000,42694
15.80833,40793
15.81667,38900
15.82500,37024
15.83333,35171
15.84167,33351
15.85000,31568
15.85833,29829
15.86667,28139
15.87500,26501
15.88333,24920
15.89167,23398
15.90000,21937
15.90833,20538
15.91667,19203
15.92500,17932
15.93333,16724
15.94167,15580
15.95000,14498
15.95833,13478
15.96667,12517
15.97500,11615
15.98333,10769
15.99167,9977
16.00000,9237
16.00833,8547
16.01667,7905
16.02500,7307
16.03333,6753
16.04167,6239
16.05000,5763
16.05833,5323
16.06667,4916
16.07500,4542
16.08333,4196
16.09167,3879
16.10000,3586
16.10833,3318
16.11667,3071
16.12500,2844
16.13333,2636
16.14167,2446
16.15000,2271
16.15833,2111
16.16667,1964
16.17500,1830
16.18333,1707
16.19167,1594
16.20000,1492
16.20833,1398
16.21667,1312
16.22500,1233
16.23333,1161
16.24167,1094
16.25000,1034
16.25833,979
16.26667,928
16.27500,881
16.28333,839
16.29167,799
16.30000,762
16.30833,729
16.31667,699
16.32500,670
16.33333,644
16.34167,619
16.35000,597
16.35833,576
16.36667,556
16.37500,538
16.38333,521
16.39167,505
16.40000,491
16.40833,477
16.41667,464
16.42500,453
16.43333,442
16.44167,431
16.45000,422
16.45833,413
16.46667,406
16.47500,398
16.48333,390
16.49167,383
16.50000,376
16.50833,369
16.51667,363
16.52500,358
16.53333,352
16.54167,347
16.55000,343
16.55833,338
16.56667,333
16.57500,329
16.58333,325
16.59167,321
16.60000,317
16.60833,314
16.61667,310
16.62500,307
16.63333,303
16.64167,300
16.65000,298
16.65833,295
16.66667,292
16.67500,289
16.68333,287
16.69167,284
16.70000,282
16.70833,280
16.71667,278
16.72500,276
16.73333,273
16.74167,271
16.75000,269
16.75833,267
16.76667,265
16.77500,262
16.78333,261
16.79167,259
16.80000,257
16.80833,255
16.81667,253
16.82500,252
16.83333,249
16.84167,247
16.85000,245
16.85833,243
16.86667,241
16.87500,240
16.88333,238
16.89167,236
16.90000,235
16.90833,233
16.91667,231
16.92500,230
16.93333,228
16.94167,226
16.95000,224
16.95833,223
16.96667,221
16.97500,219
16.98333,218
16.99167,216
17.00000,214
17.00833,213
17.01667,211
17.02500,210
17.03333,208
17.04167,206
17.05000,204
17.05833,203
17.06667,201
17.07500,199
17.08333,197
17.09167,196
17.10000,194
17.10833,193
17.11667,191
17.12500,190
17.13333,188
17.14167,187
17.15000,186
17.15833,185
17.16667,184
17.17500,182
17.18333,181
17.19167,180
17.20000,179
17.20833,178
17.21667,177
17.22500,177
17.23333,176
17.24167,175
17.25000,174
17.25833,172
17.26667,171
17.27500,170
17.28333,169
17.29167,168
17.30000,167
17.30833,166
17.31667,165
17.32500,164
17.33333,163
17.34167,162
17.35000,161
17.35833,160
17.36667,159
17.37500,158
17.38333,158
17.39167,157
17.40000,157
17.40833,157
17.41667,156
17.42500,155
17.43333,155
17.44167,154
17.45000,153
17.45833,153
17.46667,152
17.47500,151
17.48333,151
17.49167,150
17.50000,150
17.50833,149
17.51667,149
17.52500,148
17.53333,148
17.54167,147
17.55000,147
17.55833,146
17.56667,146
17.57500,145
17.58333,145
17.59167,144
17.60000,143
17.60833,143
17.61667,142
17.62500,141
17.63333,141
17.64167,141
17.65000,140
17.65833,140
17.66667,139
17.67500,138
17.68333,138
17.69167,138
17.70000,137
17.70833,137
17.71667,137
17.72500,137
17.73333,136
17.74167,136
17.75000,135
17.75833,135
17.76667,135
17.77500,134
17.78333,134
17.79167,133
17.80000,133
17.80833,132
17.81667,132
17.82500,131
17.83333,131
17.84167,131
17.85000,130
17.85833,130
17.86667,130
17.87500,130
17.88333,129
17.89167,129
17.90000,129
17.90833,129
17.91667,128
17.92500,128
17.93333,127
17.94167,127
17.95000,127
17.95833,127
17.96667,127
17.97500,127
17.98333,126
17.99167,126
18.00000,125
18.00833,125
18.01667,124
18.02500,124
18.03333,124
18.04167,123
18.05000,122
18.05833,122
18.06667,121
18.07500,121
18.08333,121
18.09167,121
18.10000,121
18.10833,120
18.11667,120
18.12500,120
18.13333,120
18.14167,119
18.15000,119
18.15833,119
18.16667,118
18.17500,118
18.18333,117
18.19167,117
18.20000,116
18.20833,116
18.21667,116
18.22500,115
18.23333,115
18.24167,114
18.25000,114
18.25833,113
18.26667,113
18.27500,113
18.28333,112
18.29167,112
18.30000,111
18.30833,111
18.31667,110
18.32500,110
18.33333,110
18.34167,110
18.35000,109
18.35833,109
18.36667,109
18.37500,109
18.38333,108
18.39167,108
18.40000,108
18.40833,107
18.41667,107
18.42500,108
18.43333,108
18.44167,107
18.45000,107
18.45833,107
18.46667,107
18.47500,106
18.48333,106
18.49167,105
18.50000,104
18.50833,104
18.51667,104
18.52500,103
18.53333,103
18.54167,102
18.55000,102
18.55833,102
18.56667,102
18.57500,102
18.58333,102
18.59167,101
18.60000,101
18.60833,101
18.61667,101
18.62500,101
18.63333,101
18.64167,100
18.65000,100
18.65833,100
18.66667,100
18.67500,100
18.68333,100
18.69167,100
18.70000,100
18.70833,100
18.71667,101
18.72500,101
18.73333,101
18.74167,102
18.75000,102
18.75833,102
18.76667,102
18.77500,103
18.78333,103
18.79167,104
18.80000,104
18.80833,105
18.81667,106
18.82500,107
18.83333,107
18.84167,108
18.85000,109
18.85833,110
18.86667,110
18.87500,111
18.88333,111
18.89167,112
18.90000,113
18.90833,113
18.91667,114
18.92500,115
18.93333,116
18.94167,116
18.95000,117
18.95833,117
18.96667,118
18.97500,118
18.98333,118
18.99167,118
19.00000,118
19.00833,118
19.01667,117
19.02500,117
19.03333,116
19.04167,116
19.05000,115
19.05833,115
19.06667,114
19.07500,114
19.08333,113
19.09167,113
19.10000,112
19.10833,112
19.11667,111
19.12500,110
19.13333,109
19.14167,108
19.15000,107
19.15833,106
19.16667,105
19.17500,104
19.18333,103
19.19167,102
19.20000,102
19.20833,101
19.21667,100
19.22500,99
19.23333,97
19.24167,96
19.25000,95
19.25833,94
19.26667,93
19.27500,93
19.28333,92
19.29167,91
19.30000,90
19.30833,90
19.31667,89
19.32500,89
19.33333,88
19.34167,88
19.35000,87
19.35833,87
19.36667,86
19.37500,86
19.38333,85
19.39167,84
19.40000,84
19.40833,83
19.41667,83
19.42500,83
19.43333,83
19.44167,83
19.45000,83
19.45833,82
19.46667,82
19.47500,82
19.48333,82
19.49167,82
19.50000,81
19.50833,81
19.51667,81
19.52500,81
19.53333,80
19.54167,80
19.55000,80
19.55833,80
19.56667,80
19.57500,80
19.58333,80
19.59167,79
19.60000,79
19.60833,79
19.61667,79
19.62500,79
19.63333,79
19.64167,79
19.65000,79
19.65833,79
19.66667,79
19.67500,79
19.68333,79
19.69167,79
19.70000,79
19.70833,78
19.71667,78
19.72500,78
19.73333,78
19.74167,78
19.75000,78
19.75833,78
19.76667,78
19.77500,77
19.78333,77
19.79167,78
19.80000,78
19.80833,78
19.81667,78
19.82500,78
19.83333,77
19.84167,77
19.85000,76
19.85833,76
19.86667,76
19.87500,76
19.88333,76
19.89167,76
19.90000,76
19.90833,76
19.91667,76
19.92500,76
19.93333,76
19.94167,76
19.95000,76
19.95833,75
19.96667,75
19.97500,75
19.98333,75
19.99167,75
20.00000,74
20.00833,74
20.01667,74
20.02500,73
20.03333,73
20.04167,73
20.05000,73
20.05833,73
20.06667,73
20.07500,74
20.08333,74
20.09167,74
20.10000,74
20.10833,74
20.11667,74
20.12500,74
20.13333,74
20.14167,74
20.15000,74
20.15833,74
20.16667,74
20.17500,74
20.18333,74
20.19167,73
20.20000,73
20.20833,73
20.21667,73
20.22500,73
20.23333,73
20.24167,73
20.25000,73
20.25833,73
20.26667,72
20.27500,72
20.28333,72
20.29167,72
20.30000,72
20.30833,72
20.31667,72
20.32500,72
20.33333,72
20.34167,72
20.35000,72
20.35833,72
20.36667,72
20.37500,72
20.38333,72
20.39167,71
20.40000,71
20.40833,71
20.41667,71
20.42500,71
20.43333,70
20.44167,71
20.45000,71
20.45833,71
20.46667,71
20.47500,71
20.48333,70
20.49167,70
20.50000,70
20.50833,70
20.51667,70
20.52500,70
20.53333,71
20.54167,71
20.55000,71
20.55833,71
20.56667,71
20.57500,71
20.58333,71
20.59167,71
20.60000,71
20.60833,71
20.61667,71
20.62500,71
20.63333,71
20.64167,71
20.65000,71
20.65833,71
20.66667,71
20.67500,70
20.68333,70
20.69167,70
20.70000,70
20.70833,70
20.71667,69
20.72500,69
20.73333,69
20.74167,69
20.75000,69
20.75833,69
20.76667,69
20.77500,69
20.78333,69
20.79167,69
20.80000,69
20.80833,69
20.81667,70
20.82500,70
20.83333,70
20.84167,70
20.85000,70
20.85833,70
20.86667,70
20.87500,70
20.88333,70
20.89167,69
20.90000,69
20.90833,69
20.91667,69
20.92500,69
20.93333,69
20.94167,69
20.95000,68
20.95833,68
20.96667,68
20.97500,68
20.98333,68
20.99167,68
21.00000,68
21.00833,69
21.01667,68
21.02500,68
21.03333,68
21.04167,69
21.05000,69
21.05833,69
21.06667,69
21.07500,69
21.08333,69
21.09167,68
21.10000,68
21.10833,69
21.11667,69
21.12500,69
21.13333,69
21.14167,68
21.15000,68
21.15833,68
21.16667,68
21.17500,68
21.18333,68
21.19167,68
21.20000,68
21.20833,68
21.21667,68
21.22500,68
21.23333,68
21.24167,68
21.25000,69
21.25833,69
21.26667,70
21.27500,70
21.28333,71
21.29167,72
21.30000,73
21.30833,73
21.31667,74
21.32500,75
21.33333,75
21.34167,76
21.35000,77
21.35833,78
21.36667,79
21.37500,81
21.38333,83
21.39167,85
21.40000,87
21.40833,89
21.41667,92
21.42500,94
21.43333,98
21.44167,101
21.45000,105
21.45833,110
21.46667,116
21.47500,122
21.48333,129
21.49167,138
21.50000,147
21.50833,158
21.51667,170
21.52500,184
21.53333,200
21.54167,217
21.55000,236
21.55833,258
21.56667,284
21.57500,312
21.58333,344
21.59167,380
21.60000,420
21.60833,465
21.61667,516
21.62500,572
21.63333,635
21.64167,705
21.65000,783
21.65833,870
21.66667,967
21.67500,1073
21.68333,1190
21.69167,1319
21.70000,1461
21.70833,1616
21.71667,1784
21.72500,1968
21.73333,2168
21.74167,2384
21.75000,2617
21.75833,2868
21.76667,3136
21.77500,3422
21.78333,3726
21.79167,4050
21.80000,4391
21.80833,4751
21.81667,5128
21.82500,5522
21.83333,5933
21.84167,6360
21.85000,6801
21.85833,7255
21.86667,7720
21.87500,8195
21.88333,8678
21.89167,9166
21.90000,9657
21.90833,10150
21.91667,10642
21.92500,11129
21.93333,11610
21.94167,12082
21.95000,12541
21.95833,12987
21.96667,13414
21.97500,13822
21.98333,14208
21.99167,14568
22.00000,14902
22.00833,15206
22.01667,15479
22.02500,15719
22.03333,15925
22.04167,16096
22.05000,16231
22.05833,16328
22.06667,16389
22.07500,16412
22.08333,16398
22.09167,16348
22.10000,16261
22.10833,16139
22.11667,15983
22.12500,15795
22.13333,15575
22.14167,15326
22.15000,15049
22.15833,14747
22.16667,14422
22.17500,14075
22.18333,13709
22.19167,13327
22.20000,12930
22.20833,12521
22.21667,12102
22.22500,11676
22.23333,11245
22.24167,10810
22.25000,10374
22.25833,9938
22.26667,9505
22.27500,9075
22.28333,8651
22.29167,8233
22.30000,7824
22.30833,7424
22.31667,7033
22.32500,6654
22.33333,6287
22.34167,5931
22.35000,5589
22.35833,5260
22.36667,4944
22.37500,4641
22.38333,4353
22.39167,4077
22.40000,3816
22.40833,3568
22.41667,3334
22.42500,3112
22.43333,2903
22.44167,2706
22.45000,2522
22.45833,2348
22.46667,2186
22.47500,2034
22.48333,1892
22.49167,1760
22.50000,1637
22.50833,1522
22.51667,1416
22.52500,1317
22.53333,1226
22.54167,1141
22.55000,1063
22.55833,991
22.56667,924
22.57500,863
22.58333,806
22.59167,753
22.60000,705
22.60833,661
22.61667,620
22.62500,582
22.63333,548
22.64167,517
22.65000,488
22.65833,462
22.66667,438
22.67500,415
22.68333,394
22.69167,376
22.70000,358
22.70833,343
22.71667,328
22.72500,315
22.73333,303
22.74167,291
22.75000,281
22.75833,272
22.76667,263
22.77500,255
22.78333,247
22.79167,240
22.80000,234
22.80833,227
22.81667,222
22.82500,216
22.83333,211
22.84167,206
22.85000,202
22.85833,198
22.86667,194
22.87500,191
22.88333,188
22.89167,185
22.90000,182
22.90833,180
22.91667,177
22.92500,175
22.93333,173
22.94167,171
22.95000,169
22.95833,167
22.96667,165
22.97500,163
22.98333,161
22.99167,160
23.00000,158
23.00833,157
23.01667,155
23.02500,154
23.03333,153
23.04167,152
23.05000,151
23.05833,149
23.06667,148
23.07500,147
23.08333,146
23.09167,145
23.10000,144
23.10833,143
23.11667,142
23.12500,141
23.13333,140
23.14167,140
23.15000,139
23.15833,138
23.16667,138
23.17500,137
23.18333,137
23.19167,136
23.20000,136
23.20833,135
23.21667,134
23.22500,134
23.23333,133
23.24167,132
23.25000,132
23.25833,131
23.26667,130
23.27500,129
23.28333,129
23.29167,128
23.30000,127
23.30833,127
23.31667,126
23.32500,126
23.33333,125
23.34167,124
23.35000,124
23.35833,123
23.36667,123
23.37500,122
23.38333,122
23.39167,121
23.40000,120
23.40833,120
23.41667,119
23.42500,119
23.43333,119
23.44167,119
23.45000,118
23.45833,118
23.46667,117
23.47500,117
23.48333,116
23.49167,116
23.50000,116
23.50833,116
23.51667,115
23.52500,115
23.53333,114
23.54167,113
23.55000,113
23.55833,112
23.56667,112
23.57500,111
23.58333,111
23.59167,110
23.60000,110
23.60833,110
23.61667,109
23.62500,109
23.63333,109
23.64167,109
23.65000,108
23.65833,108
23.66667,109
23.67500,109
23.68333,109
23.69167,108
23.70000,108
23.70833,108
23.71667,107
23.72500,107
23.73333,107
23.74167,106
23.75000,106
23.75833,106
23.76667,106
23.77500,106
23.78333,105
23.79167,105
23.80000,105
23.80833,105
23.81667,105
23.82500,105
23.83333,104
23.84167,104
23.85000,104
23.85833,104
23.86667,104
23.87500,103
23.88333,103
23.89167,103
23.90000,102
23.90833,102
23.91667,102
23.92500,102
23.93333,102
23.94167,102
23.95000,102
23.95833,102
23.96667,102
23.97500,102
23.98333,102
23.99167,102
24.00000,101
24.00833,101
24.01667,101
24.02500,101
24.03333,101
24.04167,100
24.05000,100
24.05833,100
24.06667,100
24.07500,99
24.08333,99
24.09167,99
24.10000,99
24.10833,100
24.11667,100
24.12500,100
24.13333,100
24.14167,100
24.15000,100
24.15833,100
24.16667,100
24.17500,99
24.18333,99
24.19167,99
24.20000,99
24.20833,98
24.21667,98
24.22500,99
24.23333,99
24.24167,99
24.25000,100
24.25833,99
24.26667,99
24.27500,99
24.28333,99
24.29167,99
24.30000,100
24.30833,100
24.31667,101
24.32500,102
24.33333,103
24.34167,104
24.35000,105
24.35833,107
24.36667,109
24.37500,111
24.38333,113
24.39167,115
24.40000,117
24.40833,120
24.41667,122
24.42500,125
24.43333,129
24.44167,133
24.45000,137
24.45833,142
24.46667,147
24.47500,154
24.48333,161
24.49167,169
24.50000,178
24.50833,188
24.51667,198
24.52500,210
24.53333,224
24.54167,238
24.55000,255
24.55833,273
24.56667,293
24.57500,316
24.58333,340
24.59167,367
24.60000,397
24.60833,430
24.61667,465
24.62500,503
24.63333,545
24.64167,591
24.65000,642
24.65833,696
24.66667,754
24.67500,817
24.68333,885
24.69167,957
24.70000,1035
24.70833,1118
24.71667,1206
24.72500,1300
24.73333,1399
24.74167,1504
24.75000,1615
24.75833,1732
24.76667,1854
24.77500,1982
24.78333,2114
24.79167,2252
24.80000,2395
24.80833,2543
24.81667,2696
24.82500,2852
24.83333,3011
24.84167,3174
24.85000,3339
24.85833,3507
24.86667,3675
24.87500,3843
24.88333,4012
24.89167,4180
24.90000,4346
24.90833,4509
24.91667,4670
24.92500,4827
24.93333,4980
24.94167,5127
24.95000,5268
24.95833,5402
24.96667,5529
24.97500,5647
24.98333,5756
24.99167,5856
25.00000,5947
25.00833,6027
25.01667,6096
25.02500,6154
25.03333,6200
25.04167,6235
25.05000,6258
25.05833,6270
25.06667,6270
25.07500,6258
25.08333,6235
25.09167,6201
25.10000,6155
25.10833,6099
25.11667,6032
25.12500,5955
25.13333,5869
25.14167,5774
25.15000,5671
25.15833,5560
25.16667,5442
25.17500,5317
25.18333,5187
25.19167,5051
25.20000,4911
25.20833,4767
25.21667,4619
25.22500,4470
25.23333,4318
25.24167,4165
25.25000,4011
25.25833,3858
25.26667,3705
25.27500,3553
25.28333,3402
25.29167,3254
25.30000,3107
25.30833,2964
25.31667,2823
25.32500,2686
25.33333,2552
25.34167,2422
25.35000,2296
25.35833,2174
25.36667,2057
25.37500,1944
25.38333,1835
25.39167,1731
25.40000,1631
25.40833,1535
25.41667,1444
25.42500,1357
25.43333,1275
25.44167,1197
25.45000,1124
25.45833,1054
25.46667,989
25.47500,927
25.48333,870
25.49167,815
25.50000,764
25.50833,716
25.51667,671
25.52500,630
25.53333,591
25.54167,554
25.55000,521
25.55833,490
25.56667,461
25.57500,434
25.58333,409
25.59167,385
25.60000,364
25.60833,344
25.61667,326
25.62500,309
25.63333,294
25.64167,279
25.65000,266
25.65833,254
25.66667,243
25.67500,232
25.68333,223
25.69167,214
25.70000,206
25.70833,199
25.71667,192
25.72500,186
25.73333,180
25.74167,175
25.75000,171
25.75833,167
25.76667,163
25.77500,159
25.78333,156
25.79167,152
25.80000,150
25.80833,147
25.81667,145
25.82500,143
25.83333,141
25.84167,139
25.85000,137
25.85833,135
25.86667,134
25.87500,132
25.88333,131
25.89167,130
25.90000,128
25.90833,127
25.91667,125
25.92500,124
25.93333,123
25.94167,122
25.95000,121
25.95833,120
25.96667,119
25.97500,118
25.98333,118
25.99167,117
26.00000,116
26.00833,116
26.01667,115
26.02500,115
26.03333,115
26.04167,115
26.05000,114
26.05833,114
26.06667,113
26.07500,112
26.08333,111
26.09167,111
26.10000,110
26.10833,110
26.11667,110
26.12500,109
26.13333,109
26.14167,108
26.15000,108
26.15833,107
26.16667,107
26.17500,106
26.18333,106
26.19167,105
26.20000,105
26.20833,105
26.21667,105
26.22500,104
26.23333,104
26.24167,104
26.25000,104
26.25833,104
26.26667,103
26.27500,103
26.28333,103
26.29167,103
26.30000,103
26.30833,103
26.31667,103
26.32500,103
26.33333,103
26.34167,103
26.35000,102
26.35833,102
26.36667,102
26.37500,102
26.38333,101
26.39167,101
26.40000,101
26.40833,100
26.41667,100
26.42500,99
26.43333,99
26.44167,99
26.45000,100
26.45833,99
26.46667,99
26.47500,99
26.48333,99
26.49167,99
26.50000,99
26.50833,100
26.51667,100
26.52500,100
26.53333,100
26.54167,99
26.55000,99
26.55833,99
26.56667,99
26.57500,99
26.58333,99
26.59167,99
26.60000,100
26.60833,100
26.61667,99
26.62500,99
26.63333,99
26.64167,99
26.65000,99
26.65833,99
26.66667,99
26.67500,99
26.68333,99
26.69167,99
26.70000,99
26.70833,99
26.71667,99
26.72500,99
26.73333,99
26.74167,99
26.75000,99
26.75833,99
26.76667,99
26.77500,99
26.78333,99
26.79167,99
26.80000,98
26.80833,98
26.81667,98
26.82500,98
26.83333,98
26.84167,97
26.85000,97
26.85833,97
26.86667,97
26.87500,97
26.88333,97
26.89167,97
26.90000,97
26.90833,97
26.91667,97
26.92500,97
26.93333,97
26.94167,97
26.95000,97
26.95833,97
26.96667,96
26.97500,96
26.98333,96
26.99167,96
27.00000,96
27.00833,96
27.01667,96
27.02500,96
27.03333,96
27.04167,96
27.05000,96
27.05833,95
27.06667,95
27.07500,95
27.08333,95
27.09167,95
27.10000,94
27.10833,94
27.11667,94
27.12500,93
27.13333,93
27.14167,94
27.15000,94
27.15833,93
27.16667,93
27.17500,93
27.18333,93
27.19167,93
27.20000,93
27.20833,93
27.21667,93
27.22500,93
27.23333,93
27.24167,93
27.25000,93
27.25833,93
27.26667,93
27.27500,93
27.28333,93
27.29167,93
27.30000,93
27.30833,93
27.31667,93
27.32500,92
27.33333,92
27.34167,91
27.35000,91
27.35833,91
27.36667,91
27.37500,91
27.38333,91
27.39167,91
27.40000,91
27.40833,91
27.41667,91
27.42500,91
27.43333,91
27.44167,91
27.45000,91
27.45833,91
27.46667,91
27.47500,91
27.48333,92
27.49167,92
27.50000,92
27.50833,91
27.51667,91
27.52500,92
27.53333,91
27.54167,91
27.55000,90
27.55833,90
27.56667,90
27.57500,90
27.58333,90
27.59167,90
27.60000,90
27.60833,90
27.61667,89
27.62500,89
27.63333,89
27.64167,89
27.65000,89
27.65833,90
27.66667,90
27.67500,90
27.68333,90
27.69167,90
27.70000,90
27.70833,89
27.71667,89
27.72500,89
27.73333,89
27.74167,89
27.75000,88
27.75833,88
27.76667,88
27.77500,88
27.78333,88
27.79167,88
27.80000,87
27.80833,86
27.81667,86
27.82500,85
27.83333,85
27.84167,84
27.85000,83
27.85833,83
27.86667,82
27.87500,82
27.88333,81
27.89167,80
27.90000,79
27.90833,78
27.91667,77
27.92500,77
27.93333,76
27.94167,75
27.95000,73
27.95833,72
27.96667,71
27.97500,69
27.98333,68
27.99167,66
28.00000,64
28.00833,63
28.01667,61
28.02500,59
28.03333,57
28.04167,54
28.05000,52
28.05833,49
28.06667,46
28.07500,44
28.08333,42
28.09167,40
28.10000,37
28.10833,35
28.11667,31
28.12500,28
28.13333,25
28.14167,22
28.15000,19
28.15833,16
28.16667,12
28.17500,10
28.18333,6
28.19167,3
28.20000,-1
28.20833,-4
28.21667,-8
28.22500,-11
28.23333,-14
28.24167,-17
28.25000,-21
28.25833,-24
28.26667,-28
28.27500,-31
28.28333,-34
28.29167,-38
28.30000,-41
28.30833,-44
28.31667,-47
28.32500,-50
28.33333,-53
28.34167,-55
28.35000,-57
28.35833,-59
28.36667,-61
28.37500,-62
28.38333,-63
28.39167,-65
28.40000,-67
28.40833,-68
28.41667,-70
28.42500,-71
28.43333,-71
28.44167,-72
28.45000,-72
28.45833,-72
28.46667,-72
28.47500,-71
28.48333,-71
28.49167,-70
28.50000,-70
28.50833,-69
28.51667,-68
28.52500,-67
28.53333,-66
28.54167,-65
28.55000,-63
28.55833,-61
28.56667,-59
28.57500,-57
28.58333,-55
28.59167,-52
28.60000,-50
28.60833,-47
28.61667,-45
28.62500,-42
28.63333,-39
28.64167,-36
28.65000,-33
28.65833,-30
28.66667,-28
28.67500,-25
28.68333,-22
28.69167,-19
28.70000,-15
28.70833,-12
28.71667,-9
28.72500,-6
28.73333,-4
28.74167,-1
28.75000,1
28.75833,4
28.76667,6
28.77500,9
28.78333,12
28.79167,14
28.80000,17
28.80833,20
28.81667,22
28.82500,25
28.83333,27
28.84167,30
28.85000,32
28.85833,34
28.86667,36
28.87500,38
28.88333,40
28.89167,42
28.90000,44
28.90833,46
28.91667,47
28.92500,49
28.93333,50
28.94167,52
28.95000,53
28.95833,55
28.96667,56
28.97500,57
28.98333,58
28.99167,59
29.00000,60
29.00833,61
29.01667,62
29.02500,63
29.03333,64
29.04167,65
29.05000,66
29.05833,67
29.06667,68
29.07500,69
29.08333,70
29.09167,71
29.10000,71
29.10833,72
29.11667,72
29.12500,73
29.13333,73
29.14167,74
29.15000,74
29.15833,74
29.16667,74
29.17500,75
29.18333,75
29.19167,75
29.20000,75
29.20833,75
29.21667,75
29.22500,76
29.23333,76
29.24167,76
29.25000,77
29.25833,77
29.26667,78
29.27500,78
29.28333,79
29.29167,79
29.30000,80
29.30833,80
29.31667,80
29.32500,80
29.33333,81
29.34167,80
29.35000,80
29.35833,80
29.36667,81
29.37500,81
29.38333,81
29.39167,81
29.40000,81
29.40833,81
29.41667,81
29.42500,80
29.43333,80
29.44167,80
29.45000,80
29.45833,80
29.46667,80
29.47500,80
29.48333,80
29.49167,80
29.50000,80
29.50833,80
29.51667,80
29.52500,80
29.53333,80
29.54167,80
29.55000,79
29.55833,79
29.56667,79
29.57500,78
29.58333,78
29.59167,77
29.60000,77
29.60833,77
29.61667,77
29.62500,76
29.63333,76
29.64167,75
29.65000,75
29.65833,74
29.66667,74
29.67500,74
29.68333,73
29.69167,73
29.70000,72
29.70833,72
29.71667,71
29.72500,71
29.73333,70
29.74167,69
29.75000,69
29.75833,68
29.76667,67
29.77500,66
29.78333,65
29.79167,64
29.80000,63
29.80833,63
29.81667,62
29.82500,61
29.83333,60
29.84167,59
29.85000,58
29.85833,57
29.86667,56
29.87500,55
29.88333,54
29.89167,52
29.90000,51
29.90833,50
29.91667,48
29.92500,47
29.93333,46
29.94167,44
29.95000,43
29.95833,42
29.96667,40
29.97500,39
29.98333,38
29.99167,37
30.00000,36
30.00833,35
30.01667,34
30.02500,33
30.03333,32
30.04167,31
30.05000,30
30.05833,29
30.06667,28
30.07500,27
30.08333,26
30.09167,26
30.10000,25
30.10833,25
30.11667,24
30.12500,23
30.13333,23
30.14167,22
30.15000,21
30.15833,20
30.16667,19
30.17500,19
30.18333,18
30.19167,18
30.20000,18
30.20833,19
30.21667,19
30.22500,19
30.23333,19
30.24167,20
30.25000,20
30.25833,21
30.26667,21
30.27500,21
30.28333,22
30.29167,22
30.30000,22
30.30833,23
30.31667,24
30.32500,25
30.33333,26
30.34167,27
30.35000,28
30.35833,29
30.36667,30
30.37500,31
30.38333,32
30.39167,32
30.40000,33
30.40833,34
30.41667,35
30.42500,36
30.43333,38
30.44167,39
30.45000,40
30.45833,42
30.46667,42
30.47500,43
30.48333,44
30.49167,45
30.50000,47
30.50833,48
30.51667,49
30.52500,50
30.53333,51
30.54167,52
30.55000,53
30.55833,54
30.56667,55
30.57500,56
30.58333,57
30.59167,58
30.60000,59
30.60833,59
30.61667,60
30.62500,61
30.63333,62
30.64167,63
30.65000,64
30.65833,64
30.66667,65
30.67500,66
30.68333,66
30.69167,67
30.70000,68
30.70833,69
30.71667,70
30.72500,71
30.73333,71
30.74167,72
30.75000,72
30.75833,73
30.76667,73
30.77500,74
30.78333,74
30.79167,74
30.80000,74
30.80833,74
30.81667,74
30.82500,75
30.83333,75
30.84167,75
30.85000,75
30.85833,74
30.86667,75
30.87500,75
30.88333,75
30.89167,76
30.90000,76
30.90833,76
30.91667,77
30.92500,77
30.93333,77
30.94167,77
30.95000,77
30.95833,77
30.96667,77
30.97500,78
30.98333,78
30.99167,78
31.00000,78
31.00833,78
31.01667,79
31.02500,79
31.03333,79
31.04167,79
31.05000,79
31.05833,79
31.06667,79
31.07500,79
31.08333,79
31.09167,79
31.10000,79
31.10833,79
31.11667,79
31.12500,79
31.13333,79
31.14167,79
31.15000,79
31.15833,80
31.16667,80
31.17500,80
31.18333,80
31.19167,80
31.20000,81
31.20833,81
31.21667,81
31.22500,81
31.23333,81
31.24167,81
31.25000,81
31.25833,81
31.26667,81
31.27500,81
31.28333,82
31.29167,82
31.30000,82
31.30833,82
31.31667,82
31.32500,83
31.33333,83
31.34167,83
31.35000,83
31.35833,83
31.36667,83
31.37500,83
31.38333,83
31.39167,83
31.40000,83
31.40833,84
31.41667,84
31.42500,84
31.43333,84
31.44167,84
31.45000,84
31.45833,85
31.46667,85
31.47500,85
31.48333,85
31.49167,85
31.50000,85
31.50833,85
31.51667,85
31.52500,86
31.53333,86
31.54167,86
31.55000,85
31.55833,85
31.56667,85
31.57500,85
31.58333,86
31.59167,86
31.60000,86
31.60833,86
31.61667,86
31.62500,86
31.63333,86
31.64167,87
31.65000,87
31.65833,87
31.66667,87
31.67500,87
31.68333,87
31.69167,87
31.70000,87
31.70833,87
31.71667,88
31.72500,88
31.73333,88
31.74167,88
31.75000,88
31.75833,88
31.76667,88
31.77500,88
31.78333,88
31.79167,88
31.80000,88
31.80833,88
31.81667,88
31.82500,88
31.83333,88
31.84167,88
31.85000,88
31.85833,88
31.86667,88
31.87500,88
31.88333,88
31.89167,88
31.90000,88
31.90833,88
31.91667,88
31.92500,88
31.93333,88
31.94167,88
31.95000,89
31.95833,89
31.96667,89
31.97500,89
31.98333,89
31.99167,89
32.00000,88
32.00833,88
32.01667,88
32.02500,88
32.03333,88
32.04167,87
32.05000,87
32.05833,87
32.06667,88
32.07500,88
32.08333,88
32.09167,88
32.10000,88
32.10833,88
32.11667,89
32.12500,89
32.13333,89
32.14167,89
32.15000,89
32.15833,89
32.16667,89
32.17500,89
32.18333,89
32.19167,89
32.20000,89
32.20833,89
32.21667,89
32.22500,89
32.23333,89
32.24167,89
32.25000,89
32.25833,89
32.26667,89
32.27500,89
32.28333,89
32.29167,89
32.30000,88
32.30833,88
32.31667,88
32.32500,88
32.33333,88
32.34167,89
32.35000,88
32.35833,88
32.36667,88
32.37500,89
32.38333,89
32.39167,89
32.40000,90
32.40833,90
32.41667,90
32.42500,90
32.43333,90
32.44167,89
32.45000,89
32.45833,90
32.46667,90
32.47500,90
32.48333,90
32.49167,90
32.50000,89
32.50833,89
32.51667,90
32.52500,90
32.53333,90
32.54167,90
32.55000,91
32.55833,91
32.56667,91
32.57500,91
32.58333,91
32.59167,90
32.60000,91
32.60833,91
32.61667,91
32.62500,91
32.63333,91
32.64167,90
32.65000,90
32.65833,90
32.66667,90
32.67500,90
32.68333,90
32.69167,90
32.70000,90
32.70833,90
32.71667,90
32.72500,89
32.73333,89
32.74167,90
32.75000,90
32.75833,90
32.76667,90
32.77500,90
32.78333,90
32.79167,90
32.80000,90
32.80833,90
32.81667,90
32.82500,90
32.83333,90
32.84167,90
32.85000,90
32.85833,90
32.86667,90
32.87500,90
32.88333,90
32.89167,91
32.90000,91
32.90833,91
32.91667,91
32.92500,91
32.93333,91
32.94167,91
32.95000,91
32.95833,91
32.96667,91
32.97500,91
32.98333,90
32.99167,90
33.00000,90
33.00833,90
33.01667,91
33.02500,91
33.03333,92
33.04167,92
33.05000,92
33.05833,92
33.06667,92
33.07500,92
33.08333,92
33.09167,92
33.10000,92
33.10833,92
33.11667,92
33.12500,92
33.13333,92
33.14167,92
33.15000,92
33.15833,92
33.16667,91
33.17500,91
33.18333,91
33.19167,90
33.20000,90
33.20833,90
33.21667,90
33.22500,89
33.23333,89
33.24167,90
33.25000,90
33.25833,90
33.26667,90
33.27500,91
33.28333,91
33.29167,91
33.30000,91
33.30833,92
33.31667,92
33.32500,92
33.33333,92
33.34167,92
33.35000,93
33.35833,93
33.36667,93
33.37500,93
33.38333,93
33.39167,93
33.40000,93
33.40833,93
33.41667,93
33.42500,92
33.43333,92
33.44167,92
33.45000,92
33.45833,92
33.46667,92
33.47500,92
33.48333,92
33.49167,92
33.50000,91
33.50833,91
33.51667,91
33.52500,92
33.53333,92
33.54167,92
33.55000,92
33.55833,92
33.56667,93
33.57500,93
33.58333,93
33.59167,93
33.60000,93
33.60833,93
33.61667,93
33.62500,93
33.63333,93
33.64167,93
33.65000,93
33.65833,93
33.66667,93
33.67500,93
33.68333,93
33.69167,92
33.70000,92
33.70833,92
33.71667,92
33.72500,92
33.73333,92
33.74167,92
33.75000,91
33.75833,92
33.76667,92
33.77500,92
33.78333,93
33.79167,93
33.80000,93
33.80833,93
33.81667,93
33.82500,93
33.83333,93
33.84167,92
33.85000,92
33.85833,92
33.86667,92
33.87500,92
33.88333,92
33.89167,93
33.90000,93
33.90833,93
33.91667,93
33.92500,93
33.93333,93
33.94167,93
33.95000,93
33.95833,93
33.96667,92
33.97500,92
33.98333,92
33.99167,93
34.00000,93
34.00833,93
34.01667,93
34.02500,94
34.03333,94
34.04167,94
34.05000,94
34.05833,94
34.06667,94
34.07500,94
34.08333,94
34.09167,95
34.10000,95
34.10833,95
34.11667,95
34.12500,95
34.13333,95
34.14167,94
34.15000,94
34.15833,94
34.16667,94
34.17500,94
34.18333,94
34.19167,93
34.20000,93
34.20833,93
34.21667,93
34.22500,94
34.23333,94
34.24167,94
34.25000,94
34.25833,94
34.26667,95
34.27500,95
34.28333,95
34.29167,95
34.30000,95
34.30833,95
34.31667,95
34.32500,95
34.33333,96
34.34167,96
34.35000,95
34.35833,95
34.36667,95
34.37500,95
34.38333,95
34.39167,94
34.40000,94
34.40833,94
34.41667,94
34.42500,94
34.43333,94
34.44167,95
34.45000,95
34.45833,95
34.46667,95
34.47500,96
34.48333,95
34.49167,95
34.50000,95
34.50833,95
34.51667,95
34.52500,95
34.53333,96
34.54167,96
34.55000,96
34.55833,96
34.56667,96
34.57500,96
34.58333,97
34.59167,97
34.60000,97
34.60833,96
34.61667,96
34.62500,96
34.63333,95
34.64167,95
34.65000,95
34.65833,95
34.66667,95
34.67500,94
34.68333,94
34.69167,94
34.70000,94
34.70833,95
34.71667,95
34.72500,96
34.73333,96
34.74167,96
34.75000,96
34.75833,96
34.76667,96
34.77500,96
34.78333,96
34.79167,96
34.80000,96
34.80833,96
34.81667,97
34.82500,97
34.83333,97
34.84167,97
34.85000,97
34.85833,97
34.86667,96
34.87500,96
34.88333,96
34.89167,96
34.90000,96
34.90833,96
34.91667,96
34.92500,96
34.93333,96
34.94167,95
34.95000,95
34.95833,96
34.96667,96
34.97500,96
34.98333,96
34.99167,96
35.00000,97
35.00833,97
35.01667,97
35.02500,97
35.03333,97
35.04167,97
35.05000,97
35.05833,97
35.06667,98
35.07500,98
35.08333,98
35.09167,98
35.10000,97
35.10833,97
35.11667,97
35.12500,97
35.13333,97
35.14167,97
35.15000,97
35.15833,96
35.16667,97
35.17500,97
35.18333,97
35.19167,97
35.20000,97
35.20833,97
35.21667,97
35.22500,98
35.23333,98
35.24167,98
35.25000,98
35.25833,98
35.26667,98
35.27500,98
35.28333,98
35.29167,98
35.30000,98
35.30833,98
35.31667,98
35.32500,98
35.33333,98
35.34167,97
35.35000,97
35.35833,97
35.36667,97
35.37500,97
35.38333,97
35.39167,97
35.40000,97
35.40833,97
35.41667,97
35.42500,97
35.43333,97
35.44167,97
35.45000,97
35.45833,97
35.46667,97
35.47500,97
35.48333,97
35.49167,97
35.50000,98
35.50833,98
35.51667,98
35.52500,98
35.53333,98
35.54167,98
35.55000,97
35.55833,97
35.56667,97
35.57500,97
35.58333,97
35.59167,97
35.60000,98
35.60833,98
35.61667,98
35.62500,97
35.63333,97
35.64167,97
35.65000,97
35.65833,97
35.66667,98
35.67500,98
35.68333,98
35.69167,98
35.70000,98
35.70833,98
35.71667,99
35.72500,99
35.73333,99
35.74167,99
35.75000,99
35.75833,98
35.76667,98
35.77500,98
35.78333,98
35.79167,98
35.80000,98
35.80833,98
35.81667,98
35.82500,98
35.83333,98
35.84167,98
35.85000,98
35.85833,98
35.86667,98
35.87500,98
35.88333,98
35.89167,97
35.90000,97
35.90833,97
35.91667,97
35.92500,98
35.93333,98
35.94167,98
35.95000,98
35.95833,98
35.96667,98
35.97500,98
35.98333,98
35.99167,98
36.00000,98
36.00833,98
36.01667,99
36.02500,99
36.03333,99
36.04167,98
36.05000,98
36.05833,98
36.06667,98
36.07500,98
36.08333,97
36.09167,98
36.10000,97
36.10833,98
36.11667,98
36.12500,98
36.13333,98
36.14167,98
36.15000,98
36.15833,98
36.16667,98
36.17500,98
36.18333,98
36.19167,98
36.20000,98
36.20833,98
36.21667,99
36.22500,99
36.23333,99
36.24167,98
36.25000,98
36.25833,98
36.26667,98
36.27500,98
36.28333,98
36.29167,98
36.30000,98
36.30833,97
36.31667,97
36.32500,97
36.33333,97
36.34167,97
36.35000,98
36.35833,98
36.36667,98
36.37500,98
36.38333,98
36.39167,98
36.40000,98
36.40833,98
36.41667,98
36.42500,98
36.43333,97
36.44167,98
36.45000,98
36.45833,98
36.46667,98
36.47500,98
36.48333,98
36.49167,98
36.50000,99
36.50833,99
36.51667,99
36.52500,99
36.53333,98
36.54167,98
36.55000,98
36.55833,98
36.56667,98
36.57500,98
36.58333,98
36.59167,98
36.60000,98
36.60833,98
36.61667,99
36.62500,99
36.63333,100
36.64167,100
36.65000,100
36.65833,100
36.66667,100
36.67500,100
36.68333,100
36.69167,100
36.70000,100
36.70833,100
36.71667,100
36.72500,101
36.73333,101
36.74167,100
36.75000,100
36.75833,100
36.76667,99
36.77500,99
36.78333,99
36.79167,99
36.80000,99
36.80833,100
36.81667,100
36.82500,100
36.83333,100
36.84167,100
36.85000,100
36.85833,100
36.86667,100
36.87500,100
36.88333,100
36.89167,100
36.90000,100
36.90833,100
36.91667,100
36.92500,100
36.93333,100
36.94167,100
36.95000,100
36.95833,100
36.96667,100
36.97500,100
36.98333,101
36.99167,101
37.00000,101
37.00833,101
37.01667,101
37.02500,101
37.03333,100
37.04167,100
37.05000,100
37.05833,100
37.06667,100
37.07500,100
37.08333,100
37.09167,100
37.10000,100
37.10833,101
37.11667,101
37.12500,101
37.13333,101
37.14167,101
37.15000,101
37.15833,101
37.16667,101
37.17500,101
37.18333,101
37.19167,101
37.20000,102
37.20833,101
37.21667,101
37.22500,101
37.23333,101
37.24167,101
37.25000,101
37.25833,101
37.26667,101
37.27500,101
37.28333,101
37.29167,101
37.30000,101
37.30833,102
37.31667,102
37.32500,102
37.33333,102
37.34167,102
37.35000,102
37.35833,102
37.36667,102
37.37500,102
37.38333,102
37.39167,102
37.40000,102
37.40833,102
37.41667,102
37.42500,102
37.43333,102
37.44167,102
37.45000,102
37.45833,102
37.46667,102
37.47500,102
37.48333,102
37.49167,102
37.50000,102
37.50833,102
37.51667,102
37.52500,102
37.53333,102
37.54167,101
37.55000,101
37.55833,101
37.56667,101
37.57500,101
37.58333,101
37.59167,102
37.60000,102
37.60833,102
37.61667,102
37.62500,102
37.63333,101
37.64167,101
37.65000,101
37.65833,101
37.66667,102
37.67500,102
37.68333,102
37.69167,102
37.70000,102
37.70833,102
37.71667,102
37.72500,102
37.73333,102
37.74167,102
37.75000,102
37.75833,101
37.76667,101
37.77500,101
37.78333,101
37.79167,101
37.80000,101
37.80833,101
37.81667,102
37.82500,102
37.83333,102
37.84167,103
37.85000,102
37.85833,102
37.86667,101
37.87500,101
37.88333,102
37.89167,102
37.90000,102
37.90833,103
37.91667,103
37.92500,103
37.93333,103
37.94167,103
37.95000,103
37.95833,103
37.96667,103
37.97500,103
37.98333,103
37.99167,103
38.00000,103
38.00833,103
38.01667,103
38.02500,103
38.03333,103
38.04167,103
38.05000,103
38.05833,103
38.06667,103
38.07500,104
38.08333,104
38.09167,104
38.10000,103
38.10833,103
38.11667,104
38.12500,104
38.13333,104
38.14167,104
38.15000,104
38.15833,104
38.16667,104
38.17500,104
38.18333,104
38.19167,104
38.20000,104
38.20833,104
38.21667,104
38.22500,104
38.23333,104
38.24167,104
38.25000,104
38.25833,104
38.26667,104
38.27500,104
38.28333,104
38.29167,104
38.30000,105
38.30833,105
38.31667,106
38.32500,106
38.33333,106
38.34167,106
38.35000,106
38.35833,107
38.36667,107
38.37500,107
38.38333,107
38.39167,107
38.40000,107
38.40833,106
38.41667,106
38.42500,106
38.43333,106
38.44167,106
38.45000,106
38.45833,106
38.46667,106
38.47500,106
38.48333,106
38.49167,106
38.50000,106
38.50833,106
38.51667,106
38.52500,106
38.53333,106
38.54167,107
38.55000,107
38.55833,107
38.56667,107
38.57500,107
38.58333,107
38.59167,107
38.60000,107
38.60833,107
38.61667,108
38.62500,108
38.63333,108
38.64167,109
38.65000,109
38.65833,108
38.66667,108
38.67500,108
38.68333,108
38.69167,108
38.70000,108
38.70833,107
38.71667,107
38.72500,106
38.73333,106
38.74167,106
38.75000,106
38.75833,106
38.76667,106
38.77500,106
38.78333,107
38.79167,107
38.80000,107
38.80833,107
38.81667,107
38.82500,107
38.83333,107
38.84167,107
38.85000,107
38.85833,107
38.86667,107
38.87500,107
38.88333,107
38.89167,107
38.90000,107
38.90833,107
38.91667,107
38.92500,107
38.93333,106
38.94167,106
38.95000,106
38.95833,106
38.96667,106
38.97500,106
38.98333,106
38.99167,106
39.00000,106
39.00833,106
39.01667,106
39.02500,106
39.03333,106
39.04167,106
39.05000,106
39.05833,106
39.06667,106
39.07500,106
39.08333,106
39.09167,106
39.10000,106
39.10833,107
39.11667,107
39.12500,107
39.13333,107
39.14167,107
39.15000,107
39.15833,107
39.16667,106
39.17500,106
39.18333,106
39.19167,106
39.20000,106
39.20833,106
39.21667,106
39.22500,106
39.23333,106
39.24167,106
39.25000,106
39.25833,106
39.26667,106
39.27500,106
39.28333,106
39.29167,107
39.30000,107
39.30833,107
39.31667,107
39.32500,107
39.33333,106
39.34167,106
39.35000,107
39.35833,107
39.36667,107
39.37500,107
39.38333,107
39.39167,107
39.40000,107
39.40833,107
39.41667,107
39.42500,107
39.43333,107
39.44167,107
39.45000,106
39.45833,106
39.46667,106
39.47500,106
39.48333,106
39.49167,106
39.50000,106
39.50833,107
39.51667,107
39.52500,107
39.53333,107
39.54167,107
39.55000,108
39.55833,108
39.56667,108
39.57500,108
39.58333,108
39.59167,108
39.60000,108
39.60833,108
39.61667,108
39.62500,108
39.63333,108
39.64167,108
39.65000,108
39.65833,108
39.66667,108
39.67500,108
39.68333,108
39.69167,107
39.70000,107
39.70833,107
39.71667,107
39.72500,107
39.73333,107
39.74167,107
39.75000,107
39.75833,107
39.76667,106
39.77500,106
39.78333,107
39.79167,107
39.80000,107
39.80833,107
39.81667,108
39.82500,108
39.83333,109
39.84167,108
39.85000,108
39.85833,108
39.86667,108
39.87500,107
39.88333,107
39.89167,108
39.90000,108
39.90833,108
39.91667,107
39.92500,107
39.93333,106
39.94167,106
39.95000,106
39.95833,106
39.96667,107
39.97500,107
39.98333,107
39.99167,108
40.00000,108

