[Header]
Application Name,LabSolutions
Version,5.97 SP1
Data File Name,C:\Users\cremerlab\Desktop\griffin\2021-03-31_NCM3722_NCglucose_turnover\2021-03-31_NCM3722_turnover_batch_3312021_005_012.lcd
Output Date,4/1/2021
Output Time,3:17:40 AM

[File Information]
Type,Data File
Generated,4/1/2021 2:37:20 AM
Generated by,System Administrator
Modified,4/1/2021 3:17:40 AM
Modified by,System Administrator

[Sample Information]
Operator Name,System Administrator
Acquired,4/1/2021 2:37:38 AM
Sample Type,1:Standard
Level,5
Sample Name,2021-03-31_NCM3722_NCglucose_replicate_02_timepoint_005
Sample ID,005
ISTD Amount1,1
ISTD Amount2,1
ISTD Amount3,1
ISTD Amount4,1
ISTD Amount5,1
ISTD Amount6,1
ISTD Amount7,1
ISTD Amount8,1
ISTD Amount9,1
ISTD Amount10,1
ISTD Amount11,1
ISTD Amount12,1
ISTD Amount13,1
ISTD Amount14,1
ISTD Amount15,1
ISTD Amount16,1
ISTD Amount17,1
ISTD Amount18,1
ISTD Amount19,1
ISTD Amount20,1
ISTD Amount21,1
ISTD Amount22,1
ISTD Amount23,1
ISTD Amount24,1
ISTD Amount25,1
ISTD Amount26,1
ISTD Amount27,1
ISTD Amount28,1
ISTD Amount29,1
ISTD Amount30,1
ISTD Amount31,1
ISTD Amount32,1
Sample Amount,1
Dilution Factor,1
Vial#,23
Injection Volume,20

[Original Files]
Data File,C:\Users\cremerlab\Desktop\griffin\2021-03-31_NCM3722_NCglucose_turnover\2021-03-31_NCM3722_turnover_batch_3312021_005_012.lcd
Method File,C:\LabSolutions\Data\Project1\organicacidsetc2.lcm
Batch File,C:\Users\cremerlab\Desktop\griffin\2021-03-31_NCM3722_NCglucose_turnover\2021-03-31_NCM3722_turnover_batch.lcb
Report Format File,c:\LabSolutions\System\DEFAULT.lsr

[File Description]


[Configuration]
Instrument Name,HPLC-PC-Instrument1
Instrument #,1
Line #,1
# of Detectors,2
Detector ID,Detector A,Detector B
Detector Name,Detector A,Detector B
# of Channels,1,1

[Peak Table(Detector A)]
# of Peaks,0

[Peak Table(Detector B)]
# of Peaks,4
Peak#,R.Time,I.Time,F.Time,Area,Height,A/H,Conc.,Mark,ID#,Name,k',Plate #,Plate Ht.,Tailing,Resolution,Sep.Factor,Area Ratio,Height Ratio,Conc. %,Norm Conc.
1,11.041,10.758,12.333,1037484,61254,16.937,0.000,   ,,,0.000,11289,13.287,1.354,0.000,0.000,0,0,0.000,0.000
2,15.050,14.100,15.358,2663780,105032,25.362,0.000,   ,,,0.363,7694,19.495,0.000,7.275,0.000,0,0,0.000,0.000
3,15.619,15.358,18.350,765846,31999,23.933,0.000, V ,,,0.415,9434,15.900,0.000,0.856,1.142,0,0,0.000,0.000
4,25.036,24.575,25.608,6308,232,27.232,0.000,   ,,,1.268,18391,8.156,1.073,13.632,3.057,0,0,0.000,0.000

[LC Chromatogram(Detector B-Ch1)]
Interval(msec),500
# of Points,4801
Start Time(min),0.000
End Time(min),40.000
Intensity Units,mV
Intensity Multiplier,0.001
R.Time (min),Intensity
0.00000,-0
0.00833,-0
0.01667,0
0.02500,1
0.03333,0
0.04167,-0
0.05000,-1
0.05833,-2
0.06667,-2
0.07500,-3
0.08333,-2
0.09167,-2
0.10000,-1
0.10833,-0
0.11667,0
0.12500,1
0.13333,1
0.14167,1
0.15000,1
0.15833,2
0.16667,2
0.17500,2
0.18333,2
0.19167,1
0.20000,1
0.20833,1
0.21667,2
0.22500,2
0.23333,3
0.24167,3
0.25000,4
0.25833,4
0.26667,4
0.27500,4
0.28333,4
0.29167,4
0.30000,4
0.30833,4
0.31667,4
0.32500,3
0.33333,3
0.34167,3
0.35000,2
0.35833,2
0.36667,2
0.37500,3
0.38333,3
0.39167,3
0.40000,3
0.40833,3
0.41667,3
0.42500,4
0.43333,4
0.44167,3
0.45000,3
0.45833,3
0.46667,3
0.47500,2
0.48333,3
0.49167,3
0.50000,3
0.50833,3
0.51667,3
0.52500,4
0.53333,4
0.54167,5
0.55000,6
0.55833,7
0.56667,7
0.57500,8
0.58333,9
0.59167,10
0.60000,11
0.60833,11
0.61667,10
0.62500,9
0.63333,8
0.64167,7
0.65000,6
0.65833,4
0.66667,2
0.67500,0
0.68333,-2
0.69167,-3
0.70000,-5
0.70833,-6
0.71667,-6
0.72500,-7
0.73333,-7
0.74167,-7
0.75000,-7
0.75833,-7
0.76667,-7
0.77500,-6
0.78333,-6
0.79167,-5
0.80000,-5
0.80833,-4
0.81667,-4
0.82500,-4
0.83333,-3
0.84167,-3
0.85000,-3
0.85833,-2
0.86667,-2
0.87500,-1
0.88333,-1
0.89167,-1
0.90000,-0
0.90833,0
0.91667,0
0.92500,1
0.93333,1
0.94167,2
0.95000,2
0.95833,2
0.96667,2
0.97500,2
0.98333,2
0.99167,2
1.00000,2
1.00833,2
1.01667,2
1.02500,2
1.03333,2
1.04167,2
1.05000,2
1.05833,2
1.06667,2
1.07500,2
1.08333,2
1.09167,1
1.10000,2
1.10833,2
1.11667,3
1.12500,3
1.13333,3
1.14167,2
1.15000,2
1.15833,2
1.16667,3
1.17500,3
1.18333,2
1.19167,2
1.20000,2
1.20833,2
1.21667,2
1.22500,2
1.23333,1
1.24167,2
1.25000,2
1.25833,2
1.26667,2
1.27500,2
1.28333,2
1.29167,3
1.30000,3
1.30833,3
1.31667,3
1.32500,3
1.33333,3
1.34167,3
1.35000,3
1.35833,3
1.36667,3
1.37500,3
1.38333,3
1.39167,3
1.40000,3
1.40833,3
1.41667,3
1.42500,4
1.43333,4
1.44167,4
1.45000,4
1.45833,4
1.46667,4
1.47500,5
1.48333,5
1.49167,5
1.50000,5
1.50833,5
1.51667,5
1.52500,5
1.53333,5
1.54167,4
1.55000,4
1.55833,4
1.56667,4
1.57500,4
1.58333,4
1.59167,4
1.60000,4
1.60833,4
1.61667,4
1.62500,4
1.63333,4
1.64167,4
1.65000,4
1.65833,4
1.66667,5
1.67500,5
1.68333,5
1.69167,5
1.70000,6
1.70833,6
1.71667,6
1.72500,6
1.73333,6
1.74167,6
1.75000,7
1.75833,6
1.76667,6
1.77500,6
1.78333,6
1.79167,6
1.80000,6
1.80833,6
1.81667,6
1.82500,7
1.83333,7
1.84167,6
1.85000,6
1.85833,6
1.86667,6
1.87500,6
1.88333,7
1.89167,7
1.90000,7
1.90833,7
1.91667,7
1.92500,8
1.93333,8
1.94167,8
1.95000,8
1.95833,8
1.96667,8
1.97500,8
1.98333,8
1.99167,8
2.00000,8
2.00833,8
2.01667,9
2.02500,9
2.03333,9
2.04167,9
2.05000,9
2.05833,9
2.06667,9
2.07500,9
2.08333,9
2.09167,9
2.10000,9
2.10833,9
2.11667,9
2.12500,9
2.13333,9
2.14167,9
2.15000,9
2.15833,8
2.16667,8
2.17500,8
2.18333,9
2.19167,9
2.20000,9
2.20833,9
2.21667,9
2.22500,9
2.23333,9
2.24167,9
2.25000,9
2.25833,9
2.26667,9
2.27500,9
2.28333,9
2.29167,10
2.30000,10
2.30833,9
2.31667,9
2.32500,9
2.33333,9
2.34167,9
2.35000,9
2.35833,9
2.36667,9
2.37500,9
2.38333,9
2.39167,9
2.40000,9
2.40833,9
2.41667,9
2.42500,9
2.43333,9
2.44167,9
2.45000,9
2.45833,9
2.46667,9
2.47500,9
2.48333,9
2.49167,8
2.50000,8
2.50833,8
2.51667,8
2.52500,8
2.53333,7
2.54167,7
2.55000,7
2.55833,7
2.56667,7
2.57500,7
2.58333,7
2.59167,7
2.60000,6
2.60833,6
2.61667,6
2.62500,6
2.63333,6
2.64167,6
2.65000,6
2.65833,6
2.66667,6
2.67500,6
2.68333,6
2.69167,6
2.70000,6
2.70833,6
2.71667,6
2.72500,6
2.73333,6
2.74167,6
2.75000,6
2.75833,6
2.76667,6
2.77500,7
2.78333,6
2.79167,6
2.80000,6
2.80833,6
2.81667,6
2.82500,6
2.83333,6
2.84167,6
2.85000,6
2.85833,6
2.86667,6
2.87500,6
2.88333,6
2.89167,6
2.90000,6
2.90833,5
2.91667,5
2.92500,5
2.93333,5
2.94167,6
2.95000,6
2.95833,5
2.96667,5
2.97500,5
2.98333,6
2.99167,5
3.00000,5
3.00833,6
3.01667,6
3.02500,6
3.03333,6
3.04167,6
3.05000,5
3.05833,5
3.06667,5
3.07500,5
3.08333,5
3.09167,5
3.10000,5
3.10833,5
3.11667,5
3.12500,5
3.13333,6
3.14167,6
3.15000,6
3.15833,6
3.16667,6
3.17500,6
3.18333,5
3.19167,5
3.20000,5
3.20833,5
3.21667,5
3.22500,6
3.23333,5
3.24167,5
3.25000,5
3.25833,6
3.26667,6
3.27500,6
3.28333,6
3.29167,6
3.30000,6
3.30833,6
3.31667,6
3.32500,5
3.33333,5
3.34167,5
3.35000,6
3.35833,6
3.36667,7
3.37500,7
3.38333,7
3.39167,7
3.40000,8
3.40833,7
3.41667,7
3.42500,6
3.43333,6
3.44167,6
3.45000,6
3.45833,6
3.46667,6
3.47500,6
3.48333,6
3.49167,7
3.50000,7
3.50833,7
3.51667,7
3.52500,7
3.53333,7
3.54167,7
3.55000,7
3.55833,8
3.56667,8
3.57500,8
3.58333,8
3.59167,8
3.60000,8
3.60833,7
3.61667,7
3.62500,7
3.63333,7
3.64167,7
3.65000,7
3.65833,8
3.66667,8
3.67500,8
3.68333,8
3.69167,9
3.70000,9
3.70833,9
3.71667,8
3.72500,9
3.73333,9
3.74167,9
3.75000,9
3.75833,10
3.76667,10
3.77500,9
3.78333,9
3.79167,9
3.80000,9
3.80833,9
3.81667,9
3.82500,9
3.83333,9
3.84167,10
3.85000,10
3.85833,10
3.86667,10
3.87500,10
3.88333,11
3.89167,11
3.90000,11
3.90833,11
3.91667,11
3.92500,11
3.93333,11
3.94167,11
3.95000,11
3.95833,11
3.96667,11
3.97500,11
3.98333,11
3.99167,11
4.00000,10
4.00833,11
4.01667,11
4.02500,11
4.03333,12
4.04167,12
4.05000,12
4.05833,12
4.06667,12
4.07500,12
4.08333,12
4.09167,12
4.10000,12
4.10833,12
4.11667,12
4.12500,12
4.13333,12
4.14167,12
4.15000,11
4.15833,11
4.16667,11
4.17500,11
4.18333,11
4.19167,11
4.20000,11
4.20833,11
4.21667,11
4.22500,12
4.23333,12
4.24167,12
4.25000,12
4.25833,12
4.26667,12
4.27500,12
4.28333,12
4.29167,12
4.30000,12
4.30833,11
4.31667,11
4.32500,12
4.33333,12
4.34167,11
4.35000,11
4.35833,11
4.36667,11
4.37500,11
4.38333,11
4.39167,11
4.40000,11
4.40833,11
4.41667,11
4.42500,11
4.43333,10
4.44167,10
4.45000,10
4.45833,10
4.46667,11
4.47500,11
4.48333,11
4.49167,11
4.50000,11
4.50833,10
4.51667,10
4.52500,10
4.53333,10
4.54167,10
4.55000,10
4.55833,9
4.56667,9
4.57500,9
4.58333,10
4.59167,10
4.60000,10
4.60833,10
4.61667,10
4.62500,10
4.63333,10
4.64167,10
4.65000,10
4.65833,10
4.66667,11
4.67500,11
4.68333,11
4.69167,11
4.70000,10
4.70833,10
4.71667,10
4.72500,10
4.73333,10
4.74167,10
4.75000,10
4.75833,10
4.76667,10
4.77500,10
4.78333,10
4.79167,10
4.80000,10
4.80833,10
4.81667,10
4.82500,10
4.83333,9
4.84167,9
4.85000,10
4.85833,10
4.86667,10
4.87500,10
4.88333,9
4.89167,9
4.90000,9
4.90833,9
4.91667,9
4.92500,8
4.93333,8
4.94167,8
4.95000,8
4.95833,8
4.96667,9
4.97500,9
4.98333,9
4.99167,10
5.00000,10
5.00833,10
5.01667,10
5.02500,10
5.03333,9
5.04167,9
5.05000,9
5.05833,9
5.06667,9
5.07500,9
5.08333,9
5.09167,9
5.10000,9
5.10833,9
5.11667,9
5.12500,9
5.13333,9
5.14167,8
5.15000,9
5.15833,9
5.16667,9
5.17500,10
5.18333,10
5.19167,10
5.20000,10
5.20833,10
5.21667,10
5.22500,10
5.23333,10
5.24167,9
5.25000,9
5.25833,10
5.26667,10
5.27500,10
5.28333,10
5.29167,10
5.30000,10
5.30833,10
5.31667,10
5.32500,10
5.33333,11
5.34167,11
5.35000,11
5.35833,11
5.36667,11
5.37500,11
5.38333,11
5.39167,11
5.40000,11
5.40833,11
5.41667,11
5.42500,11
5.43333,11
5.44167,11
5.45000,11
5.45833,11
5.46667,11
5.47500,11
5.48333,11
5.49167,11
5.50000,11
5.50833,11
5.51667,11
5.52500,11
5.53333,11
5.54167,11
5.55000,11
5.55833,11
5.56667,12
5.57500,12
5.58333,12
5.59167,12
5.60000,11
5.60833,11
5.61667,11
5.62500,11
5.63333,10
5.64167,10
5.65000,10
5.65833,11
5.66667,11
5.67500,11
5.68333,11
5.69167,11
5.70000,11
5.70833,11
5.71667,11
5.72500,12
5.73333,12
5.74167,12
5.75000,12
5.75833,12
5.76667,12
5.77500,11
5.78333,11
5.79167,11
5.80000,11
5.80833,11
5.81667,11
5.82500,11
5.83333,12
5.84167,12
5.85000,12
5.85833,12
5.86667,12
5.87500,12
5.88333,12
5.89167,12
5.90000,12
5.90833,12
5.91667,12
5.92500,13
5.93333,13
5.94167,13
5.95000,13
5.95833,13
5.96667,13
5.97500,13
5.98333,13
5.99167,12
6.00000,12
6.00833,12
6.01667,12
6.02500,12
6.03333,12
6.04167,12
6.05000,12
6.05833,12
6.06667,12
6.07500,12
6.08333,12
6.09167,12
6.10000,13
6.10833,12
6.11667,12
6.12500,12
6.13333,11
6.14167,11
6.15000,11
6.15833,11
6.16667,12
6.17500,12
6.18333,12
6.19167,12
6.20000,12
6.20833,12
6.21667,12
6.22500,12
6.23333,12
6.24167,12
6.25000,12
6.25833,12
6.26667,13
6.27500,13
6.28333,13
6.29167,13
6.30000,13
6.30833,13
6.31667,12
6.32500,12
6.33333,12
6.34167,12
6.35000,12
6.35833,13
6.36667,13
6.37500,13
6.38333,13
6.39167,13
6.40000,13
6.40833,13
6.41667,13
6.42500,13
6.43333,13
6.44167,13
6.45000,13
6.45833,14
6.46667,14
6.47500,14
6.48333,13
6.49167,13
6.50000,14
6.50833,14
6.51667,14
6.52500,14
6.53333,14
6.54167,14
6.55000,14
6.55833,14
6.56667,14
6.57500,14
6.58333,14
6.59167,15
6.60000,14
6.60833,14
6.61667,14
6.62500,13
6.63333,13
6.64167,13
6.65000,13
6.65833,14
6.66667,14
6.67500,14
6.68333,14
6.69167,13
6.70000,13
6.70833,13
6.71667,13
6.72500,13
6.73333,13
6.74167,13
6.75000,13
6.75833,14
6.76667,14
6.77500,14
6.78333,14
6.79167,14
6.80000,14
6.80833,14
6.81667,14
6.82500,14
6.83333,14
6.84167,14
6.85000,14
6.85833,14
6.86667,14
6.87500,14
6.88333,14
6.89167,13
6.90000,13
6.90833,14
6.91667,14
6.92500,14
6.93333,14
6.94167,14
6.95000,13
6.95833,13
6.96667,13
6.97500,13
6.98333,13
6.99167,13
7.00000,13
7.00833,14
7.01667,14
7.02500,14
7.03333,14
7.04167,14
7.05000,14
7.05833,14
7.06667,14
7.07500,14
7.08333,14
7.09167,14
7.10000,14
7.10833,14
7.11667,14
7.12500,14
7.13333,14
7.14167,14
7.15000,13
7.15833,14
7.16667,14
7.17500,14
7.18333,14
7.19167,14
7.20000,14
7.20833,14
7.21667,14
7.22500,14
7.23333,14
7.24167,14
7.25000,14
7.25833,14
7.26667,14
7.27500,14
7.28333,14
7.29167,14
7.30000,14
7.30833,15
7.31667,15
7.32500,15
7.33333,15
7.34167,15
7.35000,15
7.35833,15
7.36667,14
7.37500,14
7.38333,14
7.39167,15
7.40000,15
7.40833,15
7.41667,15
7.42500,15
7.43333,15
7.44167,15
7.45000,15
7.45833,15
7.46667,15
7.47500,15
7.48333,15
7.49167,14
7.50000,14
7.50833,14
7.51667,14
7.52500,14
7.53333,14
7.54167,14
7.55000,15
7.55833,15
7.56667,15
7.57500,15
7.58333,15
7.59167,15
7.60000,15
7.60833,15
7.61667,15
7.62500,15
7.63333,15
7.64167,15
7.65000,15
7.65833,15
7.66667,15
7.67500,15
7.68333,15
7.69167,15
7.70000,15
7.70833,15
7.71667,15
7.72500,15
7.73333,16
7.74167,16
7.75000,16
7.75833,15
7.76667,16
7.77500,16
7.78333,16
7.79167,16
7.80000,16
7.80833,16
7.81667,16
7.82500,16
7.83333,16
7.84167,16
7.85000,16
7.85833,16
7.86667,16
7.87500,16
7.88333,16
7.89167,16
7.90000,16
7.90833,16
7.91667,16
7.92500,16
7.93333,16
7.94167,16
7.95000,16
7.95833,16
7.96667,16
7.97500,16
7.98333,16
7.99167,16
8.00000,16
8.00833,16
8.01667,16
8.02500,16
8.03333,16
8.04167,16
8.05000,15
8.05833,15
8.06667,16
8.07500,16
8.08333,16
8.09167,16
8.10000,16
8.10833,16
8.11667,16
8.12500,16
8.13333,17
8.14167,17
8.15000,17
8.15833,17
8.16667,17
8.17500,16
8.18333,16
8.19167,16
8.20000,16
8.20833,16
8.21667,16
8.22500,16
8.23333,15
8.24167,15
8.25000,16
8.25833,16
8.26667,16
8.27500,17
8.28333,17
8.29167,17
8.30000,17
8.30833,17
8.31667,17
8.32500,17
8.33333,17
8.34167,17
8.35000,17
8.35833,16
8.36667,16
8.37500,16
8.38333,16
8.39167,16
8.40000,16
8.40833,16
8.41667,16
8.42500,16
8.43333,16
8.44167,16
8.45000,17
8.45833,17
8.46667,17
8.47500,17
8.48333,17
8.49167,17
8.50000,17
8.50833,17
8.51667,17
8.52500,17
8.53333,17
8.54167,17
8.55000,17
8.55833,18
8.56667,18
8.57500,18
8.58333,18
8.59167,18
8.60000,18
8.60833,18
8.61667,18
8.62500,17
8.63333,17
8.64167,17
8.65000,17
8.65833,17
8.66667,18
8.67500,18
8.68333,18
8.69167,18
8.70000,17
8.70833,17
8.71667,17
8.72500,17
8.73333,17
8.74167,17
8.75000,17
8.75833,17
8.76667,17
8.77500,17
8.78333,17
8.79167,18
8.80000,18
8.80833,18
8.81667,18
8.82500,18
8.83333,18
8.84167,18
8.85000,18
8.85833,18
8.86667,18
8.87500,18
8.88333,18
8.89167,18
8.90000,18
8.90833,18
8.91667,18
8.92500,18
8.93333,18
8.94167,18
8.95000,18
8.95833,18
8.96667,18
8.97500,18
8.98333,18
8.99167,18
9.00000,18
9.00833,18
9.01667,18
9.02500,18
9.03333,18
9.04167,18
9.05000,18
9.05833,18
9.06667,19
9.07500,19
9.08333,19
9.09167,19
9.10000,19
9.10833,19
9.11667,19
9.12500,19
9.13333,19
9.14167,19
9.15000,19
9.15833,19
9.16667,19
9.17500,18
9.18333,18
9.19167,18
9.20000,18
9.20833,18
9.21667,18
9.22500,19
9.23333,19
9.24167,19
9.25000,19
9.25833,19
9.26667,20
9.27500,20
9.28333,20
9.29167,20
9.30000,20
9.30833,20
9.31667,21
9.32500,21
9.33333,20
9.34167,20
9.35000,20
9.35833,20
9.36667,20
9.37500,20
9.38333,20
9.39167,20
9.40000,20
9.40833,20
9.41667,21
9.42500,21
9.43333,21
9.44167,21
9.45000,21
9.45833,21
9.46667,21
9.47500,21
9.48333,20
9.49167,20
9.50000,20
9.50833,20
9.51667,20
9.52500,20
9.53333,20
9.54167,20
9.55000,20
9.55833,19
9.56667,19
9.57500,19
9.58333,19
9.59167,20
9.60000,20
9.60833,20
9.61667,20
9.62500,20
9.63333,20
9.64167,20
9.65000,20
9.65833,21
9.66667,21
9.67500,21
9.68333,20
9.69167,21
9.70000,21
9.70833,21
9.71667,21
9.72500,21
9.73333,21
9.74167,21
9.75000,21
9.75833,21
9.76667,20
9.77500,20
9.78333,20
9.79167,20
9.80000,20
9.80833,20
9.81667,20
9.82500,21
9.83333,21
9.84167,21
9.85000,22
9.85833,22
9.86667,22
9.87500,22
9.88333,22
9.89167,21
9.90000,21
9.90833,21
9.91667,21
9.92500,21
9.93333,21
9.94167,21
9.95000,21
9.95833,22
9.96667,22
9.97500,21
9.98333,21
9.99167,21
10.00000,21
10.00833,22
10.01667,22
10.02500,22
10.03333,22
10.04167,22
10.05000,22
10.05833,22
10.06667,22
10.07500,22
10.08333,22
10.09167,22
10.10000,22
10.10833,22
10.11667,22
10.12500,22
10.13333,22
10.14167,22
10.15000,22
10.15833,22
10.16667,22
10.17500,22
10.18333,22
10.19167,22
10.20000,23
10.20833,23
10.21667,23
10.22500,23
10.23333,23
10.24167,23
10.25000,23
10.25833,23
10.26667,23
10.27500,23
10.28333,23
10.29167,24
10.30000,24
10.30833,25
10.31667,25
10.32500,25
10.33333,26
10.34167,26
10.35000,27
10.35833,28
10.36667,29
10.37500,30
10.38333,31
10.39167,31
10.40000,32
10.40833,33
10.41667,34
10.42500,35
10.43333,35
10.44167,35
10.45000,35
10.45833,36
10.46667,36
10.47500,36
10.48333,35
10.49167,34
10.50000,33
10.50833,30
10.51667,27
10.52500,22
10.53333,15
10.54167,4
10.55000,-9
10.55833,-28
10.56667,-53
10.57500,-86
10.58333,-129
10.59167,-183
10.60000,-252
10.60833,-337
10.61667,-440
10.62500,-564
10.63333,-710
10.64167,-880
10.65000,-1075
10.65833,-1293
10.66667,-1534
10.67500,-1795
10.68333,-2070
10.69167,-2354
10.70000,-2641
10.70833,-2920
10.71667,-3182
10.72500,-3415
10.73333,-3606
10.74167,-3742
10.75000,-3808
10.75833,-3790
10.76667,-3674
10.77500,-3446
10.78333,-3094
10.79167,-2605
10.80000,-1968
10.80833,-1174
10.81667,-215
10.82500,917
10.83333,2225
10.84167,3712
10.85000,5380
10.85833,7228
10.86667,9252
10.87500,11448
10.88333,13808
10.89167,16323
10.90000,18980
10.90833,21765
10.91667,24659
10.92500,27642
10.93333,30687
10.94167,33766
10.95000,36844
10.95833,39884
10.96667,42843
10.97500,45676
10.98333,48335
10.99167,50770
11.00000,52930
11.00833,54769
11.01667,56244
11.02500,57318
11.03333,57965
11.04167,58168
11.05000,57923
11.05833,57236
11.06667,56128
11.07500,54631
11.08333,52785
11.09167,50638
11.10000,48243
11.10833,45656
11.11667,42934
11.12500,40130
11.13333,37294
11.14167,34472
11.15000,31703
11.15833,29020
11.16667,26449
11.17500,24011
11.18333,21719
11.19167,19581
11.20000,17602
11.20833,15782
11.21667,14118
11.22500,12606
11.23333,11237
11.24167,10004
11.25000,8897
11.25833,7907
11.26667,7024
11.27500,6240
11.28333,5544
11.29167,4928
11.30000,4385
11.30833,3905
11.31667,3483
11.32500,3112
11.33333,2785
11.34167,2499
11.35000,2247
11.35833,2026
11.36667,1831
11.37500,1661
11.38333,1511
11.39167,1378
11.40000,1262
11.40833,1160
11.41667,1069
11.42500,989
11.43333,918
11.44167,854
11.45000,798
11.45833,747
11.46667,702
11.47500,662
11.48333,626
11.49167,593
11.50000,563
11.50833,536
11.51667,511
11.52500,489
11.53333,468
11.54167,448
11.55000,430
11.55833,414
11.56667,399
11.57500,385
11.58333,372
11.59167,360
11.60000,349
11.60833,339
11.61667,329
11.62500,319
11.63333,310
11.64167,302
11.65000,294
11.65833,286
11.66667,279
11.67500,272
11.68333,266
11.69167,260
11.70000,255
11.70833,250
11.71667,245
11.72500,240
11.73333,235
11.74167,231
11.75000,226
11.75833,222
11.76667,218
11.77500,215
11.78333,211
11.79167,208
11.80000,204
11.80833,201
11.81667,199
11.82500,196
11.83333,194
11.84167,192
11.85000,190
11.85833,188
11.86667,186
11.87500,184
11.88333,181
11.89167,179
11.90000,177
11.90833,176
11.91667,174
11.92500,173
11.93333,172
11.94167,170
11.95000,169
11.95833,168
11.96667,166
11.97500,165
11.98333,163
11.99167,162
12.00000,160
12.00833,159
12.01667,158
12.02500,157
12.03333,156
12.04167,156
12.05000,155
12.05833,154
12.06667,153
12.07500,152
12.08333,151
12.09167,150
12.10000,149
12.10833,148
12.11667,147
12.12500,146
12.13333,144
12.14167,143
12.15000,142
12.15833,141
12.16667,140
12.17500,139
12.18333,138
12.19167,138
12.20000,137
12.20833,137
12.21667,136
12.22500,135
12.23333,134
12.24167,133
12.25000,132
12.25833,131
12.26667,131
12.27500,130
12.28333,130
12.29167,130
12.30000,129
12.30833,128
12.31667,128
12.32500,127
12.33333,127
12.34167,127
12.35000,127
12.35833,127
12.36667,126
12.37500,126
12.38333,125
12.39167,124
12.40000,123
12.40833,123
12.41667,122
12.42500,122
12.43333,122
12.44167,122
12.45000,121
12.45833,121
12.46667,121
12.47500,120
12.48333,120
12.49167,119
12.50000,119
12.50833,118
12.51667,118
12.52500,118
12.53333,118
12.54167,117
12.55000,117
12.55833,116
12.56667,115
12.57500,115
12.58333,114
12.59167,114
12.60000,113
12.60833,113
12.61667,113
12.62500,113
12.63333,112
12.64167,111
12.65000,111
12.65833,110
12.66667,110
12.67500,109
12.68333,109
12.69167,109
12.70000,108
12.70833,107
12.71667,107
12.72500,106
12.73333,106
12.74167,105
12.75000,105
12.75833,105
12.76667,105
12.77500,105
12.78333,105
12.79167,105
12.80000,104
12.80833,104
12.81667,104
12.82500,104
12.83333,104
12.84167,104
12.85000,104
12.85833,104
12.86667,104
12.87500,105
12.88333,105
12.89167,105
12.90000,105
12.90833,105
12.91667,105
12.92500,105
12.93333,106
12.94167,106
12.95000,106
12.95833,106
12.96667,106
12.97500,106
12.98333,106
12.99167,107
13.00000,107
13.00833,106
13.01667,106
13.02500,106
13.03333,107
13.04167,107
13.05000,107
13.05833,107
13.06667,107
13.07500,106
13.08333,106
13.09167,106
13.10000,106
13.10833,106
13.11667,107
13.12500,107
13.13333,106
13.14167,106
13.15000,106
13.15833,106
13.16667,106
13.17500,105
13.18333,105
13.19167,105
13.20000,105
13.20833,105
13.21667,105
13.22500,105
13.23333,104
13.24167,104
13.25000,103
13.25833,103
13.26667,103
13.27500,102
13.28333,101
13.29167,100
13.30000,99
13.30833,99
13.31667,98
13.32500,98
13.33333,97
13.34167,96
13.35000,96
13.35833,95
13.36667,94
13.37500,93
13.38333,92
13.39167,91
13.40000,91
13.40833,90
13.41667,90
13.42500,89
13.43333,88
13.44167,87
13.45000,86
13.45833,85
13.46667,85
13.47500,84
13.48333,83
13.49167,83
13.50000,82
13.50833,81
13.51667,80
13.52500,80
13.53333,79
13.54167,78
13.55000,78
13.55833,77
13.56667,77
13.57500,77
13.58333,76
13.59167,76
13.60000,76
13.60833,75
13.61667,75
13.62500,75
13.63333,74
13.64167,74
13.65000,74
13.65833,73
13.66667,73
13.67500,72
13.68333,72
13.69167,72
13.70000,71
13.70833,71
13.71667,71
13.72500,71
13.73333,71
13.74167,71
13.75000,71
13.75833,71
13.76667,71
13.77500,71
13.78333,71
13.79167,71
13.80000,71
13.80833,72
13.81667,72
13.82500,72
13.83333,72
13.84167,72
13.85000,71
13.85833,71
13.86667,72
13.87500,72
13.88333,72
13.89167,72
13.90000,72
13.90833,73
13.91667,73
13.92500,74
13.93333,74
13.94167,75
13.95000,75
13.95833,75
13.96667,76
13.97500,77
13.98333,77
13.99167,78
14.00000,78
14.00833,78
14.01667,78
14.02500,79
14.03333,79
14.04167,80
14.05000,81
14.05833,81
14.06667,82
14.07500,83
14.08333,84
14.09167,85
14.10000,86
14.10833,88
14.11667,89
14.12500,90
14.13333,92
14.14167,94
14.15000,96
14.15833,98
14.16667,101
14.17500,104
14.18333,108
14.19167,112
14.20000,117
14.20833,124
14.21667,132
14.22500,141
14.23333,152
14.24167,166
14.25000,183
14.25833,203
14.26667,227
14.27500,256
14.28333,290
14.29167,331
14.30000,380
14.30833,437
14.31667,505
14.32500,583
14.33333,675
14.34167,782
14.35000,905
14.35833,1045
14.36667,1205
14.37500,1386
14.38333,1591
14.39167,1820
14.40000,2075
14.40833,2359
14.41667,2672
14.42500,3016
14.43333,3392
14.44167,3801
14.45000,4245
14.45833,4725
14.46667,5240
14.47500,5792
14.48333,6381
14.49167,7007
14.50000,7671
14.50833,8372
14.51667,9111
14.52500,9887
14.53333,10700
14.54167,11550
14.55000,12436
14.55833,13358
14.56667,14315
14.57500,15306
14.58333,16332
14.59167,17391
14.60000,18483
14.60833,19608
14.61667,20765
14.62500,21953
14.63333,23172
14.64167,24420
14.65000,25698
14.65833,27005
14.66667,28340
14.67500,29702
14.68333,31092
14.69167,32509
14.70000,33953
14.70833,35422
14.71667,36917
14.72500,38437
14.73333,39982
14.74167,41551
14.75000,43145
14.75833,44763
14.76667,46405
14.77500,48069
14.78333,49757
14.79167,51467
14.80000,53199
14.80833,54953
14.81667,56730
14.82500,58527
14.83333,60346
14.84167,62186
14.85000,64046
14.85833,65926
14.86667,67825
14.87500,69743
14.88333,71679
14.89167,73631
14.90000,75599
14.90833,77582
14.91667,79579
14.92500,81586
14.93333,83601
14.94167,85621
14.95000,87641
14.95833,89654
14.96667,91650
14.97500,93616
14.98333,95536
14.99167,97385
15.00000,99135
15.00833,100751
15.01667,102188
15.02500,103400
15.03333,104331
15.04167,104927
15.05000,105131
15.05833,104893
15.06667,104167
15.07500,102921
15.08333,101137
15.09167,98810
15.10000,95958
15.10833,92612
15.11667,88823
15.12500,84653
15.13333,80178
15.14167,75477
15.15000,70636
15.15833,65737
15.16667,60859
15.17500,56073
15.18333,51440
15.19167,47012
15.20000,42828
15.20833,38916
15.21667,35295
15.22500,31972
15.23333,28949
15.24167,26222
15.25000,23780
15.25833,21612
15.26667,19702
15.27500,18033
15.28333,16589
15.29167,15354
15.30000,14314
15.30833,13454
15.31667,12761
15.32500,12224
15.33333,11832
15.34167,11575
15.35000,11447
15.35833,11440
15.36667,11546
15.37500,11759
15.38333,12075
15.39167,12486
15.40000,12988
15.40833,13574
15.41667,14239
15.42500,14975
15.43333,15776
15.44167,16634
15.45000,17541
15.45833,18490
15.46667,19471
15.47500,20474
15.48333,21491
15.49167,22510
15.50000,23524
15.50833,24520
15.51667,25490
15.52500,26424
15.53333,27312
15.54167,28146
15.55000,28917
15.55833,29617
15.56667,30241
15.57500,30782
15.58333,31235
15.59167,31596
15.60000,31863
15.60833,32033
15.61667,32105
15.62500,32081
15.63333,31962
15.64167,31749
15.65000,31446
15.65833,31056
15.66667,30585
15.67500,30037
15.68333,29418
15.69167,28736
15.70000,27996
15.70833,27205
15.71667,26369
15.72500,25496
15.73333,24593
15.74167,23666
15.75000,22721
15.75833,21766
15.76667,20806
15.77500,19846
15.78333,18891
15.79167,17947
15.80000,17017
15.80833,16106
15.81667,15216
15.82500,14351
15.83333,13513
15.84167,12705
15.85000,11927
15.85833,11181
15.86667,10468
15.87500,9788
15.88333,9143
15.89167,8531
15.90000,7952
15.90833,7407
15.91667,6893
15.92500,6411
15.93333,5959
15.94167,5536
15.95000,5142
15.95833,4775
15.96667,4434
15.97500,4117
15.98333,3824
15.99167,3553
16.00000,3302
16.00833,3070
16.01667,2857
16.02500,2660
16.03333,2479
16.04167,2313
16.05000,2161
16.05833,2021
16.06667,1892
16.07500,1774
16.08333,1667
16.09167,1568
16.10000,1478
16.10833,1395
16.11667,1319
16.12500,1250
16.13333,1186
16.14167,1127
16.15000,1074
16.15833,1025
16.16667,981
16.17500,940
16.18333,902
16.19167,868
16.20000,836
16.20833,806
16.21667,779
16.22500,754
16.23333,731
16.24167,709
16.25000,689
16.25833,671
16.26667,653
16.27500,638
16.28333,623
16.29167,609
16.30000,596
16.30833,583
16.31667,572
16.32500,561
16.33333,550
16.34167,541
16.35000,532
16.35833,523
16.36667,515
16.37500,507
16.38333,500
16.39167,493
16.40000,487
16.40833,481
16.41667,475
16.42500,469
16.43333,463
16.44167,458
16.45000,452
16.45833,447
16.46667,443
16.47500,438
16.48333,434
16.49167,430
16.50000,425
16.50833,421
16.51667,417
16.52500,414
16.53333,410
16.54167,407
16.55000,403
16.55833,400
16.56667,397
16.57500,394
16.58333,392
16.59167,389
16.60000,386
16.60833,383
16.61667,381
16.62500,378
16.63333,375
16.64167,371
16.65000,369
16.65833,366
16.66667,364
16.67500,361
16.68333,359
16.69167,356
16.70000,354
16.70833,352
16.71667,350
16.72500,348
16.73333,346
16.74167,344
16.75000,341
16.75833,340
16.76667,338
16.77500,336
16.78333,334
16.79167,332
16.80000,330
16.80833,328
16.81667,326
16.82500,324
16.83333,322
16.84167,321
16.85000,319
16.85833,318
16.86667,316
16.87500,314
16.88333,312
16.89167,310
16.90000,309
16.90833,307
16.91667,305
16.92500,304
16.93333,302
16.94167,301
16.95000,299
16.95833,297
16.96667,296
16.97500,294
16.98333,292
16.99167,290
17.00000,289
17.00833,287
17.01667,286
17.02500,284
17.03333,283
17.04167,282
17.05000,280
17.05833,279
17.06667,278
17.07500,276
17.08333,274
17.09167,273
17.10000,271
17.10833,270
17.11667,268
17.12500,267
17.13333,266
17.14167,265
17.15000,263
17.15833,261
17.16667,260
17.17500,258
17.18333,257
17.19167,256
17.20000,254
17.20833,253
17.21667,252
17.22500,251
17.23333,250
17.24167,249
17.25000,247
17.25833,246
17.26667,245
17.27500,244
17.28333,243
17.29167,242
17.30000,240
17.30833,239
17.31667,238
17.32500,237
17.33333,236
17.34167,234
17.35000,233
17.35833,231
17.36667,230
17.37500,229
17.38333,228
17.39167,227
17.40000,226
17.40833,225
17.41667,224
17.42500,223
17.43333,222
17.44167,221
17.45000,220
17.45833,219
17.46667,218
17.47500,217
17.48333,216
17.49167,215
17.50000,214
17.50833,213
17.51667,212
17.52500,211
17.53333,210
17.54167,209
17.55000,208
17.55833,207
17.56667,206
17.57500,206
17.58333,205
17.59167,204
17.60000,203
17.60833,202
17.61667,202
17.62500,201
17.63333,199
17.64167,198
17.65000,198
17.65833,197
17.66667,196
17.67500,195
17.68333,194
17.69167,193
17.70000,192
17.70833,191
17.71667,190
17.72500,189
17.73333,189
17.74167,188
17.75000,188
17.75833,187
17.76667,186
17.77500,185
17.78333,184
17.79167,184
17.80000,183
17.80833,183
17.81667,182
17.82500,182
17.83333,181
17.84167,180
17.85000,179
17.85833,178
17.86667,177
17.87500,177
17.88333,176
17.89167,175
17.90000,175
17.90833,174
17.91667,174
17.92500,173
17.93333,172
17.94167,172
17.95000,171
17.95833,171
17.96667,170
17.97500,169
17.98333,169
17.99167,168
18.00000,168
18.00833,167
18.01667,167
18.02500,166
18.03333,165
18.04167,165
18.05000,164
18.05833,163
18.06667,163
18.07500,162
18.08333,161
18.09167,161
18.10000,160
18.10833,159
18.11667,159
18.12500,158
18.13333,157
18.14167,157
18.15000,156
18.15833,155
18.16667,154
18.17500,154
18.18333,153
18.19167,152
18.20000,152
18.20833,151
18.21667,151
18.22500,150
18.23333,149
18.24167,149
18.25000,148
18.25833,148
18.26667,147
18.27500,147
18.28333,146
18.29167,145
18.30000,145
18.30833,144
18.31667,144
18.32500,143
18.33333,143
18.34167,143
18.35000,142
18.35833,142
18.36667,141
18.37500,141
18.38333,140
18.39167,139
18.40000,139
18.40833,138
18.41667,138
18.42500,138
18.43333,138
18.44167,138
18.45000,137
18.45833,137
18.46667,136
18.47500,135
18.48333,135
18.49167,135
18.50000,134
18.50833,134
18.51667,134
18.52500,133
18.53333,133
18.54167,132
18.55000,132
18.55833,131
18.56667,131
18.57500,131
18.58333,131
18.59167,131
18.60000,131
18.60833,131
18.61667,130
18.62500,130
18.63333,130
18.64167,130
18.65000,130
18.65833,131
18.66667,131
18.67500,131
18.68333,132
18.69167,132
18.70000,132
18.70833,133
18.71667,133
18.72500,134
18.73333,135
18.74167,136
18.75000,137
18.75833,138
18.76667,139
18.77500,140
18.78333,141
18.79167,143
18.80000,144
18.80833,145
18.81667,147
18.82500,149
18.83333,150
18.84167,152
18.85000,153
18.85833,155
18.86667,156
18.87500,157
18.88333,159
18.89167,160
18.90000,161
18.90833,162
18.91667,163
18.92500,163
18.93333,164
18.94167,165
18.95000,166
18.95833,166
18.96667,166
18.97500,166
18.98333,165
18.99167,165
19.00000,164
19.00833,163
19.01667,162
19.02500,161
19.03333,161
19.04167,160
19.05000,158
19.05833,157
19.06667,156
19.07500,155
19.08333,153
19.09167,151
19.10000,149
19.10833,147
19.11667,145
19.12500,144
19.13333,142
19.14167,140
19.15000,138
19.15833,137
19.16667,135
19.17500,133
19.18333,131
19.19167,129
19.20000,127
19.20833,125
19.21667,124
19.22500,123
19.23333,121
19.24167,120
19.25000,119
19.25833,118
19.26667,117
19.27500,116
19.28333,115
19.29167,114
19.30000,113
19.30833,112
19.31667,111
19.32500,110
19.33333,109
19.34167,108
19.35000,107
19.35833,107
19.36667,106
19.37500,106
19.38333,105
19.39167,105
19.40000,104
19.40833,104
19.41667,104
19.42500,104
19.43333,103
19.44167,103
19.45000,102
19.45833,102
19.46667,101
19.47500,101
19.48333,101
19.49167,100
19.50000,100
19.50833,99
19.51667,99
19.52500,99
19.53333,99
19.54167,99
19.55000,98
19.55833,98
19.56667,98
19.57500,97
19.58333,98
19.59167,98
19.60000,98
19.60833,97
19.61667,97
19.62500,96
19.63333,96
19.64167,95
19.65000,95
19.65833,95
19.66667,95
19.67500,95
19.68333,95
19.69167,95
19.70000,95
19.70833,94
19.71667,94
19.72500,93
19.73333,93
19.74167,92
19.75000,92
19.75833,92
19.76667,91
19.77500,91
19.78333,91
19.79167,91
19.80000,91
19.80833,91
19.81667,91
19.82500,91
19.83333,90
19.84167,90
19.85000,90
19.85833,89
19.86667,89
19.87500,89
19.88333,89
19.89167,89
19.90000,89
19.90833,89
19.91667,89
19.92500,89
19.93333,89
19.94167,89
19.95000,88
19.95833,88
19.96667,88
19.97500,88
19.98333,88
19.99167,88
20.00000,87
20.00833,87
20.01667,87
20.02500,87
20.03333,87
20.04167,87
20.05000,87
20.05833,86
20.06667,86
20.07500,86
20.08333,85
20.09167,85
20.10000,84
20.10833,84
20.11667,84
20.12500,84
20.13333,84
20.14167,84
20.15000,84
20.15833,84
20.16667,84
20.17500,83
20.18333,84
20.19167,84
20.20000,84
20.20833,84
20.21667,84
20.22500,84
20.23333,84
20.24167,84
20.25000,84
20.25833,83
20.26667,83
20.27500,83
20.28333,82
20.29167,82
20.30000,82
20.30833,82
20.31667,82
20.32500,82
20.33333,82
20.34167,82
20.35000,82
20.35833,82
20.36667,82
20.37500,82
20.38333,81
20.39167,81
20.40000,81
20.40833,81
20.41667,81
20.42500,81
20.43333,81
20.44167,80
20.45000,80
20.45833,80
20.46667,80
20.47500,80
20.48333,80
20.49167,79
20.50000,79
20.50833,79
20.51667,79
20.52500,79
20.53333,79
20.54167,79
20.55000,80
20.55833,80
20.56667,80
20.57500,80
20.58333,79
20.59167,79
20.60000,79
20.60833,79
20.61667,79
20.62500,78
20.63333,78
20.64167,78
20.65000,78
20.65833,77
20.66667,77
20.67500,77
20.68333,77
20.69167,77
20.70000,77
20.70833,77
20.71667,77
20.72500,77
20.73333,76
20.74167,76
20.75000,76
20.75833,77
20.76667,77
20.77500,77
20.78333,77
20.79167,77
20.80000,77
20.80833,76
20.81667,76
20.82500,76
20.83333,75
20.84167,75
20.85000,76
20.85833,76
20.86667,76
20.87500,76
20.88333,75
20.89167,75
20.90000,75
20.90833,75
20.91667,75
20.92500,75
20.93333,74
20.94167,74
20.95000,74
20.95833,74
20.96667,74
20.97500,74
20.98333,74
20.99167,74
21.00000,74
21.00833,74
21.01667,74
21.02500,74
21.03333,74
21.04167,74
21.05000,74
21.05833,74
21.06667,74
21.07500,74
21.08333,74
21.09167,74
21.10000,74
21.10833,74
21.11667,74
21.12500,74
21.13333,74
21.14167,73
21.15000,73
21.15833,73
21.16667,73
21.17500,73
21.18333,73
21.19167,73
21.20000,73
21.20833,72
21.21667,72
21.22500,72
21.23333,72
21.24167,72
21.25000,72
21.25833,72
21.26667,72
21.27500,72
21.28333,72
21.29167,72
21.30000,72
21.30833,72
21.31667,72
21.32500,73
21.33333,73
21.34167,73
21.35000,73
21.35833,73
21.36667,73
21.37500,73
21.38333,73
21.39167,72
21.40000,72
21.40833,71
21.41667,71
21.42500,71
21.43333,71
21.44167,71
21.45000,71
21.45833,71
21.46667,71
21.47500,71
21.48333,71
21.49167,71
21.50000,71
21.50833,71
21.51667,72
21.52500,72
21.53333,72
21.54167,71
21.55000,71
21.55833,71
21.56667,71
21.57500,71
21.58333,71
21.59167,71
21.60000,71
21.60833,72
21.61667,71
21.62500,72
21.63333,72
21.64167,73
21.65000,73
21.65833,73
21.66667,73
21.67500,74
21.68333,74
21.69167,73
21.70000,73
21.70833,73
21.71667,73
21.72500,73
21.73333,73
21.74167,73
21.75000,74
21.75833,74
21.76667,74
21.77500,74
21.78333,74
21.79167,74
21.80000,74
21.80833,75
21.81667,75
21.82500,75
21.83333,75
21.84167,75
21.85000,75
21.85833,75
21.86667,75
21.87500,75
21.88333,75
21.89167,75
21.90000,75
21.90833,76
21.91667,75
21.92500,75
21.93333,75
21.94167,75
21.95000,75
21.95833,75
21.96667,75
21.97500,75
21.98333,74
21.99167,75
22.00000,75
22.00833,75
22.01667,75
22.02500,75
22.03333,75
22.04167,75
22.05000,74
22.05833,74
22.06667,74
22.07500,74
22.08333,74
22.09167,73
22.10000,73
22.10833,73
22.11667,72
22.12500,72
22.13333,72
22.14167,71
22.15000,71
22.15833,71
22.16667,71
22.17500,71
22.18333,71
22.19167,71
22.20000,71
22.20833,71
22.21667,70
22.22500,70
22.23333,69
22.24167,69
22.25000,69
22.25833,70
22.26667,70
22.27500,70
22.28333,70
22.29167,70
22.30000,70
22.30833,70
22.31667,70
22.32500,69
22.33333,69
22.34167,69
22.35000,68
22.35833,69
22.36667,69
22.37500,69
22.38333,68
22.39167,68
22.40000,68
22.40833,68
22.41667,68
22.42500,68
22.43333,68
22.44167,68
22.45000,68
22.45833,68
22.46667,68
22.47500,67
22.48333,67
22.49167,67
22.50000,67
22.50833,67
22.51667,67
22.52500,67
22.53333,67
22.54167,67
22.55000,67
22.55833,67
22.56667,67
22.57500,67
22.58333,67
22.59167,67
22.60000,67
22.60833,67
22.61667,67
22.62500,67
22.63333,67
22.64167,67
22.65000,67
22.65833,67
22.66667,67
22.67500,67
22.68333,67
22.69167,67
22.70000,67
22.70833,67
22.71667,66
22.72500,66
22.73333,66
22.74167,66
22.75000,66
22.75833,67
22.76667,67
22.77500,67
22.78333,67
22.79167,67
22.80000,68
22.80833,68
22.81667,68
22.82500,68
22.83333,69
22.84167,69
22.85000,69
22.85833,69
22.86667,70
22.87500,70
22.88333,70
22.89167,71
22.90000,71
22.90833,71
22.91667,71
22.92500,71
22.93333,72
22.94167,72
22.95000,73
22.95833,74
22.96667,75
22.97500,75
22.98333,76
22.99167,77
23.00000,77
23.00833,78
23.01667,79
23.02500,80
23.03333,80
23.04167,81
23.05000,82
23.05833,83
23.06667,83
23.07500,84
23.08333,84
23.09167,84
23.10000,84
23.10833,85
23.11667,85
23.12500,86
23.13333,86
23.14167,87
23.15000,87
23.15833,88
23.16667,88
23.17500,88
23.18333,89
23.19167,89
23.20000,89
23.20833,90
23.21667,89
23.22500,89
23.23333,89
23.24167,89
23.25000,89
23.25833,89
23.26667,88
23.27500,88
23.28333,88
23.29167,88
23.30000,87
23.30833,87
23.31667,86
23.32500,86
23.33333,85
23.34167,85
23.35000,84
23.35833,84
23.36667,83
23.37500,83
23.38333,82
23.39167,81
23.40000,81
23.40833,80
23.41667,80
23.42500,80
23.43333,79
23.44167,79
23.45000,78
23.45833,77
23.46667,76
23.47500,76
23.48333,75
23.49167,75
23.50000,74
23.50833,73
23.51667,73
23.52500,72
23.53333,72
23.54167,71
23.55000,71
23.55833,70
23.56667,70
23.57500,70
23.58333,70
23.59167,70
23.60000,70
23.60833,70
23.61667,69
23.62500,69
23.63333,69
23.64167,69
23.65000,68
23.65833,68
23.66667,67
23.67500,67
23.68333,67
23.69167,67
23.70000,67
23.70833,67
23.71667,67
23.72500,67
23.73333,67
23.74167,67
23.75000,67
23.75833,67
23.76667,67
23.77500,67
23.78333,67
23.79167,67
23.80000,67
23.80833,67
23.81667,67
23.82500,67
23.83333,67
23.84167,66
23.85000,66
23.85833,66
23.86667,66
23.87500,66
23.88333,67
23.89167,67
23.90000,67
23.90833,67
23.91667,67
23.92500,66
23.93333,66
23.94167,66
23.95000,67
23.95833,67
23.96667,67
23.97500,67
23.98333,67
23.99167,67
24.00000,67
24.00833,67
24.01667,67
24.02500,67
24.03333,66
24.04167,66
24.05000,66
24.05833,66
24.06667,66
24.07500,66
24.08333,66
24.09167,66
24.10000,66
24.10833,66
24.11667,65
24.12500,65
24.13333,66
24.14167,66
24.15000,67
24.15833,67
24.16667,67
24.17500,67
24.18333,67
24.19167,67
24.20000,67
24.20833,66
24.21667,66
24.22500,66
24.23333,66
24.24167,66
24.25000,66
24.25833,66
24.26667,66
24.27500,67
24.28333,67
24.29167,67
24.30000,67
24.30833,66
24.31667,66
24.32500,66
24.33333,66
24.34167,66
24.35000,67
24.35833,66
24.36667,67
24.37500,67
24.38333,67
24.39167,68
24.40000,68
24.40833,68
24.41667,68
24.42500,69
24.43333,69
24.44167,69
24.45000,70
24.45833,70
24.46667,70
24.47500,70
24.48333,71
24.49167,71
24.50000,72
24.50833,73
24.51667,73
24.52500,74
24.53333,75
24.54167,75
24.55000,76
24.55833,77
24.56667,78
24.57500,79
24.58333,80
24.59167,82
24.60000,83
24.60833,85
24.61667,86
24.62500,89
24.63333,91
24.64167,93
24.65000,95
24.65833,98
24.66667,101
24.67500,104
24.68333,107
24.69167,110
24.70000,114
24.70833,118
24.71667,122
24.72500,127
24.73333,131
24.74167,136
24.75000,141
24.75833,146
24.76667,152
24.77500,157
24.78333,163
24.79167,169
24.80000,175
24.80833,181
24.81667,187
24.82500,194
24.83333,200
24.84167,207
24.85000,214
24.85833,221
24.86667,228
24.87500,234
24.88333,240
24.89167,247
24.90000,253
24.90833,259
24.91667,265
24.92500,271
24.93333,276
24.94167,281
24.95000,285
24.95833,290
24.96667,294
24.97500,297
24.98333,300
24.99167,302
25.00000,304
25.00833,306
25.01667,308
25.02500,309
25.03333,309
25.04167,309
25.05000,309
25.05833,308
25.06667,306
25.07500,304
25.08333,302
25.09167,299
25.10000,296
25.10833,293
25.11667,289
25.12500,285
25.13333,280
25.14167,275
25.15000,270
25.15833,265
25.16667,259
25.17500,253
25.18333,246
25.19167,240
25.20000,234
25.20833,229
25.21667,223
25.22500,217
25.23333,211
25.24167,205
25.25000,199
25.25833,193
25.26667,187
25.27500,181
25.28333,176
25.29167,170
25.30000,165
25.30833,160
25.31667,155
25.32500,150
25.33333,146
25.34167,141
25.35000,137
25.35833,133
25.36667,129
25.37500,125
25.38333,121
25.39167,118
25.40000,115
25.40833,112
25.41667,109
25.42500,106
25.43333,104
25.44167,101
25.45000,99
25.45833,97
25.46667,95
25.47500,93
25.48333,91
25.49167,90
25.50000,88
25.50833,86
25.51667,84
25.52500,83
25.53333,82
25.54167,81
25.55000,80
25.55833,79
25.56667,78
25.57500,78
25.58333,77
25.59167,77
25.60000,76
25.60833,76
25.61667,76
25.62500,76
25.63333,75
25.64167,75
25.65000,75
25.65833,74
25.66667,73
25.67500,73
25.68333,73
25.69167,72
25.70000,72
25.70833,72
25.71667,71
25.72500,71
25.73333,72
25.74167,72
25.75000,72
25.75833,72
25.76667,72
25.77500,72
25.78333,72
25.79167,71
25.80000,71
25.80833,72
25.81667,72
25.82500,72
25.83333,72
25.84167,72
25.85000,72
25.85833,72
25.86667,72
25.87500,72
25.88333,73
25.89167,73
25.90000,72
25.90833,72
25.91667,72
25.92500,72
25.93333,72
25.94167,72
25.95000,72
25.95833,73
25.96667,73
25.97500,73
25.98333,72
25.99167,72
26.00000,72
26.00833,72
26.01667,72
26.02500,73
26.03333,73
26.04167,72
26.05000,72
26.05833,72
26.06667,72
26.07500,71
26.08333,72
26.09167,72
26.10000,72
26.10833,72
26.11667,72
26.12500,72
26.13333,72
26.14167,72
26.15000,72
26.15833,72
26.16667,72
26.17500,73
26.18333,72
26.19167,72
26.20000,72
26.20833,72
26.21667,72
26.22500,72
26.23333,72
26.24167,72
26.25000,73
26.25833,73
26.26667,73
26.27500,73
26.28333,73
26.29167,73
26.30000,73
26.30833,72
26.31667,72
26.32500,72
26.33333,72
26.34167,72
26.35000,72
26.35833,72
26.36667,72
26.37500,73
26.38333,73
26.39167,73
26.40000,73
26.40833,73
26.41667,73
26.42500,73
26.43333,73
26.44167,73
26.45000,73
26.45833,72
26.46667,72
26.47500,72
26.48333,72
26.49167,72
26.50000,72
26.50833,72
26.51667,72
26.52500,72
26.53333,73
26.54167,73
26.55000,73
26.55833,73
26.56667,73
26.57500,73
26.58333,73
26.59167,74
26.60000,73
26.60833,73
26.61667,73
26.62500,74
26.63333,74
26.64167,74
26.65000,74
26.65833,75
26.66667,75
26.67500,75
26.68333,75
26.69167,75
26.70000,75
26.70833,75
26.71667,75
26.72500,75
26.73333,75
26.74167,75
26.75000,75
26.75833,75
26.76667,75
26.77500,75
26.78333,74
26.79167,74
26.80000,74
26.80833,74
26.81667,74
26.82500,74
26.83333,74
26.84167,74
26.85000,74
26.85833,74
26.86667,74
26.87500,74
26.88333,74
26.89167,74
26.90000,74
26.90833,75
26.91667,76
26.92500,76
26.93333,76
26.94167,76
26.95000,76
26.95833,76
26.96667,76
26.97500,76
26.98333,76
26.99167,76
27.00000,76
27.00833,76
27.01667,76
27.02500,76
27.03333,76
27.04167,75
27.05000,75
27.05833,75
27.06667,76
27.07500,76
27.08333,76
27.09167,76
27.10000,77
27.10833,77
27.11667,77
27.12500,77
27.13333,77
27.14167,77
27.15000,77
27.15833,76
27.16667,76
27.17500,76
27.18333,76
27.19167,76
27.20000,76
27.20833,76
27.21667,76
27.22500,76
27.23333,76
27.24167,76
27.25000,76
27.25833,76
27.26667,77
27.27500,77
27.28333,77
27.29167,77
27.30000,78
27.30833,78
27.31667,78
27.32500,77
27.33333,77
27.34167,77
27.35000,77
27.35833,77
27.36667,77
27.37500,78
27.38333,78
27.39167,78
27.40000,78
27.40833,78
27.41667,78
27.42500,78
27.43333,78
27.44167,78
27.45000,78
27.45833,78
27.46667,79
27.47500,79
27.48333,79
27.49167,79
27.50000,78
27.50833,78
27.51667,78
27.52500,78
27.53333,79
27.54167,79
27.55000,79
27.55833,79
27.56667,79
27.57500,79
27.58333,79
27.59167,79
27.60000,78
27.60833,78
27.61667,79
27.62500,79
27.63333,79
27.64167,79
27.65000,78
27.65833,78
27.66667,78
27.67500,78
27.68333,78
27.69167,78
27.70000,78
27.70833,77
27.71667,77
27.72500,77
27.73333,76
27.74167,76
27.75000,75
27.75833,74
27.76667,73
27.77500,73
27.78333,72
27.79167,71
27.80000,70
27.80833,69
27.81667,68
27.82500,67
27.83333,66
27.84167,64
27.85000,63
27.85833,61
27.86667,59
27.87500,57
27.88333,54
27.89167,52
27.90000,50
27.90833,48
27.91667,45
27.92500,42
27.93333,38
27.94167,34
27.95000,30
27.95833,26
27.96667,21
27.97500,16
27.98333,11
27.99167,6
28.00000,1
28.00833,-5
28.01667,-12
28.02500,-19
28.03333,-26
28.04167,-33
28.05000,-41
28.05833,-50
28.06667,-58
28.07500,-67
28.08333,-77
28.09167,-87
28.10000,-98
28.10833,-108
28.11667,-119
28.12500,-130
28.13333,-142
28.14167,-155
28.15000,-167
28.15833,-180
28.16667,-194
28.17500,-208
28.18333,-222
28.19167,-236
28.20000,-250
28.20833,-265
28.21667,-280
28.22500,-295
28.23333,-311
28.24167,-326
28.25000,-341
28.25833,-357
28.26667,-372
28.27500,-387
28.28333,-403
28.29167,-418
28.30000,-434
28.30833,-449
28.31667,-464
28.32500,-479
28.33333,-494
28.34167,-508
28.35000,-522
28.35833,-535
28.36667,-548
28.37500,-560
28.38333,-573
28.39167,-584
28.40000,-595
28.40833,-606
28.41667,-615
28.42500,-624
28.43333,-633
28.44167,-641
28.45000,-648
28.45833,-655
28.46667,-661
28.47500,-666
28.48333,-671
28.49167,-674
28.50000,-677
28.50833,-679
28.51667,-681
28.52500,-681
28.53333,-681
28.54167,-681
28.55000,-680
28.55833,-678
28.56667,-675
28.57500,-672
28.58333,-668
28.59167,-664
28.60000,-659
28.60833,-654
28.61667,-648
28.62500,-642
28.63333,-635
28.64167,-628
28.65000,-620
28.65833,-611
28.66667,-603
28.67500,-594
28.68333,-586
28.69167,-577
28.70000,-567
28.70833,-558
28.71667,-548
28.72500,-539
28.73333,-529
28.74167,-520
28.75000,-510
28.75833,-500
28.76667,-490
28.77500,-481
28.78333,-471
28.79167,-461
28.80000,-452
28.80833,-442
28.81667,-433
28.82500,-424
28.83333,-415
28.84167,-406
28.85000,-398
28.85833,-390
28.86667,-382
28.87500,-374
28.88333,-366
28.89167,-358
28.90000,-351
28.90833,-345
28.91667,-338
28.92500,-332
28.93333,-326
28.94167,-320
28.95000,-315
28.95833,-309
28.96667,-304
28.97500,-299
28.98333,-294
28.99167,-289
29.00000,-284
29.00833,-279
29.01667,-274
29.02500,-270
29.03333,-266
29.04167,-262
29.05000,-259
29.05833,-255
29.06667,-252
29.07500,-249
29.08333,-246
29.09167,-243
29.10000,-240
29.10833,-237
29.11667,-235
29.12500,-232
29.13333,-230
29.14167,-227
29.15000,-225
29.15833,-223
29.16667,-221
29.17500,-220
29.18333,-218
29.19167,-216
29.20000,-214
29.20833,-213
29.21667,-211
29.22500,-209
29.23333,-208
29.24167,-206
29.25000,-205
29.25833,-203
29.26667,-202
29.27500,-200
29.28333,-199
29.29167,-198
29.30000,-196
29.30833,-195
29.31667,-194
29.32500,-193
29.33333,-193
29.34167,-192
29.35000,-191
29.35833,-190
29.36667,-189
29.37500,-188
29.38333,-187
29.39167,-186
29.40000,-186
29.40833,-185
29.41667,-184
29.42500,-184
29.43333,-183
29.44167,-183
29.45000,-182
29.45833,-182
29.46667,-181
29.47500,-181
29.48333,-180
29.49167,-179
29.50000,-179
29.50833,-178
29.51667,-178
29.52500,-177
29.53333,-177
29.54167,-177
29.55000,-177
29.55833,-176
29.56667,-176
29.57500,-176
29.58333,-176
29.59167,-176
29.60000,-176
29.60833,-177
29.61667,-177
29.62500,-177
29.63333,-178
29.64167,-178
29.65000,-179
29.65833,-179
29.66667,-180
29.67500,-181
29.68333,-182
29.69167,-183
29.70000,-184
29.70833,-185
29.71667,-186
29.72500,-188
29.73333,-189
29.74167,-191
29.75000,-193
29.75833,-194
29.76667,-196
29.77500,-198
29.78333,-200
29.79167,-202
29.80000,-204
29.80833,-207
29.81667,-209
29.82500,-212
29.83333,-215
29.84167,-218
29.85000,-222
29.85833,-225
29.86667,-228
29.87500,-231
29.88333,-235
29.89167,-238
29.90000,-242
29.90833,-245
29.91667,-249
29.92500,-253
29.93333,-256
29.94167,-260
29.95000,-264
29.95833,-268
29.96667,-272
29.97500,-276
29.98333,-280
29.99167,-284
30.00000,-288
30.00833,-292
30.01667,-296
30.02500,-300
30.03333,-304
30.04167,-308
30.05000,-312
30.05833,-316
30.06667,-320
30.07500,-324
30.08333,-327
30.09167,-331
30.10000,-334
30.10833,-337
30.11667,-340
30.12500,-344
30.13333,-347
30.14167,-350
30.15000,-352
30.15833,-355
30.16667,-357
30.17500,-359
30.18333,-361
30.19167,-362
30.20000,-364
30.20833,-365
30.21667,-366
30.22500,-367
30.23333,-367
30.24167,-368
30.25000,-368
30.25833,-368
30.26667,-368
30.27500,-368
30.28333,-367
30.29167,-366
30.30000,-365
30.30833,-365
30.31667,-363
30.32500,-362
30.33333,-360
30.34167,-359
30.35000,-356
30.35833,-354
30.36667,-352
30.37500,-349
30.38333,-347
30.39167,-344
30.40000,-341
30.40833,-338
30.41667,-335
30.42500,-332
30.43333,-328
30.44167,-325
30.45000,-321
30.45833,-318
30.46667,-315
30.47500,-311
30.48333,-308
30.49167,-304
30.50000,-300
30.50833,-296
30.51667,-293
30.52500,-289
30.53333,-286
30.54167,-282
30.55000,-278
30.55833,-274
30.56667,-270
30.57500,-266
30.58333,-263
30.59167,-259
30.60000,-255
30.60833,-252
30.61667,-248
30.62500,-245
30.63333,-242
30.64167,-238
30.65000,-235
30.65833,-232
30.66667,-230
30.67500,-227
30.68333,-224
30.69167,-221
30.70000,-218
30.70833,-215
30.71667,-213
30.72500,-211
30.73333,-209
30.74167,-207
30.75000,-205
30.75833,-203
30.76667,-202
30.77500,-199
30.78333,-197
30.79167,-195
30.80000,-193
30.80833,-192
30.81667,-190
30.82500,-188
30.83333,-187
30.84167,-185
30.85000,-184
30.85833,-183
30.86667,-181
30.87500,-180
30.88333,-179
30.89167,-177
30.90000,-176
30.90833,-175
30.91667,-173
30.92500,-172
30.93333,-171
30.94167,-170
30.95000,-169
30.95833,-168
30.96667,-167
30.97500,-166
30.98333,-165
30.99167,-165
31.00000,-164
31.00833,-162
31.01667,-161
31.02500,-161
31.03333,-160
31.04167,-159
31.05000,-158
31.05833,-157
31.06667,-156
31.07500,-155
31.08333,-154
31.09167,-153
31.10000,-153
31.10833,-152
31.11667,-150
31.12500,-149
31.13333,-148
31.14167,-147
31.15000,-146
31.15833,-144
31.16667,-143
31.17500,-142
31.18333,-141
31.19167,-140
31.20000,-138
31.20833,-138
31.21667,-137
31.22500,-135
31.23333,-134
31.24167,-133
31.25000,-132
31.25833,-130
31.26667,-129
31.27500,-127
31.28333,-126
31.29167,-125
31.30000,-124
31.30833,-123
31.31667,-122
31.32500,-120
31.33333,-119
31.34167,-118
31.35000,-117
31.35833,-115
31.36667,-114
31.37500,-112
31.38333,-110
31.39167,-109
31.40000,-108
31.40833,-106
31.41667,-105
31.42500,-103
31.43333,-102
31.44167,-101
31.45000,-100
31.45833,-98
31.46667,-97
31.47500,-96
31.48333,-94
31.49167,-94
31.50000,-93
31.50833,-92
31.51667,-90
31.52500,-89
31.53333,-88
31.54167,-86
31.55000,-85
31.55833,-84
31.56667,-84
31.57500,-82
31.58333,-81
31.59167,-79
31.60000,-78
31.60833,-77
31.61667,-76
31.62500,-75
31.63333,-74
31.64167,-73
31.65000,-72
31.65833,-71
31.66667,-70
31.67500,-69
31.68333,-68
31.69167,-68
31.70000,-67
31.70833,-66
31.71667,-65
31.72500,-64
31.73333,-63
31.74167,-62
31.75000,-61
31.75833,-60
31.76667,-60
31.77500,-59
31.78333,-58
31.79167,-57
31.80000,-57
31.80833,-56
31.81667,-55
31.82500,-54
31.83333,-54
31.84167,-53
31.85000,-53
31.85833,-52
31.86667,-52
31.87500,-51
31.88333,-50
31.89167,-50
31.90000,-49
31.90833,-49
31.91667,-48
31.92500,-47
31.93333,-47
31.94167,-46
31.95000,-45
31.95833,-44
31.96667,-44
31.97500,-44
31.98333,-44
31.99167,-43
32.00000,-43
32.00833,-42
32.01667,-42
32.02500,-41
32.03333,-40
32.04167,-40
32.05000,-39
32.05833,-39
32.06667,-38
32.07500,-38
32.08333,-37
32.09167,-37
32.10000,-36
32.10833,-36
32.11667,-35
32.12500,-35
32.13333,-34
32.14167,-33
32.15000,-33
32.15833,-32
32.16667,-31
32.17500,-31
32.18333,-31
32.19167,-30
32.20000,-30
32.20833,-30
32.21667,-29
32.22500,-29
32.23333,-28
32.24167,-28
32.25000,-28
32.25833,-28
32.26667,-27
32.27500,-27
32.28333,-26
32.29167,-25
32.30000,-24
32.30833,-24
32.31667,-23
32.32500,-23
32.33333,-23
32.34167,-22
32.35000,-21
32.35833,-20
32.36667,-20
32.37500,-19
32.38333,-18
32.39167,-18
32.40000,-17
32.40833,-17
32.41667,-16
32.42500,-16
32.43333,-16
32.44167,-15
32.45000,-14
32.45833,-13
32.46667,-13
32.47500,-12
32.48333,-12
32.49167,-11
32.50000,-10
32.50833,-10
32.51667,-10
32.52500,-10
32.53333,-10
32.54167,-10
32.55000,-9
32.55833,-8
32.56667,-8
32.57500,-8
32.58333,-7
32.59167,-7
32.60000,-6
32.60833,-6
32.61667,-5
32.62500,-5
32.63333,-4
32.64167,-4
32.65000,-4
32.65833,-3
32.66667,-2
32.67500,-2
32.68333,-1
32.69167,-1
32.70000,-0
32.70833,0
32.71667,0
32.72500,1
32.73333,1
32.74167,2
32.75000,2
32.75833,2
32.76667,2
32.77500,2
32.78333,3
32.79167,3
32.80000,4
32.80833,4
32.81667,5
32.82500,5
32.83333,5
32.84167,6
32.85000,6
32.85833,7
32.86667,8
32.87500,8
32.88333,9
32.89167,9
32.90000,10
32.90833,10
32.91667,11
32.92500,11
32.93333,11
32.94167,12
32.95000,13
32.95833,13
32.96667,13
32.97500,13
32.98333,13
32.99167,14
33.00000,14
33.00833,15
33.01667,15
33.02500,16
33.03333,17
33.04167,17
33.05000,17
33.05833,18
33.06667,18
33.07500,18
33.08333,19
33.09167,19
33.10000,20
33.10833,20
33.11667,21
33.12500,22
33.13333,22
33.14167,22
33.15000,23
33.15833,23
33.16667,23
33.17500,23
33.18333,24
33.19167,24
33.20000,25
33.20833,25
33.21667,26
33.22500,26
33.23333,26
33.24167,26
33.25000,26
33.25833,27
33.26667,27
33.27500,28
33.28333,28
33.29167,28
33.30000,28
33.30833,29
33.31667,29
33.32500,29
33.33333,29
33.34167,30
33.35000,30
33.35833,31
33.36667,31
33.37500,32
33.38333,32
33.39167,32
33.40000,33
33.40833,33
33.41667,33
33.42500,34
33.43333,34
33.44167,34
33.45000,34
33.45833,34
33.46667,34
33.47500,35
33.48333,35
33.49167,35
33.50000,36
33.50833,36
33.51667,36
33.52500,36
33.53333,37
33.54167,37
33.55000,37
33.55833,38
33.56667,39
33.57500,39
33.58333,40
33.59167,40
33.60000,40
33.60833,40
33.61667,40
33.62500,40
33.63333,41
33.64167,42
33.65000,42
33.65833,42
33.66667,42
33.67500,43
33.68333,43
33.69167,43
33.70000,42
33.70833,42
33.71667,43
33.72500,43
33.73333,44
33.74167,44
33.75000,45
33.75833,45
33.76667,45
33.77500,45
33.78333,45
33.79167,45
33.80000,46
33.80833,46
33.81667,47
33.82500,47
33.83333,48
33.84167,48
33.85000,49
33.85833,49
33.86667,48
33.87500,48
33.88333,48
33.89167,49
33.90000,49
33.90833,49
33.91667,49
33.92500,49
33.93333,49
33.94167,49
33.95000,50
33.95833,50
33.96667,51
33.97500,51
33.98333,51
33.99167,51
34.00000,52
34.00833,52
34.01667,53
34.02500,53
34.03333,53
34.04167,54
34.05000,54
34.05833,54
34.06667,54
34.07500,54
34.08333,54
34.09167,54
34.10000,54
34.10833,55
34.11667,55
34.12500,56
34.13333,57
34.14167,57
34.15000,57
34.15833,57
34.16667,57
34.17500,57
34.18333,57
34.19167,57
34.20000,57
34.20833,58
34.21667,58
34.22500,58
34.23333,58
34.24167,58
34.25000,58
34.25833,58
34.26667,59
34.27500,59
34.28333,59
34.29167,59
34.30000,59
34.30833,59
34.31667,60
34.32500,60
34.33333,60
34.34167,60
34.35000,60
34.35833,61
34.36667,61
34.37500,61
34.38333,61
34.39167,61
34.40000,61
34.40833,62
34.41667,62
34.42500,62
34.43333,62
34.44167,62
34.45000,62
34.45833,62
34.46667,62
34.47500,63
34.48333,63
34.49167,63
34.50000,63
34.50833,63
34.51667,63
34.52500,63
34.53333,63
34.54167,64
34.55000,64
34.55833,64
34.56667,65
34.57500,65
34.58333,65
34.59167,65
34.60000,65
34.60833,65
34.61667,65
34.62500,65
34.63333,65
34.64167,65
34.65000,65
34.65833,65
34.66667,65
34.67500,65
34.68333,65
34.69167,65
34.70000,66
34.70833,66
34.71667,66
34.72500,66
34.73333,67
34.74167,67
34.75000,67
34.75833,67
34.76667,67
34.77500,67
34.78333,67
34.79167,67
34.80000,67
34.80833,67
34.81667,67
34.82500,67
34.83333,67
34.84167,67
34.85000,67
34.85833,66
34.86667,66
34.87500,67
34.88333,67
34.89167,68
34.90000,68
34.90833,69
34.91667,69
34.92500,69
34.93333,69
34.94167,69
34.95000,69
34.95833,69
34.96667,68
34.97500,68
34.98333,68
34.99167,69
35.00000,69
35.00833,69
35.01667,70
35.02500,70
35.03333,70
35.04167,70
35.05000,70
35.05833,70
35.06667,71
35.07500,71
35.08333,71
35.09167,71
35.10000,71
35.10833,71
35.11667,71
35.12500,71
35.13333,71
35.14167,71
35.15000,71
35.15833,70
35.16667,70
35.17500,70
35.18333,70
35.19167,70
35.20000,70
35.20833,70
35.21667,70
35.22500,71
35.23333,71
35.24167,71
35.25000,71
35.25833,71
35.26667,71
35.27500,72
35.28333,72
35.29167,72
35.30000,72
35.30833,72
35.31667,72
35.32500,72
35.33333,72
35.34167,72
35.35000,72
35.35833,72
35.36667,72
35.37500,72
35.38333,72
35.39167,72
35.40000,72
35.40833,72
35.41667,73
35.42500,73
35.43333,73
35.44167,73
35.45000,73
35.45833,73
35.46667,73
35.47500,73
35.48333,73
35.49167,73
35.50000,73
35.50833,72
35.51667,72
35.52500,72
35.53333,72
35.54167,72
35.55000,72
35.55833,72
35.56667,72
35.57500,73
35.58333,73
35.59167,73
35.60000,74
35.60833,74
35.61667,74
35.62500,74
35.63333,74
35.64167,74
35.65000,74
35.65833,74
35.66667,74
35.67500,75
35.68333,75
35.69167,75
35.70000,75
35.70833,75
35.71667,75
35.72500,75
35.73333,75
35.74167,75
35.75000,75
35.75833,75
35.76667,75
35.77500,75
35.78333,75
35.79167,75
35.80000,75
35.80833,75
35.81667,75
35.82500,75
35.83333,75
35.84167,75
35.85000,75
35.85833,75
35.86667,76
35.87500,75
35.88333,75
35.89167,75
35.90000,75
35.90833,75
35.91667,75
35.92500,75
35.93333,75
35.94167,76
35.95000,76
35.95833,76
35.96667,76
35.97500,77
35.98333,77
35.99167,77
36.00000,77
36.00833,76
36.01667,76
36.02500,76
36.03333,76
36.04167,76
36.05000,76
36.05833,75
36.06667,75
36.07500,75
36.08333,75
36.09167,75
36.10000,75
36.10833,75
36.11667,75
36.12500,75
36.13333,75
36.14167,76
36.15000,76
36.15833,76
36.16667,76
36.17500,76
36.18333,76
36.19167,77
36.20000,77
36.20833,77
36.21667,77
36.22500,77
36.23333,77
36.24167,77
36.25000,77
36.25833,77
36.26667,77
36.27500,76
36.28333,76
36.29167,76
36.30000,76
36.30833,76
36.31667,76
36.32500,77
36.33333,77
36.34167,77
36.35000,78
36.35833,78
36.36667,78
36.37500,78
36.38333,78
36.39167,78
36.40000,78
36.40833,78
36.41667,78
36.42500,78
36.43333,78
36.44167,78
36.45000,78
36.45833,78
36.46667,78
36.47500,78
36.48333,78
36.49167,79
36.50000,79
36.50833,79
36.51667,79
36.52500,79
36.53333,79
36.54167,80
36.55000,80
36.55833,80
36.56667,80
36.57500,80
36.58333,81
36.59167,81
36.60000,81
36.60833,81
36.61667,82
36.62500,82
36.63333,82
36.64167,82
36.65000,83
36.65833,83
36.66667,83
36.67500,83
36.68333,83
36.69167,84
36.70000,84
36.70833,85
36.71667,85
36.72500,86
36.73333,86
36.74167,86
36.75000,87
36.75833,87
36.76667,87
36.77500,87
36.78333,88
36.79167,88
36.80000,89
36.80833,89
36.81667,90
36.82500,90
36.83333,91
36.84167,91
36.85000,91
36.85833,92
36.86667,92
36.87500,93
36.88333,94
36.89167,94
36.90000,94
36.90833,94
36.91667,94
36.92500,94
36.93333,95
36.94167,95
36.95000,96
36.95833,96
36.96667,97
36.97500,97
36.98333,98
36.99167,98
37.00000,98
37.00833,98
37.01667,98
37.02500,99
37.03333,99
37.04167,99
37.05000,99
37.05833,99
37.06667,100
37.07500,100
37.08333,100
37.09167,100
37.10000,100
37.10833,100
37.11667,101
37.12500,101
37.13333,101
37.14167,101
37.15000,101
37.15833,101
37.16667,101
37.17500,102
37.18333,102
37.19167,101
37.20000,101
37.20833,101
37.21667,101
37.22500,101
37.23333,101
37.24167,100
37.25000,100
37.25833,100
37.26667,100
37.27500,100
37.28333,100
37.29167,100
37.30000,100
37.30833,99
37.31667,99
37.32500,99
37.33333,99
37.34167,98
37.35000,98
37.35833,97
37.36667,97
37.37500,97
37.38333,97
37.39167,97
37.40000,97
37.40833,96
37.41667,96
37.42500,95
37.43333,95
37.44167,95
37.45000,95
37.45833,95
37.46667,94
37.47500,94
37.48333,94
37.49167,93
37.50000,93
37.50833,93
37.51667,92
37.52500,92
37.53333,92
37.54167,91
37.55000,91
37.55833,90
37.56667,90
37.57500,90
37.58333,89
37.59167,89
37.60000,89
37.60833,88
37.61667,88
37.62500,88
37.63333,87
37.64167,87
37.65000,86
37.65833,86
37.66667,85
37.67500,85
37.68333,85
37.69167,85
37.70000,85
37.70833,86
37.71667,86
37.72500,85
37.73333,85
37.74167,85
37.75000,85
37.75833,84
37.76667,84
37.77500,84
37.78333,84
37.79167,84
37.80000,84
37.80833,84
37.81667,84
37.82500,83
37.83333,83
37.84167,83
37.85000,82
37.85833,82
37.86667,82
37.87500,82
37.88333,81
37.89167,81
37.90000,81
37.90833,81
37.91667,81
37.92500,81
37.93333,81
37.94167,81
37.95000,81
37.95833,81
37.96667,81
37.97500,81
37.98333,81
37.99167,81
38.00000,81
38.00833,81
38.01667,80
38.02500,80
38.03333,79
38.04167,79
38.05000,79
38.05833,79
38.06667,79
38.07500,79
38.08333,79
38.09167,79
38.10000,79
38.10833,79
38.11667,79
38.12500,79
38.13333,79
38.14167,79
38.15000,79
38.15833,80
38.16667,80
38.17500,80
38.18333,80
38.19167,80
38.20000,80
38.20833,80
38.21667,79
38.22500,79
38.23333,79
38.24167,79
38.25000,79
38.25833,79
38.26667,80
38.27500,79
38.28333,79
38.29167,79
38.30000,79
38.30833,79
38.31667,80
38.32500,80
38.33333,80
38.34167,80
38.35000,80
38.35833,80
38.36667,80
38.37500,80
38.38333,80
38.39167,80
38.40000,80
38.40833,79
38.41667,79
38.42500,79
38.43333,79
38.44167,80
38.45000,80
38.45833,80
38.46667,80
38.47500,80
38.48333,80
38.49167,80
38.50000,80
38.50833,80
38.51667,80
38.52500,80
38.53333,80
38.54167,80
38.55000,80
38.55833,80
38.56667,81
38.57500,81
38.58333,80
38.59167,80
38.60000,80
38.60833,81
38.61667,81
38.62500,81
38.63333,81
38.64167,81
38.65000,80
38.65833,80
38.66667,80
38.67500,80
38.68333,81
38.69167,81
38.70000,81
38.70833,81
38.71667,81
38.72500,81
38.73333,81
38.74167,81
38.75000,80
38.75833,80
38.76667,80
38.77500,80
38.78333,81
38.79167,81
38.80000,81
38.80833,81
38.81667,81
38.82500,81
38.83333,80
38.84167,80
38.85000,80
38.85833,80
38.86667,80
38.87500,80
38.88333,80
38.89167,80
38.90000,80
38.90833,80
38.91667,80
38.92500,80
38.93333,80
38.94167,80
38.95000,80
38.95833,80
38.96667,80
38.97500,80
38.98333,80
38.99167,80
39.00000,81
39.00833,81
39.01667,81
39.02500,81
39.03333,81
39.04167,81
39.05000,81
39.05833,82
39.06667,81
39.07500,81
39.08333,81
39.09167,81
39.10000,81
39.10833,81
39.11667,81
39.12500,81
39.13333,81
39.14167,81
39.15000,80
39.15833,80
39.16667,80
39.17500,80
39.18333,80
39.19167,81
39.20000,81
39.20833,81
39.21667,81
39.22500,81
39.23333,81
39.24167,81
39.25000,81
39.25833,81
39.26667,81
39.27500,81
39.28333,81
39.29167,81
39.30000,82
39.30833,82
39.31667,82
39.32500,82
39.33333,82
39.34167,82
39.35000,82
39.35833,82
39.36667,82
39.37500,82
39.38333,82
39.39167,82
39.40000,82
39.40833,82
39.41667,81
39.42500,81
39.43333,81
39.44167,81
39.45000,81
39.45833,81
39.46667,81
39.47500,81
39.48333,82
39.49167,82
39.50000,82
39.50833,82
39.51667,82
39.52500,81
39.53333,81
39.54167,81
39.55000,81
39.55833,81
39.56667,81
39.57500,81
39.58333,81
39.59167,81
39.60000,81
39.60833,81
39.61667,82
39.62500,82
39.63333,82
39.64167,82
39.65000,82
39.65833,82
39.66667,82
39.67500,83
39.68333,83
39.69167,83
39.70000,83
39.70833,82
39.71667,82
39.72500,82
39.73333,82
39.74167,82
39.75000,82
39.75833,81
39.76667,81
39.77500,81
39.78333,81
39.79167,82
39.80000,82
39.80833,83
39.81667,83
39.82500,83
39.83333,83
39.84167,83
39.85000,83
39.85833,83
39.86667,83
39.87500,83
39.88333,83
39.89167,83
39.90000,83
39.90833,82
39.91667,82
39.92500,82
39.93333,82
39.94167,83
39.95000,83
39.95833,83
39.96667,83
39.97500,83
39.98333,83
39.99167,83
40.00000,83

