[Header]
Application Name,LabSolutions
Version,5.97 SP1
Data File Name,C:\Users\cremerlab\Desktop\griffin\2021-03-31_NCM3722_NCglucose_turnover\2021-03-31_NCM3722_turnover_batch_3312021_002_016.lcd
Output Date,4/1/2021
Output Time,6:39:37 AM

[File Information]
Type,Data File
Generated,4/1/2021 5:59:18 AM
Generated by,System Administrator
Modified,4/1/2021 6:39:37 AM
Modified by,System Administrator

[Sample Information]
Operator Name,System Administrator
Acquired,4/1/2021 5:59:37 AM
Sample Type,1:Standard
Level,2
Sample Name,2021-03-31_NCM3722_NCglucose_replicate_03_timepoint_002
Sample ID,002
ISTD Amount1,1
ISTD Amount2,1
ISTD Amount3,1
ISTD Amount4,1
ISTD Amount5,1
ISTD Amount6,1
ISTD Amount7,1
ISTD Amount8,1
ISTD Amount9,1
ISTD Amount10,1
ISTD Amount11,1
ISTD Amount12,1
ISTD Amount13,1
ISTD Amount14,1
ISTD Amount15,1
ISTD Amount16,1
ISTD Amount17,1
ISTD Amount18,1
ISTD Amount19,1
ISTD Amount20,1
ISTD Amount21,1
ISTD Amount22,1
ISTD Amount23,1
ISTD Amount24,1
ISTD Amount25,1
ISTD Amount26,1
ISTD Amount27,1
ISTD Amount28,1
ISTD Amount29,1
ISTD Amount30,1
ISTD Amount31,1
ISTD Amount32,1
Sample Amount,1
Dilution Factor,1
Vial#,29
Injection Volume,20

[Original Files]
Data File,C:\Users\cremerlab\Desktop\griffin\2021-03-31_NCM3722_NCglucose_turnover\2021-03-31_NCM3722_turnover_batch_3312021_002_016.lcd
Method File,C:\LabSolutions\Data\Project1\organicacidsetc2.lcm
Batch File,C:\Users\cremerlab\Desktop\griffin\2021-03-31_NCM3722_NCglucose_turnover\2021-03-31_NCM3722_turnover_batch.lcb
Report Format File,c:\LabSolutions\System\DEFAULT.lsr

[File Description]


[Configuration]
Instrument Name,HPLC-PC-Instrument1
Instrument #,1
Line #,1
# of Detectors,2
Detector ID,Detector A,Detector B
Detector Name,Detector A,Detector B
# of Channels,1,1

[Peak Table(Detector A)]
# of Peaks,0

[Peak Table(Detector B)]
# of Peaks,5
Peak#,R.Time,I.Time,F.Time,Area,Height,A/H,Conc.,Mark,ID#,Name,k',Plate #,Plate Ht.,Tailing,Resolution,Sep.Factor,Area Ratio,Height Ratio,Conc. %,Norm Conc.
1,11.036,10.750,12.375,908647,52392,17.343,0.000,   ,,,0.000,10868,13.802,1.406,0.000,0.000,0,0,0.000,0.000
2,15.022,14.108,15.342,2332011,94194,24.758,0.000,   ,,,0.361,7960,18.845,0.000,7.268,0.000,0,0,0.000,0.000
3,15.624,15.342,18.208,695695,28746,24.202,0.000, V ,,,0.416,9631,15.575,0.000,0.919,1.151,0,0,0.000,0.000
4,18.989,18.708,19.508,1527,73,20.919,0.000,   ,,,0.721,18498,8.109,1.262,5.631,1.733,0,0,0.000,0.000
5,25.049,24.650,25.558,2735,105,26.036,0.000,   ,,,1.270,19106,7.851,1.095,9.444,1.762,0,0,0.000,0.000

[LC Chromatogram(Detector B-Ch1)]
Interval(msec),500
# of Points,4801
Start Time(min),0.000
End Time(min),40.000
Intensity Units,mV
Intensity Multiplier,0.001
R.Time (min),Intensity
0.00000,1
0.00833,1
0.01667,1
0.02500,1
0.03333,1
0.04167,-0
0.05000,-2
0.05833,-3
0.06667,-4
0.07500,-5
0.08333,-5
0.09167,-4
0.10000,-4
0.10833,-3
0.11667,-2
0.12500,-1
0.13333,-0
0.14167,0
0.15000,1
0.15833,1
0.16667,1
0.17500,2
0.18333,2
0.19167,1
0.20000,1
0.20833,1
0.21667,1
0.22500,2
0.23333,2
0.24167,3
0.25000,4
0.25833,5
0.26667,5
0.27500,5
0.28333,5
0.29167,4
0.30000,4
0.30833,3
0.31667,3
0.32500,3
0.33333,3
0.34167,2
0.35000,2
0.35833,1
0.36667,1
0.37500,1
0.38333,1
0.39167,1
0.40000,2
0.40833,2
0.41667,2
0.42500,2
0.43333,2
0.44167,2
0.45000,2
0.45833,2
0.46667,2
0.47500,2
0.48333,2
0.49167,2
0.50000,2
0.50833,2
0.51667,3
0.52500,3
0.53333,3
0.54167,4
0.55000,5
0.55833,6
0.56667,8
0.57500,9
0.58333,11
0.59167,13
0.60000,14
0.60833,15
0.61667,15
0.62500,14
0.63333,12
0.64167,10
0.65000,8
0.65833,5
0.66667,3
0.67500,-0
0.68333,-3
0.69167,-5
0.70000,-7
0.70833,-9
0.71667,-10
0.72500,-11
0.73333,-11
0.74167,-11
0.75000,-11
0.75833,-11
0.76667,-10
0.77500,-10
0.78333,-9
0.79167,-8
0.80000,-8
0.80833,-7
0.81667,-7
0.82500,-6
0.83333,-5
0.84167,-5
0.85000,-4
0.85833,-3
0.86667,-3
0.87500,-2
0.88333,-1
0.89167,-0
0.90000,0
0.90833,0
0.91667,0
0.92500,1
0.93333,1
0.94167,2
0.95000,2
0.95833,3
0.96667,3
0.97500,3
0.98333,4
0.99167,3
1.00000,3
1.00833,3
1.01667,3
1.02500,2
1.03333,2
1.04167,2
1.05000,3
1.05833,3
1.06667,3
1.07500,3
1.08333,3
1.09167,2
1.10000,2
1.10833,2
1.11667,2
1.12500,2
1.13333,2
1.14167,2
1.15000,3
1.15833,3
1.16667,3
1.17500,3
1.18333,4
1.19167,4
1.20000,5
1.20833,5
1.21667,5
1.22500,5
1.23333,4
1.24167,4
1.25000,4
1.25833,4
1.26667,4
1.27500,4
1.28333,4
1.29167,4
1.30000,4
1.30833,4
1.31667,4
1.32500,4
1.33333,4
1.34167,4
1.35000,4
1.35833,4
1.36667,4
1.37500,4
1.38333,4
1.39167,4
1.40000,4
1.40833,5
1.41667,5
1.42500,5
1.43333,5
1.44167,5
1.45000,5
1.45833,5
1.46667,5
1.47500,5
1.48333,5
1.49167,5
1.50000,5
1.50833,5
1.51667,5
1.52500,5
1.53333,5
1.54167,5
1.55000,5
1.55833,5
1.56667,5
1.57500,5
1.58333,5
1.59167,5
1.60000,5
1.60833,5
1.61667,6
1.62500,6
1.63333,6
1.64167,6
1.65000,6
1.65833,6
1.66667,6
1.67500,7
1.68333,7
1.69167,7
1.70000,8
1.70833,8
1.71667,8
1.72500,8
1.73333,7
1.74167,7
1.75000,7
1.75833,8
1.76667,8
1.77500,8
1.78333,8
1.79167,8
1.80000,8
1.80833,8
1.81667,8
1.82500,8
1.83333,8
1.84167,8
1.85000,8
1.85833,8
1.86667,9
1.87500,9
1.88333,9
1.89167,9
1.90000,9
1.90833,9
1.91667,9
1.92500,9
1.93333,8
1.94167,8
1.95000,8
1.95833,8
1.96667,8
1.97500,8
1.98333,9
1.99167,9
2.00000,9
2.00833,9
2.01667,9
2.02500,10
2.03333,10
2.04167,10
2.05000,10
2.05833,10
2.06667,10
2.07500,10
2.08333,9
2.09167,9
2.10000,9
2.10833,9
2.11667,9
2.12500,10
2.13333,10
2.14167,10
2.15000,10
2.15833,10
2.16667,10
2.17500,10
2.18333,10
2.19167,10
2.20000,11
2.20833,11
2.21667,11
2.22500,11
2.23333,11
2.24167,11
2.25000,11
2.25833,11
2.26667,10
2.27500,10
2.28333,10
2.29167,10
2.30000,10
2.30833,10
2.31667,10
2.32500,10
2.33333,10
2.34167,10
2.35000,9
2.35833,9
2.36667,9
2.37500,9
2.38333,9
2.39167,9
2.40000,9
2.40833,9
2.41667,10
2.42500,10
2.43333,9
2.44167,10
2.45000,10
2.45833,10
2.46667,10
2.47500,10
2.48333,10
2.49167,10
2.50000,10
2.50833,10
2.51667,10
2.52500,9
2.53333,9
2.54167,9
2.55000,9
2.55833,9
2.56667,9
2.57500,9
2.58333,9
2.59167,9
2.60000,9
2.60833,10
2.61667,10
2.62500,9
2.63333,9
2.64167,9
2.65000,9
2.65833,9
2.66667,9
2.67500,8
2.68333,8
2.69167,8
2.70000,8
2.70833,8
2.71667,8
2.72500,8
2.73333,7
2.74167,7
2.75000,7
2.75833,8
2.76667,8
2.77500,8
2.78333,8
2.79167,8
2.80000,8
2.80833,8
2.81667,8
2.82500,8
2.83333,8
2.84167,8
2.85000,8
2.85833,9
2.86667,9
2.87500,9
2.88333,9
2.89167,9
2.90000,9
2.90833,9
2.91667,9
2.92500,9
2.93333,8
2.94167,8
2.95000,8
2.95833,8
2.96667,8
2.97500,8
2.98333,8
2.99167,8
3.00000,8
3.00833,8
3.01667,8
3.02500,8
3.03333,8
3.04167,8
3.05000,8
3.05833,8
3.06667,7
3.07500,7
3.08333,7
3.09167,7
3.10000,8
3.10833,8
3.11667,8
3.12500,8
3.13333,8
3.14167,8
3.15000,8
3.15833,8
3.16667,8
3.17500,8
3.18333,8
3.19167,8
3.20000,8
3.20833,8
3.21667,8
3.22500,8
3.23333,8
3.24167,9
3.25000,9
3.25833,10
3.26667,10
3.27500,10
3.28333,10
3.29167,10
3.30000,10
3.30833,10
3.31667,10
3.32500,9
3.33333,9
3.34167,9
3.35000,9
3.35833,9
3.36667,9
3.37500,9
3.38333,9
3.39167,9
3.40000,9
3.40833,9
3.41667,10
3.42500,10
3.43333,10
3.44167,10
3.45000,10
3.45833,10
3.46667,10
3.47500,10
3.48333,10
3.49167,10
3.50000,10
3.50833,10
3.51667,10
3.52500,10
3.53333,10
3.54167,10
3.55000,11
3.55833,11
3.56667,11
3.57500,11
3.58333,11
3.59167,11
3.60000,10
3.60833,11
3.61667,11
3.62500,11
3.63333,10
3.64167,10
3.65000,10
3.65833,10
3.66667,11
3.67500,11
3.68333,11
3.69167,11
3.70000,11
3.70833,11
3.71667,11
3.72500,11
3.73333,12
3.74167,12
3.75000,12
3.75833,12
3.76667,12
3.77500,12
3.78333,12
3.79167,12
3.80000,13
3.80833,13
3.81667,13
3.82500,13
3.83333,13
3.84167,13
3.85000,13
3.85833,13
3.86667,13
3.87500,13
3.88333,14
3.89167,14
3.90000,14
3.90833,14
3.91667,13
3.92500,13
3.93333,13
3.94167,13
3.95000,13
3.95833,13
3.96667,14
3.97500,14
3.98333,14
3.99167,14
4.00000,14
4.00833,14
4.01667,14
4.02500,14
4.03333,14
4.04167,14
4.05000,14
4.05833,15
4.06667,15
4.07500,15
4.08333,15
4.09167,15
4.10000,15
4.10833,15
4.11667,15
4.12500,14
4.13333,14
4.14167,14
4.15000,14
4.15833,15
4.16667,15
4.17500,15
4.18333,15
4.19167,15
4.20000,15
4.20833,15
4.21667,16
4.22500,16
4.23333,16
4.24167,16
4.25000,16
4.25833,15
4.26667,15
4.27500,15
4.28333,15
4.29167,15
4.30000,14
4.30833,14
4.31667,14
4.32500,14
4.33333,14
4.34167,14
4.35000,13
4.35833,14
4.36667,14
4.37500,14
4.38333,15
4.39167,15
4.40000,15
4.40833,15
4.41667,15
4.42500,14
4.43333,14
4.44167,14
4.45000,15
4.45833,15
4.46667,15
4.47500,15
4.48333,16
4.49167,16
4.50000,16
4.50833,16
4.51667,16
4.52500,16
4.53333,15
4.54167,15
4.55000,15
4.55833,15
4.56667,15
4.57500,14
4.58333,14
4.59167,14
4.60000,14
4.60833,14
4.61667,14
4.62500,14
4.63333,15
4.64167,14
4.65000,15
4.65833,15
4.66667,15
4.67500,14
4.68333,14
4.69167,14
4.70000,14
4.70833,14
4.71667,14
4.72500,14
4.73333,14
4.74167,14
4.75000,14
4.75833,15
4.76667,15
4.77500,15
4.78333,14
4.79167,14
4.80000,15
4.80833,15
4.81667,14
4.82500,14
4.83333,14
4.84167,14
4.85000,14
4.85833,14
4.86667,14
4.87500,14
4.88333,14
4.89167,14
4.90000,14
4.90833,14
4.91667,14
4.92500,14
4.93333,14
4.94167,14
4.95000,14
4.95833,14
4.96667,14
4.97500,15
4.98333,15
4.99167,15
5.00000,15
5.00833,15
5.01667,15
5.02500,15
5.03333,15
5.04167,15
5.05000,14
5.05833,15
5.06667,15
5.07500,14
5.08333,14
5.09167,14
5.10000,14
5.10833,14
5.11667,14
5.12500,15
5.13333,15
5.14167,15
5.15000,15
5.15833,15
5.16667,15
5.17500,15
5.18333,15
5.19167,15
5.20000,15
5.20833,15
5.21667,15
5.22500,15
5.23333,15
5.24167,15
5.25000,15
5.25833,15
5.26667,15
5.27500,14
5.28333,14
5.29167,14
5.30000,14
5.30833,14
5.31667,14
5.32500,14
5.33333,14
5.34167,14
5.35000,14
5.35833,14
5.36667,14
5.37500,15
5.38333,15
5.39167,15
5.40000,15
5.40833,15
5.41667,16
5.42500,16
5.43333,16
5.44167,16
5.45000,16
5.45833,16
5.46667,15
5.47500,15
5.48333,15
5.49167,15
5.50000,15
5.50833,16
5.51667,16
5.52500,16
5.53333,16
5.54167,16
5.55000,16
5.55833,16
5.56667,16
5.57500,15
5.58333,15
5.59167,15
5.60000,15
5.60833,16
5.61667,16
5.62500,15
5.63333,15
5.64167,15
5.65000,15
5.65833,15
5.66667,15
5.67500,15
5.68333,15
5.69167,15
5.70000,14
5.70833,14
5.71667,14
5.72500,14
5.73333,15
5.74167,15
5.75000,15
5.75833,15
5.76667,16
5.77500,16
5.78333,16
5.79167,16
5.80000,16
5.80833,16
5.81667,16
5.82500,16
5.83333,16
5.84167,16
5.85000,16
5.85833,15
5.86667,15
5.87500,15
5.88333,15
5.89167,15
5.90000,15
5.90833,16
5.91667,16
5.92500,15
5.93333,15
5.94167,15
5.95000,16
5.95833,16
5.96667,16
5.97500,16
5.98333,16
5.99167,16
6.00000,16
6.00833,16
6.01667,16
6.02500,16
6.03333,16
6.04167,16
6.05000,16
6.05833,16
6.06667,16
6.07500,16
6.08333,16
6.09167,16
6.10000,17
6.10833,17
6.11667,17
6.12500,16
6.13333,16
6.14167,16
6.15000,16
6.15833,16
6.16667,16
6.17500,16
6.18333,16
6.19167,17
6.20000,17
6.20833,17
6.21667,17
6.22500,17
6.23333,17
6.24167,17
6.25000,17
6.25833,17
6.26667,17
6.27500,17
6.28333,17
6.29167,16
6.30000,16
6.30833,16
6.31667,17
6.32500,17
6.33333,18
6.34167,18
6.35000,19
6.35833,19
6.36667,19
6.37500,19
6.38333,18
6.39167,18
6.40000,18
6.40833,18
6.41667,18
6.42500,18
6.43333,17
6.44167,18
6.45000,18
6.45833,18
6.46667,18
6.47500,19
6.48333,19
6.49167,19
6.50000,19
6.50833,18
6.51667,19
6.52500,19
6.53333,19
6.54167,19
6.55000,19
6.55833,19
6.56667,19
6.57500,19
6.58333,20
6.59167,20
6.60000,19
6.60833,19
6.61667,19
6.62500,19
6.63333,19
6.64167,19
6.65000,19
6.65833,19
6.66667,19
6.67500,19
6.68333,19
6.69167,19
6.70000,19
6.70833,19
6.71667,19
6.72500,19
6.73333,20
6.74167,20
6.75000,20
6.75833,20
6.76667,20
6.77500,20
6.78333,20
6.79167,20
6.80000,20
6.80833,20
6.81667,20
6.82500,20
6.83333,20
6.84167,20
6.85000,19
6.85833,19
6.86667,19
6.87500,19
6.88333,20
6.89167,20
6.90000,20
6.90833,20
6.91667,20
6.92500,20
6.93333,20
6.94167,20
6.95000,20
6.95833,20
6.96667,20
6.97500,20
6.98333,20
6.99167,20
7.00000,20
7.00833,20
7.01667,20
7.02500,20
7.03333,20
7.04167,20
7.05000,20
7.05833,20
7.06667,20
7.07500,20
7.08333,20
7.09167,20
7.10000,20
7.10833,20
7.11667,20
7.12500,20
7.13333,20
7.14167,21
7.15000,21
7.15833,21
7.16667,21
7.17500,21
7.18333,21
7.19167,21
7.20000,21
7.20833,21
7.21667,21
7.22500,21
7.23333,21
7.24167,21
7.25000,21
7.25833,21
7.26667,21
7.27500,21
7.28333,21
7.29167,21
7.30000,21
7.30833,21
7.31667,21
7.32500,21
7.33333,21
7.34167,21
7.35000,21
7.35833,21
7.36667,21
7.37500,21
7.38333,21
7.39167,21
7.40000,21
7.40833,21
7.41667,21
7.42500,21
7.43333,21
7.44167,21
7.45000,22
7.45833,22
7.46667,21
7.47500,21
7.48333,21
7.49167,21
7.50000,21
7.50833,21
7.51667,22
7.52500,22
7.53333,22
7.54167,22
7.55000,21
7.55833,21
7.56667,21
7.57500,20
7.58333,21
7.59167,21
7.60000,21
7.60833,21
7.61667,21
7.62500,21
7.63333,21
7.64167,22
7.65000,22
7.65833,21
7.66667,22
7.67500,22
7.68333,22
7.69167,23
7.70000,23
7.70833,23
7.71667,23
7.72500,23
7.73333,23
7.74167,23
7.75000,22
7.75833,22
7.76667,22
7.77500,22
7.78333,22
7.79167,22
7.80000,22
7.80833,22
7.81667,22
7.82500,22
7.83333,22
7.84167,22
7.85000,22
7.85833,22
7.86667,22
7.87500,22
7.88333,22
7.89167,22
7.90000,22
7.90833,22
7.91667,22
7.92500,22
7.93333,23
7.94167,23
7.95000,23
7.95833,23
7.96667,23
7.97500,23
7.98333,23
7.99167,23
8.00000,23
8.00833,23
8.01667,22
8.02500,22
8.03333,22
8.04167,22
8.05000,22
8.05833,22
8.06667,22
8.07500,22
8.08333,22
8.09167,22
8.10000,22
8.10833,22
8.11667,22
8.12500,22
8.13333,23
8.14167,23
8.15000,23
8.15833,23
8.16667,23
8.17500,23
8.18333,23
8.19167,23
8.20000,23
8.20833,23
8.21667,23
8.22500,22
8.23333,22
8.24167,22
8.25000,23
8.25833,23
8.26667,23
8.27500,23
8.28333,24
8.29167,24
8.30000,24
8.30833,24
8.31667,24
8.32500,24
8.33333,25
8.34167,25
8.35000,24
8.35833,24
8.36667,25
8.37500,25
8.38333,24
8.39167,25
8.40000,25
8.40833,25
8.41667,25
8.42500,25
8.43333,25
8.44167,25
8.45000,25
8.45833,25
8.46667,24
8.47500,24
8.48333,24
8.49167,24
8.50000,24
8.50833,25
8.51667,25
8.52500,25
8.53333,25
8.54167,25
8.55000,24
8.55833,24
8.56667,24
8.57500,24
8.58333,24
8.59167,24
8.60000,24
8.60833,24
8.61667,24
8.62500,24
8.63333,24
8.64167,24
8.65000,24
8.65833,25
8.66667,25
8.67500,25
8.68333,25
8.69167,25
8.70000,25
8.70833,25
8.71667,26
8.72500,26
8.73333,27
8.74167,27
8.75000,26
8.75833,26
8.76667,26
8.77500,26
8.78333,26
8.79167,26
8.80000,26
8.80833,26
8.81667,26
8.82500,26
8.83333,26
8.84167,26
8.85000,26
8.85833,26
8.86667,26
8.87500,26
8.88333,26
8.89167,26
8.90000,26
8.90833,26
8.91667,26
8.92500,26
8.93333,26
8.94167,26
8.95000,27
8.95833,27
8.96667,27
8.97500,27
8.98333,27
8.99167,26
9.00000,26
9.00833,26
9.01667,26
9.02500,26
9.03333,26
9.04167,26
9.05000,27
9.05833,27
9.06667,27
9.07500,28
9.08333,28
9.09167,28
9.10000,28
9.10833,28
9.11667,28
9.12500,28
9.13333,28
9.14167,28
9.15000,29
9.15833,29
9.16667,28
9.17500,28
9.18333,28
9.19167,28
9.20000,27
9.20833,28
9.21667,28
9.22500,28
9.23333,28
9.24167,28
9.25000,28
9.25833,28
9.26667,28
9.27500,28
9.28333,28
9.29167,28
9.30000,28
9.30833,27
9.31667,27
9.32500,27
9.33333,28
9.34167,28
9.35000,28
9.35833,28
9.36667,29
9.37500,29
9.38333,28
9.39167,28
9.40000,28
9.40833,28
9.41667,28
9.42500,28
9.43333,28
9.44167,28
9.45000,28
9.45833,29
9.46667,29
9.47500,29
9.48333,29
9.49167,29
9.50000,29
9.50833,29
9.51667,29
9.52500,29
9.53333,29
9.54167,29
9.55000,29
9.55833,29
9.56667,29
9.57500,29
9.58333,29
9.59167,29
9.60000,29
9.60833,29
9.61667,29
9.62500,30
9.63333,30
9.64167,30
9.65000,30
9.65833,30
9.66667,30
9.67500,30
9.68333,30
9.69167,30
9.70000,31
9.70833,31
9.71667,31
9.72500,31
9.73333,30
9.74167,30
9.75000,30
9.75833,30
9.76667,30
9.77500,30
9.78333,30
9.79167,30
9.80000,30
9.80833,30
9.81667,30
9.82500,30
9.83333,30
9.84167,30
9.85000,30
9.85833,30
9.86667,30
9.87500,30
9.88333,30
9.89167,30
9.90000,30
9.90833,30
9.91667,30
9.92500,30
9.93333,30
9.94167,30
9.95000,30
9.95833,30
9.96667,30
9.97500,30
9.98333,30
9.99167,30
10.00000,30
10.00833,30
10.01667,30
10.02500,30
10.03333,30
10.04167,30
10.05000,31
10.05833,31
10.06667,31
10.07500,31
10.08333,31
10.09167,31
10.10000,31
10.10833,31
10.11667,31
10.12500,32
10.13333,31
10.14167,31
10.15000,31
10.15833,31
10.16667,30
10.17500,30
10.18333,30
10.19167,31
10.20000,31
10.20833,31
10.21667,31
10.22500,31
10.23333,31
10.24167,31
10.25000,31
10.25833,31
10.26667,32
10.27500,32
10.28333,32
10.29167,32
10.30000,33
10.30833,33
10.31667,33
10.32500,34
10.33333,34
10.34167,35
10.35000,36
10.35833,36
10.36667,37
10.37500,38
10.38333,39
10.39167,40
10.40000,41
10.40833,41
10.41667,42
10.42500,43
10.43333,44
10.44167,44
10.45000,45
10.45833,45
10.46667,46
10.47500,46
10.48333,46
10.49167,45
10.50000,44
10.50833,42
10.51667,39
10.52500,34
10.53333,27
10.54167,17
10.55000,5
10.55833,-12
10.56667,-35
10.57500,-64
10.58333,-102
10.59167,-151
10.60000,-212
10.60833,-287
10.61667,-378
10.62500,-488
10.63333,-618
10.64167,-769
10.65000,-941
10.65833,-1135
10.66667,-1348
10.67500,-1579
10.68333,-1822
10.69167,-2073
10.70000,-2324
10.70833,-2568
10.71667,-2795
10.72500,-2995
10.73333,-3154
10.74167,-3262
10.75000,-3305
10.75833,-3270
10.76667,-3143
10.77500,-2913
10.78333,-2567
10.79167,-2094
10.80000,-1483
10.80833,-727
10.81667,181
10.82500,1247
10.83333,2474
10.84167,3865
10.85000,5418
10.85833,7133
10.86667,9004
10.87500,11025
10.88333,13186
10.89167,15476
10.90000,17882
10.90833,20385
10.91667,22966
10.92500,25602
10.93333,28265
10.94167,30927
10.95000,33554
10.95833,36111
10.96667,38559
10.97500,40858
10.98333,42968
10.99167,44849
11.00000,46464
11.00833,47780
11.01667,48769
11.02500,49410
11.03333,49689
11.04167,49604
11.05000,49158
11.05833,48368
11.06667,47255
11.07500,45850
11.08333,44189
11.09167,42312
11.10000,40261
11.10833,38080
11.11667,35810
11.12500,33492
11.13333,31163
11.14167,28856
11.15000,26599
11.15833,24414
11.16667,22322
11.17500,20335
11.18333,18464
11.19167,16715
11.20000,15090
11.20833,13590
11.21667,12213
11.22500,10956
11.23333,9812
11.24167,8776
11.25000,7842
11.25833,7002
11.26667,6249
11.27500,5575
11.28333,4974
11.29167,4440
11.30000,3965
11.30833,3545
11.31667,3172
11.32500,2842
11.33333,2552
11.34167,2295
11.35000,2068
11.35833,1868
11.36667,1692
11.37500,1537
11.38333,1400
11.39167,1280
11.40000,1173
11.40833,1079
11.41667,995
11.42500,921
11.43333,856
11.44167,797
11.45000,745
11.45833,698
11.46667,657
11.47500,619
11.48333,586
11.49167,555
11.50000,528
11.50833,503
11.51667,480
11.52500,459
11.53333,440
11.54167,423
11.55000,406
11.55833,391
11.56667,378
11.57500,365
11.58333,353
11.59167,342
11.60000,331
11.60833,321
11.61667,312
11.62500,303
11.63333,295
11.64167,287
11.65000,279
11.65833,272
11.66667,266
11.67500,260
11.68333,254
11.69167,248
11.70000,243
11.70833,238
11.71667,232
11.72500,227
11.73333,223
11.74167,218
11.75000,214
11.75833,210
11.76667,206
11.77500,202
11.78333,199
11.79167,196
11.80000,194
11.80833,191
11.81667,188
11.82500,186
11.83333,184
11.84167,182
11.85000,180
11.85833,178
11.86667,177
11.87500,175
11.88333,174
11.89167,172
11.90000,171
11.90833,169
11.91667,168
11.92500,166
11.93333,164
11.94167,163
11.95000,162
11.95833,160
11.96667,159
11.97500,158
11.98333,157
11.99167,156
12.00000,155
12.00833,154
12.01667,153
12.02500,153
12.03333,152
12.04167,150
12.05000,149
12.05833,148
12.06667,147
12.07500,146
12.08333,146
12.09167,144
12.10000,143
12.10833,142
12.11667,141
12.12500,141
12.13333,140
12.14167,139
12.15000,138
12.15833,137
12.16667,136
12.17500,135
12.18333,135
12.19167,134
12.20000,134
12.20833,133
12.21667,133
12.22500,132
12.23333,131
12.24167,131
12.25000,130
12.25833,130
12.26667,129
12.27500,129
12.28333,128
12.29167,127
12.30000,127
12.30833,127
12.31667,126
12.32500,126
12.33333,125
12.34167,125
12.35000,124
12.35833,123
12.36667,123
12.37500,123
12.38333,123
12.39167,122
12.40000,122
12.40833,122
12.41667,122
12.42500,121
12.43333,121
12.44167,121
12.45000,120
12.45833,120
12.46667,119
12.47500,119
12.48333,118
12.49167,118
12.50000,118
12.50833,118
12.51667,118
12.52500,117
12.53333,117
12.54167,116
12.55000,115
12.55833,115
12.56667,115
12.57500,114
12.58333,114
12.59167,113
12.60000,113
12.60833,112
12.61667,112
12.62500,112
12.63333,111
12.64167,110
12.65000,110
12.65833,110
12.66667,110
12.67500,110
12.68333,109
12.69167,109
12.70000,109
12.70833,109
12.71667,109
12.72500,108
12.73333,107
12.74167,107
12.75000,106
12.75833,106
12.76667,105
12.77500,105
12.78333,104
12.79167,104
12.80000,104
12.80833,104
12.81667,105
12.82500,105
12.83333,105
12.84167,104
12.85000,104
12.85833,104
12.86667,105
12.87500,105
12.88333,105
12.89167,105
12.90000,104
12.90833,104
12.91667,105
12.92500,105
12.93333,105
12.94167,105
12.95000,105
12.95833,105
12.96667,105
12.97500,105
12.98333,106
12.99167,106
13.00000,106
13.00833,105
13.01667,105
13.02500,105
13.03333,105
13.04167,106
13.05000,106
13.05833,106
13.06667,106
13.07500,106
13.08333,106
13.09167,106
13.10000,106
13.10833,106
13.11667,105
13.12500,105
13.13333,105
13.14167,104
13.15000,104
13.15833,104
13.16667,105
13.17500,104
13.18333,105
13.19167,104
13.20000,104
13.20833,104
13.21667,104
13.22500,103
13.23333,103
13.24167,103
13.25000,103
13.25833,102
13.26667,102
13.27500,101
13.28333,101
13.29167,100
13.30000,100
13.30833,99
13.31667,98
13.32500,98
13.33333,97
13.34167,97
13.35000,97
13.35833,96
13.36667,95
13.37500,94
13.38333,93
13.39167,92
13.40000,91
13.40833,91
13.41667,90
13.42500,89
13.43333,89
13.44167,89
13.45000,88
13.45833,88
13.46667,87
13.47500,87
13.48333,86
13.49167,86
13.50000,85
13.50833,84
13.51667,84
13.52500,83
13.53333,82
13.54167,82
13.55000,81
13.55833,81
13.56667,80
13.57500,80
13.58333,80
13.59167,79
13.60000,79
13.60833,78
13.61667,78
13.62500,78
13.63333,77
13.64167,77
13.65000,77
13.65833,77
13.66667,77
13.67500,76
13.68333,76
13.69167,76
13.70000,76
13.70833,76
13.71667,76
13.72500,76
13.73333,75
13.74167,75
13.75000,75
13.75833,75
13.76667,74
13.77500,74
13.78333,73
13.79167,73
13.80000,74
13.80833,75
13.81667,75
13.82500,75
13.83333,75
13.84167,75
13.85000,75
13.85833,75
13.86667,75
13.87500,75
13.88333,75
13.89167,75
13.90000,76
13.90833,76
13.91667,76
13.92500,76
13.93333,76
13.94167,76
13.95000,76
13.95833,76
13.96667,77
13.97500,77
13.98333,77
13.99167,77
14.00000,77
14.00833,78
14.01667,78
14.02500,79
14.03333,79
14.04167,79
14.05000,79
14.05833,80
14.06667,80
14.07500,81
14.08333,82
14.09167,82
14.10000,83
14.10833,84
14.11667,86
14.12500,87
14.13333,88
14.14167,90
14.15000,92
14.15833,94
14.16667,96
14.17500,99
14.18333,103
14.19167,108
14.20000,113
14.20833,119
14.21667,126
14.22500,135
14.23333,146
14.24167,159
14.25000,175
14.25833,194
14.26667,217
14.27500,245
14.28333,277
14.29167,316
14.30000,363
14.30833,418
14.31667,483
14.32500,559
14.33333,647
14.34167,749
14.35000,867
14.35833,1003
14.36667,1157
14.37500,1332
14.38333,1529
14.39167,1751
14.40000,1998
14.40833,2273
14.41667,2577
14.42500,2911
14.43333,3277
14.44167,3676
14.45000,4109
14.45833,4576
14.46667,5078
14.47500,5616
14.48333,6191
14.49167,6803
14.50000,7452
14.50833,8138
14.51667,8861
14.52500,9621
14.53333,10417
14.54167,11250
14.55000,12118
14.55833,13021
14.56667,13959
14.57500,14932
14.58333,15938
14.59167,16977
14.60000,18049
14.60833,19152
14.61667,20287
14.62500,21452
14.63333,22646
14.64167,23870
14.65000,25123
14.65833,26403
14.66667,27711
14.67500,29045
14.68333,30406
14.69167,31793
14.70000,33205
14.70833,34641
14.71667,36103
14.72500,37588
14.73333,39096
14.74167,40627
14.75000,42181
14.75833,43757
14.76667,45354
14.77500,46972
14.78333,48612
14.79167,50272
14.80000,51952
14.80833,53652
14.81667,55370
14.82500,57107
14.83333,58862
14.84167,60634
14.85000,62422
14.85833,64225
14.86667,66042
14.87500,67871
14.88333,69713
14.89167,71563
14.90000,73421
14.90833,75283
14.91667,77145
14.92500,79002
14.93333,80847
14.94167,82669
14.95000,84457
14.95833,86192
14.96667,87853
14.97500,89411
14.98333,90830
14.99167,92072
15.00000,93089
15.00833,93832
15.01667,94250
15.02500,94293
15.03333,93917
15.04167,93085
15.05000,91773
15.05833,89969
15.06667,87678
15.07500,84920
15.08333,81732
15.09167,78164
15.10000,74278
15.10833,70143
15.11667,65836
15.12500,61432
15.13333,57002
15.14167,52617
15.15000,48336
15.15833,44209
15.16667,40278
15.17500,36573
15.18333,33116
15.19167,29920
15.20000,26989
15.20833,24322
15.21667,21912
15.22500,19750
15.23333,17822
15.24167,16115
15.25000,14613
15.25833,13303
15.26667,12168
15.27500,11197
15.28333,10375
15.29167,9694
15.30000,9142
15.30833,8710
15.31667,8391
15.32500,8179
15.33333,8068
15.34167,8052
15.35000,8128
15.35833,8291
15.36667,8538
15.37500,8866
15.38333,9272
15.39167,9751
15.40000,10301
15.40833,10917
15.41667,11595
15.42500,12331
15.43333,13118
15.44167,13951
15.45000,14824
15.45833,15730
15.46667,16661
15.47500,17610
15.48333,18569
15.49167,19529
15.50000,20482
15.50833,21420
15.51667,22333
15.52500,23214
15.53333,24054
15.54167,24846
15.55000,25582
15.55833,26256
15.56667,26861
15.57500,27393
15.58333,27847
15.59167,28220
15.60000,28508
15.60833,28711
15.61667,28826
15.62500,28854
15.63333,28796
15.64167,28654
15.65000,28431
15.65833,28129
15.66667,27752
15.67500,27305
15.68333,26794
15.69167,26222
15.70000,25596
15.70833,24922
15.71667,24205
15.72500,23453
15.73333,22669
15.74167,21862
15.75000,21035
15.75833,20196
15.76667,19349
15.77500,18499
15.78333,17651
15.79167,16809
15.80000,15978
15.80833,15160
15.81667,14360
15.82500,13578
15.83333,12819
15.84167,12083
15.85000,11373
15.85833,10690
15.86667,10034
15.87500,9408
15.88333,8810
15.89167,8241
15.90000,7702
15.90833,7192
15.91667,6710
15.92500,6255
15.93333,5828
15.94167,5427
15.95000,5052
15.95833,4701
15.96667,4373
15.97500,4067
15.98333,3783
15.99167,3519
16.00000,3275
16.00833,3048
16.01667,2838
16.02500,2644
16.03333,2465
16.04167,2301
16.05000,2148
16.05833,2008
16.06667,1879
16.07500,1761
16.08333,1652
16.09167,1552
16.10000,1459
16.10833,1375
16.11667,1297
16.12500,1227
16.13333,1162
16.14167,1102
16.15000,1047
16.15833,996
16.16667,950
16.17500,908
16.18333,869
16.19167,833
16.20000,799
16.20833,769
16.21667,741
16.22500,715
16.23333,691
16.24167,669
16.25000,648
16.25833,629
16.26667,612
16.27500,596
16.28333,581
16.29167,567
16.30000,553
16.30833,541
16.31667,530
16.32500,519
16.33333,509
16.34167,499
16.35000,490
16.35833,481
16.36667,473
16.37500,466
16.38333,459
16.39167,452
16.40000,446
16.40833,440
16.41667,434
16.42500,429
16.43333,423
16.44167,418
16.45000,413
16.45833,408
16.46667,403
16.47500,399
16.48333,395
16.49167,391
16.50000,387
16.50833,384
16.51667,381
16.52500,377
16.53333,374
16.54167,371
16.55000,368
16.55833,365
16.56667,363
16.57500,360
16.58333,357
16.59167,355
16.60000,352
16.60833,350
16.61667,347
16.62500,345
16.63333,343
16.64167,341
16.65000,339
16.65833,337
16.66667,335
16.67500,333
16.68333,331
16.69167,329
16.70000,327
16.70833,325
16.71667,323
16.72500,322
16.73333,320
16.74167,318
16.75000,316
16.75833,314
16.76667,313
16.77500,310
16.78333,308
16.79167,307
16.80000,305
16.80833,304
16.81667,302
16.82500,301
16.83333,299
16.84167,297
16.85000,296
16.85833,294
16.86667,293
16.87500,291
16.88333,290
16.89167,288
16.90000,287
16.90833,285
16.91667,284
16.92500,283
16.93333,282
16.94167,280
16.95000,279
16.95833,277
16.96667,275
16.97500,273
16.98333,272
16.99167,270
17.00000,269
17.00833,268
17.01667,267
17.02500,266
17.03333,265
17.04167,264
17.05000,263
17.05833,261
17.06667,260
17.07500,259
17.08333,257
17.09167,256
17.10000,255
17.10833,254
17.11667,253
17.12500,252
17.13333,250
17.14167,249
17.15000,248
17.15833,247
17.16667,246
17.17500,244
17.18333,243
17.19167,242
17.20000,241
17.20833,240
17.21667,239
17.22500,238
17.23333,237
17.24167,236
17.25000,235
17.25833,234
17.26667,233
17.27500,232
17.28333,231
17.29167,230
17.30000,230
17.30833,229
17.31667,227
17.32500,226
17.33333,225
17.34167,225
17.35000,224
17.35833,223
17.36667,222
17.37500,221
17.38333,219
17.39167,218
17.40000,217
17.40833,216
17.41667,216
17.42500,215
17.43333,214
17.44167,213
17.45000,212
17.45833,211
17.46667,210
17.47500,209
17.48333,208
17.49167,207
17.50000,206
17.50833,206
17.51667,205
17.52500,204
17.53333,203
17.54167,202
17.55000,201
17.55833,200
17.56667,199
17.57500,198
17.58333,198
17.59167,197
17.60000,196
17.60833,196
17.61667,195
17.62500,194
17.63333,193
17.64167,193
17.65000,192
17.65833,191
17.66667,190
17.67500,190
17.68333,189
17.69167,188
17.70000,188
17.70833,187
17.71667,186
17.72500,185
17.73333,185
17.74167,184
17.75000,184
17.75833,183
17.76667,182
17.77500,181
17.78333,181
17.79167,180
17.80000,179
17.80833,179
17.81667,178
17.82500,177
17.83333,177
17.84167,176
17.85000,175
17.85833,175
17.86667,174
17.87500,174
17.88333,173
17.89167,173
17.90000,172
17.90833,171
17.91667,171
17.92500,170
17.93333,169
17.94167,169
17.95000,168
17.95833,168
17.96667,167
17.97500,166
17.98333,166
17.99167,165
18.00000,165
18.00833,164
18.01667,164
18.02500,163
18.03333,163
18.04167,162
18.05000,161
18.05833,161
18.06667,161
18.07500,160
18.08333,160
18.09167,159
18.10000,158
18.10833,158
18.11667,157
18.12500,156
18.13333,156
18.14167,155
18.15000,154
18.15833,154
18.16667,153
18.17500,153
18.18333,152
18.19167,152
18.20000,151
18.20833,151
18.21667,151
18.22500,150
18.23333,149
18.24167,149
18.25000,148
18.25833,147
18.26667,147
18.27500,147
18.28333,146
18.29167,145
18.30000,145
18.30833,144
18.31667,144
18.32500,143
18.33333,143
18.34167,143
18.35000,142
18.35833,142
18.36667,141
18.37500,140
18.38333,140
18.39167,139
18.40000,139
18.40833,138
18.41667,138
18.42500,137
18.43333,137
18.44167,137
18.45000,137
18.45833,137
18.46667,136
18.47500,136
18.48333,136
18.49167,135
18.50000,135
18.50833,135
18.51667,135
18.52500,134
18.53333,134
18.54167,133
18.55000,133
18.55833,133
18.56667,132
18.57500,132
18.58333,132
18.59167,132
18.60000,132
18.60833,132
18.61667,133
18.62500,133
18.63333,134
18.64167,134
18.65000,134
18.65833,135
18.66667,135
18.67500,136
18.68333,137
18.69167,137
18.70000,138
18.70833,140
18.71667,141
18.72500,142
18.73333,143
18.74167,145
18.75000,146
18.75833,148
18.76667,151
18.77500,153
18.78333,155
18.79167,157
18.80000,159
18.80833,161
18.81667,163
18.82500,166
18.83333,169
18.84167,172
18.85000,174
18.85833,177
18.86667,180
18.87500,182
18.88333,184
18.89167,186
18.90000,188
18.90833,190
18.91667,192
18.92500,193
18.93333,195
18.94167,196
18.95000,197
18.95833,198
18.96667,199
18.97500,199
18.98333,199
18.99167,199
19.00000,199
19.00833,198
19.01667,197
19.02500,196
19.03333,195
19.04167,193
19.05000,191
19.05833,189
19.06667,187
19.07500,185
19.08333,183
19.09167,181
19.10000,178
19.10833,176
19.11667,173
19.12500,170
19.13333,167
19.14167,164
19.15000,161
19.15833,158
19.16667,155
19.17500,153
19.18333,150
19.19167,147
19.20000,145
19.20833,143
19.21667,141
19.22500,138
19.23333,136
19.24167,134
19.25000,132
19.25833,131
19.26667,129
19.27500,128
19.28333,126
19.29167,124
19.30000,123
19.30833,121
19.31667,119
19.32500,118
19.33333,117
19.34167,115
19.35000,114
19.35833,113
19.36667,112
19.37500,112
19.38333,111
19.39167,110
19.40000,109
19.40833,109
19.41667,108
19.42500,107
19.43333,106
19.44167,106
19.45000,105
19.45833,105
19.46667,104
19.47500,103
19.48333,103
19.49167,102
19.50000,102
19.50833,101
19.51667,101
19.52500,101
19.53333,101
19.54167,100
19.55000,100
19.55833,99
19.56667,99
19.57500,98
19.58333,98
19.59167,98
19.60000,98
19.60833,98
19.61667,98
19.62500,98
19.63333,98
19.64167,98
19.65000,98
19.65833,98
19.66667,98
19.67500,98
19.68333,98
19.69167,98
19.70000,97
19.70833,97
19.71667,96
19.72500,96
19.73333,95
19.74167,94
19.75000,94
19.75833,94
19.76667,93
19.77500,93
19.78333,93
19.79167,92
19.80000,93
19.80833,93
19.81667,93
19.82500,94
19.83333,94
19.84167,94
19.85000,94
19.85833,94
19.86667,93
19.87500,93
19.88333,93
19.89167,92
19.90000,92
19.90833,92
19.91667,92
19.92500,92
19.93333,92
19.94167,92
19.95000,92
19.95833,92
19.96667,91
19.97500,91
19.98333,91
19.99167,90
20.00000,90
20.00833,90
20.01667,90
20.02500,91
20.03333,91
20.04167,91
20.05000,91
20.05833,91
20.06667,91
20.07500,90
20.08333,90
20.09167,90
20.10000,90
20.10833,89
20.11667,89
20.12500,89
20.13333,88
20.14167,88
20.15000,88
20.15833,88
20.16667,88
20.17500,88
20.18333,88
20.19167,87
20.20000,87
20.20833,86
20.21667,86
20.22500,86
20.23333,86
20.24167,87
20.25000,87
20.25833,87
20.26667,87
20.27500,88
20.28333,88
20.29167,88
20.30000,87
20.30833,87
20.31667,87
20.32500,87
20.33333,87
20.34167,86
20.35000,86
20.35833,86
20.36667,86
20.37500,86
20.38333,86
20.39167,86
20.40000,86
20.40833,86
20.41667,86
20.42500,86
20.43333,86
20.44167,86
20.45000,86
20.45833,86
20.46667,86
20.47500,86
20.48333,86
20.49167,85
20.50000,85
20.50833,84
20.51667,84
20.52500,84
20.53333,84
20.54167,84
20.55000,84
20.55833,84
20.56667,85
20.57500,85
20.58333,84
20.59167,84
20.60000,84
20.60833,85
20.61667,85
20.62500,85
20.63333,85
20.64167,85
20.65000,85
20.65833,85
20.66667,85
20.67500,85
20.68333,85
20.69167,84
20.70000,84
20.70833,84
20.71667,84
20.72500,84
20.73333,83
20.74167,83
20.75000,83
20.75833,83
20.76667,83
20.77500,83
20.78333,83
20.79167,83
20.80000,84
20.80833,84
20.81667,84
20.82500,83
20.83333,83
20.84167,83
20.85000,84
20.85833,84
20.86667,84
20.87500,84
20.88333,84
20.89167,84
20.90000,84
20.90833,84
20.91667,84
20.92500,84
20.93333,84
20.94167,83
20.95000,83
20.95833,83
20.96667,82
20.97500,82
20.98333,82
20.99167,82
21.00000,82
21.00833,82
21.01667,82
21.02500,82
21.03333,82
21.04167,82
21.05000,82
21.05833,82
21.06667,82
21.07500,82
21.08333,82
21.09167,82
21.10000,82
21.10833,82
21.11667,82
21.12500,82
21.13333,82
21.14167,82
21.15000,82
21.15833,82
21.16667,82
21.17500,82
21.18333,82
21.19167,82
21.20000,82
21.20833,82
21.21667,82
21.22500,82
21.23333,82
21.24167,82
21.25000,82
21.25833,82
21.26667,81
21.27500,81
21.28333,81
21.29167,81
21.30000,81
21.30833,81
21.31667,81
21.32500,81
21.33333,80
21.34167,81
21.35000,81
21.35833,81
21.36667,81
21.37500,81
21.38333,81
21.39167,81
21.40000,81
21.40833,80
21.41667,80
21.42500,80
21.43333,81
21.44167,81
21.45000,80
21.45833,80
21.46667,80
21.47500,80
21.48333,80
21.49167,80
21.50000,80
21.50833,80
21.51667,80
21.52500,80
21.53333,80
21.54167,80
21.55000,80
21.55833,80
21.56667,80
21.57500,80
21.58333,81
21.59167,81
21.60000,81
21.60833,82
21.61667,82
21.62500,82
21.63333,81
21.64167,81
21.65000,80
21.65833,80
21.66667,80
21.67500,80
21.68333,80
21.69167,80
21.70000,80
21.70833,81
21.71667,81
21.72500,81
21.73333,81
21.74167,81
21.75000,81
21.75833,82
21.76667,82
21.77500,82
21.78333,83
21.79167,82
21.80000,82
21.80833,82
21.81667,82
21.82500,82
21.83333,82
21.84167,83
21.85000,83
21.85833,83
21.86667,83
21.87500,83
21.88333,83
21.89167,83
21.90000,83
21.90833,82
21.91667,82
21.92500,82
21.93333,81
21.94167,81
21.95000,82
21.95833,82
21.96667,81
21.97500,82
21.98333,82
21.99167,82
22.00000,81
22.00833,81
22.01667,81
22.02500,81
22.03333,81
22.04167,81
22.05000,82
22.05833,82
22.06667,82
22.07500,81
22.08333,81
22.09167,81
22.10000,81
22.10833,81
22.11667,81
22.12500,80
22.13333,80
22.14167,80
22.15000,80
22.15833,79
22.16667,79
22.17500,79
22.18333,79
22.19167,79
22.20000,78
22.20833,79
22.21667,79
22.22500,79
22.23333,79
22.24167,80
22.25000,80
22.25833,80
22.26667,80
22.27500,80
22.28333,79
22.29167,79
22.30000,79
22.30833,79
22.31667,78
22.32500,78
22.33333,78
22.34167,78
22.35000,78
22.35833,78
22.36667,78
22.37500,78
22.38333,78
22.39167,78
22.40000,79
22.40833,79
22.41667,79
22.42500,79
22.43333,79
22.44167,79
22.45000,78
22.45833,78
22.46667,78
22.47500,79
22.48333,79
22.49167,79
22.50000,79
22.50833,79
22.51667,79
22.52500,79
22.53333,79
22.54167,79
22.55000,78
22.55833,78
22.56667,78
22.57500,78
22.58333,78
22.59167,77
22.60000,78
22.60833,78
22.61667,78
22.62500,78
22.63333,78
22.64167,78
22.65000,78
22.65833,78
22.66667,78
22.67500,78
22.68333,78
22.69167,78
22.70000,78
22.70833,78
22.71667,78
22.72500,78
22.73333,78
22.74167,78
22.75000,78
22.75833,78
22.76667,79
22.77500,79
22.78333,79
22.79167,79
22.80000,79
22.80833,79
22.81667,79
22.82500,79
22.83333,79
22.84167,79
22.85000,79
22.85833,79
22.86667,79
22.87500,80
22.88333,80
22.89167,81
22.90000,81
22.90833,81
22.91667,82
22.92500,82
22.93333,82
22.94167,83
22.95000,83
22.95833,83
22.96667,83
22.97500,83
22.98333,84
22.99167,84
23.00000,85
23.00833,86
23.01667,86
23.02500,87
23.03333,88
23.04167,88
23.05000,89
23.05833,90
23.06667,90
23.07500,91
23.08333,91
23.09167,92
23.10000,92
23.10833,92
23.11667,93
23.12500,93
23.13333,93
23.14167,94
23.15000,94
23.15833,95
23.16667,96
23.17500,96
23.18333,96
23.19167,97
23.20000,97
23.20833,97
23.21667,97
23.22500,97
23.23333,97
23.24167,97
23.25000,97
23.25833,97
23.26667,96
23.27500,96
23.28333,95
23.29167,95
23.30000,95
23.30833,94
23.31667,95
23.32500,95
23.33333,94
23.34167,94
23.35000,94
23.35833,94
23.36667,93
23.37500,93
23.38333,92
23.39167,92
23.40000,91
23.40833,91
23.41667,90
23.42500,89
23.43333,89
23.44167,88
23.45000,88
23.45833,87
23.46667,87
23.47500,86
23.48333,85
23.49167,85
23.50000,84
23.50833,84
23.51667,83
23.52500,83
23.53333,83
23.54167,83
23.55000,82
23.55833,82
23.56667,82
23.57500,82
23.58333,81
23.59167,81
23.60000,81
23.60833,81
23.61667,81
23.62500,81
23.63333,80
23.64167,80
23.65000,80
23.65833,80
23.66667,80
23.67500,80
23.68333,79
23.69167,79
23.70000,78
23.70833,78
23.71667,78
23.72500,78
23.73333,78
23.74167,78
23.75000,78
23.75833,77
23.76667,77
23.77500,78
23.78333,78
23.79167,78
23.80000,78
23.80833,78
23.81667,78
23.82500,78
23.83333,78
23.84167,78
23.85000,78
23.85833,78
23.86667,78
23.87500,78
23.88333,78
23.89167,78
23.90000,78
23.90833,78
23.91667,78
23.92500,78
23.93333,78
23.94167,78
23.95000,78
23.95833,78
23.96667,78
23.97500,78
23.98333,77
23.99167,77
24.00000,77
24.00833,77
24.01667,78
24.02500,78
24.03333,78
24.04167,77
24.05000,77
24.05833,77
24.06667,77
24.07500,78
24.08333,78
24.09167,78
24.10000,78
24.10833,77
24.11667,77
24.12500,77
24.13333,77
24.14167,77
24.15000,77
24.15833,78
24.16667,78
24.17500,78
24.18333,77
24.19167,77
24.20000,77
24.20833,77
24.21667,77
24.22500,78
24.23333,78
24.24167,78
24.25000,78
24.25833,78
24.26667,78
24.27500,77
24.28333,78
24.29167,78
24.30000,78
24.30833,78
24.31667,78
24.32500,78
24.33333,78
24.34167,78
24.35000,78
24.35833,78
24.36667,78
24.37500,79
24.38333,79
24.39167,79
24.40000,79
24.40833,79
24.41667,79
24.42500,79
24.43333,80
24.44167,80
24.45000,80
24.45833,80
24.46667,80
24.47500,80
24.48333,79
24.49167,80
24.50000,80
24.50833,81
24.51667,81
24.52500,81
24.53333,82
24.54167,82
24.55000,82
24.55833,83
24.56667,83
24.57500,83
24.58333,84
24.59167,84
24.60000,85
24.60833,86
24.61667,86
24.62500,87
24.63333,88
24.64167,89
24.65000,91
24.65833,92
24.66667,93
24.67500,94
24.68333,95
24.69167,97
24.70000,99
24.70833,102
24.71667,103
24.72500,105
24.73333,107
24.74167,110
24.75000,112
24.75833,114
24.76667,117
24.77500,119
24.78333,122
24.79167,124
24.80000,127
24.80833,130
24.81667,133
24.82500,137
24.83333,140
24.84167,143
24.85000,146
24.85833,149
24.86667,152
24.87500,155
24.88333,158
24.89167,161
24.90000,164
24.90833,167
24.91667,170
24.92500,173
24.93333,176
24.94167,178
24.95000,181
24.95833,183
24.96667,185
24.97500,187
24.98333,189
24.99167,190
25.00000,192
25.00833,192
25.01667,193
25.02500,194
25.03333,194
25.04167,195
25.05000,195
25.05833,195
25.06667,194
25.07500,194
25.08333,192
25.09167,191
25.10000,190
25.10833,188
25.11667,187
25.12500,185
25.13333,183
25.14167,181
25.15000,179
25.15833,177
25.16667,174
25.17500,172
25.18333,169
25.19167,167
25.20000,164
25.20833,161
25.21667,158
25.22500,155
25.23333,153
25.24167,150
25.25000,147
25.25833,144
25.26667,141
25.27500,139
25.28333,135
25.29167,132
25.30000,130
25.30833,127
25.31667,124
25.32500,122
25.33333,120
25.34167,118
25.35000,116
25.35833,115
25.36667,113
25.37500,111
25.38333,110
25.39167,108
25.40000,107
25.40833,105
25.41667,104
25.42500,102
25.43333,101
25.44167,99
25.45000,98
25.45833,97
25.46667,96
25.47500,95
25.48333,94
25.49167,93
25.50000,92
25.50833,92
25.51667,91
25.52500,90
25.53333,90
25.54167,89
25.55000,89
25.55833,89
25.56667,89
25.57500,88
25.58333,88
25.59167,87
25.60000,87
25.60833,86
25.61667,86
25.62500,85
25.63333,85
25.64167,85
25.65000,85
25.65833,84
25.66667,84
25.67500,84
25.68333,84
25.69167,84
25.70000,84
25.70833,85
25.71667,85
25.72500,85
25.73333,85
25.74167,85
25.75000,85
25.75833,85
25.76667,84
25.77500,84
25.78333,84
25.79167,84
25.80000,84
25.80833,83
25.81667,83
25.82500,83
25.83333,83
25.84167,83
25.85000,83
25.85833,83
25.86667,83
25.87500,83
25.88333,83
25.89167,83
25.90000,83
25.90833,83
25.91667,83
25.92500,83
25.93333,83
25.94167,83
25.95000,83
25.95833,83
25.96667,84
25.97500,84
25.98333,84
25.99167,84
26.00000,84
26.00833,84
26.01667,84
26.02500,84
26.03333,84
26.04167,84
26.05000,84
26.05833,84
26.06667,84
26.07500,84
26.08333,84
26.09167,84
26.10000,84
26.10833,84
26.11667,84
26.12500,84
26.13333,84
26.14167,84
26.15000,85
26.15833,85
26.16667,85
26.17500,85
26.18333,85
26.19167,86
26.20000,86
26.20833,86
26.21667,86
26.22500,86
26.23333,86
26.24167,85
26.25000,85
26.25833,85
26.26667,85
26.27500,85
26.28333,85
26.29167,85
26.30000,85
26.30833,85
26.31667,85
26.32500,85
26.33333,85
26.34167,85
26.35000,85
26.35833,85
26.36667,85
26.37500,85
26.38333,85
26.39167,85
26.40000,85
26.40833,86
26.41667,86
26.42500,86
26.43333,86
26.44167,85
26.45000,85
26.45833,85
26.46667,85
26.47500,85
26.48333,85
26.49167,85
26.50000,86
26.50833,86
26.51667,86
26.52500,86
26.53333,86
26.54167,86
26.55000,86
26.55833,86
26.56667,86
26.57500,86
26.58333,85
26.59167,85
26.60000,85
26.60833,86
26.61667,86
26.62500,86
26.63333,85
26.64167,85
26.65000,85
26.65833,85
26.66667,85
26.67500,85
26.68333,85
26.69167,85
26.70000,86
26.70833,86
26.71667,87
26.72500,87
26.73333,87
26.74167,87
26.75000,87
26.75833,87
26.76667,87
26.77500,87
26.78333,87
26.79167,87
26.80000,87
26.80833,88
26.81667,87
26.82500,87
26.83333,87
26.84167,87
26.85000,87
26.85833,87
26.86667,86
26.87500,86
26.88333,86
26.89167,86
26.90000,86
26.90833,87
26.91667,87
26.92500,87
26.93333,87
26.94167,87
26.95000,87
26.95833,88
26.96667,88
26.97500,88
26.98333,88
26.99167,88
27.00000,88
27.00833,88
27.01667,88
27.02500,87
27.03333,87
27.04167,87
27.05000,87
27.05833,87
27.06667,87
27.07500,87
27.08333,87
27.09167,87
27.10000,87
27.10833,87
27.11667,87
27.12500,88
27.13333,88
27.14167,88
27.15000,88
27.15833,88
27.16667,88
27.17500,88
27.18333,88
27.19167,88
27.20000,89
27.20833,89
27.21667,89
27.22500,89
27.23333,89
27.24167,89
27.25000,89
27.25833,89
27.26667,89
27.27500,89
27.28333,89
27.29167,89
27.30000,89
27.30833,89
27.31667,89
27.32500,89
27.33333,89
27.34167,89
27.35000,90
27.35833,90
27.36667,90
27.37500,90
27.38333,90
27.39167,90
27.40000,91
27.40833,91
27.41667,90
27.42500,90
27.43333,90
27.44167,90
27.45000,90
27.45833,89
27.46667,90
27.47500,90
27.48333,90
27.49167,91
27.50000,90
27.50833,90
27.51667,90
27.52500,90
27.53333,90
27.54167,90
27.55000,90
27.55833,90
27.56667,90
27.57500,90
27.58333,90
27.59167,90
27.60000,90
27.60833,90
27.61667,90
27.62500,90
27.63333,90
27.64167,89
27.65000,89
27.65833,89
27.66667,89
27.67500,89
27.68333,88
27.69167,88
27.70000,88
27.70833,88
27.71667,88
27.72500,87
27.73333,87
27.74167,86
27.75000,85
27.75833,85
27.76667,84
27.77500,84
27.78333,83
27.79167,82
27.80000,81
27.80833,80
27.81667,79
27.82500,78
27.83333,76
27.84167,74
27.85000,72
27.85833,70
27.86667,68
27.87500,65
27.88333,62
27.89167,59
27.90000,56
27.90833,53
27.91667,50
27.92500,47
27.93333,43
27.94167,39
27.95000,35
27.95833,30
27.96667,25
27.97500,20
27.98333,14
27.99167,8
28.00000,2
28.00833,-5
28.01667,-13
28.02500,-20
28.03333,-28
28.04167,-37
28.05000,-45
28.05833,-55
28.06667,-65
28.07500,-75
28.08333,-86
28.09167,-97
28.10000,-109
28.10833,-121
28.11667,-133
28.12500,-146
28.13333,-159
28.14167,-173
28.15000,-187
28.15833,-201
28.16667,-215
28.17500,-231
28.18333,-246
28.19167,-262
28.20000,-278
28.20833,-294
28.21667,-311
28.22500,-328
28.23333,-345
28.24167,-362
28.25000,-380
28.25833,-397
28.26667,-414
28.27500,-431
28.28333,-449
28.29167,-466
28.30000,-482
28.30833,-499
28.31667,-515
28.32500,-531
28.33333,-547
28.34167,-563
28.35000,-578
28.35833,-593
28.36667,-607
28.37500,-621
28.38333,-634
28.39167,-647
28.40000,-660
28.40833,-671
28.41667,-682
28.42500,-691
28.43333,-701
28.44167,-709
28.45000,-717
28.45833,-724
28.46667,-730
28.47500,-736
28.48333,-741
28.49167,-745
28.50000,-748
28.50833,-751
28.51667,-752
28.52500,-753
28.53333,-753
28.54167,-753
28.55000,-751
28.55833,-748
28.56667,-746
28.57500,-742
28.58333,-738
28.59167,-733
28.60000,-728
28.60833,-722
28.61667,-716
28.62500,-709
28.63333,-701
28.64167,-694
28.65000,-685
28.65833,-676
28.66667,-667
28.67500,-658
28.68333,-648
28.69167,-639
28.70000,-628
28.70833,-618
28.71667,-608
28.72500,-598
28.73333,-587
28.74167,-577
28.75000,-566
28.75833,-556
28.76667,-545
28.77500,-534
28.78333,-524
28.79167,-514
28.80000,-504
28.80833,-493
28.81667,-483
28.82500,-473
28.83333,-463
28.84167,-454
28.85000,-445
28.85833,-436
28.86667,-427
28.87500,-418
28.88333,-410
28.89167,-402
28.90000,-394
28.90833,-387
28.91667,-379
28.92500,-372
28.93333,-364
28.94167,-358
28.95000,-351
28.95833,-345
28.96667,-339
28.97500,-333
28.98333,-328
28.99167,-322
29.00000,-317
29.00833,-312
29.01667,-307
29.02500,-303
29.03333,-298
29.04167,-294
29.05000,-290
29.05833,-286
29.06667,-282
29.07500,-279
29.08333,-276
29.09167,-272
29.10000,-269
29.10833,-267
29.11667,-264
29.12500,-261
29.13333,-258
29.14167,-256
29.15000,-253
29.15833,-251
29.16667,-249
29.17500,-247
29.18333,-245
29.19167,-242
29.20000,-240
29.20833,-238
29.21667,-236
29.22500,-235
29.23333,-234
29.24167,-232
29.25000,-231
29.25833,-230
29.26667,-229
29.27500,-228
29.28333,-227
29.29167,-226
29.30000,-225
29.30833,-224
29.31667,-224
29.32500,-223
29.33333,-223
29.34167,-222
29.35000,-221
29.35833,-220
29.36667,-220
29.37500,-219
29.38333,-218
29.39167,-218
29.40000,-217
29.40833,-217
29.41667,-216
29.42500,-216
29.43333,-216
29.44167,-215
29.45000,-215
29.45833,-215
29.46667,-215
29.47500,-215
29.48333,-216
29.49167,-216
29.50000,-216
29.50833,-216
29.51667,-216
29.52500,-217
29.53333,-217
29.54167,-217
29.55000,-217
29.55833,-217
29.56667,-217
29.57500,-218
29.58333,-218
29.59167,-219
29.60000,-220
29.60833,-221
29.61667,-222
29.62500,-223
29.63333,-224
29.64167,-226
29.65000,-227
29.65833,-229
29.66667,-230
29.67500,-232
29.68333,-234
29.69167,-236
29.70000,-238
29.70833,-241
29.71667,-243
29.72500,-245
29.73333,-248
29.74167,-250
29.75000,-253
29.75833,-256
29.76667,-259
29.77500,-262
29.78333,-266
29.79167,-269
29.80000,-272
29.80833,-276
29.81667,-280
29.82500,-284
29.83333,-288
29.84167,-292
29.85000,-296
29.85833,-300
29.86667,-305
29.87500,-310
29.88333,-315
29.89167,-320
29.90000,-325
29.90833,-331
29.91667,-336
29.92500,-342
29.93333,-347
29.94167,-353
29.95000,-359
29.95833,-364
29.96667,-370
29.97500,-375
29.98333,-380
29.99167,-386
30.00000,-391
30.00833,-397
30.01667,-403
30.02500,-409
30.03333,-415
30.04167,-421
30.05000,-426
30.05833,-431
30.06667,-437
30.07500,-442
30.08333,-447
30.09167,-452
30.10000,-457
30.10833,-462
30.11667,-467
30.12500,-471
30.13333,-476
30.14167,-480
30.15000,-484
30.15833,-487
30.16667,-490
30.17500,-493
30.18333,-496
30.19167,-499
30.20000,-501
30.20833,-504
30.21667,-506
30.22500,-508
30.23333,-510
30.24167,-511
30.25000,-512
30.25833,-512
30.26667,-513
30.27500,-513
30.28333,-514
30.29167,-514
30.30000,-514
30.30833,-513
30.31667,-512
30.32500,-512
30.33333,-511
30.34167,-510
30.35000,-508
30.35833,-506
30.36667,-504
30.37500,-501
30.38333,-499
30.39167,-496
30.40000,-493
30.40833,-490
30.41667,-487
30.42500,-485
30.43333,-482
30.44167,-479
30.45000,-475
30.45833,-472
30.46667,-468
30.47500,-465
30.48333,-461
30.49167,-457
30.50000,-454
30.50833,-451
30.51667,-447
30.52500,-444
30.53333,-440
30.54167,-436
30.55000,-432
30.55833,-428
30.56667,-425
30.57500,-421
30.58333,-417
30.59167,-413
30.60000,-409
30.60833,-405
30.61667,-402
30.62500,-398
30.63333,-395
30.64167,-392
30.65000,-388
30.65833,-385
30.66667,-382
30.67500,-379
30.68333,-376
30.69167,-373
30.70000,-371
30.70833,-368
30.71667,-366
30.72500,-363
30.73333,-361
30.74167,-358
30.75000,-355
30.75833,-353
30.76667,-350
30.77500,-348
30.78333,-346
30.79167,-343
30.80000,-341
30.80833,-339
30.81667,-338
30.82500,-336
30.83333,-334
30.84167,-333
30.85000,-331
30.85833,-329
30.86667,-328
30.87500,-326
30.88333,-324
30.89167,-323
30.90000,-322
30.90833,-321
30.91667,-320
30.92500,-319
30.93333,-317
30.94167,-316
30.95000,-315
30.95833,-313
30.96667,-312
30.97500,-311
30.98333,-309
30.99167,-308
31.00000,-307
31.00833,-306
31.01667,-305
31.02500,-304
31.03333,-303
31.04167,-302
31.05000,-301
31.05833,-300
31.06667,-299
31.07500,-297
31.08333,-296
31.09167,-295
31.10000,-294
31.10833,-293
31.11667,-293
31.12500,-292
31.13333,-291
31.14167,-290
31.15000,-289
31.15833,-288
31.16667,-287
31.17500,-286
31.18333,-285
31.19167,-284
31.20000,-282
31.20833,-281
31.21667,-280
31.22500,-279
31.23333,-278
31.24167,-277
31.25000,-276
31.25833,-275
31.26667,-274
31.27500,-273
31.28333,-272
31.29167,-270
31.30000,-269
31.30833,-268
31.31667,-267
31.32500,-266
31.33333,-265
31.34167,-264
31.35000,-263
31.35833,-262
31.36667,-260
31.37500,-259
31.38333,-258
31.39167,-257
31.40000,-255
31.40833,-254
31.41667,-252
31.42500,-251
31.43333,-250
31.44167,-248
31.45000,-247
31.45833,-246
31.46667,-245
31.47500,-244
31.48333,-243
31.49167,-242
31.50000,-241
31.50833,-241
31.51667,-239
31.52500,-238
31.53333,-237
31.54167,-236
31.55000,-235
31.55833,-234
31.56667,-232
31.57500,-231
31.58333,-230
31.59167,-229
31.60000,-228
31.60833,-226
31.61667,-225
31.62500,-224
31.63333,-223
31.64167,-222
31.65000,-221
31.65833,-220
31.66667,-219
31.67500,-217
31.68333,-217
31.69167,-216
31.70000,-215
31.70833,-214
31.71667,-214
31.72500,-212
31.73333,-211
31.74167,-210
31.75000,-210
31.75833,-209
31.76667,-208
31.77500,-208
31.78333,-207
31.79167,-206
31.80000,-205
31.80833,-204
31.81667,-204
31.82500,-203
31.83333,-202
31.84167,-201
31.85000,-201
31.85833,-200
31.86667,-199
31.87500,-198
31.88333,-197
31.89167,-196
31.90000,-195
31.90833,-195
31.91667,-194
31.92500,-194
31.93333,-193
31.94167,-192
31.95000,-192
31.95833,-191
31.96667,-190
31.97500,-190
31.98333,-189
31.99167,-188
32.00000,-188
32.00833,-187
32.01667,-186
32.02500,-186
32.03333,-185
32.04167,-184
32.05000,-183
32.05833,-183
32.06667,-182
32.07500,-181
32.08333,-180
32.09167,-179
32.10000,-179
32.10833,-178
32.11667,-178
32.12500,-177
32.13333,-176
32.14167,-175
32.15000,-175
32.15833,-174
32.16667,-174
32.17500,-173
32.18333,-172
32.19167,-172
32.20000,-171
32.20833,-170
32.21667,-169
32.22500,-168
32.23333,-167
32.24167,-167
32.25000,-166
32.25833,-165
32.26667,-164
32.27500,-163
32.28333,-162
32.29167,-162
32.30000,-161
32.30833,-160
32.31667,-159
32.32500,-159
32.33333,-158
32.34167,-157
32.35000,-156
32.35833,-156
32.36667,-155
32.37500,-155
32.38333,-154
32.39167,-153
32.40000,-153
32.40833,-152
32.41667,-151
32.42500,-150
32.43333,-149
32.44167,-148
32.45000,-147
32.45833,-146
32.46667,-145
32.47500,-144
32.48333,-143
32.49167,-143
32.50000,-142
32.50833,-141
32.51667,-141
32.52500,-140
32.53333,-139
32.54167,-138
32.55000,-137
32.55833,-136
32.56667,-136
32.57500,-135
32.58333,-134
32.59167,-134
32.60000,-133
32.60833,-133
32.61667,-132
32.62500,-131
32.63333,-130
32.64167,-130
32.65000,-129
32.65833,-128
32.66667,-127
32.67500,-126
32.68333,-125
32.69167,-124
32.70000,-124
32.70833,-123
32.71667,-122
32.72500,-121
32.73333,-121
32.74167,-120
32.75000,-119
32.75833,-118
32.76667,-117
32.77500,-116
32.78333,-115
32.79167,-114
32.80000,-114
32.80833,-113
32.81667,-113
32.82500,-112
32.83333,-111
32.84167,-110
32.85000,-109
32.85833,-108
32.86667,-107
32.87500,-106
32.88333,-105
32.89167,-105
32.90000,-104
32.90833,-103
32.91667,-102
32.92500,-101
32.93333,-101
32.94167,-100
32.95000,-100
32.95833,-99
32.96667,-98
32.97500,-97
32.98333,-96
32.99167,-95
33.00000,-94
33.00833,-93
33.01667,-93
33.02500,-92
33.03333,-92
33.04167,-91
33.05000,-90
33.05833,-89
33.06667,-89
33.07500,-88
33.08333,-88
33.09167,-87
33.10000,-87
33.10833,-86
33.11667,-85
33.12500,-85
33.13333,-84
33.14167,-83
33.15000,-82
33.15833,-82
33.16667,-81
33.17500,-80
33.18333,-79
33.19167,-79
33.20000,-78
33.20833,-77
33.21667,-77
33.22500,-76
33.23333,-75
33.24167,-74
33.25000,-73
33.25833,-72
33.26667,-71
33.27500,-70
33.28333,-69
33.29167,-68
33.30000,-68
33.30833,-68
33.31667,-68
33.32500,-67
33.33333,-67
33.34167,-66
33.35000,-66
33.35833,-65
33.36667,-64
33.37500,-63
33.38333,-63
33.39167,-62
33.40000,-61
33.40833,-61
33.41667,-60
33.42500,-59
33.43333,-58
33.44167,-57
33.45000,-56
33.45833,-56
33.46667,-55
33.47500,-55
33.48333,-54
33.49167,-54
33.50000,-53
33.50833,-52
33.51667,-52
33.52500,-51
33.53333,-50
33.54167,-50
33.55000,-49
33.55833,-48
33.56667,-47
33.57500,-46
33.58333,-46
33.59167,-45
33.60000,-45
33.60833,-45
33.61667,-44
33.62500,-44
33.63333,-43
33.64167,-43
33.65000,-42
33.65833,-42
33.66667,-41
33.67500,-40
33.68333,-39
33.69167,-39
33.70000,-38
33.70833,-38
33.71667,-37
33.72500,-37
33.73333,-36
33.74167,-35
33.75000,-35
33.75833,-34
33.76667,-34
33.77500,-33
33.78333,-32
33.79167,-32
33.80000,-31
33.80833,-30
33.81667,-30
33.82500,-29
33.83333,-28
33.84167,-27
33.85000,-26
33.85833,-26
33.86667,-25
33.87500,-25
33.88333,-24
33.89167,-24
33.90000,-24
33.90833,-23
33.91667,-22
33.92500,-22
33.93333,-22
33.94167,-21
33.95000,-21
33.95833,-20
33.96667,-20
33.97500,-19
33.98333,-18
33.99167,-18
34.00000,-17
34.00833,-17
34.01667,-16
34.02500,-15
34.03333,-15
34.04167,-14
34.05000,-14
34.05833,-13
34.06667,-13
34.07500,-12
34.08333,-12
34.09167,-11
34.10000,-11
34.10833,-10
34.11667,-10
34.12500,-9
34.13333,-9
34.14167,-8
34.15000,-8
34.15833,-7
34.16667,-6
34.17500,-6
34.18333,-5
34.19167,-5
34.20000,-5
34.20833,-4
34.21667,-4
34.22500,-3
34.23333,-3
34.24167,-2
34.25000,-2
34.25833,-1
34.26667,-1
34.27500,-0
34.28333,0
34.29167,0
34.30000,1
34.30833,1
34.31667,1
34.32500,2
34.33333,3
34.34167,4
34.35000,4
34.35833,4
34.36667,5
34.37500,6
34.38333,7
34.39167,7
34.40000,8
34.40833,8
34.41667,8
34.42500,9
34.43333,9
34.44167,9
34.45000,10
34.45833,10
34.46667,11
34.47500,11
34.48333,12
34.49167,13
34.50000,13
34.50833,13
34.51667,13
34.52500,14
34.53333,14
34.54167,15
34.55000,16
34.55833,16
34.56667,16
34.57500,17
34.58333,18
34.59167,18
34.60000,18
34.60833,19
34.61667,19
34.62500,20
34.63333,20
34.64167,20
34.65000,21
34.65833,21
34.66667,21
34.67500,22
34.68333,22
34.69167,22
34.70000,23
34.70833,23
34.71667,24
34.72500,24
34.73333,24
34.74167,24
34.75000,24
34.75833,25
34.76667,25
34.77500,26
34.78333,26
34.79167,27
34.80000,28
34.80833,28
34.81667,29
34.82500,29
34.83333,29
34.84167,29
34.85000,29
34.85833,30
34.86667,30
34.87500,31
34.88333,32
34.89167,32
34.90000,32
34.90833,32
34.91667,32
34.92500,33
34.93333,33
34.94167,34
34.95000,34
34.95833,34
34.96667,34
34.97500,35
34.98333,35
34.99167,35
35.00000,36
35.00833,36
35.01667,36
35.02500,36
35.03333,37
35.04167,37
35.05000,38
35.05833,38
35.06667,38
35.07500,39
35.08333,39
35.09167,39
35.10000,39
35.10833,39
35.11667,39
35.12500,40
35.13333,40
35.14167,41
35.15000,42
35.15833,43
35.16667,43
35.17500,43
35.18333,44
35.19167,44
35.20000,44
35.20833,45
35.21667,45
35.22500,45
35.23333,45
35.24167,46
35.25000,46
35.25833,46
35.26667,47
35.27500,47
35.28333,47
35.29167,48
35.30000,48
35.30833,48
35.31667,48
35.32500,48
35.33333,49
35.34167,49
35.35000,50
35.35833,50
35.36667,51
35.37500,51
35.38333,52
35.39167,52
35.40000,52
35.40833,53
35.41667,53
35.42500,53
35.43333,54
35.44167,54
35.45000,55
35.45833,56
35.46667,56
35.47500,56
35.48333,56
35.49167,56
35.50000,56
35.50833,56
35.51667,56
35.52500,57
35.53333,58
35.54167,58
35.55000,58
35.55833,59
35.56667,59
35.57500,59
35.58333,60
35.59167,60
35.60000,60
35.60833,61
35.61667,61
35.62500,62
35.63333,63
35.64167,63
35.65000,63
35.65833,64
35.66667,64
35.67500,64
35.68333,64
35.69167,64
35.70000,64
35.70833,64
35.71667,65
35.72500,66
35.73333,66
35.74167,66
35.75000,66
35.75833,67
35.76667,67
35.77500,68
35.78333,68
35.79167,69
35.80000,69
35.80833,69
35.81667,69
35.82500,70
35.83333,70
35.84167,70
35.85000,71
35.85833,72
35.86667,72
35.87500,72
35.88333,72
35.89167,72
35.90000,72
35.90833,73
35.91667,73
35.92500,73
35.93333,73
35.94167,73
35.95000,73
35.95833,74
35.96667,74
35.97500,74
35.98333,75
35.99167,75
36.00000,76
36.00833,76
36.01667,77
36.02500,77
36.03333,78
36.04167,78
36.05000,79
36.05833,79
36.06667,79
36.07500,79
36.08333,79
36.09167,79
36.10000,79
36.10833,80
36.11667,80
36.12500,80
36.13333,81
36.14167,81
36.15000,81
36.15833,81
36.16667,81
36.17500,82
36.18333,82
36.19167,82
36.20000,82
36.20833,83
36.21667,83
36.22500,83
36.23333,84
36.24167,84
36.25000,84
36.25833,84
36.26667,85
36.27500,85
36.28333,85
36.29167,85
36.30000,85
36.30833,85
36.31667,85
36.32500,86
36.33333,86
36.34167,87
36.35000,87
36.35833,88
36.36667,88
36.37500,88
36.38333,88
36.39167,89
36.40000,89
36.40833,89
36.41667,89
36.42500,90
36.43333,90
36.44167,90
36.45000,91
36.45833,91
36.46667,92
36.47500,92
36.48333,92
36.49167,92
36.50000,93
36.50833,93
36.51667,94
36.52500,94
36.53333,94
36.54167,94
36.55000,94
36.55833,95
36.56667,96
36.57500,96
36.58333,97
36.59167,97
36.60000,98
36.60833,99
36.61667,99
36.62500,100
36.63333,101
36.64167,101
36.65000,102
36.65833,102
36.66667,103
36.67500,104
36.68333,104
36.69167,104
36.70000,105
36.70833,105
36.71667,106
36.72500,106
36.73333,107
36.74167,108
36.75000,108
36.75833,109
36.76667,110
36.77500,110
36.78333,111
36.79167,112
36.80000,112
36.80833,113
36.81667,114
36.82500,115
36.83333,116
36.84167,117
36.85000,118
36.85833,119
36.86667,119
36.87500,120
36.88333,121
36.89167,121
36.90000,121
36.90833,122
36.91667,122
36.92500,123
36.93333,123
36.94167,124
36.95000,125
36.95833,126
36.96667,127
36.97500,128
36.98333,128
36.99167,129
37.00000,130
37.00833,131
37.01667,131
37.02500,132
37.03333,133
37.04167,133
37.05000,133
37.05833,133
37.06667,134
37.07500,133
37.08333,134
37.09167,134
37.10000,134
37.10833,135
37.11667,135
37.12500,135
37.13333,135
37.14167,135
37.15000,136
37.15833,136
37.16667,136
37.17500,136
37.18333,136
37.19167,136
37.20000,137
37.20833,137
37.21667,137
37.22500,137
37.23333,136
37.24167,136
37.25000,136
37.25833,136
37.26667,136
37.27500,135
37.28333,135
37.29167,135
37.30000,134
37.30833,134
37.31667,134
37.32500,133
37.33333,133
37.34167,133
37.35000,132
37.35833,131
37.36667,131
37.37500,130
37.38333,130
37.39167,130
37.40000,129
37.40833,129
37.41667,129
37.42500,129
37.43333,128
37.44167,127
37.45000,126
37.45833,126
37.46667,125
37.47500,124
37.48333,123
37.49167,122
37.50000,122
37.50833,121
37.51667,120
37.52500,120
37.53333,120
37.54167,119
37.55000,119
37.55833,119
37.56667,119
37.57500,118
37.58333,118
37.59167,117
37.60000,117
37.60833,116
37.61667,115
37.62500,114
37.63333,114
37.64167,113
37.65000,113
37.65833,112
37.66667,112
37.67500,111
37.68333,110
37.69167,110
37.70000,109
37.70833,109
37.71667,109
37.72500,108
37.73333,108
37.74167,108
37.75000,107
37.75833,107
37.76667,107
37.77500,106
37.78333,106
37.79167,105
37.80000,105
37.80833,105
37.81667,104
37.82500,104
37.83333,104
37.84167,104
37.85000,104
37.85833,103
37.86667,103
37.87500,102
37.88333,102
37.89167,102
37.90000,102
37.90833,101
37.91667,101
37.92500,101
37.93333,101
37.94167,101
37.95000,100
37.95833,100
37.96667,100
37.97500,100
37.98333,100
37.99167,99
38.00000,99
38.00833,99
38.01667,99
38.02500,99
38.03333,99
38.04167,99
38.05000,99
38.05833,99
38.06667,99
38.07500,98
38.08333,98
38.09167,98
38.10000,98
38.10833,98
38.11667,98
38.12500,98
38.13333,98
38.14167,98
38.15000,98
38.15833,98
38.16667,98
38.17500,98
38.18333,97
38.19167,97
38.20000,97
38.20833,97
38.21667,98
38.22500,98
38.23333,98
38.24167,98
38.25000,98
38.25833,99
38.26667,99
38.27500,99
38.28333,98
38.29167,98
38.30000,98
38.30833,97
38.31667,97
38.32500,97
38.33333,97
38.34167,97
38.35000,98
38.35833,98
38.36667,98
38.37500,99
38.38333,99
38.39167,99
38.40000,98
38.40833,98
38.41667,99
38.42500,99
38.43333,98
38.44167,98
38.45000,98
38.45833,98
38.46667,98
38.47500,98
38.48333,98
38.49167,98
38.50000,98
38.50833,99
38.51667,99
38.52500,99
38.53333,99
38.54167,99
38.55000,99
38.55833,100
38.56667,99
38.57500,99
38.58333,99
38.59167,99
38.60000,99
38.60833,99
38.61667,99
38.62500,99
38.63333,99
38.64167,99
38.65000,99
38.65833,99
38.66667,99
38.67500,99
38.68333,99
38.69167,99
38.70000,99
38.70833,99
38.71667,99
38.72500,99
38.73333,99
38.74167,99
38.75000,99
38.75833,99
38.76667,99
38.77500,99
38.78333,99
38.79167,99
38.80000,99
38.80833,99
38.81667,99
38.82500,99
38.83333,99
38.84167,99
38.85000,100
38.85833,100
38.86667,100
38.87500,100
38.88333,100
38.89167,99
38.90000,99
38.90833,99
38.91667,99
38.92500,99
38.93333,99
38.94167,99
38.95000,99
38.95833,99
38.96667,99
38.97500,100
38.98333,100
38.99167,100
39.00000,100
39.00833,100
39.01667,100
39.02500,100
39.03333,100
39.04167,100
39.05000,100
39.05833,100
39.06667,100
39.07500,100
39.08333,101
39.09167,101
39.10000,100
39.10833,100
39.11667,100
39.12500,100
39.13333,100
39.14167,100
39.15000,100
39.15833,101
39.16667,101
39.17500,101
39.18333,101
39.19167,101
39.20000,101
39.20833,101
39.21667,101
39.22500,101
39.23333,101
39.24167,101
39.25000,100
39.25833,100
39.26667,101
39.27500,101
39.28333,101
39.29167,101
39.30000,101
39.30833,101
39.31667,101
39.32500,100
39.33333,100
39.34167,101
39.35000,101
39.35833,101
39.36667,102
39.37500,102
39.38333,102
39.39167,102
39.40000,102
39.40833,102
39.41667,102
39.42500,103
39.43333,103
39.44167,102
39.45000,102
39.45833,102
39.46667,102
39.47500,102
39.48333,102
39.49167,102
39.50000,102
39.50833,102
39.51667,102
39.52500,102
39.53333,102
39.54167,103
39.55000,103
39.55833,103
39.56667,103
39.57500,104
39.58333,104
39.59167,104
39.60000,104
39.60833,104
39.61667,104
39.62500,104
39.63333,104
39.64167,104
39.65000,104
39.65833,103
39.66667,103
39.67500,103
39.68333,103
39.69167,103
39.70000,103
39.70833,103
39.71667,103
39.72500,104
39.73333,104
39.74167,104
39.75000,104
39.75833,104
39.76667,104
39.77500,104
39.78333,104
39.79167,103
39.80000,103
39.80833,103
39.81667,104
39.82500,104
39.83333,104
39.84167,104
39.85000,104
39.85833,104
39.86667,104
39.87500,104
39.88333,104
39.89167,104
39.90000,104
39.90833,104
39.91667,104
39.92500,104
39.93333,104
39.94167,104
39.95000,104
39.95833,104
39.96667,104
39.97500,104
39.98333,104
39.99167,104
40.00000,105

