[Header]
Application Name,LabSolutions
Version,5.97 SP1
Data File Name,C:\Users\cremerlab\Desktop\griffin\2021-03-31_NCM3722_NCglucose_turnover\2021-03-31_NCM3722_turnover_batch_3312021_004_011.lcd
Output Date,4/1/2021
Output Time,2:37:19 AM

[File Information]
Type,Data File
Generated,4/1/2021 1:57:00 AM
Generated by,System Administrator
Modified,4/1/2021 2:37:19 AM
Modified by,System Administrator

[Sample Information]
Operator Name,System Administrator
Acquired,4/1/2021 1:57:19 AM
Sample Type,1:Standard
Level,4
Sample Name,2021-03-31_NCM3722_NCglucose_replicate_02_timepoint_004
Sample ID,004
ISTD Amount1,1
ISTD Amount2,1
ISTD Amount3,1
ISTD Amount4,1
ISTD Amount5,1
ISTD Amount6,1
ISTD Amount7,1
ISTD Amount8,1
ISTD Amount9,1
ISTD Amount10,1
ISTD Amount11,1
ISTD Amount12,1
ISTD Amount13,1
ISTD Amount14,1
ISTD Amount15,1
ISTD Amount16,1
ISTD Amount17,1
ISTD Amount18,1
ISTD Amount19,1
ISTD Amount20,1
ISTD Amount21,1
ISTD Amount22,1
ISTD Amount23,1
ISTD Amount24,1
ISTD Amount25,1
ISTD Amount26,1
ISTD Amount27,1
ISTD Amount28,1
ISTD Amount29,1
ISTD Amount30,1
ISTD Amount31,1
ISTD Amount32,1
Sample Amount,1
Dilution Factor,1
Vial#,22
Injection Volume,20

[Original Files]
Data File,C:\Users\cremerlab\Desktop\griffin\2021-03-31_NCM3722_NCglucose_turnover\2021-03-31_NCM3722_turnover_batch_3312021_004_011.lcd
Method File,C:\LabSolutions\Data\Project1\organicacidsetc2.lcm
Batch File,C:\Users\cremerlab\Desktop\griffin\2021-03-31_NCM3722_NCglucose_turnover\2021-03-31_NCM3722_turnover_batch.lcb
Report Format File,c:\LabSolutions\System\DEFAULT.lsr

[File Description]


[Configuration]
Instrument Name,HPLC-PC-Instrument1
Instrument #,1
Line #,1
# of Detectors,2
Detector ID,Detector A,Detector B
Detector Name,Detector A,Detector B
# of Channels,1,1

[Peak Table(Detector A)]
# of Peaks,0

[Peak Table(Detector B)]
# of Peaks,4
Peak#,R.Time,I.Time,F.Time,Area,Height,A/H,Conc.,Mark,ID#,Name,k',Plate #,Plate Ht.,Tailing,Resolution,Sep.Factor,Area Ratio,Height Ratio,Conc. %,Norm Conc.
1,11.056,10.750,12.558,1239266,70748,17.517,0.000,   ,,,0.000,10626,14.116,1.272,0.000,0.000,0,0,0.000,0.000
2,15.099,14.100,15.392,3180831,119084,26.711,0.000,   ,,,0.366,6982,21.484,0.000,7.020,0.000,0,0,0.000,0.000
3,15.632,15.392,18.467,949398,38442,24.697,0.000, V ,,,0.414,7866,19.069,0.000,0.746,1.132,0,0,0.000,0.000
4,25.050,24.575,25.667,6556,234,27.978,0.000,   ,,,1.266,17264,8.689,1.080,12.836,3.059,0,0,0.000,0.000

[LC Chromatogram(Detector B-Ch1)]
Interval(msec),500
# of Points,4801
Start Time(min),0.000
End Time(min),40.000
Intensity Units,mV
Intensity Multiplier,0.001
R.Time (min),Intensity
0.00000,1
0.00833,1
0.01667,0
0.02500,0
0.03333,0
0.04167,-0
0.05000,-0
0.05833,-1
0.06667,-1
0.07500,-1
0.08333,-1
0.09167,-1
0.10000,-1
0.10833,-1
0.11667,-1
0.12500,-1
0.13333,-1
0.14167,-0
0.15000,-0
0.15833,0
0.16667,0
0.17500,0
0.18333,0
0.19167,0
0.20000,0
0.20833,1
0.21667,1
0.22500,1
0.23333,1
0.24167,1
0.25000,2
0.25833,2
0.26667,2
0.27500,2
0.28333,2
0.29167,2
0.30000,2
0.30833,2
0.31667,2
0.32500,1
0.33333,1
0.34167,0
0.35000,1
0.35833,1
0.36667,1
0.37500,1
0.38333,2
0.39167,2
0.40000,2
0.40833,2
0.41667,2
0.42500,2
0.43333,2
0.44167,2
0.45000,2
0.45833,2
0.46667,2
0.47500,2
0.48333,2
0.49167,2
0.50000,2
0.50833,2
0.51667,2
0.52500,2
0.53333,2
0.54167,2
0.55000,2
0.55833,2
0.56667,2
0.57500,2
0.58333,2
0.59167,2
0.60000,3
0.60833,2
0.61667,2
0.62500,2
0.63333,2
0.64167,2
0.65000,2
0.65833,2
0.66667,2
0.67500,2
0.68333,1
0.69167,1
0.70000,1
0.70833,1
0.71667,1
0.72500,1
0.73333,1
0.74167,1
0.75000,1
0.75833,1
0.76667,2
0.77500,2
0.78333,2
0.79167,2
0.80000,3
0.80833,3
0.81667,3
0.82500,4
0.83333,4
0.84167,4
0.85000,3
0.85833,3
0.86667,3
0.87500,2
0.88333,2
0.89167,2
0.90000,2
0.90833,2
0.91667,2
0.92500,2
0.93333,2
0.94167,2
0.95000,2
0.95833,2
0.96667,2
0.97500,2
0.98333,3
0.99167,3
1.00000,3
1.00833,2
1.01667,2
1.02500,3
1.03333,2
1.04167,2
1.05000,3
1.05833,3
1.06667,3
1.07500,3
1.08333,3
1.09167,3
1.10000,3
1.10833,3
1.11667,3
1.12500,3
1.13333,4
1.14167,4
1.15000,3
1.15833,3
1.16667,3
1.17500,3
1.18333,3
1.19167,3
1.20000,4
1.20833,4
1.21667,4
1.22500,3
1.23333,3
1.24167,3
1.25000,3
1.25833,3
1.26667,3
1.27500,3
1.28333,3
1.29167,3
1.30000,3
1.30833,3
1.31667,3
1.32500,3
1.33333,3
1.34167,3
1.35000,3
1.35833,3
1.36667,3
1.37500,3
1.38333,3
1.39167,3
1.40000,3
1.40833,4
1.41667,4
1.42500,4
1.43333,4
1.44167,4
1.45000,4
1.45833,4
1.46667,4
1.47500,4
1.48333,4
1.49167,4
1.50000,4
1.50833,4
1.51667,4
1.52500,4
1.53333,4
1.54167,5
1.55000,5
1.55833,4
1.56667,4
1.57500,4
1.58333,4
1.59167,4
1.60000,4
1.60833,4
1.61667,4
1.62500,5
1.63333,5
1.64167,5
1.65000,6
1.65833,6
1.66667,6
1.67500,6
1.68333,7
1.69167,6
1.70000,6
1.70833,7
1.71667,7
1.72500,7
1.73333,7
1.74167,7
1.75000,7
1.75833,7
1.76667,7
1.77500,7
1.78333,7
1.79167,7
1.80000,7
1.80833,8
1.81667,8
1.82500,8
1.83333,8
1.84167,8
1.85000,7
1.85833,7
1.86667,7
1.87500,7
1.88333,8
1.89167,8
1.90000,9
1.90833,10
1.91667,10
1.92500,10
1.93333,10
1.94167,10
1.95000,9
1.95833,9
1.96667,9
1.97500,9
1.98333,9
1.99167,10
2.00000,9
2.00833,9
2.01667,9
2.02500,10
2.03333,10
2.04167,10
2.05000,10
2.05833,10
2.06667,10
2.07500,10
2.08333,10
2.09167,10
2.10000,10
2.10833,10
2.11667,10
2.12500,10
2.13333,10
2.14167,11
2.15000,11
2.15833,10
2.16667,10
2.17500,10
2.18333,11
2.19167,10
2.20000,10
2.20833,10
2.21667,10
2.22500,10
2.23333,9
2.24167,10
2.25000,10
2.25833,10
2.26667,10
2.27500,10
2.28333,10
2.29167,10
2.30000,10
2.30833,10
2.31667,10
2.32500,10
2.33333,10
2.34167,10
2.35000,10
2.35833,9
2.36667,9
2.37500,9
2.38333,9
2.39167,9
2.40000,9
2.40833,9
2.41667,9
2.42500,9
2.43333,9
2.44167,9
2.45000,9
2.45833,9
2.46667,9
2.47500,9
2.48333,9
2.49167,9
2.50000,9
2.50833,9
2.51667,9
2.52500,8
2.53333,8
2.54167,8
2.55000,8
2.55833,8
2.56667,8
2.57500,8
2.58333,8
2.59167,8
2.60000,8
2.60833,8
2.61667,8
2.62500,8
2.63333,8
2.64167,8
2.65000,8
2.65833,8
2.66667,8
2.67500,7
2.68333,7
2.69167,7
2.70000,7
2.70833,7
2.71667,7
2.72500,7
2.73333,7
2.74167,7
2.75000,8
2.75833,8
2.76667,8
2.77500,8
2.78333,8
2.79167,8
2.80000,8
2.80833,8
2.81667,8
2.82500,8
2.83333,8
2.84167,8
2.85000,7
2.85833,7
2.86667,7
2.87500,7
2.88333,7
2.89167,7
2.90000,7
2.90833,7
2.91667,7
2.92500,7
2.93333,7
2.94167,7
2.95000,7
2.95833,7
2.96667,7
2.97500,7
2.98333,7
2.99167,7
3.00000,7
3.00833,7
3.01667,7
3.02500,7
3.03333,7
3.04167,7
3.05000,7
3.05833,7
3.06667,7
3.07500,8
3.08333,8
3.09167,8
3.10000,8
3.10833,8
3.11667,8
3.12500,8
3.13333,7
3.14167,7
3.15000,7
3.15833,7
3.16667,7
3.17500,8
3.18333,8
3.19167,8
3.20000,8
3.20833,8
3.21667,8
3.22500,8
3.23333,8
3.24167,7
3.25000,7
3.25833,7
3.26667,7
3.27500,7
3.28333,7
3.29167,7
3.30000,7
3.30833,7
3.31667,7
3.32500,8
3.33333,8
3.34167,8
3.35000,8
3.35833,8
3.36667,8
3.37500,8
3.38333,8
3.39167,8
3.40000,8
3.40833,8
3.41667,9
3.42500,8
3.43333,8
3.44167,8
3.45000,8
3.45833,8
3.46667,8
3.47500,8
3.48333,8
3.49167,9
3.50000,9
3.50833,9
3.51667,9
3.52500,9
3.53333,10
3.54167,10
3.55000,10
3.55833,10
3.56667,10
3.57500,10
3.58333,10
3.59167,10
3.60000,9
3.60833,9
3.61667,9
3.62500,10
3.63333,10
3.64167,9
3.65000,9
3.65833,9
3.66667,9
3.67500,9
3.68333,9
3.69167,10
3.70000,10
3.70833,10
3.71667,10
3.72500,10
3.73333,10
3.74167,10
3.75000,11
3.75833,11
3.76667,11
3.77500,11
3.78333,11
3.79167,12
3.80000,12
3.80833,12
3.81667,12
3.82500,12
3.83333,12
3.84167,12
3.85000,12
3.85833,12
3.86667,12
3.87500,12
3.88333,12
3.89167,12
3.90000,12
3.90833,12
3.91667,12
3.92500,12
3.93333,12
3.94167,13
3.95000,13
3.95833,13
3.96667,13
3.97500,13
3.98333,13
3.99167,13
4.00000,13
4.00833,12
4.01667,12
4.02500,12
4.03333,13
4.04167,13
4.05000,13
4.05833,13
4.06667,13
4.07500,13
4.08333,13
4.09167,13
4.10000,14
4.10833,14
4.11667,14
4.12500,14
4.13333,14
4.14167,14
4.15000,14
4.15833,14
4.16667,15
4.17500,14
4.18333,14
4.19167,14
4.20000,14
4.20833,14
4.21667,14
4.22500,14
4.23333,14
4.24167,14
4.25000,14
4.25833,14
4.26667,14
4.27500,14
4.28333,14
4.29167,14
4.30000,14
4.30833,14
4.31667,14
4.32500,14
4.33333,14
4.34167,14
4.35000,14
4.35833,13
4.36667,13
4.37500,13
4.38333,13
4.39167,13
4.40000,13
4.40833,13
4.41667,13
4.42500,13
4.43333,13
4.44167,13
4.45000,13
4.45833,13
4.46667,13
4.47500,13
4.48333,13
4.49167,13
4.50000,13
4.50833,13
4.51667,13
4.52500,13
4.53333,13
4.54167,12
4.55000,12
4.55833,12
4.56667,12
4.57500,12
4.58333,13
4.59167,13
4.60000,13
4.60833,13
4.61667,13
4.62500,13
4.63333,13
4.64167,13
4.65000,12
4.65833,12
4.66667,12
4.67500,12
4.68333,12
4.69167,12
4.70000,13
4.70833,13
4.71667,12
4.72500,12
4.73333,12
4.74167,12
4.75000,12
4.75833,11
4.76667,11
4.77500,11
4.78333,11
4.79167,11
4.80000,11
4.80833,12
4.81667,12
4.82500,11
4.83333,11
4.84167,11
4.85000,11
4.85833,11
4.86667,11
4.87500,11
4.88333,11
4.89167,12
4.90000,12
4.90833,12
4.91667,12
4.92500,12
4.93333,12
4.94167,12
4.95000,12
4.95833,12
4.96667,12
4.97500,12
4.98333,12
4.99167,12
5.00000,12
5.00833,12
5.01667,13
5.02500,13
5.03333,13
5.04167,13
5.05000,13
5.05833,13
5.06667,13
5.07500,13
5.08333,12
5.09167,13
5.10000,13
5.10833,13
5.11667,13
5.12500,13
5.13333,13
5.14167,13
5.15000,13
5.15833,12
5.16667,12
5.17500,12
5.18333,12
5.19167,12
5.20000,12
5.20833,12
5.21667,12
5.22500,12
5.23333,12
5.24167,12
5.25000,12
5.25833,12
5.26667,12
5.27500,13
5.28333,13
5.29167,13
5.30000,13
5.30833,13
5.31667,13
5.32500,13
5.33333,14
5.34167,14
5.35000,13
5.35833,13
5.36667,12
5.37500,12
5.38333,12
5.39167,12
5.40000,12
5.40833,12
5.41667,12
5.42500,12
5.43333,12
5.44167,12
5.45000,12
5.45833,13
5.46667,12
5.47500,12
5.48333,12
5.49167,13
5.50000,13
5.50833,13
5.51667,13
5.52500,13
5.53333,13
5.54167,13
5.55000,13
5.55833,13
5.56667,13
5.57500,13
5.58333,12
5.59167,12
5.60000,13
5.60833,13
5.61667,13
5.62500,13
5.63333,13
5.64167,13
5.65000,13
5.65833,14
5.66667,14
5.67500,14
5.68333,14
5.69167,14
5.70000,14
5.70833,13
5.71667,14
5.72500,14
5.73333,14
5.74167,14
5.75000,14
5.75833,14
5.76667,14
5.77500,14
5.78333,14
5.79167,14
5.80000,14
5.80833,14
5.81667,14
5.82500,14
5.83333,14
5.84167,14
5.85000,14
5.85833,14
5.86667,13
5.87500,13
5.88333,13
5.89167,13
5.90000,13
5.90833,13
5.91667,13
5.92500,13
5.93333,13
5.94167,13
5.95000,13
5.95833,13
5.96667,14
5.97500,13
5.98333,13
5.99167,14
6.00000,14
6.00833,14
6.01667,14
6.02500,14
6.03333,14
6.04167,14
6.05000,14
6.05833,14
6.06667,14
6.07500,13
6.08333,13
6.09167,14
6.10000,14
6.10833,14
6.11667,14
6.12500,14
6.13333,15
6.14167,15
6.15000,15
6.15833,15
6.16667,15
6.17500,16
6.18333,15
6.19167,15
6.20000,15
6.20833,15
6.21667,15
6.22500,15
6.23333,15
6.24167,14
6.25000,14
6.25833,14
6.26667,14
6.27500,14
6.28333,14
6.29167,14
6.30000,14
6.30833,14
6.31667,14
6.32500,14
6.33333,14
6.34167,14
6.35000,14
6.35833,14
6.36667,14
6.37500,14
6.38333,14
6.39167,14
6.40000,14
6.40833,14
6.41667,14
6.42500,14
6.43333,14
6.44167,14
6.45000,14
6.45833,14
6.46667,14
6.47500,14
6.48333,14
6.49167,14
6.50000,14
6.50833,14
6.51667,14
6.52500,14
6.53333,14
6.54167,14
6.55000,14
6.55833,15
6.56667,15
6.57500,15
6.58333,15
6.59167,15
6.60000,15
6.60833,15
6.61667,15
6.62500,15
6.63333,15
6.64167,14
6.65000,15
6.65833,15
6.66667,15
6.67500,15
6.68333,15
6.69167,15
6.70000,16
6.70833,16
6.71667,16
6.72500,16
6.73333,16
6.74167,16
6.75000,15
6.75833,15
6.76667,16
6.77500,16
6.78333,15
6.79167,15
6.80000,15
6.80833,16
6.81667,16
6.82500,16
6.83333,17
6.84167,17
6.85000,17
6.85833,17
6.86667,17
6.87500,16
6.88333,17
6.89167,17
6.90000,17
6.90833,17
6.91667,17
6.92500,17
6.93333,17
6.94167,17
6.95000,17
6.95833,17
6.96667,16
6.97500,16
6.98333,16
6.99167,16
7.00000,16
7.00833,16
7.01667,16
7.02500,16
7.03333,17
7.04167,17
7.05000,18
7.05833,18
7.06667,17
7.07500,17
7.08333,16
7.09167,16
7.10000,16
7.10833,16
7.11667,16
7.12500,17
7.13333,17
7.14167,17
7.15000,17
7.15833,17
7.16667,17
7.17500,16
7.18333,16
7.19167,16
7.20000,16
7.20833,17
7.21667,17
7.22500,17
7.23333,17
7.24167,17
7.25000,17
7.25833,17
7.26667,17
7.27500,17
7.28333,17
7.29167,17
7.30000,17
7.30833,17
7.31667,17
7.32500,17
7.33333,17
7.34167,17
7.35000,17
7.35833,17
7.36667,17
7.37500,17
7.38333,17
7.39167,17
7.40000,17
7.40833,17
7.41667,17
7.42500,17
7.43333,17
7.44167,18
7.45000,18
7.45833,18
7.46667,18
7.47500,18
7.48333,18
7.49167,18
7.50000,18
7.50833,18
7.51667,19
7.52500,19
7.53333,19
7.54167,19
7.55000,19
7.55833,19
7.56667,18
7.57500,18
7.58333,18
7.59167,18
7.60000,18
7.60833,18
7.61667,18
7.62500,19
7.63333,19
7.64167,19
7.65000,19
7.65833,19
7.66667,18
7.67500,18
7.68333,18
7.69167,18
7.70000,18
7.70833,17
7.71667,17
7.72500,17
7.73333,17
7.74167,17
7.75000,18
7.75833,18
7.76667,18
7.77500,18
7.78333,18
7.79167,18
7.80000,18
7.80833,18
7.81667,18
7.82500,18
7.83333,19
7.84167,19
7.85000,19
7.85833,19
7.86667,19
7.87500,19
7.88333,19
7.89167,19
7.90000,19
7.90833,19
7.91667,19
7.92500,19
7.93333,19
7.94167,19
7.95000,19
7.95833,19
7.96667,19
7.97500,20
7.98333,20
7.99167,20
8.00000,20
8.00833,20
8.01667,20
8.02500,20
8.03333,20
8.04167,19
8.05000,19
8.05833,19
8.06667,19
8.07500,19
8.08333,19
8.09167,20
8.10000,20
8.10833,20
8.11667,20
8.12500,20
8.13333,20
8.14167,19
8.15000,19
8.15833,19
8.16667,19
8.17500,19
8.18333,19
8.19167,19
8.20000,19
8.20833,19
8.21667,20
8.22500,20
8.23333,20
8.24167,20
8.25000,20
8.25833,19
8.26667,19
8.27500,20
8.28333,20
8.29167,20
8.30000,20
8.30833,20
8.31667,20
8.32500,20
8.33333,20
8.34167,20
8.35000,20
8.35833,20
8.36667,20
8.37500,20
8.38333,20
8.39167,20
8.40000,19
8.40833,19
8.41667,19
8.42500,19
8.43333,19
8.44167,19
8.45000,19
8.45833,19
8.46667,19
8.47500,19
8.48333,19
8.49167,19
8.50000,19
8.50833,20
8.51667,20
8.52500,20
8.53333,20
8.54167,20
8.55000,20
8.55833,20
8.56667,20
8.57500,20
8.58333,20
8.59167,20
8.60000,20
8.60833,20
8.61667,20
8.62500,20
8.63333,20
8.64167,20
8.65000,20
8.65833,20
8.66667,20
8.67500,20
8.68333,20
8.69167,20
8.70000,20
8.70833,20
8.71667,20
8.72500,20
8.73333,20
8.74167,21
8.75000,20
8.75833,20
8.76667,20
8.77500,20
8.78333,20
8.79167,20
8.80000,20
8.80833,20
8.81667,20
8.82500,20
8.83333,21
8.84167,21
8.85000,21
8.85833,20
8.86667,20
8.87500,20
8.88333,20
8.89167,20
8.90000,20
8.90833,20
8.91667,20
8.92500,20
8.93333,20
8.94167,20
8.95000,20
8.95833,20
8.96667,20
8.97500,20
8.98333,20
8.99167,20
9.00000,20
9.00833,21
9.01667,21
9.02500,21
9.03333,21
9.04167,21
9.05000,21
9.05833,21
9.06667,21
9.07500,21
9.08333,21
9.09167,21
9.10000,21
9.10833,21
9.11667,20
9.12500,20
9.13333,21
9.14167,21
9.15000,21
9.15833,21
9.16667,21
9.17500,21
9.18333,21
9.19167,21
9.20000,21
9.20833,21
9.21667,21
9.22500,21
9.23333,21
9.24167,21
9.25000,21
9.25833,21
9.26667,21
9.27500,21
9.28333,21
9.29167,21
9.30000,21
9.30833,21
9.31667,21
9.32500,21
9.33333,21
9.34167,21
9.35000,21
9.35833,21
9.36667,21
9.37500,21
9.38333,22
9.39167,22
9.40000,22
9.40833,22
9.41667,22
9.42500,22
9.43333,22
9.44167,22
9.45000,22
9.45833,22
9.46667,22
9.47500,22
9.48333,22
9.49167,22
9.50000,22
9.50833,22
9.51667,23
9.52500,22
9.53333,22
9.54167,23
9.55000,23
9.55833,22
9.56667,22
9.57500,22
9.58333,21
9.59167,21
9.60000,22
9.60833,22
9.61667,22
9.62500,22
9.63333,22
9.64167,22
9.65000,22
9.65833,22
9.66667,22
9.67500,21
9.68333,21
9.69167,21
9.70000,21
9.70833,21
9.71667,21
9.72500,22
9.73333,22
9.74167,22
9.75000,22
9.75833,22
9.76667,23
9.77500,23
9.78333,23
9.79167,22
9.80000,22
9.80833,22
9.81667,22
9.82500,22
9.83333,23
9.84167,23
9.85000,23
9.85833,23
9.86667,23
9.87500,23
9.88333,23
9.89167,23
9.90000,23
9.90833,23
9.91667,23
9.92500,23
9.93333,23
9.94167,23
9.95000,23
9.95833,24
9.96667,24
9.97500,24
9.98333,24
9.99167,24
10.00000,24
10.00833,24
10.01667,24
10.02500,25
10.03333,25
10.04167,24
10.05000,24
10.05833,24
10.06667,25
10.07500,25
10.08333,25
10.09167,24
10.10000,25
10.10833,25
10.11667,24
10.12500,24
10.13333,25
10.14167,25
10.15000,25
10.15833,25
10.16667,25
10.17500,25
10.18333,25
10.19167,25
10.20000,25
10.20833,26
10.21667,26
10.22500,26
10.23333,26
10.24167,26
10.25000,27
10.25833,27
10.26667,27
10.27500,27
10.28333,27
10.29167,27
10.30000,27
10.30833,27
10.31667,27
10.32500,27
10.33333,27
10.34167,27
10.35000,27
10.35833,28
10.36667,28
10.37500,29
10.38333,29
10.39167,30
10.40000,30
10.40833,31
10.41667,31
10.42500,31
10.43333,31
10.44167,31
10.45000,31
10.45833,31
10.46667,31
10.47500,31
10.48333,31
10.49167,30
10.50000,28
10.50833,25
10.51667,21
10.52500,14
10.53333,5
10.54167,-8
10.55000,-25
10.55833,-49
10.56667,-80
10.57500,-120
10.58333,-171
10.59167,-235
10.60000,-315
10.60833,-412
10.61667,-528
10.62500,-666
10.63333,-827
10.64167,-1010
10.65000,-1216
10.65833,-1443
10.66667,-1689
10.67500,-1950
10.68333,-2222
10.69167,-2496
10.70000,-2765
10.70833,-3021
10.71667,-3251
10.72500,-3446
10.73333,-3591
10.74167,-3674
10.75000,-3681
10.75833,-3600
10.76667,-3417
10.77500,-3121
10.78333,-2698
10.79167,-2139
10.80000,-1434
10.80833,-574
10.81667,448
10.82500,1638
10.83333,2999
10.84167,4535
10.85000,6245
10.85833,8131
10.86667,10190
10.87500,12419
10.88333,14813
10.89167,17364
10.90000,20067
10.90833,22909
10.91667,25878
10.92500,28958
10.93333,32134
10.94167,35382
10.95000,38679
10.95833,41994
10.96667,45296
10.97500,48546
10.98333,51702
10.99167,54716
11.00000,57539
11.00833,60116
11.01667,62396
11.02500,64327
11.03333,65860
11.04167,66954
11.05000,67579
11.05833,67714
11.06667,67351
11.07500,66498
11.08333,65176
11.09167,63417
11.10000,61266
11.10833,58777
11.11667,56009
11.12500,53025
11.13333,49888
11.14167,46660
11.15000,43397
11.15833,40152
11.16667,36968
11.17500,33882
11.18333,30925
11.19167,28118
11.20000,25478
11.20833,23014
11.21667,20730
11.22500,18627
11.23333,16701
11.24167,14947
11.25000,13357
11.25833,11921
11.26667,10629
11.27500,9470
11.28333,8434
11.29167,7510
11.30000,6687
11.30833,5957
11.31667,5310
11.32500,4737
11.33333,4231
11.34167,3784
11.35000,3389
11.35833,3041
11.36667,2734
11.37500,2464
11.38333,2226
11.39167,2017
11.40000,1832
11.40833,1669
11.41667,1525
11.42500,1398
11.43333,1285
11.44167,1185
11.45000,1096
11.45833,1018
11.46667,947
11.47500,884
11.48333,828
11.49167,778
11.50000,732
11.50833,691
11.51667,654
11.52500,621
11.53333,590
11.54167,562
11.55000,536
11.55833,512
11.56667,491
11.57500,471
11.58333,453
11.59167,436
11.60000,420
11.60833,405
11.61667,391
11.62500,378
11.63333,366
11.64167,354
11.65000,344
11.65833,334
11.66667,325
11.67500,316
11.68333,308
11.69167,301
11.70000,294
11.70833,288
11.71667,281
11.72500,276
11.73333,270
11.74167,265
11.75000,260
11.75833,255
11.76667,251
11.77500,247
11.78333,243
11.79167,239
11.80000,236
11.80833,232
11.81667,229
11.82500,226
11.83333,224
11.84167,221
11.85000,219
11.85833,217
11.86667,214
11.87500,212
11.88333,210
11.89167,208
11.90000,206
11.90833,205
11.91667,204
11.92500,202
11.93333,201
11.94167,200
11.95000,199
11.95833,197
11.96667,196
11.97500,195
11.98333,194
11.99167,193
12.00000,192
12.00833,191
12.01667,190
12.02500,189
12.03333,188
12.04167,187
12.05000,186
12.05833,185
12.06667,184
12.07500,183
12.08333,182
12.09167,181
12.10000,179
12.10833,178
12.11667,177
12.12500,176
12.13333,175
12.14167,174
12.15000,173
12.15833,172
12.16667,171
12.17500,171
12.18333,170
12.19167,169
12.20000,167
12.20833,166
12.21667,165
12.22500,164
12.23333,163
12.24167,163
12.25000,162
12.25833,161
12.26667,160
12.27500,159
12.28333,158
12.29167,157
12.30000,156
12.30833,156
12.31667,155
12.32500,154
12.33333,153
12.34167,152
12.35000,151
12.35833,151
12.36667,150
12.37500,150
12.38333,149
12.39167,149
12.40000,148
12.40833,148
12.41667,147
12.42500,147
12.43333,146
12.44167,146
12.45000,145
12.45833,145
12.46667,144
12.47500,144
12.48333,143
12.49167,142
12.50000,141
12.50833,141
12.51667,140
12.52500,139
12.53333,139
12.54167,139
12.55000,138
12.55833,138
12.56667,138
12.57500,137
12.58333,137
12.59167,136
12.60000,135
12.60833,135
12.61667,134
12.62500,134
12.63333,133
12.64167,132
12.65000,131
12.65833,131
12.66667,130
12.67500,130
12.68333,130
12.69167,129
12.70000,128
12.70833,128
12.71667,127
12.72500,127
12.73333,126
12.74167,125
12.75000,125
12.75833,125
12.76667,124
12.77500,124
12.78333,124
12.79167,124
12.80000,123
12.80833,123
12.81667,123
12.82500,123
12.83333,122
12.84167,122
12.85000,122
12.85833,122
12.86667,122
12.87500,122
12.88333,122
12.89167,122
12.90000,123
12.90833,123
12.91667,123
12.92500,123
12.93333,123
12.94167,123
12.95000,123
12.95833,123
12.96667,123
12.97500,123
12.98333,124
12.99167,124
13.00000,124
13.00833,124
13.01667,125
13.02500,125
13.03333,124
13.04167,124
13.05000,124
13.05833,124
13.06667,124
13.07500,124
13.08333,124
13.09167,124
13.10000,124
13.10833,124
13.11667,124
13.12500,124
13.13333,124
13.14167,124
13.15000,124
13.15833,124
13.16667,124
13.17500,123
13.18333,123
13.19167,123
13.20000,122
13.20833,122
13.21667,121
13.22500,121
13.23333,120
13.24167,120
13.25000,120
13.25833,119
13.26667,119
13.27500,118
13.28333,118
13.29167,118
13.30000,117
13.30833,116
13.31667,116
13.32500,115
13.33333,114
13.34167,113
13.35000,112
13.35833,112
13.36667,111
13.37500,110
13.38333,109
13.39167,108
13.40000,107
13.40833,106
13.41667,105
13.42500,104
13.43333,103
13.44167,102
13.45000,101
13.45833,100
13.46667,99
13.47500,98
13.48333,97
13.49167,96
13.50000,96
13.50833,95
13.51667,94
13.52500,94
13.53333,93
13.54167,93
13.55000,92
13.55833,92
13.56667,91
13.57500,90
13.58333,90
13.59167,89
13.60000,88
13.60833,87
13.61667,87
13.62500,87
13.63333,87
13.64167,87
13.65000,87
13.65833,86
13.66667,86
13.67500,86
13.68333,86
13.69167,85
13.70000,86
13.70833,86
13.71667,86
13.72500,86
13.73333,86
13.74167,87
13.75000,87
13.75833,87
13.76667,87
13.77500,87
13.78333,88
13.79167,88
13.80000,89
13.80833,89
13.81667,90
13.82500,90
13.83333,91
13.84167,91
13.85000,92
13.85833,92
13.86667,92
13.87500,92
13.88333,93
13.89167,93
13.90000,94
13.90833,94
13.91667,95
13.92500,96
13.93333,96
13.94167,97
13.95000,97
13.95833,98
13.96667,98
13.97500,99
13.98333,100
13.99167,100
14.00000,101
14.00833,102
14.01667,103
14.02500,104
14.03333,105
14.04167,106
14.05000,107
14.05833,108
14.06667,109
14.07500,109
14.08333,110
14.09167,111
14.10000,112
14.10833,113
14.11667,114
14.12500,115
14.13333,116
14.14167,118
14.15000,121
14.15833,123
14.16667,126
14.17500,130
14.18333,134
14.19167,138
14.20000,144
14.20833,151
14.21667,159
14.22500,169
14.23333,181
14.24167,195
14.25000,212
14.25833,233
14.26667,258
14.27500,288
14.28333,323
14.29167,365
14.30000,415
14.30833,474
14.31667,544
14.32500,625
14.33333,720
14.34167,830
14.35000,955
14.35833,1099
14.36667,1263
14.37500,1448
14.38333,1657
14.39167,1890
14.40000,2151
14.40833,2440
14.41667,2758
14.42500,3107
14.43333,3488
14.44167,3902
14.45000,4351
14.45833,4835
14.46667,5355
14.47500,5911
14.48333,6504
14.49167,7134
14.50000,7802
14.50833,8506
14.51667,9248
14.52500,10026
14.53333,10842
14.54167,11693
14.55000,12580
14.55833,13503
14.56667,14460
14.57500,15452
14.58333,16478
14.59167,17537
14.60000,18628
14.60833,19751
14.61667,20905
14.62500,22090
14.63333,23305
14.64167,24549
14.65000,25823
14.65833,27126
14.66667,28456
14.67500,29814
14.68333,31199
14.69167,32611
14.70000,34049
14.70833,35512
14.71667,37001
14.72500,38515
14.73333,40054
14.74167,41617
14.75000,43204
14.75833,44815
14.76667,46450
14.77500,48109
14.78333,49790
14.79167,51494
14.80000,53221
14.80833,54971
14.81667,56744
14.82500,58539
14.83333,60356
14.84167,62195
14.85000,64055
14.85833,65936
14.86667,67838
14.87500,69761
14.88333,71705
14.89167,73669
14.90000,75652
14.90833,77655
14.91667,79677
14.92500,81717
14.93333,83774
14.94167,85848
14.95000,87937
14.95833,90040
14.96667,92155
14.97500,94280
14.98333,96413
14.99167,98550
15.00000,100686
15.00833,102815
15.01667,104927
15.02500,107008
15.03333,109041
15.04167,111002
15.05000,112860
15.05833,114577
15.06667,116106
15.07500,117393
15.08333,118381
15.09167,119006
15.10000,119206
15.10833,118923
15.11667,118107
15.12500,116721
15.13333,114743
15.14167,112170
15.15000,109020
15.15833,105328
15.16667,101150
15.17500,96555
15.18333,91625
15.19167,86449
15.20000,81121
15.20833,75733
15.21667,70372
15.22500,65117
15.23333,60036
15.24167,55185
15.25000,50611
15.25833,46345
15.26667,42409
15.27500,38813
15.28333,35560
15.29167,32647
15.30000,30063
15.30833,27796
15.31667,25829
15.32500,24146
15.33333,22729
15.34167,21559
15.35000,20621
15.35833,19896
15.36667,19370
15.37500,19028
15.38333,18857
15.39167,18844
15.40000,18977
15.40833,19245
15.41667,19636
15.42500,20140
15.43333,20747
15.44167,21446
15.45000,22225
15.45833,23076
15.46667,23986
15.47500,24946
15.48333,25944
15.49167,26969
15.50000,28009
15.50833,29053
15.51667,30089
15.52500,31107
15.53333,32097
15.54167,33047
15.55000,33947
15.55833,34788
15.56667,35561
15.57500,36258
15.58333,36874
15.59167,37401
15.60000,37834
15.60833,38170
15.61667,38406
15.62500,38539
15.63333,38569
15.64167,38497
15.65000,38323
15.65833,38049
15.66667,37680
15.67500,37218
15.68333,36669
15.69167,36038
15.70000,35330
15.70833,34552
15.71667,33711
15.72500,32814
15.73333,31867
15.74167,30877
15.75000,29852
15.75833,28799
15.76667,27725
15.77500,26636
15.78333,25538
15.79167,24437
15.80000,23339
15.80833,22249
15.81667,21172
15.82500,20112
15.83333,19073
15.84167,18059
15.85000,17071
15.85833,16114
15.86667,15188
15.87500,14296
15.88333,13440
15.89167,12619
15.90000,11835
15.90833,11087
15.91667,10376
15.92500,9702
15.93333,9064
15.94167,8462
15.95000,7894
15.95833,7360
15.96667,6859
15.97500,6389
15.98333,5950
15.99167,5540
16.00000,5158
16.00833,4802
16.01667,4472
16.02500,4165
16.03333,3881
16.04167,3617
16.05000,3373
16.05833,3148
16.06667,2941
16.07500,2749
16.08333,2573
16.09167,2411
16.10000,2261
16.10833,2123
16.11667,1997
16.12500,1881
16.13333,1774
16.14167,1676
16.15000,1586
16.15833,1503
16.16667,1427
16.17500,1357
16.18333,1292
16.19167,1234
16.20000,1179
16.20833,1130
16.21667,1084
16.22500,1042
16.23333,1003
16.24167,967
16.25000,934
16.25833,903
16.26667,874
16.27500,848
16.28333,823
16.29167,800
16.30000,779
16.30833,759
16.31667,741
16.32500,724
16.33333,708
16.34167,693
16.35000,679
16.35833,666
16.36667,653
16.37500,641
16.38333,630
16.39167,619
16.40000,609
16.40833,600
16.41667,591
16.42500,582
16.43333,574
16.44167,567
16.45000,559
16.45833,552
16.46667,545
16.47500,539
16.48333,532
16.49167,526
16.50000,521
16.50833,515
16.51667,510
16.52500,504
16.53333,499
16.54167,495
16.55000,490
16.55833,486
16.56667,482
16.57500,477
16.58333,473
16.59167,469
16.60000,465
16.60833,461
16.61667,457
16.62500,453
16.63333,450
16.64167,446
16.65000,443
16.65833,440
16.66667,437
16.67500,434
16.68333,431
16.69167,428
16.70000,425
16.70833,422
16.71667,420
16.72500,417
16.73333,414
16.74167,412
16.75000,409
16.75833,406
16.76667,404
16.77500,402
16.78333,399
16.79167,396
16.80000,394
16.80833,391
16.81667,388
16.82500,386
16.83333,383
16.84167,381
16.85000,379
16.85833,377
16.86667,374
16.87500,372
16.88333,370
16.89167,368
16.90000,366
16.90833,364
16.91667,362
16.92500,360
16.93333,358
16.94167,356
16.95000,354
16.95833,352
16.96667,350
16.97500,348
16.98333,346
16.99167,344
17.00000,342
17.00833,340
17.01667,338
17.02500,336
17.03333,335
17.04167,333
17.05000,331
17.05833,330
17.06667,328
17.07500,326
17.08333,324
17.09167,323
17.10000,321
17.10833,319
17.11667,317
17.12500,316
17.13333,314
17.14167,312
17.15000,310
17.15833,309
17.16667,307
17.17500,306
17.18333,304
17.19167,303
17.20000,301
17.20833,300
17.21667,299
17.22500,297
17.23333,296
17.24167,294
17.25000,293
17.25833,291
17.26667,289
17.27500,288
17.28333,286
17.29167,285
17.30000,283
17.30833,282
17.31667,281
17.32500,279
17.33333,278
17.34167,277
17.35000,275
17.35833,274
17.36667,273
17.37500,271
17.38333,270
17.39167,268
17.40000,267
17.40833,265
17.41667,264
17.42500,263
17.43333,262
17.44167,260
17.45000,259
17.45833,258
17.46667,257
17.47500,256
17.48333,255
17.49167,254
17.50000,252
17.50833,251
17.51667,250
17.52500,249
17.53333,247
17.54167,246
17.55000,245
17.55833,244
17.56667,243
17.57500,242
17.58333,241
17.59167,240
17.60000,239
17.60833,238
17.61667,237
17.62500,236
17.63333,235
17.64167,234
17.65000,233
17.65833,231
17.66667,230
17.67500,229
17.68333,229
17.69167,228
17.70000,227
17.70833,226
17.71667,225
17.72500,224
17.73333,223
17.74167,222
17.75000,221
17.75833,220
17.76667,219
17.77500,218
17.78333,217
17.79167,217
17.80000,216
17.80833,215
17.81667,214
17.82500,213
17.83333,212
17.84167,211
17.85000,210
17.85833,209
17.86667,208
17.87500,207
17.88333,206
17.89167,206
17.90000,205
17.90833,204
17.91667,203
17.92500,202
17.93333,202
17.94167,201
17.95000,200
17.95833,200
17.96667,199
17.97500,198
17.98333,197
17.99167,196
18.00000,195
18.00833,194
18.01667,194
18.02500,193
18.03333,193
18.04167,192
18.05000,191
18.05833,191
18.06667,190
18.07500,189
18.08333,189
18.09167,188
18.10000,188
18.10833,187
18.11667,186
18.12500,185
18.13333,184
18.14167,183
18.15000,182
18.15833,181
18.16667,180
18.17500,179
18.18333,179
18.19167,178
18.20000,177
18.20833,177
18.21667,176
18.22500,176
18.23333,175
18.24167,174
18.25000,174
18.25833,173
18.26667,172
18.27500,171
18.28333,171
18.29167,170
18.30000,170
18.30833,169
18.31667,168
18.32500,167
18.33333,167
18.34167,166
18.35000,165
18.35833,165
18.36667,164
18.37500,163
18.38333,163
18.39167,162
18.40000,162
18.40833,161
18.41667,161
18.42500,160
18.43333,159
18.44167,159
18.45000,159
18.45833,158
18.46667,158
18.47500,157
18.48333,157
18.49167,156
18.50000,156
18.50833,155
18.51667,154
18.52500,154
18.53333,154
18.54167,154
18.55000,153
18.55833,153
18.56667,153
18.57500,152
18.58333,152
18.59167,152
18.60000,151
18.60833,151
18.61667,151
18.62500,151
18.63333,151
18.64167,151
18.65000,151
18.65833,151
18.66667,151
18.67500,151
18.68333,151
18.69167,152
18.70000,153
18.70833,153
18.71667,154
18.72500,155
18.73333,156
18.74167,157
18.75000,158
18.75833,159
18.76667,160
18.77500,161
18.78333,162
18.79167,164
18.80000,165
18.80833,166
18.81667,168
18.82500,170
18.83333,171
18.84167,173
18.85000,174
18.85833,175
18.86667,177
18.87500,178
18.88333,180
18.89167,182
18.90000,183
18.90833,185
18.91667,186
18.92500,187
18.93333,187
18.94167,188
18.95000,189
18.95833,189
18.96667,189
18.97500,189
18.98333,189
18.99167,189
19.00000,189
19.00833,188
19.01667,188
19.02500,187
19.03333,187
19.04167,186
19.05000,184
19.05833,183
19.06667,181
19.07500,180
19.08333,178
19.09167,176
19.10000,174
19.10833,172
19.11667,170
19.12500,168
19.13333,166
19.14167,164
19.15000,162
19.15833,160
19.16667,158
19.17500,156
19.18333,154
19.19167,152
19.20000,150
19.20833,148
19.21667,146
19.22500,144
19.23333,142
19.24167,140
19.25000,139
19.25833,137
19.26667,136
19.27500,134
19.28333,133
19.29167,131
19.30000,130
19.30833,129
19.31667,128
19.32500,127
19.33333,126
19.34167,125
19.35000,123
19.35833,123
19.36667,122
19.37500,122
19.38333,121
19.39167,121
19.40000,120
19.40833,119
19.41667,118
19.42500,117
19.43333,117
19.44167,116
19.45000,116
19.45833,115
19.46667,115
19.47500,114
19.48333,114
19.49167,113
19.50000,113
19.50833,112
19.51667,112
19.52500,111
19.53333,111
19.54167,111
19.55000,111
19.55833,110
19.56667,110
19.57500,110
19.58333,109
19.59167,109
19.60000,109
19.60833,109
19.61667,108
19.62500,108
19.63333,108
19.64167,108
19.65000,108
19.65833,107
19.66667,107
19.67500,107
19.68333,106
19.69167,106
19.70000,106
19.70833,105
19.71667,105
19.72500,104
19.73333,104
19.74167,104
19.75000,103
19.75833,102
19.76667,102
19.77500,102
19.78333,102
19.79167,102
19.80000,102
19.80833,102
19.81667,102
19.82500,101
19.83333,101
19.84167,100
19.85000,100
19.85833,100
19.86667,100
19.87500,100
19.88333,99
19.89167,99
19.90000,99
19.90833,99
19.91667,99
19.92500,99
19.93333,99
19.94167,99
19.95000,98
19.95833,98
19.96667,98
19.97500,98
19.98333,98
19.99167,97
20.00000,97
20.00833,97
20.01667,97
20.02500,97
20.03333,97
20.04167,96
20.05000,96
20.05833,95
20.06667,95
20.07500,95
20.08333,94
20.09167,94
20.10000,94
20.10833,94
20.11667,94
20.12500,94
20.13333,94
20.14167,94
20.15000,94
20.15833,93
20.16667,93
20.17500,92
20.18333,92
20.19167,93
20.20000,93
20.20833,92
20.21667,92
20.22500,92
20.23333,92
20.24167,92
20.25000,92
20.25833,92
20.26667,91
20.27500,91
20.28333,91
20.29167,91
20.30000,91
20.30833,91
20.31667,91
20.32500,91
20.33333,91
20.34167,90
20.35000,90
20.35833,90
20.36667,90
20.37500,90
20.38333,90
20.39167,89
20.40000,89
20.40833,89
20.41667,89
20.42500,89
20.43333,89
20.44167,89
20.45000,88
20.45833,88
20.46667,88
20.47500,88
20.48333,88
20.49167,88
20.50000,87
20.50833,87
20.51667,87
20.52500,86
20.53333,86
20.54167,86
20.55000,86
20.55833,86
20.56667,86
20.57500,86
20.58333,86
20.59167,86
20.60000,86
20.60833,85
20.61667,85
20.62500,84
20.63333,84
20.64167,84
20.65000,84
20.65833,84
20.66667,84
20.67500,83
20.68333,83
20.69167,83
20.70000,83
20.70833,83
20.71667,83
20.72500,83
20.73333,83
20.74167,83
20.75000,83
20.75833,83
20.76667,83
20.77500,83
20.78333,83
20.79167,83
20.80000,82
20.80833,82
20.81667,82
20.82500,82
20.83333,82
20.84167,82
20.85000,82
20.85833,82
20.86667,82
20.87500,82
20.88333,82
20.89167,81
20.90000,81
20.90833,80
20.91667,80
20.92500,80
20.93333,80
20.94167,79
20.95000,80
20.95833,80
20.96667,80
20.97500,80
20.98333,80
20.99167,80
21.00000,79
21.00833,79
21.01667,79
21.02500,79
21.03333,79
21.04167,79
21.05000,79
21.05833,79
21.06667,79
21.07500,79
21.08333,79
21.09167,79
21.10000,79
21.10833,78
21.11667,78
21.12500,78
21.13333,77
21.14167,78
21.15000,78
21.15833,78
21.16667,78
21.17500,78
21.18333,78
21.19167,78
21.20000,78
21.20833,77
21.21667,77
21.22500,77
21.23333,77
21.24167,77
21.25000,77
21.25833,78
21.26667,77
21.27500,77
21.28333,77
21.29167,77
21.30000,77
21.30833,77
21.31667,77
21.32500,76
21.33333,76
21.34167,76
21.35000,76
21.35833,76
21.36667,76
21.37500,76
21.38333,76
21.39167,76
21.40000,76
21.40833,76
21.41667,76
21.42500,77
21.43333,77
21.44167,77
21.45000,77
21.45833,77
21.46667,77
21.47500,77
21.48333,77
21.49167,76
21.50000,76
21.50833,76
21.51667,76
21.52500,76
21.53333,76
21.54167,76
21.55000,76
21.55833,76
21.56667,76
21.57500,76
21.58333,77
21.59167,77
21.60000,77
21.60833,77
21.61667,77
21.62500,77
21.63333,77
21.64167,77
21.65000,77
21.65833,77
21.66667,77
21.67500,77
21.68333,77
21.69167,78
21.70000,78
21.70833,78
21.71667,78
21.72500,78
21.73333,78
21.74167,78
21.75000,78
21.75833,78
21.76667,78
21.77500,79
21.78333,79
21.79167,80
21.80000,80
21.80833,80
21.81667,80
21.82500,80
21.83333,80
21.84167,80
21.85000,80
21.85833,80
21.86667,80
21.87500,80
21.88333,80
21.89167,80
21.90000,79
21.90833,79
21.91667,79
21.92500,80
21.93333,80
21.94167,80
21.95000,80
21.95833,80
21.96667,80
21.97500,80
21.98333,80
21.99167,80
22.00000,79
22.00833,79
22.01667,79
22.02500,79
22.03333,79
22.04167,79
22.05000,79
22.05833,78
22.06667,78
22.07500,78
22.08333,78
22.09167,77
22.10000,77
22.10833,78
22.11667,78
22.12500,78
22.13333,77
22.14167,77
22.15000,77
22.15833,77
22.16667,77
22.17500,77
22.18333,77
22.19167,77
22.20000,76
22.20833,76
22.21667,76
22.22500,75
22.23333,75
22.24167,75
22.25000,75
22.25833,75
22.26667,74
22.27500,74
22.28333,74
22.29167,74
22.30000,75
22.30833,75
22.31667,75
22.32500,75
22.33333,75
22.34167,75
22.35000,74
22.35833,74
22.36667,74
22.37500,74
22.38333,74
22.39167,74
22.40000,74
22.40833,74
22.41667,74
22.42500,74
22.43333,74
22.44167,74
22.45000,74
22.45833,74
22.46667,74
22.47500,74
22.48333,74
22.49167,74
22.50000,74
22.50833,74
22.51667,74
22.52500,74
22.53333,74
22.54167,74
22.55000,73
22.55833,73
22.56667,73
22.57500,73
22.58333,73
22.59167,73
22.60000,73
22.60833,73
22.61667,73
22.62500,73
22.63333,73
22.64167,73
22.65000,73
22.65833,73
22.66667,73
22.67500,73
22.68333,73
22.69167,73
22.70000,72
22.70833,73
22.71667,73
22.72500,73
22.73333,73
22.74167,73
22.75000,73
22.75833,73
22.76667,73
22.77500,73
22.78333,73
22.79167,74
22.80000,74
22.80833,74
22.81667,74
22.82500,74
22.83333,74
22.84167,74
22.85000,74
22.85833,75
22.86667,75
22.87500,75
22.88333,75
22.89167,76
22.90000,77
22.90833,77
22.91667,78
22.92500,78
22.93333,79
22.94167,79
22.95000,80
22.95833,80
22.96667,81
22.97500,81
22.98333,82
22.99167,82
23.00000,83
23.00833,83
23.01667,84
23.02500,85
23.03333,86
23.04167,87
23.05000,87
23.05833,88
23.06667,89
23.07500,89
23.08333,90
23.09167,90
23.10000,91
23.10833,92
23.11667,92
23.12500,93
23.13333,93
23.14167,94
23.15000,95
23.15833,96
23.16667,96
23.17500,97
23.18333,97
23.19167,98
23.20000,98
23.20833,98
23.21667,98
23.22500,98
23.23333,98
23.24167,98
23.25000,98
23.25833,98
23.26667,98
23.27500,97
23.28333,97
23.29167,97
23.30000,97
23.30833,96
23.31667,96
23.32500,95
23.33333,94
23.34167,94
23.35000,93
23.35833,93
23.36667,92
23.37500,92
23.38333,90
23.39167,89
23.40000,88
23.40833,88
23.41667,87
23.42500,87
23.43333,86
23.44167,85
23.45000,84
23.45833,84
23.46667,83
23.47500,83
23.48333,82
23.49167,81
23.50000,81
23.50833,80
23.51667,79
23.52500,79
23.53333,78
23.54167,78
23.55000,77
23.55833,77
23.56667,77
23.57500,76
23.58333,76
23.59167,75
23.60000,75
23.60833,75
23.61667,75
23.62500,74
23.63333,74
23.64167,74
23.65000,73
23.65833,73
23.66667,73
23.67500,73
23.68333,73
23.69167,72
23.70000,72
23.70833,72
23.71667,72
23.72500,72
23.73333,72
23.74167,72
23.75000,72
23.75833,72
23.76667,72
23.77500,72
23.78333,71
23.79167,72
23.80000,72
23.80833,72
23.81667,72
23.82500,71
23.83333,71
23.84167,71
23.85000,71
23.85833,71
23.86667,71
23.87500,71
23.88333,70
23.89167,70
23.90000,71
23.90833,71
23.91667,71
23.92500,70
23.93333,70
23.94167,70
23.95000,69
23.95833,69
23.96667,69
23.97500,70
23.98333,70
23.99167,71
24.00000,72
24.00833,72
24.01667,72
24.02500,72
24.03333,72
24.04167,72
24.05000,71
24.05833,71
24.06667,71
24.07500,71
24.08333,70
24.09167,70
24.10000,70
24.10833,69
24.11667,69
24.12500,69
24.13333,69
24.14167,70
24.15000,70
24.15833,70
24.16667,70
24.17500,70
24.18333,70
24.19167,71
24.20000,71
24.20833,71
24.21667,71
24.22500,71
24.23333,71
24.24167,71
24.25000,71
24.25833,71
24.26667,71
24.27500,71
24.28333,71
24.29167,71
24.30000,71
24.30833,71
24.31667,71
24.32500,71
24.33333,71
24.34167,72
24.35000,72
24.35833,72
24.36667,72
24.37500,72
24.38333,72
24.39167,72
24.40000,72
24.40833,72
24.41667,72
24.42500,73
24.43333,73
24.44167,73
24.45000,74
24.45833,74
24.46667,74
24.47500,75
24.48333,75
24.49167,75
24.50000,76
24.50833,77
24.51667,77
24.52500,77
24.53333,78
24.54167,78
24.55000,79
24.55833,80
24.56667,81
24.57500,82
24.58333,83
24.59167,84
24.60000,86
24.60833,87
24.61667,89
24.62500,91
24.63333,93
24.64167,96
24.65000,98
24.65833,100
24.66667,103
24.67500,106
24.68333,109
24.69167,112
24.70000,116
24.70833,119
24.71667,123
24.72500,127
24.73333,131
24.74167,136
24.75000,141
24.75833,146
24.76667,152
24.77500,157
24.78333,163
24.79167,168
24.80000,174
24.80833,180
24.81667,186
24.82500,193
24.83333,199
24.84167,206
24.85000,213
24.85833,219
24.86667,225
24.87500,232
24.88333,238
24.89167,245
24.90000,251
24.90833,258
24.91667,264
24.92500,270
24.93333,275
24.94167,281
24.95000,286
24.95833,290
24.96667,294
24.97500,298
24.98333,301
24.99167,305
25.00000,308
25.00833,310
25.01667,312
25.02500,314
25.03333,315
25.04167,315
25.05000,316
25.05833,315
25.06667,315
25.07500,314
25.08333,312
25.09167,310
25.10000,307
25.10833,304
25.11667,300
25.12500,296
25.13333,292
25.14167,288
25.15000,283
25.15833,279
25.16667,274
25.17500,269
25.18333,263
25.19167,258
25.20000,252
25.20833,246
25.21667,240
25.22500,234
25.23333,228
25.24167,223
25.25000,217
25.25833,211
25.26667,205
25.27500,199
25.28333,193
25.29167,188
25.30000,182
25.30833,176
25.31667,171
25.32500,166
25.33333,161
25.34167,156
25.35000,151
25.35833,147
25.36667,143
25.37500,139
25.38333,135
25.39167,131
25.40000,128
25.40833,125
25.41667,121
25.42500,118
25.43333,116
25.44167,113
25.45000,110
25.45833,108
25.46667,105
25.47500,104
25.48333,102
25.49167,100
25.50000,98
25.50833,96
25.51667,95
25.52500,93
25.53333,92
25.54167,91
25.55000,90
25.55833,89
25.56667,88
25.57500,87
25.58333,86
25.59167,85
25.60000,85
25.60833,84
25.61667,83
25.62500,82
25.63333,82
25.64167,82
25.65000,81
25.65833,81
25.66667,80
25.67500,80
25.68333,80
25.69167,80
25.70000,80
25.70833,80
25.71667,80
25.72500,79
25.73333,79
25.74167,79
25.75000,79
25.75833,79
25.76667,78
25.77500,78
25.78333,78
25.79167,78
25.80000,78
25.80833,78
25.81667,78
25.82500,78
25.83333,79
25.84167,79
25.85000,79
25.85833,78
25.86667,78
25.87500,78
25.88333,79
25.89167,79
25.90000,79
25.90833,78
25.91667,78
25.92500,78
25.93333,78
25.94167,78
25.95000,78
25.95833,78
25.96667,78
25.97500,78
25.98333,78
25.99167,78
26.00000,79
26.00833,79
26.01667,79
26.02500,79
26.03333,79
26.04167,79
26.05000,79
26.05833,79
26.06667,79
26.07500,78
26.08333,78
26.09167,79
26.10000,79
26.10833,79
26.11667,79
26.12500,79
26.13333,79
26.14167,79
26.15000,79
26.15833,79
26.16667,80
26.17500,80
26.18333,81
26.19167,81
26.20000,81
26.20833,80
26.21667,80
26.22500,80
26.23333,80
26.24167,80
26.25000,80
26.25833,80
26.26667,80
26.27500,80
26.28333,80
26.29167,79
26.30000,79
26.30833,79
26.31667,79
26.32500,79
26.33333,79
26.34167,79
26.35000,79
26.35833,79
26.36667,79
26.37500,79
26.38333,79
26.39167,79
26.40000,79
26.40833,79
26.41667,78
26.42500,79
26.43333,79
26.44167,79
26.45000,79
26.45833,79
26.46667,79
26.47500,79
26.48333,78
26.49167,78
26.50000,79
26.50833,79
26.51667,79
26.52500,79
26.53333,79
26.54167,79
26.55000,80
26.55833,80
26.56667,80
26.57500,80
26.58333,80
26.59167,80
26.60000,80
26.60833,80
26.61667,80
26.62500,80
26.63333,80
26.64167,80
26.65000,80
26.65833,80
26.66667,80
26.67500,81
26.68333,81
26.69167,81
26.70000,81
26.70833,80
26.71667,80
26.72500,80
26.73333,80
26.74167,81
26.75000,81
26.75833,81
26.76667,81
26.77500,81
26.78333,81
26.79167,81
26.80000,81
26.80833,81
26.81667,81
26.82500,81
26.83333,81
26.84167,80
26.85000,80
26.85833,80
26.86667,80
26.87500,81
26.88333,81
26.89167,81
26.90000,81
26.90833,81
26.91667,82
26.92500,82
26.93333,82
26.94167,82
26.95000,82
26.95833,82
26.96667,82
26.97500,82
26.98333,82
26.99167,82
27.00000,82
27.00833,82
27.01667,82
27.02500,81
27.03333,81
27.04167,82
27.05000,82
27.05833,82
27.06667,82
27.07500,82
27.08333,82
27.09167,82
27.10000,82
27.10833,82
27.11667,82
27.12500,83
27.13333,82
27.14167,82
27.15000,82
27.15833,82
27.16667,82
27.17500,82
27.18333,83
27.19167,83
27.20000,83
27.20833,82
27.21667,83
27.22500,83
27.23333,83
27.24167,84
27.25000,84
27.25833,84
27.26667,84
27.27500,85
27.28333,85
27.29167,85
27.30000,85
27.30833,85
27.31667,84
27.32500,84
27.33333,84
27.34167,84
27.35000,84
27.35833,85
27.36667,85
27.37500,85
27.38333,85
27.39167,85
27.40000,85
27.40833,85
27.41667,85
27.42500,85
27.43333,85
27.44167,85
27.45000,85
27.45833,85
27.46667,85
27.47500,85
27.48333,86
27.49167,86
27.50000,86
27.50833,86
27.51667,85
27.52500,85
27.53333,85
27.54167,85
27.55000,85
27.55833,85
27.56667,85
27.57500,86
27.58333,86
27.59167,86
27.60000,86
27.60833,86
27.61667,86
27.62500,86
27.63333,86
27.64167,86
27.65000,86
27.65833,86
27.66667,86
27.67500,87
27.68333,87
27.69167,86
27.70000,86
27.70833,86
27.71667,85
27.72500,85
27.73333,85
27.74167,84
27.75000,84
27.75833,85
27.76667,85
27.77500,85
27.78333,84
27.79167,84
27.80000,84
27.80833,84
27.81667,84
27.82500,84
27.83333,83
27.84167,83
27.85000,82
27.85833,82
27.86667,82
27.87500,81
27.88333,81
27.89167,80
27.90000,79
27.90833,78
27.91667,77
27.92500,77
27.93333,76
27.94167,75
27.95000,74
27.95833,73
27.96667,71
27.97500,70
27.98333,69
27.99167,68
28.00000,66
28.00833,65
28.01667,63
28.02500,61
28.03333,60
28.04167,58
28.05000,56
28.05833,54
28.06667,51
28.07500,49
28.08333,46
28.09167,44
28.10000,41
28.10833,39
28.11667,36
28.12500,34
28.13333,31
28.14167,28
28.15000,25
28.15833,22
28.16667,19
28.17500,16
28.18333,13
28.19167,10
28.20000,7
28.20833,4
28.21667,1
28.22500,-2
28.23333,-6
28.24167,-9
28.25000,-12
28.25833,-16
28.26667,-19
28.27500,-23
28.28333,-26
28.29167,-29
28.30000,-32
28.30833,-35
28.31667,-38
28.32500,-40
28.33333,-43
28.34167,-45
28.35000,-47
28.35833,-50
28.36667,-51
28.37500,-53
28.38333,-55
28.39167,-56
28.40000,-58
28.40833,-60
28.41667,-62
28.42500,-63
28.43333,-64
28.44167,-65
28.45000,-65
28.45833,-65
28.46667,-65
28.47500,-65
28.48333,-65
28.49167,-64
28.50000,-64
28.50833,-63
28.51667,-62
28.52500,-61
28.53333,-60
28.54167,-59
28.55000,-58
28.55833,-56
28.56667,-55
28.57500,-53
28.58333,-51
28.59167,-49
28.60000,-47
28.60833,-45
28.61667,-43
28.62500,-40
28.63333,-37
28.64167,-35
28.65000,-32
28.65833,-29
28.66667,-26
28.67500,-24
28.68333,-21
28.69167,-18
28.70000,-15
28.70833,-12
28.71667,-9
28.72500,-7
28.73333,-4
28.74167,-1
28.75000,1
28.75833,4
28.76667,7
28.77500,9
28.78333,12
28.79167,15
28.80000,17
28.80833,20
28.81667,22
28.82500,24
28.83333,27
28.84167,30
28.85000,32
28.85833,34
28.86667,36
28.87500,38
28.88333,40
28.89167,42
28.90000,44
28.90833,46
28.91667,47
28.92500,49
28.93333,51
28.94167,53
28.95000,54
28.95833,55
28.96667,57
28.97500,58
28.98333,59
28.99167,60
29.00000,61
29.00833,62
29.01667,63
29.02500,64
29.03333,65
29.04167,65
29.05000,66
29.05833,67
29.06667,68
29.07500,69
29.08333,70
29.09167,70
29.10000,71
29.10833,72
29.11667,73
29.12500,73
29.13333,74
29.14167,74
29.15000,75
29.15833,76
29.16667,76
29.17500,76
29.18333,77
29.19167,77
29.20000,78
29.20833,79
29.21667,79
29.22500,80
29.23333,80
29.24167,80
29.25000,80
29.25833,80
29.26667,80
29.27500,80
29.28333,80
29.29167,80
29.30000,81
29.30833,80
29.31667,80
29.32500,81
29.33333,81
29.34167,81
29.35000,81
29.35833,81
29.36667,81
29.37500,82
29.38333,82
29.39167,82
29.40000,82
29.40833,82
29.41667,82
29.42500,82
29.43333,82
29.44167,82
29.45000,82
29.45833,82
29.46667,81
29.47500,81
29.48333,81
29.49167,81
29.50000,81
29.50833,82
29.51667,82
29.52500,82
29.53333,82
29.54167,82
29.55000,81
29.55833,81
29.56667,81
29.57500,81
29.58333,81
29.59167,80
29.60000,80
29.60833,79
29.61667,79
29.62500,79
29.63333,78
29.64167,78
29.65000,77
29.65833,77
29.66667,76
29.67500,76
29.68333,75
29.69167,75
29.70000,74
29.70833,74
29.71667,74
29.72500,74
29.73333,73
29.74167,73
29.75000,72
29.75833,71
29.76667,71
29.77500,70
29.78333,69
29.79167,69
29.80000,68
29.80833,67
29.81667,66
29.82500,65
29.83333,64
29.84167,63
29.85000,62
29.85833,61
29.86667,60
29.87500,59
29.88333,58
29.89167,57
29.90000,56
29.90833,55
29.91667,55
29.92500,54
29.93333,53
29.94167,51
29.95000,50
29.95833,49
29.96667,48
29.97500,47
29.98333,45
29.99167,44
30.00000,44
30.00833,43
30.01667,42
30.02500,41
30.03333,40
30.04167,39
30.05000,37
30.05833,37
30.06667,36
30.07500,35
30.08333,34
30.09167,33
30.10000,33
30.10833,32
30.11667,31
30.12500,31
30.13333,30
30.14167,29
30.15000,29
30.15833,28
30.16667,28
30.17500,28
30.18333,27
30.19167,27
30.20000,27
30.20833,27
30.21667,26
30.22500,26
30.23333,26
30.24167,26
30.25000,26
30.25833,27
30.26667,27
30.27500,28
30.28333,28
30.29167,28
30.30000,29
30.30833,29
30.31667,30
30.32500,31
30.33333,31
30.34167,32
30.35000,33
30.35833,34
30.36667,35
30.37500,35
30.38333,36
30.39167,36
30.40000,37
30.40833,37
30.41667,38
30.42500,39
30.43333,40
30.44167,41
30.45000,42
30.45833,44
30.46667,45
30.47500,46
30.48333,47
30.49167,48
30.50000,49
30.50833,50
30.51667,51
30.52500,51
30.53333,52
30.54167,53
30.55000,54
30.55833,55
30.56667,56
30.57500,56
30.58333,57
30.59167,57
30.60000,58
30.60833,59
30.61667,59
30.62500,60
30.63333,60
30.64167,60
30.65000,61
30.65833,61
30.66667,62
30.67500,62
30.68333,63
30.69167,63
30.70000,64
30.70833,64
30.71667,64
30.72500,65
30.73333,65
30.74167,65
30.75000,65
30.75833,65
30.76667,66
30.77500,66
30.78333,66
30.79167,66
30.80000,66
30.80833,65
30.81667,65
30.82500,65
30.83333,65
30.84167,65
30.85000,64
30.85833,64
30.86667,64
30.87500,64
30.88333,64
30.89167,63
30.90000,63
30.90833,64
30.91667,64
30.92500,64
30.93333,63
30.94167,62
30.95000,62
30.95833,61
30.96667,61
30.97500,61
30.98333,61
30.99167,61
31.00000,61
31.00833,61
31.01667,61
31.02500,60
31.03333,60
31.04167,60
31.05000,60
31.05833,59
31.06667,59
31.07500,59
31.08333,60
31.09167,60
31.10000,60
31.10833,60
31.11667,60
31.12500,60
31.13333,60
31.14167,60
31.15000,61
31.15833,61
31.16667,61
31.17500,61
31.18333,62
31.19167,62
31.20000,63
31.20833,63
31.21667,63
31.22500,63
31.23333,63
31.24167,63
31.25000,64
31.25833,64
31.26667,64
31.27500,65
31.28333,65
31.29167,65
31.30000,65
31.30833,65
31.31667,66
31.32500,66
31.33333,67
31.34167,68
31.35000,68
31.35833,69
31.36667,70
31.37500,71
31.38333,71
31.39167,72
31.40000,73
31.40833,74
31.41667,74
31.42500,75
31.43333,75
31.44167,76
31.45000,76
31.45833,77
31.46667,78
31.47500,78
31.48333,79
31.49167,80
31.50000,80
31.50833,81
31.51667,81
31.52500,82
31.53333,82
31.54167,83
31.55000,83
31.55833,84
31.56667,84
31.57500,85
31.58333,85
31.59167,86
31.60000,86
31.60833,87
31.61667,87
31.62500,88
31.63333,88
31.64167,89
31.65000,89
31.65833,89
31.66667,89
31.67500,90
31.68333,89
31.69167,89
31.70000,89
31.70833,89
31.71667,89
31.72500,89
31.73333,89
31.74167,90
31.75000,90
31.75833,90
31.76667,91
31.77500,91
31.78333,91
31.79167,91
31.80000,92
31.80833,92
31.81667,92
31.82500,92
31.83333,93
31.84167,93
31.85000,92
31.85833,92
31.86667,92
31.87500,92
31.88333,92
31.89167,92
31.90000,92
31.90833,92
31.91667,92
31.92500,92
31.93333,92
31.94167,92
31.95000,92
31.95833,92
31.96667,92
31.97500,92
31.98333,92
31.99167,92
32.00000,92
32.00833,92
32.01667,92
32.02500,92
32.03333,92
32.04167,91
32.05000,91
32.05833,91
32.06667,90
32.07500,90
32.08333,90
32.09167,90
32.10000,90
32.10833,90
32.11667,90
32.12500,90
32.13333,90
32.14167,90
32.15000,90
32.15833,90
32.16667,89
32.17500,89
32.18333,89
32.19167,89
32.20000,89
32.20833,88
32.21667,88
32.22500,88
32.23333,88
32.24167,88
32.25000,88
32.25833,88
32.26667,88
32.27500,89
32.28333,89
32.29167,89
32.30000,89
32.30833,89
32.31667,89
32.32500,89
32.33333,89
32.34167,89
32.35000,89
32.35833,89
32.36667,89
32.37500,89
32.38333,88
32.39167,88
32.40000,88
32.40833,88
32.41667,89
32.42500,88
32.43333,88
32.44167,88
32.45000,88
32.45833,88
32.46667,88
32.47500,88
32.48333,88
32.49167,87
32.50000,87
32.50833,87
32.51667,87
32.52500,88
32.53333,88
32.54167,87
32.55000,87
32.55833,87
32.56667,88
32.57500,88
32.58333,88
32.59167,88
32.60000,88
32.60833,88
32.61667,87
32.62500,87
32.63333,87
32.64167,88
32.65000,88
32.65833,88
32.66667,88
32.67500,88
32.68333,88
32.69167,88
32.70000,89
32.70833,89
32.71667,89
32.72500,89
32.73333,89
32.74167,89
32.75000,89
32.75833,88
32.76667,88
32.77500,88
32.78333,89
32.79167,89
32.80000,89
32.80833,89
32.81667,89
32.82500,89
32.83333,89
32.84167,89
32.85000,89
32.85833,89
32.86667,89
32.87500,89
32.88333,89
32.89167,89
32.90000,89
32.90833,89
32.91667,89
32.92500,89
32.93333,89
32.94167,89
32.95000,89
32.95833,89
32.96667,89
32.97500,89
32.98333,89
32.99167,89
33.00000,89
33.00833,89
33.01667,89
33.02500,89
33.03333,89
33.04167,89
33.05000,89
33.05833,90
33.06667,89
33.07500,89
33.08333,89
33.09167,89
33.10000,89
33.10833,89
33.11667,89
33.12500,90
33.13333,90
33.14167,90
33.15000,90
33.15833,90
33.16667,90
33.17500,90
33.18333,90
33.19167,90
33.20000,90
33.20833,90
33.21667,90
33.22500,90
33.23333,90
33.24167,90
33.25000,91
33.25833,91
33.26667,91
33.27500,91
33.28333,91
33.29167,91
33.30000,92
33.30833,92
33.31667,91
33.32500,91
33.33333,91
33.34167,91
33.35000,91
33.35833,90
33.36667,90
33.37500,90
33.38333,90
33.39167,90
33.40000,89
33.40833,89
33.41667,89
33.42500,89
33.43333,89
33.44167,89
33.45000,90
33.45833,90
33.46667,90
33.47500,90
33.48333,90
33.49167,91
33.50000,91
33.50833,90
33.51667,90
33.52500,90
33.53333,90
33.54167,89
33.55000,89
33.55833,89
33.56667,89
33.57500,89
33.58333,89
33.59167,89
33.60000,89
33.60833,90
33.61667,90
33.62500,90
33.63333,90
33.64167,90
33.65000,89
33.65833,89
33.66667,89
33.67500,89
33.68333,89
33.69167,89
33.70000,89
33.70833,89
33.71667,89
33.72500,89
33.73333,89
33.74167,89
33.75000,89
33.75833,89
33.76667,89
33.77500,89
33.78333,88
33.79167,88
33.80000,88
33.80833,88
33.81667,89
33.82500,89
33.83333,89
33.84167,89
33.85000,89
33.85833,89
33.86667,89
33.87500,89
33.88333,89
33.89167,89
33.90000,89
33.90833,89
33.91667,88
33.92500,88
33.93333,88
33.94167,88
33.95000,88
33.95833,88
33.96667,88
33.97500,88
33.98333,88
33.99167,88
34.00000,89
34.00833,89
34.01667,89
34.02500,89
34.03333,89
34.04167,89
34.05000,89
34.05833,89
34.06667,89
34.07500,89
34.08333,89
34.09167,89
34.10000,89
34.10833,90
34.11667,89
34.12500,89
34.13333,90
34.14167,90
34.15000,90
34.15833,89
34.16667,89
34.17500,90
34.18333,90
34.19167,89
34.20000,89
34.20833,89
34.21667,90
34.22500,90
34.23333,90
34.24167,89
34.25000,89
34.25833,89
34.26667,89
34.27500,90
34.28333,90
34.29167,90
34.30000,90
34.30833,89
34.31667,89
34.32500,89
34.33333,89
34.34167,89
34.35000,89
34.35833,89
34.36667,89
34.37500,89
34.38333,89
34.39167,89
34.40000,89
34.40833,89
34.41667,89
34.42500,89
34.43333,89
34.44167,89
34.45000,89
34.45833,89
34.46667,89
34.47500,89
34.48333,89
34.49167,89
34.50000,89
34.50833,89
34.51667,89
34.52500,89
34.53333,89
34.54167,90
34.55000,90
34.55833,90
34.56667,90
34.57500,90
34.58333,90
34.59167,90
34.60000,90
34.60833,90
34.61667,90
34.62500,89
34.63333,89
34.64167,89
34.65000,89
34.65833,90
34.66667,90
34.67500,90
34.68333,90
34.69167,90
34.70000,90
34.70833,90
34.71667,90
34.72500,91
34.73333,90
34.74167,90
34.75000,90
34.75833,91
34.76667,91
34.77500,91
34.78333,91
34.79167,91
34.80000,91
34.80833,91
34.81667,91
34.82500,91
34.83333,91
34.84167,91
34.85000,91
34.85833,91
34.86667,90
34.87500,90
34.88333,90
34.89167,90
34.90000,90
34.90833,91
34.91667,91
34.92500,91
34.93333,91
34.94167,91
34.95000,91
34.95833,91
34.96667,91
34.97500,91
34.98333,91
34.99167,91
35.00000,91
35.00833,90
35.01667,90
35.02500,91
35.03333,91
35.04167,92
35.05000,92
35.05833,92
35.06667,91
35.07500,91
35.08333,91
35.09167,91
35.10000,91
35.10833,91
35.11667,91
35.12500,91
35.13333,91
35.14167,91
35.15000,91
35.15833,91
35.16667,91
35.17500,91
35.18333,92
35.19167,92
35.20000,92
35.20833,92
35.21667,92
35.22500,92
35.23333,92
35.24167,92
35.25000,92
35.25833,92
35.26667,92
35.27500,92
35.28333,92
35.29167,91
35.30000,91
35.30833,91
35.31667,92
35.32500,92
35.33333,92
35.34167,92
35.35000,92
35.35833,92
35.36667,92
35.37500,92
35.38333,92
35.39167,92
35.40000,92
35.40833,92
35.41667,93
35.42500,93
35.43333,93
35.44167,92
35.45000,92
35.45833,92
35.46667,92
35.47500,92
35.48333,92
35.49167,92
35.50000,92
35.50833,93
35.51667,93
35.52500,93
35.53333,93
35.54167,93
35.55000,93
35.55833,93
35.56667,93
35.57500,93
35.58333,93
35.59167,93
35.60000,93
35.60833,93
35.61667,93
35.62500,93
35.63333,93
35.64167,93
35.65000,93
35.65833,93
35.66667,93
35.67500,93
35.68333,92
35.69167,92
35.70000,92
35.70833,93
35.71667,93
35.72500,94
35.73333,94
35.74167,94
35.75000,94
35.75833,94
35.76667,94
35.77500,94
35.78333,94
35.79167,94
35.80000,94
35.80833,93
35.81667,93
35.82500,94
35.83333,94
35.84167,94
35.85000,94
35.85833,94
35.86667,94
35.87500,94
35.88333,94
35.89167,94
35.90000,94
35.90833,94
35.91667,94
35.92500,94
35.93333,94
35.94167,94
35.95000,94
35.95833,94
35.96667,94
35.97500,94
35.98333,94
35.99167,95
36.00000,95
36.00833,95
36.01667,94
36.02500,94
36.03333,94
36.04167,94
36.05000,94
36.05833,94
36.06667,94
36.07500,94
36.08333,94
36.09167,94
36.10000,94
36.10833,95
36.11667,95
36.12500,95
36.13333,95
36.14167,95
36.15000,95
36.15833,94
36.16667,94
36.17500,94
36.18333,94
36.19167,94
36.20000,94
36.20833,94
36.21667,94
36.22500,94
36.23333,94
36.24167,94
36.25000,93
36.25833,93
36.26667,93
36.27500,93
36.28333,94
36.29167,94
36.30000,94
36.30833,94
36.31667,94
36.32500,94
36.33333,93
36.34167,93
36.35000,93
36.35833,93
36.36667,93
36.37500,93
36.38333,93
36.39167,93
36.40000,93
36.40833,93
36.41667,93
36.42500,93
36.43333,93
36.44167,93
36.45000,93
36.45833,92
36.46667,93
36.47500,93
36.48333,93
36.49167,93
36.50000,93
36.50833,93
36.51667,93
36.52500,93
36.53333,93
36.54167,93
36.55000,93
36.55833,92
36.56667,92
36.57500,92
36.58333,92
36.59167,92
36.60000,92
36.60833,92
36.61667,93
36.62500,93
36.63333,92
36.64167,92
36.65000,93
36.65833,93
36.66667,93
36.67500,93
36.68333,94
36.69167,94
36.70000,94
36.70833,94
36.71667,94
36.72500,94
36.73333,94
36.74167,93
36.75000,93
36.75833,94
36.76667,94
36.77500,94
36.78333,93
36.79167,93
36.80000,94
36.80833,94
36.81667,94
36.82500,94
36.83333,94
36.84167,94
36.85000,94
36.85833,94
36.86667,94
36.87500,94
36.88333,94
36.89167,94
36.90000,94
36.90833,94
36.91667,93
36.92500,93
36.93333,94
36.94167,94
36.95000,94
36.95833,94
36.96667,93
36.97500,94
36.98333,94
36.99167,94
37.00000,94
37.00833,94
37.01667,94
37.02500,95
37.03333,95
37.04167,95
37.05000,95
37.05833,95
37.06667,95
37.07500,95
37.08333,94
37.09167,94
37.10000,94
37.10833,94
37.11667,94
37.12500,94
37.13333,94
37.14167,94
37.15000,95
37.15833,95
37.16667,95
37.17500,95
37.18333,94
37.19167,94
37.20000,94
37.20833,95
37.21667,95
37.22500,95
37.23333,95
37.24167,95
37.25000,95
37.25833,95
37.26667,95
37.27500,95
37.28333,95
37.29167,95
37.30000,95
37.30833,95
37.31667,95
37.32500,95
37.33333,95
37.34167,95
37.35000,95
37.35833,95
37.36667,95
37.37500,95
37.38333,95
37.39167,96
37.40000,96
37.40833,96
37.41667,96
37.42500,96
37.43333,95
37.44167,95
37.45000,95
37.45833,95
37.46667,95
37.47500,95
37.48333,95
37.49167,95
37.50000,95
37.50833,95
37.51667,95
37.52500,95
37.53333,95
37.54167,95
37.55000,95
37.55833,95
37.56667,96
37.57500,96
37.58333,96
37.59167,96
37.60000,96
37.60833,96
37.61667,96
37.62500,96
37.63333,96
37.64167,96
37.65000,96
37.65833,96
37.66667,96
37.67500,96
37.68333,95
37.69167,95
37.70000,95
37.70833,95
37.71667,96
37.72500,96
37.73333,96
37.74167,96
37.75000,96
37.75833,96
37.76667,96
37.77500,96
37.78333,97
37.79167,97
37.80000,97
37.80833,97
37.81667,97
37.82500,97
37.83333,97
37.84167,97
37.85000,97
37.85833,96
37.86667,96
37.87500,96
37.88333,96
37.89167,96
37.90000,97
37.90833,97
37.91667,97
37.92500,97
37.93333,97
37.94167,97
37.95000,97
37.95833,97
37.96667,97
37.97500,97
37.98333,97
37.99167,97
38.00000,97
38.00833,97
38.01667,97
38.02500,97
38.03333,97
38.04167,97
38.05000,96
38.05833,97
38.06667,97
38.07500,97
38.08333,97
38.09167,97
38.10000,96
38.10833,96
38.11667,96
38.12500,96
38.13333,96
38.14167,97
38.15000,97
38.15833,97
38.16667,97
38.17500,97
38.18333,97
38.19167,98
38.20000,98
38.20833,98
38.21667,98
38.22500,98
38.23333,98
38.24167,98
38.25000,98
38.25833,98
38.26667,97
38.27500,97
38.28333,97
38.29167,97
38.30000,97
38.30833,98
38.31667,98
38.32500,98
38.33333,97
38.34167,97
38.35000,97
38.35833,97
38.36667,97
38.37500,96
38.38333,96
38.39167,96
38.40000,96
38.40833,97
38.41667,97
38.42500,97
38.43333,97
38.44167,97
38.45000,97
38.45833,97
38.46667,97
38.47500,97
38.48333,97
38.49167,98
38.50000,98
38.50833,98
38.51667,98
38.52500,98
38.53333,97
38.54167,97
38.55000,97
38.55833,97
38.56667,97
38.57500,97
38.58333,97
38.59167,97
38.60000,97
38.60833,97
38.61667,97
38.62500,97
38.63333,97
38.64167,96
38.65000,96
38.65833,97
38.66667,97
38.67500,97
38.68333,97
38.69167,97
38.70000,97
38.70833,97
38.71667,97
38.72500,97
38.73333,97
38.74167,97
38.75000,97
38.75833,97
38.76667,98
38.77500,98
38.78333,98
38.79167,97
38.80000,97
38.80833,96
38.81667,96
38.82500,96
38.83333,96
38.84167,97
38.85000,97
38.85833,97
38.86667,97
38.87500,97
38.88333,97
38.89167,97
38.90000,97
38.90833,97
38.91667,97
38.92500,97
38.93333,97
38.94167,97
38.95000,97
38.95833,98
38.96667,97
38.97500,97
38.98333,97
38.99167,97
39.00000,97
39.00833,97
39.01667,96
39.02500,96
39.03333,96
39.04167,96
39.05000,96
39.05833,96
39.06667,97
39.07500,97
39.08333,97
39.09167,97
39.10000,97
39.10833,97
39.11667,96
39.12500,96
39.13333,96
39.14167,97
39.15000,97
39.15833,97
39.16667,97
39.17500,97
39.18333,97
39.19167,96
39.20000,96
39.20833,96
39.21667,96
39.22500,97
39.23333,97
39.24167,97
39.25000,97
39.25833,97
39.26667,98
39.27500,98
39.28333,97
39.29167,98
39.30000,98
39.30833,98
39.31667,98
39.32500,98
39.33333,98
39.34167,98
39.35000,98
39.35833,98
39.36667,98
39.37500,98
39.38333,98
39.39167,98
39.40000,97
39.40833,97
39.41667,98
39.42500,98
39.43333,98
39.44167,98
39.45000,97
39.45833,97
39.46667,97
39.47500,97
39.48333,97
39.49167,97
39.50000,97
39.50833,97
39.51667,97
39.52500,97
39.53333,97
39.54167,97
39.55000,97
39.55833,97
39.56667,97
39.57500,97
39.58333,97
39.59167,97
39.60000,97
39.60833,97
39.61667,97
39.62500,98
39.63333,98
39.64167,98
39.65000,98
39.65833,98
39.66667,98
39.67500,98
39.68333,98
39.69167,98
39.70000,98
39.70833,98
39.71667,98
39.72500,97
39.73333,97
39.74167,97
39.75000,97
39.75833,97
39.76667,97
39.77500,98
39.78333,98
39.79167,98
39.80000,98
39.80833,98
39.81667,98
39.82500,98
39.83333,98
39.84167,98
39.85000,99
39.85833,99
39.86667,99
39.87500,98
39.88333,98
39.89167,99
39.90000,99
39.90833,99
39.91667,99
39.92500,99
39.93333,99
39.94167,99
39.95000,98
39.95833,98
39.96667,98
39.97500,98
39.98333,98
39.99167,99
40.00000,99

