[Header]
Application Name,LabSolutions
Version,5.97 SP1
Data File Name,C:\Users\cremerlab\Desktop\griffin\2021-03-31_NCM3722_NCglucose_turnover\2021-03-31_NCM3722_turnover_batch_3312021_005_026.lcd
Output Date,4/1/2021
Output Time,2:03:38 PM

[File Information]
Type,Data File
Generated,4/1/2021 1:23:18 PM
Generated by,System Administrator
Modified,4/1/2021 2:03:38 PM
Modified by,System Administrator

[Sample Information]
Operator Name,System Administrator
Acquired,4/1/2021 1:23:37 PM
Sample Type,1:Standard
Level,5
Sample Name,2021-03-31_NCM3722_NCglucose_replicate_04_timepoint_005
Sample ID,005
ISTD Amount1,1
ISTD Amount2,1
ISTD Amount3,1
ISTD Amount4,1
ISTD Amount5,1
ISTD Amount6,1
ISTD Amount7,1
ISTD Amount8,1
ISTD Amount9,1
ISTD Amount10,1
ISTD Amount11,1
ISTD Amount12,1
ISTD Amount13,1
ISTD Amount14,1
ISTD Amount15,1
ISTD Amount16,1
ISTD Amount17,1
ISTD Amount18,1
ISTD Amount19,1
ISTD Amount20,1
ISTD Amount21,1
ISTD Amount22,1
ISTD Amount23,1
ISTD Amount24,1
ISTD Amount25,1
ISTD Amount26,1
ISTD Amount27,1
ISTD Amount28,1
ISTD Amount29,1
ISTD Amount30,1
ISTD Amount31,1
ISTD Amount32,1
Sample Amount,1
Dilution Factor,1
Vial#,41
Injection Volume,20

[Original Files]
Data File,C:\Users\cremerlab\Desktop\griffin\2021-03-31_NCM3722_NCglucose_turnover\2021-03-31_NCM3722_turnover_batch_3312021_005_026.lcd
Method File,C:\LabSolutions\Data\Project1\organicacidsetc2.lcm
Batch File,C:\Users\cremerlab\Desktop\griffin\2021-03-31_NCM3722_NCglucose_turnover\2021-03-31_NCM3722_turnover_batch.lcb
Report Format File,c:\LabSolutions\System\DEFAULT.lsr

[File Description]


[Configuration]
Instrument Name,HPLC-PC-Instrument1
Instrument #,1
Line #,1
# of Detectors,2
Detector ID,Detector A,Detector B
Detector Name,Detector A,Detector B
# of Channels,1,1

[Peak Table(Detector A)]
# of Peaks,0

[Peak Table(Detector B)]
# of Peaks,5
Peak#,R.Time,I.Time,F.Time,Area,Height,A/H,Conc.,Mark,ID#,Name,k',Plate #,Plate Ht.,Tailing,Resolution,Sep.Factor,Area Ratio,Height Ratio,Conc. %,Norm Conc.
1,11.044,10.758,12.367,1026958,60376,17.009,0.000,   ,,,0.000,11291,13.284,1.372,0.000,0.000,0,0,0.000,0.000
2,15.054,14.108,15.358,2615975,103971,25.161,0.000,   ,,,0.363,7785,19.269,0.000,7.304,0.000,0,0,0.000,0.000
3,15.630,15.358,18.392,750509,31273,23.999,0.000, V ,,,0.415,9684,15.489,0.000,0.874,1.144,0,0,0.000,0.000
4,18.990,18.717,19.492,1790,85,21.074,0.000,   ,,,0.720,18783,7.986,1.267,5.649,1.733,0,0,0.000,0.000
5,25.046,24.583,25.592,6226,230,27.096,0.000,   ,,,1.268,18721,8.012,1.062,9.415,1.762,0,0,0.000,0.000

[LC Chromatogram(Detector B-Ch1)]
Interval(msec),500
# of Points,4801
Start Time(min),0.000
End Time(min),40.000
Intensity Units,mV
Intensity Multiplier,0.001
R.Time (min),Intensity
0.00000,1
0.00833,1
0.01667,0
0.02500,1
0.03333,0
0.04167,-1
0.05000,-3
0.05833,-4
0.06667,-5
0.07500,-5
0.08333,-4
0.09167,-3
0.10000,-3
0.10833,-2
0.11667,-1
0.12500,-1
0.13333,-0
0.14167,0
0.15000,0
0.15833,1
0.16667,1
0.17500,1
0.18333,1
0.19167,1
0.20000,1
0.20833,1
0.21667,1
0.22500,1
0.23333,1
0.24167,1
0.25000,2
0.25833,3
0.26667,3
0.27500,3
0.28333,2
0.29167,2
0.30000,2
0.30833,2
0.31667,2
0.32500,2
0.33333,2
0.34167,2
0.35000,1
0.35833,1
0.36667,1
0.37500,1
0.38333,2
0.39167,2
0.40000,2
0.40833,1
0.41667,1
0.42500,1
0.43333,1
0.44167,1
0.45000,1
0.45833,2
0.46667,1
0.47500,1
0.48333,1
0.49167,1
0.50000,1
0.50833,1
0.51667,1
0.52500,1
0.53333,1
0.54167,2
0.55000,2
0.55833,3
0.56667,5
0.57500,6
0.58333,8
0.59167,9
0.60000,9
0.60833,9
0.61667,9
0.62500,8
0.63333,7
0.64167,5
0.65000,3
0.65833,1
0.66667,-1
0.67500,-3
0.68333,-4
0.69167,-6
0.70000,-8
0.70833,-9
0.71667,-10
0.72500,-10
0.73333,-11
0.74167,-11
0.75000,-10
0.75833,-10
0.76667,-10
0.77500,-9
0.78333,-9
0.79167,-8
0.80000,-7
0.80833,-7
0.81667,-7
0.82500,-6
0.83333,-5
0.84167,-5
0.85000,-4
0.85833,-3
0.86667,-2
0.87500,-2
0.88333,-1
0.89167,-1
0.90000,-0
0.90833,-0
0.91667,-1
0.92500,-0
0.93333,-0
0.94167,-0
0.95000,-0
0.95833,-0
0.96667,0
0.97500,0
0.98333,-0
0.99167,-0
1.00000,-1
1.00833,-1
1.01667,-1
1.02500,-0
1.03333,-0
1.04167,0
1.05000,1
1.05833,1
1.06667,2
1.07500,2
1.08333,2
1.09167,2
1.10000,2
1.10833,1
1.11667,1
1.12500,1
1.13333,1
1.14167,1
1.15000,1
1.15833,1
1.16667,1
1.17500,1
1.18333,1
1.19167,1
1.20000,1
1.20833,1
1.21667,2
1.22500,2
1.23333,2
1.24167,2
1.25000,2
1.25833,2
1.26667,2
1.27500,1
1.28333,1
1.29167,1
1.30000,1
1.30833,1
1.31667,1
1.32500,1
1.33333,2
1.34167,2
1.35000,2
1.35833,2
1.36667,2
1.37500,2
1.38333,2
1.39167,2
1.40000,2
1.40833,2
1.41667,2
1.42500,2
1.43333,2
1.44167,2
1.45000,2
1.45833,2
1.46667,2
1.47500,2
1.48333,2
1.49167,2
1.50000,2
1.50833,2
1.51667,3
1.52500,3
1.53333,3
1.54167,3
1.55000,4
1.55833,4
1.56667,4
1.57500,4
1.58333,4
1.59167,4
1.60000,4
1.60833,4
1.61667,4
1.62500,4
1.63333,5
1.64167,5
1.65000,5
1.65833,5
1.66667,5
1.67500,5
1.68333,5
1.69167,5
1.70000,5
1.70833,5
1.71667,5
1.72500,5
1.73333,5
1.74167,5
1.75000,5
1.75833,6
1.76667,6
1.77500,6
1.78333,5
1.79167,5
1.80000,5
1.80833,5
1.81667,6
1.82500,6
1.83333,7
1.84167,7
1.85000,7
1.85833,7
1.86667,7
1.87500,6
1.88333,6
1.89167,6
1.90000,6
1.90833,6
1.91667,6
1.92500,6
1.93333,7
1.94167,7
1.95000,7
1.95833,7
1.96667,7
1.97500,7
1.98333,7
1.99167,7
2.00000,7
2.00833,7
2.01667,7
2.02500,8
2.03333,8
2.04167,7
2.05000,7
2.05833,8
2.06667,8
2.07500,8
2.08333,8
2.09167,8
2.10000,8
2.10833,8
2.11667,8
2.12500,8
2.13333,8
2.14167,8
2.15000,8
2.15833,8
2.16667,9
2.17500,8
2.18333,8
2.19167,8
2.20000,8
2.20833,8
2.21667,8
2.22500,8
2.23333,8
2.24167,8
2.25000,8
2.25833,8
2.26667,8
2.27500,7
2.28333,7
2.29167,7
2.30000,7
2.30833,7
2.31667,7
2.32500,7
2.33333,6
2.34167,7
2.35000,7
2.35833,7
2.36667,7
2.37500,6
2.38333,6
2.39167,6
2.40000,5
2.40833,5
2.41667,5
2.42500,5
2.43333,5
2.44167,5
2.45000,5
2.45833,5
2.46667,5
2.47500,5
2.48333,5
2.49167,5
2.50000,4
2.50833,5
2.51667,5
2.52500,5
2.53333,5
2.54167,5
2.55000,5
2.55833,5
2.56667,5
2.57500,5
2.58333,5
2.59167,5
2.60000,5
2.60833,5
2.61667,4
2.62500,4
2.63333,4
2.64167,4
2.65000,4
2.65833,4
2.66667,4
2.67500,4
2.68333,4
2.69167,3
2.70000,3
2.70833,3
2.71667,3
2.72500,3
2.73333,3
2.74167,3
2.75000,3
2.75833,3
2.76667,3
2.77500,3
2.78333,3
2.79167,3
2.80000,3
2.80833,3
2.81667,3
2.82500,3
2.83333,3
2.84167,3
2.85000,4
2.85833,4
2.86667,4
2.87500,3
2.88333,3
2.89167,3
2.90000,3
2.90833,3
2.91667,3
2.92500,3
2.93333,3
2.94167,2
2.95000,2
2.95833,3
2.96667,3
2.97500,3
2.98333,3
2.99167,3
3.00000,4
3.00833,4
3.01667,4
3.02500,4
3.03333,4
3.04167,4
3.05000,4
3.05833,4
3.06667,4
3.07500,4
3.08333,4
3.09167,4
3.10000,4
3.10833,4
3.11667,4
3.12500,3
3.13333,3
3.14167,3
3.15000,3
3.15833,4
3.16667,4
3.17500,4
3.18333,4
3.19167,4
3.20000,4
3.20833,4
3.21667,4
3.22500,4
3.23333,4
3.24167,5
3.25000,5
3.25833,5
3.26667,5
3.27500,5
3.28333,5
3.29167,5
3.30000,5
3.30833,5
3.31667,5
3.32500,5
3.33333,5
3.34167,5
3.35000,4
3.35833,4
3.36667,4
3.37500,4
3.38333,4
3.39167,4
3.40000,4
3.40833,4
3.41667,4
3.42500,4
3.43333,5
3.44167,5
3.45000,5
3.45833,6
3.46667,6
3.47500,6
3.48333,6
3.49167,5
3.50000,6
3.50833,6
3.51667,6
3.52500,6
3.53333,6
3.54167,6
3.55000,6
3.55833,6
3.56667,6
3.57500,6
3.58333,6
3.59167,5
3.60000,5
3.60833,5
3.61667,5
3.62500,6
3.63333,6
3.64167,6
3.65000,7
3.65833,7
3.66667,7
3.67500,7
3.68333,7
3.69167,7
3.70000,7
3.70833,7
3.71667,7
3.72500,7
3.73333,7
3.74167,7
3.75000,8
3.75833,8
3.76667,8
3.77500,7
3.78333,7
3.79167,7
3.80000,7
3.80833,7
3.81667,7
3.82500,7
3.83333,7
3.84167,8
3.85000,8
3.85833,9
3.86667,9
3.87500,9
3.88333,9
3.89167,8
3.90000,8
3.90833,9
3.91667,9
3.92500,9
3.93333,9
3.94167,9
3.95000,10
3.95833,10
3.96667,10
3.97500,9
3.98333,9
3.99167,9
4.00000,9
4.00833,9
4.01667,9
4.02500,9
4.03333,9
4.04167,9
4.05000,9
4.05833,9
4.06667,9
4.07500,9
4.08333,9
4.09167,9
4.10000,10
4.10833,10
4.11667,10
4.12500,9
4.13333,9
4.14167,10
4.15000,10
4.15833,11
4.16667,11
4.17500,11
4.18333,11
4.19167,11
4.20000,10
4.20833,10
4.21667,10
4.22500,10
4.23333,10
4.24167,10
4.25000,10
4.25833,9
4.26667,9
4.27500,9
4.28333,10
4.29167,10
4.30000,10
4.30833,10
4.31667,10
4.32500,10
4.33333,10
4.34167,10
4.35000,10
4.35833,10
4.36667,10
4.37500,10
4.38333,10
4.39167,10
4.40000,10
4.40833,10
4.41667,10
4.42500,10
4.43333,10
4.44167,10
4.45000,9
4.45833,9
4.46667,9
4.47500,9
4.48333,9
4.49167,8
4.50000,8
4.50833,8
4.51667,8
4.52500,8
4.53333,8
4.54167,8
4.55000,8
4.55833,8
4.56667,9
4.57500,9
4.58333,9
4.59167,9
4.60000,9
4.60833,9
4.61667,9
4.62500,9
4.63333,9
4.64167,9
4.65000,9
4.65833,9
4.66667,8
4.67500,8
4.68333,8
4.69167,7
4.70000,7
4.70833,7
4.71667,8
4.72500,8
4.73333,8
4.74167,9
4.75000,9
4.75833,8
4.76667,8
4.77500,8
4.78333,7
4.79167,7
4.80000,7
4.80833,7
4.81667,7
4.82500,7
4.83333,7
4.84167,7
4.85000,7
4.85833,7
4.86667,7
4.87500,7
4.88333,7
4.89167,7
4.90000,8
4.90833,8
4.91667,8
4.92500,8
4.93333,8
4.94167,8
4.95000,7
4.95833,8
4.96667,8
4.97500,7
4.98333,7
4.99167,8
5.00000,8
5.00833,8
5.01667,7
5.02500,7
5.03333,7
5.04167,7
5.05000,8
5.05833,8
5.06667,8
5.07500,8
5.08333,7
5.09167,7
5.10000,7
5.10833,7
5.11667,7
5.12500,7
5.13333,7
5.14167,7
5.15000,7
5.15833,7
5.16667,7
5.17500,8
5.18333,8
5.19167,8
5.20000,8
5.20833,8
5.21667,8
5.22500,8
5.23333,7
5.24167,7
5.25000,7
5.25833,7
5.26667,7
5.27500,8
5.28333,8
5.29167,8
5.30000,8
5.30833,8
5.31667,7
5.32500,8
5.33333,8
5.34167,8
5.35000,8
5.35833,8
5.36667,8
5.37500,8
5.38333,7
5.39167,7
5.40000,7
5.40833,7
5.41667,7
5.42500,7
5.43333,7
5.44167,7
5.45000,7
5.45833,8
5.46667,8
5.47500,9
5.48333,9
5.49167,9
5.50000,9
5.50833,8
5.51667,8
5.52500,8
5.53333,8
5.54167,8
5.55000,8
5.55833,8
5.56667,8
5.57500,8
5.58333,8
5.59167,8
5.60000,8
5.60833,8
5.61667,8
5.62500,8
5.63333,8
5.64167,8
5.65000,9
5.65833,9
5.66667,9
5.67500,9
5.68333,8
5.69167,8
5.70000,9
5.70833,9
5.71667,8
5.72500,9
5.73333,9
5.74167,9
5.75000,8
5.75833,8
5.76667,8
5.77500,8
5.78333,8
5.79167,8
5.80000,8
5.80833,9
5.81667,9
5.82500,9
5.83333,9
5.84167,8
5.85000,8
5.85833,9
5.86667,8
5.87500,8
5.88333,9
5.89167,9
5.90000,9
5.90833,9
5.91667,10
5.92500,10
5.93333,10
5.94167,10
5.95000,10
5.95833,10
5.96667,10
5.97500,10
5.98333,10
5.99167,10
6.00000,10
6.00833,10
6.01667,11
6.02500,11
6.03333,11
6.04167,10
6.05000,10
6.05833,10
6.06667,9
6.07500,9
6.08333,9
6.09167,9
6.10000,9
6.10833,9
6.11667,9
6.12500,9
6.13333,9
6.14167,10
6.15000,10
6.15833,10
6.16667,10
6.17500,10
6.18333,10
6.19167,10
6.20000,9
6.20833,9
6.21667,10
6.22500,10
6.23333,10
6.24167,10
6.25000,10
6.25833,10
6.26667,10
6.27500,10
6.28333,10
6.29167,10
6.30000,10
6.30833,10
6.31667,10
6.32500,10
6.33333,10
6.34167,10
6.35000,10
6.35833,10
6.36667,10
6.37500,11
6.38333,11
6.39167,10
6.40000,10
6.40833,10
6.41667,9
6.42500,9
6.43333,9
6.44167,9
6.45000,9
6.45833,10
6.46667,10
6.47500,10
6.48333,10
6.49167,10
6.50000,11
6.50833,11
6.51667,11
6.52500,11
6.53333,11
6.54167,11
6.55000,11
6.55833,11
6.56667,11
6.57500,11
6.58333,11
6.59167,11
6.60000,11
6.60833,11
6.61667,11
6.62500,11
6.63333,11
6.64167,11
6.65000,11
6.65833,11
6.66667,11
6.67500,11
6.68333,11
6.69167,11
6.70000,11
6.70833,11
6.71667,11
6.72500,11
6.73333,11
6.74167,11
6.75000,11
6.75833,11
6.76667,11
6.77500,11
6.78333,12
6.79167,12
6.80000,12
6.80833,13
6.81667,13
6.82500,13
6.83333,12
6.84167,12
6.85000,12
6.85833,12
6.86667,12
6.87500,12
6.88333,11
6.89167,11
6.90000,11
6.90833,11
6.91667,11
6.92500,11
6.93333,11
6.94167,11
6.95000,11
6.95833,11
6.96667,11
6.97500,11
6.98333,11
6.99167,12
7.00000,12
7.00833,11
7.01667,11
7.02500,11
7.03333,10
7.04167,11
7.05000,11
7.05833,11
7.06667,11
7.07500,12
7.08333,12
7.09167,11
7.10000,11
7.10833,11
7.11667,11
7.12500,11
7.13333,11
7.14167,11
7.15000,10
7.15833,10
7.16667,11
7.17500,11
7.18333,11
7.19167,11
7.20000,11
7.20833,12
7.21667,12
7.22500,12
7.23333,12
7.24167,12
7.25000,12
7.25833,12
7.26667,12
7.27500,12
7.28333,12
7.29167,12
7.30000,12
7.30833,12
7.31667,11
7.32500,11
7.33333,11
7.34167,11
7.35000,11
7.35833,11
7.36667,11
7.37500,11
7.38333,11
7.39167,11
7.40000,12
7.40833,12
7.41667,12
7.42500,12
7.43333,12
7.44167,12
7.45000,12
7.45833,12
7.46667,13
7.47500,13
7.48333,12
7.49167,12
7.50000,12
7.50833,12
7.51667,12
7.52500,12
7.53333,12
7.54167,11
7.55000,11
7.55833,11
7.56667,11
7.57500,11
7.58333,11
7.59167,11
7.60000,11
7.60833,12
7.61667,12
7.62500,13
7.63333,13
7.64167,13
7.65000,13
7.65833,13
7.66667,13
7.67500,13
7.68333,13
7.69167,13
7.70000,13
7.70833,13
7.71667,13
7.72500,13
7.73333,13
7.74167,13
7.75000,13
7.75833,13
7.76667,13
7.77500,12
7.78333,12
7.79167,12
7.80000,12
7.80833,12
7.81667,12
7.82500,12
7.83333,12
7.84167,12
7.85000,12
7.85833,12
7.86667,12
7.87500,12
7.88333,12
7.89167,12
7.90000,12
7.90833,12
7.91667,12
7.92500,12
7.93333,13
7.94167,13
7.95000,12
7.95833,12
7.96667,12
7.97500,12
7.98333,13
7.99167,13
8.00000,13
8.00833,12
8.01667,12
8.02500,12
8.03333,12
8.04167,12
8.05000,11
8.05833,11
8.06667,11
8.07500,12
8.08333,12
8.09167,12
8.10000,12
8.10833,13
8.11667,13
8.12500,13
8.13333,13
8.14167,13
8.15000,13
8.15833,13
8.16667,13
8.17500,13
8.18333,13
8.19167,13
8.20000,14
8.20833,14
8.21667,13
8.22500,13
8.23333,13
8.24167,13
8.25000,12
8.25833,12
8.26667,12
8.27500,12
8.28333,13
8.29167,13
8.30000,13
8.30833,13
8.31667,13
8.32500,13
8.33333,13
8.34167,13
8.35000,13
8.35833,13
8.36667,13
8.37500,13
8.38333,13
8.39167,13
8.40000,13
8.40833,14
8.41667,14
8.42500,13
8.43333,13
8.44167,13
8.45000,13
8.45833,13
8.46667,13
8.47500,14
8.48333,14
8.49167,13
8.50000,13
8.50833,13
8.51667,13
8.52500,13
8.53333,13
8.54167,14
8.55000,14
8.55833,14
8.56667,14
8.57500,14
8.58333,14
8.59167,14
8.60000,13
8.60833,13
8.61667,13
8.62500,13
8.63333,14
8.64167,15
8.65000,15
8.65833,15
8.66667,15
8.67500,15
8.68333,15
8.69167,15
8.70000,15
8.70833,15
8.71667,14
8.72500,14
8.73333,14
8.74167,14
8.75000,14
8.75833,14
8.76667,14
8.77500,15
8.78333,15
8.79167,15
8.80000,15
8.80833,15
8.81667,15
8.82500,16
8.83333,16
8.84167,16
8.85000,16
8.85833,16
8.86667,16
8.87500,16
8.88333,15
8.89167,15
8.90000,15
8.90833,14
8.91667,14
8.92500,14
8.93333,15
8.94167,15
8.95000,15
8.95833,15
8.96667,15
8.97500,16
8.98333,16
8.99167,16
9.00000,16
9.00833,16
9.01667,15
9.02500,15
9.03333,15
9.04167,15
9.05000,15
9.05833,15
9.06667,15
9.07500,16
9.08333,16
9.09167,16
9.10000,16
9.10833,16
9.11667,16
9.12500,16
9.13333,15
9.14167,15
9.15000,15
9.15833,15
9.16667,15
9.17500,15
9.18333,15
9.19167,15
9.20000,15
9.20833,15
9.21667,15
9.22500,16
9.23333,16
9.24167,16
9.25000,16
9.25833,16
9.26667,16
9.27500,16
9.28333,16
9.29167,16
9.30000,16
9.30833,16
9.31667,16
9.32500,16
9.33333,16
9.34167,16
9.35000,16
9.35833,16
9.36667,16
9.37500,16
9.38333,16
9.39167,15
9.40000,15
9.40833,15
9.41667,15
9.42500,15
9.43333,15
9.44167,16
9.45000,15
9.45833,15
9.46667,16
9.47500,16
9.48333,16
9.49167,16
9.50000,17
9.50833,17
9.51667,18
9.52500,18
9.53333,17
9.54167,17
9.55000,17
9.55833,17
9.56667,17
9.57500,17
9.58333,16
9.59167,16
9.60000,16
9.60833,16
9.61667,16
9.62500,16
9.63333,16
9.64167,16
9.65000,16
9.65833,17
9.66667,17
9.67500,17
9.68333,17
9.69167,17
9.70000,17
9.70833,17
9.71667,17
9.72500,17
9.73333,17
9.74167,17
9.75000,17
9.75833,17
9.76667,17
9.77500,17
9.78333,17
9.79167,17
9.80000,17
9.80833,17
9.81667,17
9.82500,17
9.83333,17
9.84167,17
9.85000,17
9.85833,17
9.86667,17
9.87500,17
9.88333,17
9.89167,17
9.90000,17
9.90833,17
9.91667,17
9.92500,18
9.93333,18
9.94167,18
9.95000,18
9.95833,18
9.96667,18
9.97500,19
9.98333,19
9.99167,19
10.00000,19
10.00833,19
10.01667,19
10.02500,19
10.03333,18
10.04167,17
10.05000,17
10.05833,16
10.06667,16
10.07500,16
10.08333,17
10.09167,17
10.10000,17
10.10833,17
10.11667,17
10.12500,18
10.13333,18
10.14167,18
10.15000,18
10.15833,18
10.16667,18
10.17500,18
10.18333,18
10.19167,18
10.20000,18
10.20833,18
10.21667,19
10.22500,19
10.23333,19
10.24167,19
10.25000,19
10.25833,18
10.26667,18
10.27500,18
10.28333,18
10.29167,19
10.30000,19
10.30833,20
10.31667,21
10.32500,21
10.33333,22
10.34167,22
10.35000,23
10.35833,23
10.36667,24
10.37500,25
10.38333,26
10.39167,26
10.40000,27
10.40833,28
10.41667,29
10.42500,29
10.43333,30
10.44167,30
10.45000,31
10.45833,32
10.46667,32
10.47500,32
10.48333,32
10.49167,31
10.50000,29
10.50833,26
10.51667,23
10.52500,19
10.53333,13
10.54167,5
10.55000,-7
10.55833,-23
10.56667,-44
10.57500,-73
10.58333,-110
10.59167,-158
10.60000,-219
10.60833,-295
10.61667,-388
10.62500,-501
10.63333,-636
10.64167,-793
10.65000,-975
10.65833,-1180
10.66667,-1409
10.67500,-1659
10.68333,-1927
10.69167,-2206
10.70000,-2492
10.70833,-2774
10.71667,-3044
10.72500,-3291
10.73333,-3501
10.74167,-3662
10.75000,-3761
10.75833,-3782
10.76667,-3712
10.77500,-3536
10.78333,-3241
10.79167,-2815
10.80000,-2245
10.80833,-1522
10.81667,-638
10.82500,416
10.83333,1645
10.84167,3052
10.85000,4639
10.85833,6406
10.86667,8350
10.87500,10467
10.88333,12751
10.89167,15192
10.90000,17779
10.90833,20499
10.91667,23333
10.92500,26262
10.93333,29260
10.94167,32301
10.95000,35350
10.95833,38373
10.96667,41327
10.97500,44170
10.98333,46854
10.99167,49329
11.00000,51546
11.00833,53458
11.01667,55021
11.02500,56198
11.03333,56959
11.04167,57285
11.05000,57170
11.05833,56616
11.06667,55642
11.07500,54274
11.08333,52551
11.09167,50517
11.10000,48226
11.10833,45731
11.11667,43087
11.12500,40347
11.13333,37563
11.14167,34780
11.15000,32039
11.15833,29374
11.16667,26811
11.17500,24373
11.18333,22075
11.19167,19926
11.20000,17932
11.20833,16095
11.21667,14412
11.22500,12878
11.23333,11489
11.24167,10235
11.25000,9108
11.25833,8099
11.26667,7198
11.27500,6396
11.28333,5684
11.29167,5053
11.30000,4496
11.30833,4004
11.31667,3570
11.32500,3189
11.33333,2853
11.34167,2558
11.35000,2299
11.35833,2072
11.36667,1872
11.37500,1697
11.38333,1542
11.39167,1407
11.40000,1287
11.40833,1182
11.41667,1089
11.42500,1007
11.43333,934
11.44167,869
11.45000,812
11.45833,760
11.46667,714
11.47500,673
11.48333,635
11.49167,602
11.50000,571
11.50833,543
11.51667,517
11.52500,494
11.53333,473
11.54167,454
11.55000,436
11.55833,419
11.56667,404
11.57500,390
11.58333,377
11.59167,365
11.60000,353
11.60833,342
11.61667,331
11.62500,321
11.63333,311
11.64167,303
11.65000,295
11.65833,287
11.66667,280
11.67500,273
11.68333,267
11.69167,261
11.70000,255
11.70833,249
11.71667,244
11.72500,238
11.73333,233
11.74167,229
11.75000,224
11.75833,220
11.76667,216
11.77500,212
11.78333,208
11.79167,204
11.80000,201
11.80833,197
11.81667,194
11.82500,191
11.83333,188
11.84167,186
11.85000,183
11.85833,181
11.86667,179
11.87500,177
11.88333,175
11.89167,173
11.90000,172
11.90833,170
11.91667,169
11.92500,167
11.93333,166
11.94167,165
11.95000,163
11.95833,162
11.96667,160
11.97500,159
11.98333,158
11.99167,157
12.00000,155
12.00833,154
12.01667,153
12.02500,152
12.03333,152
12.04167,151
12.05000,150
12.05833,149
12.06667,148
12.07500,146
12.08333,145
12.09167,145
12.10000,144
12.10833,143
12.11667,142
12.12500,141
12.13333,140
12.14167,139
12.15000,138
12.15833,137
12.16667,136
12.17500,135
12.18333,134
12.19167,133
12.20000,132
12.20833,132
12.21667,131
12.22500,130
12.23333,129
12.24167,129
12.25000,128
12.25833,127
12.26667,126
12.27500,125
12.28333,124
12.29167,124
12.30000,123
12.30833,123
12.31667,122
12.32500,121
12.33333,120
12.34167,120
12.35000,120
12.35833,119
12.36667,119
12.37500,119
12.38333,118
12.39167,118
12.40000,117
12.40833,117
12.41667,116
12.42500,115
12.43333,115
12.44167,115
12.45000,114
12.45833,114
12.46667,114
12.47500,113
12.48333,113
12.49167,112
12.50000,111
12.50833,111
12.51667,110
12.52500,110
12.53333,109
12.54167,109
12.55000,108
12.55833,108
12.56667,108
12.57500,107
12.58333,107
12.59167,107
12.60000,106
12.60833,105
12.61667,105
12.62500,105
12.63333,105
12.64167,104
12.65000,103
12.65833,103
12.66667,102
12.67500,102
12.68333,101
12.69167,101
12.70000,101
12.70833,101
12.71667,100
12.72500,100
12.73333,100
12.74167,99
12.75000,99
12.75833,99
12.76667,99
12.77500,99
12.78333,98
12.79167,98
12.80000,98
12.80833,98
12.81667,98
12.82500,98
12.83333,98
12.84167,98
12.85000,98
12.85833,98
12.86667,99
12.87500,99
12.88333,99
12.89167,99
12.90000,99
12.90833,99
12.91667,99
12.92500,99
12.93333,98
12.94167,98
12.95000,98
12.95833,98
12.96667,98
12.97500,98
12.98333,98
12.99167,98
13.00000,99
13.00833,99
13.01667,100
13.02500,100
13.03333,100
13.04167,100
13.05000,100
13.05833,100
13.06667,100
13.07500,100
13.08333,100
13.09167,100
13.10000,100
13.10833,99
13.11667,99
13.12500,99
13.13333,99
13.14167,98
13.15000,98
13.15833,98
13.16667,98
13.17500,98
13.18333,98
13.19167,97
13.20000,97
13.20833,97
13.21667,96
13.22500,96
13.23333,95
13.24167,95
13.25000,95
13.25833,95
13.26667,94
13.27500,93
13.28333,93
13.29167,92
13.30000,92
13.30833,91
13.31667,90
13.32500,89
13.33333,89
13.34167,88
13.35000,87
13.35833,87
13.36667,86
13.37500,86
13.38333,85
13.39167,84
13.40000,83
13.40833,82
13.41667,81
13.42500,80
13.43333,79
13.44167,79
13.45000,78
13.45833,77
13.46667,77
13.47500,76
13.48333,75
13.49167,74
13.50000,74
13.50833,73
13.51667,72
13.52500,72
13.53333,71
13.54167,71
13.55000,70
13.55833,70
13.56667,69
13.57500,69
13.58333,69
13.59167,68
13.60000,68
13.60833,67
13.61667,67
13.62500,67
13.63333,67
13.64167,66
13.65000,66
13.65833,66
13.66667,65
13.67500,65
13.68333,65
13.69167,65
13.70000,64
13.70833,64
13.71667,65
13.72500,65
13.73333,65
13.74167,65
13.75000,65
13.75833,65
13.76667,65
13.77500,65
13.78333,65
13.79167,64
13.80000,64
13.80833,64
13.81667,64
13.82500,64
13.83333,64
13.84167,64
13.85000,64
13.85833,64
13.86667,64
13.87500,63
13.88333,64
13.89167,63
13.90000,63
13.90833,64
13.91667,64
13.92500,64
13.93333,65
13.94167,66
13.95000,67
13.95833,67
13.96667,67
13.97500,68
13.98333,68
13.99167,68
14.00000,68
14.00833,69
14.01667,69
14.02500,70
14.03333,70
14.04167,70
14.05000,70
14.05833,71
14.06667,71
14.07500,71
14.08333,72
14.09167,73
14.10000,73
14.10833,74
14.11667,75
14.12500,76
14.13333,77
14.14167,79
14.15000,80
14.15833,83
14.16667,85
14.17500,88
14.18333,91
14.19167,95
14.20000,100
14.20833,105
14.21667,112
14.22500,120
14.23333,129
14.24167,141
14.25000,156
14.25833,173
14.26667,194
14.27500,218
14.28333,247
14.29167,281
14.30000,322
14.30833,372
14.31667,430
14.32500,498
14.33333,578
14.34167,671
14.35000,778
14.35833,902
14.36667,1044
14.37500,1206
14.38333,1389
14.39167,1594
14.40000,1825
14.40833,2082
14.41667,2367
14.42500,2682
14.43333,3028
14.44167,3406
14.45000,3818
14.45833,4264
14.46667,4745
14.47500,5263
14.48333,5817
14.49167,6408
14.50000,7036
14.50833,7701
14.51667,8405
14.52500,9145
14.53333,9923
14.54167,10738
14.55000,11589
14.55833,12477
14.56667,13401
14.57500,14360
14.58333,15353
14.59167,16381
14.60000,17442
14.60833,18537
14.61667,19663
14.62500,20821
14.63333,22010
14.64167,23229
14.65000,24478
14.65833,25757
14.66667,27064
14.67500,28399
14.68333,29763
14.69167,31153
14.70000,32569
14.70833,34012
14.71667,35481
14.72500,36975
14.73333,38494
14.74167,40038
14.75000,41605
14.75833,43197
14.76667,44813
14.77500,46452
14.78333,48115
14.79167,49800
14.80000,51508
14.80833,53238
14.81667,54990
14.82500,56763
14.83333,58558
14.84167,60373
14.85000,62210
14.85833,64066
14.86667,65942
14.87500,67836
14.88333,69749
14.89167,71678
14.90000,73625
14.90833,75586
14.91667,77562
14.92500,79549
14.93333,81547
14.94167,83551
14.95000,85559
14.95833,87563
14.96667,89558
14.97500,91531
14.98333,93468
14.99167,95351
15.00000,97153
15.00833,98844
15.01667,100384
15.02500,101727
15.03333,102822
15.04167,103613
15.05000,104044
15.05833,104058
15.06667,103606
15.07500,102648
15.08333,101155
15.09167,99117
15.10000,96539
15.10833,93443
15.11667,89873
15.12500,85884
15.13333,81546
15.14167,76939
15.15000,72147
15.15833,67255
15.16667,62345
15.17500,57493
15.18333,52767
15.19167,48222
15.20000,43904
15.20833,39847
15.21667,36074
15.22500,32597
15.23333,29422
15.24167,26545
15.25000,23960
15.25833,21654
15.26667,19612
15.27500,17820
15.28333,16259
15.29167,14915
15.30000,13769
15.30833,12809
15.31667,12020
15.32500,11390
15.33333,10908
15.34167,10563
15.35000,10348
15.35833,10254
15.36667,10276
15.37500,10407
15.38333,10641
15.39167,10972
15.40000,11395
15.40833,11906
15.41667,12498
15.42500,13167
15.43333,13905
15.44167,14707
15.45000,15565
15.45833,16473
15.46667,17421
15.47500,18402
15.48333,19406
15.49167,20425
15.50000,21448
15.50833,22467
15.51667,23471
15.52500,24451
15.53333,25398
15.54167,26301
15.55000,27152
15.55833,27942
15.56667,28665
15.57500,29312
15.58333,29879
15.59167,30359
15.60000,30750
15.60833,31048
15.61667,31251
15.62500,31357
15.63333,31367
15.64167,31282
15.65000,31104
15.65833,30836
15.66667,30481
15.67500,30044
15.68333,29530
15.69167,28945
15.70000,28294
15.70833,27583
15.71667,26821
15.72500,26013
15.73333,25166
15.74167,24287
15.75000,23383
15.75833,22461
15.76667,21526
15.77500,20584
15.78333,19642
15.79167,18704
15.80000,17775
15.80833,16860
15.81667,15962
15.82500,15084
15.83333,14230
15.84167,13402
15.85000,12603
15.85833,11833
15.86667,11095
15.87500,10389
15.88333,9715
15.89167,9075
15.90000,8468
15.90833,7894
15.91667,7352
15.92500,6843
15.93333,6365
15.94167,5916
15.95000,5496
15.95833,5105
15.96667,4740
15.97500,4401
15.98333,4086
15.99167,3794
16.00000,3524
16.00833,3274
16.01667,3044
16.02500,2831
16.03333,2636
16.04167,2456
16.05000,2291
16.05833,2138
16.06667,1999
16.07500,1870
16.08333,1753
16.09167,1645
16.10000,1547
16.10833,1457
16.11667,1375
16.12500,1299
16.13333,1230
16.14167,1166
16.15000,1108
16.15833,1055
16.16667,1006
16.17500,961
16.18333,920
16.19167,883
16.20000,848
16.20833,816
16.21667,787
16.22500,760
16.23333,734
16.24167,711
16.25000,690
16.25833,670
16.26667,652
16.27500,635
16.28333,619
16.29167,604
16.30000,590
16.30833,577
16.31667,565
16.32500,553
16.33333,542
16.34167,532
16.35000,522
16.35833,514
16.36667,505
16.37500,497
16.38333,490
16.39167,483
16.40000,476
16.40833,469
16.41667,463
16.42500,457
16.43333,451
16.44167,446
16.45000,441
16.45833,436
16.46667,431
16.47500,427
16.48333,422
16.49167,418
16.50000,414
16.50833,409
16.51667,406
16.52500,402
16.53333,399
16.54167,395
16.55000,392
16.55833,388
16.56667,385
16.57500,382
16.58333,379
16.59167,376
16.60000,373
16.60833,370
16.61667,367
16.62500,365
16.63333,362
16.64167,360
16.65000,357
16.65833,355
16.66667,353
16.67500,350
16.68333,348
16.69167,346
16.70000,343
16.70833,341
16.71667,339
16.72500,337
16.73333,335
16.74167,333
16.75000,331
16.75833,329
16.76667,327
16.77500,325
16.78333,323
16.79167,321
16.80000,320
16.80833,318
16.81667,317
16.82500,316
16.83333,314
16.84167,312
16.85000,310
16.85833,308
16.86667,306
16.87500,304
16.88333,302
16.89167,301
16.90000,299
16.90833,298
16.91667,296
16.92500,294
16.93333,293
16.94167,291
16.95000,289
16.95833,288
16.96667,286
16.97500,284
16.98333,283
16.99167,281
17.00000,280
17.00833,278
17.01667,277
17.02500,276
17.03333,274
17.04167,273
17.05000,271
17.05833,270
17.06667,269
17.07500,267
17.08333,266
17.09167,265
17.10000,264
17.10833,262
17.11667,260
17.12500,258
17.13333,257
17.14167,256
17.15000,255
17.15833,254
17.16667,253
17.17500,251
17.18333,249
17.19167,247
17.20000,246
17.20833,245
17.21667,243
17.22500,243
17.23333,242
17.24167,241
17.25000,241
17.25833,239
17.26667,238
17.27500,237
17.28333,236
17.29167,234
17.30000,233
17.30833,232
17.31667,231
17.32500,230
17.33333,229
17.34167,228
17.35000,226
17.35833,225
17.36667,224
17.37500,223
17.38333,222
17.39167,220
17.40000,219
17.40833,218
17.41667,217
17.42500,216
17.43333,215
17.44167,214
17.45000,213
17.45833,212
17.46667,211
17.47500,210
17.48333,209
17.49167,208
17.50000,207
17.50833,207
17.51667,206
17.52500,206
17.53333,205
17.54167,204
17.55000,202
17.55833,201
17.56667,200
17.57500,199
17.58333,199
17.59167,198
17.60000,197
17.60833,196
17.61667,195
17.62500,195
17.63333,194
17.64167,193
17.65000,192
17.65833,191
17.66667,189
17.67500,188
17.68333,187
17.69167,186
17.70000,186
17.70833,185
17.71667,185
17.72500,184
17.73333,183
17.74167,182
17.75000,182
17.75833,181
17.76667,180
17.77500,180
17.78333,179
17.79167,178
17.80000,178
17.80833,177
17.81667,177
17.82500,176
17.83333,175
17.84167,174
17.85000,173
17.85833,173
17.86667,172
17.87500,171
17.88333,170
17.89167,170
17.90000,169
17.90833,168
17.91667,168
17.92500,167
17.93333,166
17.94167,166
17.95000,165
17.95833,164
17.96667,164
17.97500,163
17.98333,163
17.99167,162
18.00000,161
18.00833,161
18.01667,160
18.02500,159
18.03333,159
18.04167,158
18.05000,157
18.05833,156
18.06667,156
18.07500,155
18.08333,155
18.09167,154
18.10000,153
18.10833,153
18.11667,152
18.12500,152
18.13333,151
18.14167,151
18.15000,150
18.15833,150
18.16667,149
18.17500,148
18.18333,147
18.19167,147
18.20000,146
18.20833,146
18.21667,145
18.22500,145
18.23333,144
18.24167,144
18.25000,143
18.25833,143
18.26667,142
18.27500,142
18.28333,141
18.29167,140
18.30000,139
18.30833,138
18.31667,138
18.32500,137
18.33333,137
18.34167,136
18.35000,136
18.35833,135
18.36667,134
18.37500,134
18.38333,133
18.39167,133
18.40000,133
18.40833,133
18.41667,132
18.42500,132
18.43333,132
18.44167,131
18.45000,131
18.45833,131
18.46667,131
18.47500,130
18.48333,130
18.49167,129
18.50000,128
18.50833,128
18.51667,127
18.52500,127
18.53333,127
18.54167,126
18.55000,125
18.55833,125
18.56667,125
18.57500,125
18.58333,125
18.59167,125
18.60000,125
18.60833,125
18.61667,125
18.62500,125
18.63333,126
18.64167,127
18.65000,127
18.65833,127
18.66667,127
18.67500,128
18.68333,129
18.69167,129
18.70000,130
18.70833,131
18.71667,132
18.72500,133
18.73333,135
18.74167,136
18.75000,138
18.75833,140
18.76667,142
18.77500,144
18.78333,146
18.79167,149
18.80000,152
18.80833,155
18.81667,158
18.82500,161
18.83333,164
18.84167,167
18.85000,171
18.85833,174
18.86667,177
18.87500,181
18.88333,184
18.89167,187
18.90000,189
18.90833,192
18.91667,195
18.92500,196
18.93333,198
18.94167,200
18.95000,201
18.95833,202
18.96667,203
18.97500,204
18.98333,204
18.99167,204
19.00000,204
19.00833,204
19.01667,203
19.02500,203
19.03333,202
19.04167,200
19.05000,199
19.05833,197
19.06667,195
19.07500,193
19.08333,190
19.09167,188
19.10000,184
19.10833,181
19.11667,178
19.12500,176
19.13333,173
19.14167,170
19.15000,166
19.15833,163
19.16667,159
19.17500,156
19.18333,152
19.19167,149
19.20000,146
19.20833,144
19.21667,141
19.22500,139
19.23333,136
19.24167,133
19.25000,131
19.25833,128
19.26667,126
19.27500,124
19.28333,122
19.29167,120
19.30000,118
19.30833,116
19.31667,114
19.32500,113
19.33333,111
19.34167,110
19.35000,108
19.35833,107
19.36667,107
19.37500,105
19.38333,104
19.39167,103
19.40000,102
19.40833,101
19.41667,100
19.42500,99
19.43333,99
19.44167,98
19.45000,98
19.45833,97
19.46667,96
19.47500,96
19.48333,96
19.49167,95
19.50000,95
19.50833,95
19.51667,95
19.52500,94
19.53333,93
19.54167,93
19.55000,92
19.55833,92
19.56667,92
19.57500,91
19.58333,91
19.59167,90
19.60000,90
19.60833,90
19.61667,90
19.62500,89
19.63333,89
19.64167,88
19.65000,88
19.65833,88
19.66667,88
19.67500,89
19.68333,89
19.69167,88
19.70000,88
19.70833,88
19.71667,88
19.72500,87
19.73333,87
19.74167,87
19.75000,86
19.75833,86
19.76667,86
19.77500,86
19.78333,86
19.79167,86
19.80000,85
19.80833,85
19.81667,85
19.82500,84
19.83333,84
19.84167,83
19.85000,83
19.85833,82
19.86667,82
19.87500,82
19.88333,82
19.89167,82
19.90000,82
19.90833,83
19.91667,83
19.92500,83
19.93333,83
19.94167,82
19.95000,82
19.95833,82
19.96667,82
19.97500,81
19.98333,81
19.99167,81
20.00000,81
20.00833,81
20.01667,81
20.02500,81
20.03333,81
20.04167,80
20.05000,80
20.05833,79
20.06667,79
20.07500,79
20.08333,79
20.09167,78
20.10000,78
20.10833,78
20.11667,78
20.12500,78
20.13333,78
20.14167,78
20.15000,78
20.15833,78
20.16667,78
20.17500,78
20.18333,77
20.19167,77
20.20000,77
20.20833,77
20.21667,76
20.22500,76
20.23333,76
20.24167,77
20.25000,76
20.25833,76
20.26667,75
20.27500,75
20.28333,75
20.29167,74
20.30000,74
20.30833,74
20.31667,74
20.32500,74
20.33333,74
20.34167,74
20.35000,74
20.35833,74
20.36667,74
20.37500,74
20.38333,73
20.39167,73
20.40000,74
20.40833,74
20.41667,74
20.42500,74
20.43333,74
20.44167,73
20.45000,73
20.45833,73
20.46667,72
20.47500,72
20.48333,72
20.49167,71
20.50000,71
20.50833,71
20.51667,71
20.52500,71
20.53333,71
20.54167,70
20.55000,70
20.55833,70
20.56667,70
20.57500,70
20.58333,70
20.59167,70
20.60000,69
20.60833,69
20.61667,69
20.62500,69
20.63333,69
20.64167,69
20.65000,69
20.65833,69
20.66667,69
20.67500,68
20.68333,68
20.69167,68
20.70000,68
20.70833,68
20.71667,68
20.72500,68
20.73333,67
20.74167,67
20.75000,67
20.75833,67
20.76667,68
20.77500,68
20.78333,67
20.79167,67
20.80000,67
20.80833,67
20.81667,67
20.82500,67
20.83333,67
20.84167,67
20.85000,67
20.85833,67
20.86667,67
20.87500,67
20.88333,66
20.89167,66
20.90000,66
20.90833,66
20.91667,66
20.92500,65
20.93333,65
20.94167,65
20.95000,65
20.95833,65
20.96667,65
20.97500,65
20.98333,65
20.99167,65
21.00000,65
21.00833,65
21.01667,64
21.02500,64
21.03333,64
21.04167,64
21.05000,64
21.05833,64
21.06667,64
21.07500,63
21.08333,63
21.09167,63
21.10000,63
21.10833,62
21.11667,63
21.12500,63
21.13333,63
21.14167,63
21.15000,63
21.15833,63
21.16667,63
21.17500,63
21.18333,63
21.19167,63
21.20000,63
21.20833,63
21.21667,63
21.22500,63
21.23333,62
21.24167,62
21.25000,62
21.25833,62
21.26667,62
21.27500,63
21.28333,63
21.29167,63
21.30000,63
21.30833,63
21.31667,62
21.32500,62
21.33333,62
21.34167,62
21.35000,62
21.35833,62
21.36667,61
21.37500,61
21.38333,61
21.39167,61
21.40000,61
21.40833,61
21.41667,61
21.42500,62
21.43333,62
21.44167,61
21.45000,61
21.45833,61
21.46667,61
21.47500,61
21.48333,62
21.49167,62
21.50000,62
21.50833,62
21.51667,62
21.52500,62
21.53333,62
21.54167,62
21.55000,62
21.55833,62
21.56667,62
21.57500,62
21.58333,62
21.59167,62
21.60000,62
21.60833,62
21.61667,62
21.62500,62
21.63333,62
21.64167,62
21.65000,62
21.65833,63
21.66667,63
21.67500,63
21.68333,63
21.69167,63
21.70000,63
21.70833,63
21.71667,63
21.72500,64
21.73333,64
21.74167,64
21.75000,65
21.75833,65
21.76667,65
21.77500,65
21.78333,65
21.79167,65
21.80000,65
21.80833,64
21.81667,64
21.82500,64
21.83333,64
21.84167,64
21.85000,64
21.85833,65
21.86667,65
21.87500,65
21.88333,65
21.89167,65
21.90000,65
21.90833,66
21.91667,66
21.92500,65
21.93333,65
21.94167,65
21.95000,65
21.95833,65
21.96667,65
21.97500,65
21.98333,65
21.99167,65
22.00000,65
22.00833,65
22.01667,65
22.02500,65
22.03333,64
22.04167,64
22.05000,64
22.05833,63
22.06667,63
22.07500,63
22.08333,63
22.09167,63
22.10000,63
22.10833,63
22.11667,62
22.12500,62
22.13333,62
22.14167,62
22.15000,62
22.15833,62
22.16667,62
22.17500,62
22.18333,62
22.19167,62
22.20000,62
22.20833,62
22.21667,62
22.22500,62
22.23333,61
22.24167,61
22.25000,61
22.25833,61
22.26667,61
22.27500,60
22.28333,60
22.29167,60
22.30000,59
22.30833,59
22.31667,59
22.32500,59
22.33333,59
22.34167,59
22.35000,59
22.35833,59
22.36667,59
22.37500,59
22.38333,59
22.39167,58
22.40000,58
22.40833,59
22.41667,59
22.42500,58
22.43333,58
22.44167,58
22.45000,58
22.45833,58
22.46667,58
22.47500,58
22.48333,58
22.49167,58
22.50000,57
22.50833,57
22.51667,57
22.52500,57
22.53333,57
22.54167,57
22.55000,58
22.55833,58
22.56667,58
22.57500,58
22.58333,58
22.59167,58
22.60000,58
22.60833,58
22.61667,58
22.62500,58
22.63333,58
22.64167,58
22.65000,58
22.65833,58
22.66667,58
22.67500,58
22.68333,58
22.69167,58
22.70000,58
22.70833,58
22.71667,58
22.72500,58
22.73333,58
22.74167,58
22.75000,57
22.75833,57
22.76667,57
22.77500,57
22.78333,57
22.79167,58
22.80000,58
22.80833,58
22.81667,58
22.82500,58
22.83333,58
22.84167,59
22.85000,59
22.85833,59
22.86667,59
22.87500,59
22.88333,60
22.89167,60
22.90000,61
22.90833,61
22.91667,61
22.92500,62
22.93333,62
22.94167,63
22.95000,63
22.95833,63
22.96667,64
22.97500,64
22.98333,64
22.99167,65
23.00000,65
23.00833,65
23.01667,66
23.02500,67
23.03333,68
23.04167,69
23.05000,70
23.05833,71
23.06667,71
23.07500,72
23.08333,72
23.09167,72
23.10000,73
23.10833,74
23.11667,74
23.12500,75
23.13333,75
23.14167,76
23.15000,76
23.15833,76
23.16667,76
23.17500,77
23.18333,77
23.19167,78
23.20000,78
23.20833,78
23.21667,79
23.22500,79
23.23333,79
23.24167,79
23.25000,79
23.25833,79
23.26667,79
23.27500,78
23.28333,78
23.29167,77
23.30000,77
23.30833,77
23.31667,76
23.32500,76
23.33333,75
23.34167,75
23.35000,75
23.35833,75
23.36667,74
23.37500,74
23.38333,73
23.39167,72
23.40000,71
23.40833,71
23.41667,70
23.42500,70
23.43333,70
23.44167,69
23.45000,68
23.45833,67
23.46667,67
23.47500,66
23.48333,66
23.49167,66
23.50000,65
23.50833,65
23.51667,64
23.52500,64
23.53333,63
23.54167,63
23.55000,62
23.55833,62
23.56667,61
23.57500,61
23.58333,61
23.59167,61
23.60000,61
23.60833,61
23.61667,61
23.62500,61
23.63333,61
23.64167,60
23.65000,60
23.65833,60
23.66667,60
23.67500,59
23.68333,59
23.69167,59
23.70000,59
23.70833,58
23.71667,58
23.72500,58
23.73333,59
23.74167,59
23.75000,59
23.75833,59
23.76667,59
23.77500,59
23.78333,58
23.79167,58
23.80000,58
23.80833,57
23.81667,57
23.82500,57
23.83333,57
23.84167,57
23.85000,57
23.85833,57
23.86667,56
23.87500,56
23.88333,56
23.89167,56
23.90000,56
23.90833,56
23.91667,56
23.92500,56
23.93333,56
23.94167,56
23.95000,55
23.95833,55
23.96667,55
23.97500,56
23.98333,56
23.99167,56
24.00000,56
24.00833,56
24.01667,56
24.02500,56
24.03333,56
24.04167,57
24.05000,57
24.05833,57
24.06667,57
24.07500,57
24.08333,57
24.09167,56
24.10000,56
24.10833,56
24.11667,56
24.12500,56
24.13333,56
24.14167,56
24.15000,56
24.15833,56
24.16667,56
24.17500,56
24.18333,56
24.19167,56
24.20000,57
24.20833,57
24.21667,57
24.22500,57
24.23333,57
24.24167,58
24.25000,58
24.25833,58
24.26667,57
24.27500,57
24.28333,57
24.29167,57
24.30000,57
24.30833,57
24.31667,57
24.32500,57
24.33333,57
24.34167,57
24.35000,57
24.35833,57
24.36667,57
24.37500,57
24.38333,57
24.39167,57
24.40000,58
24.40833,58
24.41667,58
24.42500,58
24.43333,58
24.44167,58
24.45000,59
24.45833,59
24.46667,59
24.47500,60
24.48333,61
24.49167,61
24.50000,62
24.50833,62
24.51667,63
24.52500,63
24.53333,64
24.54167,64
24.55000,64
24.55833,65
24.56667,65
24.57500,66
24.58333,68
24.59167,69
24.60000,70
24.60833,72
24.61667,73
24.62500,75
24.63333,77
24.64167,79
24.65000,81
24.65833,83
24.66667,85
24.67500,88
24.68333,91
24.69167,94
24.70000,97
24.70833,101
24.71667,104
24.72500,108
24.73333,112
24.74167,116
24.75000,121
24.75833,126
24.76667,131
24.77500,136
24.78333,141
24.79167,147
24.80000,153
24.80833,158
24.81667,164
24.82500,171
24.83333,177
24.84167,184
24.85000,191
24.85833,197
24.86667,204
24.87500,211
24.88333,217
24.89167,224
24.90000,230
24.90833,237
24.91667,243
24.92500,249
24.93333,255
24.94167,261
24.95000,266
24.95833,271
24.96667,275
24.97500,280
24.98333,284
24.99167,287
25.00000,290
25.00833,293
25.01667,296
25.02500,297
25.03333,299
25.04167,299
25.05000,299
25.05833,299
25.06667,298
25.07500,297
25.08333,296
25.09167,294
25.10000,291
25.10833,289
25.11667,286
25.12500,283
25.13333,279
25.14167,275
25.15000,270
25.15833,266
25.16667,261
25.17500,256
25.18333,250
25.19167,245
25.20000,239
25.20833,233
25.21667,227
25.22500,221
25.23333,214
25.24167,208
25.25000,202
25.25833,196
25.26667,190
25.27500,184
25.28333,177
25.29167,171
25.30000,166
25.30833,160
25.31667,155
25.32500,150
25.33333,145
25.34167,140
25.35000,136
25.35833,132
25.36667,128
25.37500,124
25.38333,120
25.39167,116
25.40000,113
25.40833,109
25.41667,106
25.42500,103
25.43333,100
25.44167,97
25.45000,95
25.45833,93
25.46667,90
25.47500,88
25.48333,86
25.49167,84
25.50000,83
25.50833,81
25.51667,80
25.52500,78
25.53333,77
25.54167,75
25.55000,74
25.55833,73
25.56667,72
25.57500,72
25.58333,72
25.59167,72
25.60000,71
25.60833,71
25.61667,70
25.62500,69
25.63333,69
25.64167,68
25.65000,68
25.65833,67
25.66667,67
25.67500,67
25.68333,66
25.69167,66
25.70000,66
25.70833,66
25.71667,66
25.72500,65
25.73333,65
25.74167,64
25.75000,64
25.75833,64
25.76667,64
25.77500,64
25.78333,64
25.79167,64
25.80000,64
25.80833,64
25.81667,64
25.82500,64
25.83333,64
25.84167,64
25.85000,64
25.85833,64
25.86667,65
25.87500,65
25.88333,65
25.89167,65
25.90000,65
25.90833,65
25.91667,65
25.92500,65
25.93333,64
25.94167,64
25.95000,64
25.95833,64
25.96667,65
25.97500,65
25.98333,65
25.99167,65
26.00000,65
26.00833,66
26.01667,66
26.02500,66
26.03333,66
26.04167,66
26.05000,66
26.05833,66
26.06667,66
26.07500,66
26.08333,66
26.09167,66
26.10000,66
26.10833,66
26.11667,66
26.12500,66
26.13333,66
26.14167,65
26.15000,65
26.15833,65
26.16667,65
26.17500,65
26.18333,65
26.19167,65
26.20000,65
26.20833,65
26.21667,66
26.22500,66
26.23333,66
26.24167,66
26.25000,65
26.25833,65
26.26667,65
26.27500,65
26.28333,65
26.29167,65
26.30000,65
26.30833,66
26.31667,66
26.32500,67
26.33333,67
26.34167,67
26.35000,67
26.35833,67
26.36667,67
26.37500,67
26.38333,66
26.39167,66
26.40000,66
26.40833,66
26.41667,66
26.42500,66
26.43333,66
26.44167,66
26.45000,66
26.45833,66
26.46667,67
26.47500,67
26.48333,67
26.49167,67
26.50000,67
26.50833,67
26.51667,67
26.52500,66
26.53333,66
26.54167,66
26.55000,66
26.55833,66
26.56667,66
26.57500,66
26.58333,66
26.59167,66
26.60000,66
26.60833,66
26.61667,66
26.62500,66
26.63333,66
26.64167,65
26.65000,66
26.65833,66
26.66667,66
26.67500,66
26.68333,66
26.69167,66
26.70000,66
26.70833,66
26.71667,66
26.72500,66
26.73333,67
26.74167,67
26.75000,67
26.75833,67
26.76667,67
26.77500,67
26.78333,67
26.79167,67
26.80000,66
26.80833,66
26.81667,67
26.82500,66
26.83333,66
26.84167,66
26.85000,66
26.85833,66
26.86667,67
26.87500,67
26.88333,67
26.89167,67
26.90000,67
26.90833,67
26.91667,67
26.92500,67
26.93333,67
26.94167,67
26.95000,67
26.95833,67
26.96667,68
26.97500,68
26.98333,68
26.99167,68
27.00000,68
27.00833,68
27.01667,68
27.02500,67
27.03333,67
27.04167,67
27.05000,67
27.05833,67
27.06667,68
27.07500,68
27.08333,68
27.09167,69
27.10000,69
27.10833,69
27.11667,69
27.12500,69
27.13333,69
27.14167,70
27.15000,70
27.15833,70
27.16667,70
27.17500,70
27.18333,70
27.19167,69
27.20000,70
27.20833,70
27.21667,70
27.22500,70
27.23333,70
27.24167,70
27.25000,70
27.25833,70
27.26667,70
27.27500,70
27.28333,70
27.29167,69
27.30000,69
27.30833,69
27.31667,69
27.32500,69
27.33333,69
27.34167,70
27.35000,70
27.35833,70
27.36667,70
27.37500,70
27.38333,70
27.39167,70
27.40000,71
27.40833,71
27.41667,71
27.42500,71
27.43333,71
27.44167,71
27.45000,71
27.45833,71
27.46667,71
27.47500,72
27.48333,72
27.49167,72
27.50000,72
27.50833,72
27.51667,72
27.52500,72
27.53333,71
27.54167,71
27.55000,71
27.55833,71
27.56667,71
27.57500,71
27.58333,71
27.59167,71
27.60000,71
27.60833,71
27.61667,71
27.62500,71
27.63333,71
27.64167,72
27.65000,72
27.65833,72
27.66667,72
27.67500,71
27.68333,71
27.69167,71
27.70000,70
27.70833,69
27.71667,69
27.72500,68
27.73333,68
27.74167,68
27.75000,67
27.75833,67
27.76667,66
27.77500,65
27.78333,65
27.79167,64
27.80000,62
27.80833,61
27.81667,60
27.82500,58
27.83333,56
27.84167,55
27.85000,53
27.85833,51
27.86667,49
27.87500,47
27.88333,45
27.89167,42
27.90000,40
27.90833,36
27.91667,33
27.92500,30
27.93333,26
27.94167,22
27.95000,18
27.95833,13
27.96667,8
27.97500,3
27.98333,-3
27.99167,-8
28.00000,-14
28.00833,-21
28.01667,-27
28.02500,-35
28.03333,-43
28.04167,-51
28.05000,-59
28.05833,-68
28.06667,-77
28.07500,-87
28.08333,-97
28.09167,-107
28.10000,-118
28.10833,-129
28.11667,-141
28.12500,-153
28.13333,-165
28.14167,-178
28.15000,-192
28.15833,-205
28.16667,-219
28.17500,-234
28.18333,-248
28.19167,-263
28.20000,-278
28.20833,-293
28.21667,-308
28.22500,-323
28.23333,-339
28.24167,-355
28.25000,-371
28.25833,-386
28.26667,-402
28.27500,-418
28.28333,-434
28.29167,-449
28.30000,-465
28.30833,-481
28.31667,-496
28.32500,-510
28.33333,-524
28.34167,-538
28.35000,-552
28.35833,-565
28.36667,-578
28.37500,-590
28.38333,-602
28.39167,-613
28.40000,-623
28.40833,-633
28.41667,-642
28.42500,-651
28.43333,-659
28.44167,-666
28.45000,-673
28.45833,-678
28.46667,-683
28.47500,-688
28.48333,-691
28.49167,-694
28.50000,-696
28.50833,-697
28.51667,-698
28.52500,-697
28.53333,-697
28.54167,-695
28.55000,-693
28.55833,-690
28.56667,-687
28.57500,-683
28.58333,-678
28.59167,-673
28.60000,-667
28.60833,-661
28.61667,-655
28.62500,-648
28.63333,-641
28.64167,-634
28.65000,-626
28.65833,-618
28.66667,-609
28.67500,-600
28.68333,-591
28.69167,-582
28.70000,-573
28.70833,-563
28.71667,-554
28.72500,-544
28.73333,-534
28.74167,-524
28.75000,-515
28.75833,-505
28.76667,-495
28.77500,-486
28.78333,-477
28.79167,-467
28.80000,-458
28.80833,-448
28.81667,-439
28.82500,-431
28.83333,-422
28.84167,-414
28.85000,-406
28.85833,-398
28.86667,-390
28.87500,-383
28.88333,-375
28.89167,-368
28.90000,-361
28.90833,-354
28.91667,-348
28.92500,-342
28.93333,-336
28.94167,-330
28.95000,-325
28.95833,-319
28.96667,-314
28.97500,-309
28.98333,-305
28.99167,-301
29.00000,-297
29.00833,-293
29.01667,-288
29.02500,-285
29.03333,-281
29.04167,-278
29.05000,-275
29.05833,-272
29.06667,-269
29.07500,-266
29.08333,-264
29.09167,-261
29.10000,-258
29.10833,-256
29.11667,-253
29.12500,-251
29.13333,-249
29.14167,-247
29.15000,-245
29.15833,-243
29.16667,-241
29.17500,-240
29.18333,-238
29.19167,-237
29.20000,-235
29.20833,-233
29.21667,-232
29.22500,-230
29.23333,-229
29.24167,-228
29.25000,-226
29.25833,-225
29.26667,-223
29.27500,-222
29.28333,-221
29.29167,-221
29.30000,-220
29.30833,-219
29.31667,-219
29.32500,-218
29.33333,-217
29.34167,-217
29.35000,-216
29.35833,-215
29.36667,-214
29.37500,-214
29.38333,-213
29.39167,-212
29.40000,-212
29.40833,-211
29.41667,-210
29.42500,-210
29.43333,-209
29.44167,-208
29.45000,-208
29.45833,-207
29.46667,-206
29.47500,-206
29.48333,-206
29.49167,-205
29.50000,-205
29.50833,-205
29.51667,-205
29.52500,-205
29.53333,-204
29.54167,-205
29.55000,-205
29.55833,-205
29.56667,-205
29.57500,-205
29.58333,-205
29.59167,-205
29.60000,-205
29.60833,-205
29.61667,-206
29.62500,-206
29.63333,-207
29.64167,-208
29.65000,-209
29.65833,-209
29.66667,-210
29.67500,-211
29.68333,-213
29.69167,-214
29.70000,-215
29.70833,-216
29.71667,-218
29.72500,-219
29.73333,-221
29.74167,-223
29.75000,-225
29.75833,-227
29.76667,-229
29.77500,-232
29.78333,-234
29.79167,-236
29.80000,-239
29.80833,-241
29.81667,-243
29.82500,-246
29.83333,-249
29.84167,-252
29.85000,-255
29.85833,-258
29.86667,-262
29.87500,-265
29.88333,-269
29.89167,-272
29.90000,-276
29.90833,-279
29.91667,-284
29.92500,-288
29.93333,-292
29.94167,-296
29.95000,-300
29.95833,-304
29.96667,-308
29.97500,-313
29.98333,-317
29.99167,-321
30.00000,-326
30.00833,-330
30.01667,-334
30.02500,-338
30.03333,-342
30.04167,-346
30.05000,-350
30.05833,-354
30.06667,-358
30.07500,-362
30.08333,-365
30.09167,-368
30.10000,-371
30.10833,-374
30.11667,-377
30.12500,-380
30.13333,-383
30.14167,-386
30.15000,-388
30.15833,-390
30.16667,-393
30.17500,-395
30.18333,-396
30.19167,-398
30.20000,-399
30.20833,-401
30.21667,-402
30.22500,-403
30.23333,-403
30.24167,-403
30.25000,-403
30.25833,-403
30.26667,-402
30.27500,-402
30.28333,-401
30.29167,-400
30.30000,-399
30.30833,-397
30.31667,-396
30.32500,-394
30.33333,-391
30.34167,-389
30.35000,-387
30.35833,-385
30.36667,-382
30.37500,-379
30.38333,-376
30.39167,-373
30.40000,-370
30.40833,-366
30.41667,-363
30.42500,-360
30.43333,-357
30.44167,-354
30.45000,-351
30.45833,-348
30.46667,-344
30.47500,-340
30.48333,-336
30.49167,-333
30.50000,-329
30.50833,-325
30.51667,-321
30.52500,-317
30.53333,-313
30.54167,-309
30.55000,-306
30.55833,-302
30.56667,-298
30.57500,-295
30.58333,-291
30.59167,-288
30.60000,-284
30.60833,-281
30.61667,-277
30.62500,-274
30.63333,-271
30.64167,-268
30.65000,-265
30.65833,-263
30.66667,-260
30.67500,-257
30.68333,-254
30.69167,-251
30.70000,-249
30.70833,-246
30.71667,-243
30.72500,-241
30.73333,-239
30.74167,-237
30.75000,-235
30.75833,-232
30.76667,-230
30.77500,-228
30.78333,-226
30.79167,-224
30.80000,-222
30.80833,-220
30.81667,-219
30.82500,-217
30.83333,-215
30.84167,-214
30.85000,-213
30.85833,-211
30.86667,-210
30.87500,-209
30.88333,-207
30.89167,-206
30.90000,-206
30.90833,-205
30.91667,-204
30.92500,-203
30.93333,-202
30.94167,-201
30.95000,-199
30.95833,-198
30.96667,-197
30.97500,-196
30.98333,-195
30.99167,-194
31.00000,-192
31.00833,-191
31.01667,-190
31.02500,-189
31.03333,-188
31.04167,-187
31.05000,-186
31.05833,-186
31.06667,-185
31.07500,-183
31.08333,-182
31.09167,-181
31.10000,-181
31.10833,-180
31.11667,-180
31.12500,-179
31.13333,-178
31.14167,-177
31.15000,-176
31.15833,-174
31.16667,-173
31.17500,-172
31.18333,-170
31.19167,-169
31.20000,-167
31.20833,-166
31.21667,-164
31.22500,-163
31.23333,-162
31.24167,-161
31.25000,-159
31.25833,-158
31.26667,-157
31.27500,-156
31.28333,-155
31.29167,-154
31.30000,-152
31.30833,-151
31.31667,-150
31.32500,-150
31.33333,-149
31.34167,-147
31.35000,-146
31.35833,-144
31.36667,-143
31.37500,-141
31.38333,-139
31.39167,-138
31.40000,-137
31.40833,-135
31.41667,-134
31.42500,-133
31.43333,-131
31.44167,-130
31.45000,-128
31.45833,-127
31.46667,-126
31.47500,-124
31.48333,-123
31.49167,-122
31.50000,-120
31.50833,-119
31.51667,-118
31.52500,-118
31.53333,-117
31.54167,-116
31.55000,-115
31.55833,-114
31.56667,-113
31.57500,-112
31.58333,-111
31.59167,-110
31.60000,-108
31.60833,-107
31.61667,-106
31.62500,-105
31.63333,-104
31.64167,-103
31.65000,-102
31.65833,-100
31.66667,-99
31.67500,-98
31.68333,-97
31.69167,-96
31.70000,-95
31.70833,-94
31.71667,-93
31.72500,-93
31.73333,-92
31.74167,-91
31.75000,-90
31.75833,-90
31.76667,-89
31.77500,-88
31.78333,-87
31.79167,-86
31.80000,-85
31.80833,-84
31.81667,-83
31.82500,-82
31.83333,-81
31.84167,-80
31.85000,-80
31.85833,-79
31.86667,-78
31.87500,-77
31.88333,-77
31.89167,-76
31.90000,-76
31.90833,-75
31.91667,-75
31.92500,-74
31.93333,-73
31.94167,-73
31.95000,-73
31.95833,-72
31.96667,-71
31.97500,-71
31.98333,-70
31.99167,-69
32.00000,-69
32.00833,-68
32.01667,-68
32.02500,-68
32.03333,-67
32.04167,-67
32.05000,-66
32.05833,-65
32.06667,-65
32.07500,-64
32.08333,-64
32.09167,-63
32.10000,-63
32.10833,-62
32.11667,-61
32.12500,-60
32.13333,-60
32.14167,-59
32.15000,-58
32.15833,-57
32.16667,-57
32.17500,-57
32.18333,-56
32.19167,-56
32.20000,-56
32.20833,-56
32.21667,-56
32.22500,-55
32.23333,-55
32.24167,-54
32.25000,-53
32.25833,-53
32.26667,-52
32.27500,-52
32.28333,-51
32.29167,-50
32.30000,-49
32.30833,-48
32.31667,-47
32.32500,-47
32.33333,-46
32.34167,-46
32.35000,-45
32.35833,-44
32.36667,-43
32.37500,-43
32.38333,-42
32.39167,-42
32.40000,-42
32.40833,-42
32.41667,-41
32.42500,-41
32.43333,-41
32.44167,-40
32.45000,-40
32.45833,-39
32.46667,-38
32.47500,-37
32.48333,-36
32.49167,-36
32.50000,-36
32.50833,-35
32.51667,-34
32.52500,-34
32.53333,-33
32.54167,-33
32.55000,-32
32.55833,-31
32.56667,-30
32.57500,-30
32.58333,-30
32.59167,-29
32.60000,-29
32.60833,-28
32.61667,-28
32.62500,-27
32.63333,-27
32.64167,-26
32.65000,-25
32.65833,-25
32.66667,-24
32.67500,-24
32.68333,-23
32.69167,-22
32.70000,-21
32.70833,-21
32.71667,-20
32.72500,-19
32.73333,-19
32.74167,-18
32.75000,-18
32.75833,-17
32.76667,-16
32.77500,-15
32.78333,-15
32.79167,-15
32.80000,-15
32.80833,-15
32.81667,-14
32.82500,-14
32.83333,-13
32.84167,-13
32.85000,-13
32.85833,-13
32.86667,-12
32.87500,-12
32.88333,-11
32.89167,-10
32.90000,-10
32.90833,-9
32.91667,-8
32.92500,-7
32.93333,-7
32.94167,-6
32.95000,-5
32.95833,-4
32.96667,-3
32.97500,-2
32.98333,-2
32.99167,-1
33.00000,-1
33.00833,-1
33.01667,-0
33.02500,0
33.03333,1
33.04167,1
33.05000,2
33.05833,2
33.06667,3
33.07500,3
33.08333,3
33.09167,4
33.10000,4
33.10833,4
33.11667,5
33.12500,5
33.13333,6
33.14167,7
33.15000,7
33.15833,8
33.16667,8
33.17500,9
33.18333,10
33.19167,10
33.20000,11
33.20833,11
33.21667,11
33.22500,12
33.23333,12
33.24167,12
33.25000,13
33.25833,14
33.26667,14
33.27500,15
33.28333,15
33.29167,16
33.30000,16
33.30833,17
33.31667,17
33.32500,18
33.33333,18
33.34167,18
33.35000,19
33.35833,19
33.36667,20
33.37500,20
33.38333,21
33.39167,21
33.40000,22
33.40833,23
33.41667,23
33.42500,23
33.43333,24
33.44167,24
33.45000,24
33.45833,25
33.46667,25
33.47500,25
33.48333,26
33.49167,26
33.50000,26
33.50833,26
33.51667,27
33.52500,27
33.53333,27
33.54167,28
33.55000,28
33.55833,28
33.56667,29
33.57500,29
33.58333,30
33.59167,30
33.60000,31
33.60833,31
33.61667,32
33.62500,33
33.63333,33
33.64167,34
33.65000,34
33.65833,34
33.66667,35
33.67500,35
33.68333,36
33.69167,36
33.70000,36
33.70833,37
33.71667,37
33.72500,37
33.73333,37
33.74167,37
33.75000,37
33.75833,37
33.76667,38
33.77500,38
33.78333,39
33.79167,39
33.80000,39
33.80833,39
33.81667,40
33.82500,41
33.83333,41
33.84167,42
33.85000,42
33.85833,42
33.86667,42
33.87500,42
33.88333,43
33.89167,43
33.90000,44
33.90833,44
33.91667,45
33.92500,45
33.93333,46
33.94167,46
33.95000,45
33.95833,45
33.96667,45
33.97500,45
33.98333,46
33.99167,46
34.00000,46
34.00833,46
34.01667,47
34.02500,47
34.03333,47
34.04167,48
34.05000,48
34.05833,48
34.06667,49
34.07500,49
34.08333,50
34.09167,51
34.10000,51
34.10833,51
34.11667,51
34.12500,51
34.13333,51
34.14167,52
34.15000,52
34.15833,52
34.16667,52
34.17500,52
34.18333,52
34.19167,52
34.20000,52
34.20833,53
34.21667,53
34.22500,54
34.23333,54
34.24167,55
34.25000,55
34.25833,55
34.26667,55
34.27500,55
34.28333,55
34.29167,55
34.30000,55
34.30833,56
34.31667,56
34.32500,57
34.33333,57
34.34167,57
34.35000,57
34.35833,58
34.36667,58
34.37500,58
34.38333,58
34.39167,59
34.40000,59
34.40833,59
34.41667,59
34.42500,59
34.43333,59
34.44167,58
34.45000,59
34.45833,59
34.46667,59
34.47500,59
34.48333,59
34.49167,59
34.50000,59
34.50833,59
34.51667,59
34.52500,59
34.53333,60
34.54167,61
34.55000,61
34.55833,61
34.56667,61
34.57500,61
34.58333,61
34.59167,62
34.60000,62
34.60833,62
34.61667,61
34.62500,61
34.63333,61
34.64167,62
34.65000,62
34.65833,62
34.66667,62
34.67500,63
34.68333,63
34.69167,63
34.70000,63
34.70833,63
34.71667,63
34.72500,63
34.73333,63
34.74167,63
34.75000,63
34.75833,63
34.76667,64
34.77500,64
34.78333,64
34.79167,64
34.80000,64
34.80833,65
34.81667,65
34.82500,64
34.83333,64
34.84167,64
34.85000,64
34.85833,64
34.86667,64
34.87500,64
34.88333,64
34.89167,64
34.90000,64
34.90833,64
34.91667,64
34.92500,64
34.93333,64
34.94167,64
34.95000,64
34.95833,64
34.96667,64
34.97500,64
34.98333,64
34.99167,64
35.00000,64
35.00833,65
35.01667,65
35.02500,65
35.03333,65
35.04167,65
35.05000,66
35.05833,66
35.06667,66
35.07500,66
35.08333,66
35.09167,66
35.10000,66
35.10833,66
35.11667,66
35.12500,66
35.13333,66
35.14167,66
35.15000,66
35.15833,66
35.16667,66
35.17500,66
35.18333,66
35.19167,66
35.20000,66
35.20833,66
35.21667,66
35.22500,66
35.23333,66
35.24167,66
35.25000,66
35.25833,66
35.26667,66
35.27500,66
35.28333,66
35.29167,66
35.30000,67
35.30833,67
35.31667,67
35.32500,67
35.33333,67
35.34167,67
35.35000,68
35.35833,68
35.36667,68
35.37500,68
35.38333,68
35.39167,68
35.40000,68
35.40833,68
35.41667,68
35.42500,68
35.43333,68
35.44167,68
35.45000,68
35.45833,68
35.46667,68
35.47500,68
35.48333,68
35.49167,68
35.50000,68
35.50833,68
35.51667,68
35.52500,68
35.53333,68
35.54167,68
35.55000,68
35.55833,68
35.56667,68
35.57500,69
35.58333,69
35.59167,69
35.60000,69
35.60833,69
35.61667,69
35.62500,69
35.63333,69
35.64167,69
35.65000,70
35.65833,70
35.66667,70
35.67500,70
35.68333,70
35.69167,71
35.70000,71
35.70833,71
35.71667,71
35.72500,71
35.73333,71
35.74167,71
35.75000,70
35.75833,70
35.76667,70
35.77500,70
35.78333,70
35.79167,70
35.80000,71
35.80833,71
35.81667,71
35.82500,71
35.83333,71
35.84167,71
35.85000,71
35.85833,71
35.86667,71
35.87500,71
35.88333,71
35.89167,71
35.90000,72
35.90833,72
35.91667,72
35.92500,72
35.93333,72
35.94167,72
35.95000,72
35.95833,71
35.96667,71
35.97500,72
35.98333,72
35.99167,72
36.00000,72
36.00833,71
36.01667,71
36.02500,71
36.03333,71
36.04167,71
36.05000,72
36.05833,72
36.06667,72
36.07500,73
36.08333,73
36.09167,73
36.10000,73
36.10833,73
36.11667,73
36.12500,73
36.13333,73
36.14167,72
36.15000,72
36.15833,72
36.16667,72
36.17500,72
36.18333,71
36.19167,71
36.20000,71
36.20833,71
36.21667,72
36.22500,72
36.23333,72
36.24167,72
36.25000,72
36.25833,72
36.26667,72
36.27500,72
36.28333,72
36.29167,72
36.30000,72
36.30833,72
36.31667,72
36.32500,72
36.33333,73
36.34167,73
36.35000,73
36.35833,73
36.36667,73
36.37500,73
36.38333,73
36.39167,72
36.40000,72
36.40833,72
36.41667,72
36.42500,73
36.43333,73
36.44167,74
36.45000,74
36.45833,74
36.46667,74
36.47500,75
36.48333,75
36.49167,75
36.50000,75
36.50833,76
36.51667,76
36.52500,76
36.53333,77
36.54167,77
36.55000,77
36.55833,77
36.56667,78
36.57500,78
36.58333,78
36.59167,78
36.60000,78
36.60833,79
36.61667,79
36.62500,79
36.63333,79
36.64167,79
36.65000,80
36.65833,80
36.66667,80
36.67500,81
36.68333,81
36.69167,82
36.70000,83
36.70833,83
36.71667,84
36.72500,84
36.73333,84
36.74167,84
36.75000,85
36.75833,86
36.76667,86
36.77500,86
36.78333,87
36.79167,87
36.80000,88
36.80833,88
36.81667,89
36.82500,89
36.83333,89
36.84167,90
36.85000,90
36.85833,90
36.86667,90
36.87500,91
36.88333,91
36.89167,92
36.90000,92
36.90833,93
36.91667,93
36.92500,94
36.93333,95
36.94167,95
36.95000,95
36.95833,96
36.96667,96
36.97500,97
36.98333,97
36.99167,97
37.00000,98
37.00833,98
37.01667,98
37.02500,99
37.03333,100
37.04167,100
37.05000,100
37.05833,100
37.06667,100
37.07500,100
37.08333,100
37.09167,101
37.10000,101
37.10833,100
37.11667,100
37.12500,100
37.13333,100
37.14167,101
37.15000,101
37.15833,101
37.16667,101
37.17500,101
37.18333,101
37.19167,100
37.20000,100
37.20833,100
37.21667,100
37.22500,100
37.23333,100
37.24167,100
37.25000,100
37.25833,99
37.26667,99
37.27500,99
37.28333,98
37.29167,98
37.30000,98
37.30833,98
37.31667,98
37.32500,97
37.33333,97
37.34167,96
37.35000,96
37.35833,96
37.36667,96
37.37500,96
37.38333,95
37.39167,95
37.40000,95
37.40833,94
37.41667,94
37.42500,93
37.43333,93
37.44167,92
37.45000,92
37.45833,92
37.46667,92
37.47500,91
37.48333,91
37.49167,90
37.50000,90
37.50833,90
37.51667,89
37.52500,89
37.53333,88
37.54167,88
37.55000,87
37.55833,87
37.56667,86
37.57500,86
37.58333,86
37.59167,86
37.60000,85
37.60833,85
37.61667,85
37.62500,84
37.63333,84
37.64167,84
37.65000,84
37.65833,83
37.66667,83
37.67500,83
37.68333,83
37.69167,83
37.70000,83
37.70833,82
37.71667,82
37.72500,82
37.73333,81
37.74167,81
37.75000,80
37.75833,80
37.76667,80
37.77500,80
37.78333,79
37.79167,79
37.80000,78
37.80833,78
37.81667,78
37.82500,78
37.83333,77
37.84167,77
37.85000,77
37.85833,77
37.86667,77
37.87500,77
37.88333,77
37.89167,77
37.90000,77
37.90833,77
37.91667,76
37.92500,76
37.93333,76
37.94167,76
37.95000,76
37.95833,75
37.96667,75
37.97500,75
37.98333,75
37.99167,75
38.00000,75
38.00833,75
38.01667,75
38.02500,75
38.03333,74
38.04167,74
38.05000,74
38.05833,74
38.06667,74
38.07500,74
38.08333,75
38.09167,74
38.10000,74
38.10833,74
38.11667,75
38.12500,75
38.13333,75
38.14167,76
38.15000,76
38.15833,76
38.16667,76
38.17500,76
38.18333,75
38.19167,75
38.20000,74
38.20833,74
38.21667,74
38.22500,74
38.23333,74
38.24167,74
38.25000,74
38.25833,74
38.26667,74
38.27500,74
38.28333,74
38.29167,74
38.30000,74
38.30833,74
38.31667,74
38.32500,74
38.33333,74
38.34167,74
38.35000,74
38.35833,75
38.36667,75
38.37500,75
38.38333,75
38.39167,75
38.40000,75
38.40833,75
38.41667,75
38.42500,75
38.43333,75
38.44167,74
38.45000,75
38.45833,75
38.46667,74
38.47500,74
38.48333,75
38.49167,75
38.50000,75
38.50833,75
38.51667,75
38.52500,76
38.53333,76
38.54167,76
38.55000,76
38.55833,76
38.56667,76
38.57500,76
38.58333,76
38.59167,76
38.60000,76
38.60833,76
38.61667,76
38.62500,76
38.63333,76
38.64167,76
38.65000,75
38.65833,75
38.66667,75
38.67500,75
38.68333,75
38.69167,75
38.70000,74
38.70833,75
38.71667,75
38.72500,75
38.73333,75
38.74167,75
38.75000,75
38.75833,76
38.76667,76
38.77500,76
38.78333,76
38.79167,76
38.80000,76
38.80833,77
38.81667,77
38.82500,77
38.83333,77
38.84167,76
38.85000,76
38.85833,76
38.86667,76
38.87500,76
38.88333,76
38.89167,76
38.90000,76
38.90833,75
38.91667,75
38.92500,76
38.93333,76
38.94167,75
38.95000,75
38.95833,76
38.96667,76
38.97500,77
38.98333,77
38.99167,78
39.00000,78
39.00833,78
39.01667,77
39.02500,77
39.03333,77
39.04167,76
39.05000,76
39.05833,76
39.06667,76
39.07500,76
39.08333,76
39.09167,76
39.10000,76
39.10833,76
39.11667,76
39.12500,76
39.13333,76
39.14167,76
39.15000,76
39.15833,76
39.16667,76
39.17500,76
39.18333,77
39.19167,77
39.20000,77
39.20833,77
39.21667,77
39.22500,77
39.23333,77
39.24167,77
39.25000,78
39.25833,78
39.26667,78
39.27500,78
39.28333,78
39.29167,78
39.30000,78
39.30833,78
39.31667,78
39.32500,77
39.33333,77
39.34167,77
39.35000,77
39.35833,77
39.36667,78
39.37500,78
39.38333,78
39.39167,78
39.40000,78
39.40833,78
39.41667,78
39.42500,78
39.43333,78
39.44167,79
39.45000,79
39.45833,79
39.46667,79
39.47500,79
39.48333,79
39.49167,78
39.50000,78
39.50833,78
39.51667,78
39.52500,78
39.53333,78
39.54167,78
39.55000,78
39.55833,78
39.56667,78
39.57500,78
39.58333,78
39.59167,78
39.60000,78
39.60833,78
39.61667,78
39.62500,78
39.63333,78
39.64167,78
39.65000,78
39.65833,78
39.66667,78
39.67500,78
39.68333,79
39.69167,79
39.70000,80
39.70833,80
39.71667,80
39.72500,80
39.73333,80
39.74167,80
39.75000,80
39.75833,80
39.76667,80
39.77500,80
39.78333,80
39.79167,80
39.80000,80
39.80833,80
39.81667,80
39.82500,79
39.83333,79
39.84167,79
39.85000,79
39.85833,79
39.86667,80
39.87500,80
39.88333,79
39.89167,80
39.90000,79
39.90833,79
39.91667,80
39.92500,80
39.93333,79
39.94167,79
39.95000,79
39.95833,80
39.96667,80
39.97500,80
39.98333,80
39.99167,81
40.00000,81

