[Header]
Application Name,LabSolutions
Version,5.97 SP1
Data File Name,C:\Users\cremerlab\Desktop\griffin\2021-03-31_NCM3722_NCglucose_turnover\2021-03-31_NCM3722_turnover_batch_3312021_002_030.lcd
Output Date,4/1/2021
Output Time,5:25:39 PM

[File Information]
Type,Data File
Generated,4/1/2021 4:45:19 PM
Generated by,System Administrator
Modified,4/1/2021 5:25:39 PM
Modified by,System Administrator

[Sample Information]
Operator Name,System Administrator
Acquired,4/1/2021 4:45:38 PM
Sample Type,1:Standard
Level,2
Sample Name,2021-03-31_glucose_glycerol_acetate_calibration_25mM
Sample ID,002
ISTD Amount1,1
ISTD Amount2,1
ISTD Amount3,1
ISTD Amount4,1
ISTD Amount5,1
ISTD Amount6,1
ISTD Amount7,1
ISTD Amount8,1
ISTD Amount9,1
ISTD Amount10,1
ISTD Amount11,1
ISTD Amount12,1
ISTD Amount13,1
ISTD Amount14,1
ISTD Amount15,1
ISTD Amount16,1
ISTD Amount17,1
ISTD Amount18,1
ISTD Amount19,1
ISTD Amount20,1
ISTD Amount21,1
ISTD Amount22,1
ISTD Amount23,1
ISTD Amount24,1
ISTD Amount25,1
ISTD Amount26,1
ISTD Amount27,1
ISTD Amount28,1
ISTD Amount29,1
ISTD Amount30,1
ISTD Amount31,1
ISTD Amount32,1
Sample Amount,1
Dilution Factor,1
Vial#,2
Injection Volume,20

[Original Files]
Data File,C:\Users\cremerlab\Desktop\griffin\2021-03-31_NCM3722_NCglucose_turnover\2021-03-31_NCM3722_turnover_batch_3312021_002_030.lcd
Method File,C:\LabSolutions\Data\Project1\organicacidsetc2.lcm
Batch File,C:\Users\cremerlab\Desktop\griffin\2021-03-31_NCM3722_NCglucose_turnover\2021-03-31_NCM3722_turnover_batch.lcb
Report Format File,c:\LabSolutions\System\DEFAULT.lsr

[File Description]


[Configuration]
Instrument Name,HPLC-PC-Instrument1
Instrument #,1
Line #,1
# of Detectors,2
Detector ID,Detector A,Detector B
Detector Name,Detector A,Detector B
# of Channels,1,1

[Peak Table(Detector A)]
# of Peaks,0

[Peak Table(Detector B)]
# of Peaks,4
Peak#,R.Time,I.Time,F.Time,Area,Height,A/H,Conc.,Mark,ID#,Name,k',Plate #,Plate Ht.,Tailing,Resolution,Sep.Factor,Area Ratio,Height Ratio,Conc. %,Norm Conc.
1,13.276,12.817,13.700,1932,68,28.555,0.000,   ,,,0.000,4391,34.159,0.937,0.000,0.000,0,0,0.000,0.000
2,15.653,14.925,18.142,2702236,111512,24.233,0.000,   ,,,0.179,9772,15.349,1.152,3.313,0.000,0,0,0.000,0.000
3,22.079,21.300,23.675,749554,27611,27.147,0.000,   ,,,0.663,15385,9.749,1.092,9.553,3.704,0,0,0.000,0.000
4,25.063,24.308,26.275,305570,10385,29.424,0.000,   ,,,0.888,16686,8.990,1.070,4.010,1.339,0,0,0.000,0.000

[LC Chromatogram(Detector B-Ch1)]
Interval(msec),500
# of Points,4801
Start Time(min),0.000
End Time(min),40.000
Intensity Units,mV
Intensity Multiplier,0.001
R.Time (min),Intensity
0.00000,1
0.00833,1
0.01667,0
0.02500,-0
0.03333,-0
0.04167,-0
0.05000,-0
0.05833,0
0.06667,0
0.07500,0
0.08333,0
0.09167,1
0.10000,1
0.10833,1
0.11667,1
0.12500,1
0.13333,1
0.14167,1
0.15000,1
0.15833,1
0.16667,1
0.17500,1
0.18333,0
0.19167,0
0.20000,0
0.20833,1
0.21667,1
0.22500,1
0.23333,1
0.24167,1
0.25000,1
0.25833,1
0.26667,1
0.27500,1
0.28333,1
0.29167,1
0.30000,1
0.30833,1
0.31667,2
0.32500,2
0.33333,2
0.34167,2
0.35000,2
0.35833,2
0.36667,1
0.37500,1
0.38333,1
0.39167,1
0.40000,1
0.40833,1
0.41667,1
0.42500,1
0.43333,1
0.44167,1
0.45000,2
0.45833,2
0.46667,2
0.47500,2
0.48333,2
0.49167,1
0.50000,1
0.50833,2
0.51667,2
0.52500,2
0.53333,2
0.54167,3
0.55000,3
0.55833,3
0.56667,3
0.57500,3
0.58333,3
0.59167,3
0.60000,3
0.60833,2
0.61667,2
0.62500,2
0.63333,2
0.64167,2
0.65000,2
0.65833,1
0.66667,1
0.67500,1
0.68333,1
0.69167,1
0.70000,1
0.70833,1
0.71667,1
0.72500,1
0.73333,1
0.74167,1
0.75000,1
0.75833,1
0.76667,1
0.77500,2
0.78333,2
0.79167,2
0.80000,2
0.80833,2
0.81667,2
0.82500,2
0.83333,2
0.84167,2
0.85000,2
0.85833,2
0.86667,2
0.87500,2
0.88333,2
0.89167,2
0.90000,2
0.90833,2
0.91667,2
0.92500,2
0.93333,2
0.94167,2
0.95000,2
0.95833,3
0.96667,3
0.97500,3
0.98333,3
0.99167,3
1.00000,3
1.00833,2
1.01667,2
1.02500,2
1.03333,2
1.04167,2
1.05000,2
1.05833,2
1.06667,2
1.07500,2
1.08333,2
1.09167,2
1.10000,2
1.10833,2
1.11667,2
1.12500,2
1.13333,2
1.14167,3
1.15000,2
1.15833,2
1.16667,2
1.17500,2
1.18333,2
1.19167,2
1.20000,2
1.20833,3
1.21667,2
1.22500,2
1.23333,2
1.24167,2
1.25000,3
1.25833,3
1.26667,3
1.27500,3
1.28333,3
1.29167,3
1.30000,3
1.30833,3
1.31667,3
1.32500,3
1.33333,3
1.34167,3
1.35000,3
1.35833,3
1.36667,3
1.37500,3
1.38333,3
1.39167,3
1.40000,3
1.40833,3
1.41667,3
1.42500,3
1.43333,3
1.44167,3
1.45000,3
1.45833,3
1.46667,3
1.47500,4
1.48333,4
1.49167,4
1.50000,4
1.50833,4
1.51667,4
1.52500,4
1.53333,4
1.54167,4
1.55000,4
1.55833,4
1.56667,4
1.57500,4
1.58333,4
1.59167,3
1.60000,3
1.60833,3
1.61667,3
1.62500,3
1.63333,3
1.64167,4
1.65000,4
1.65833,4
1.66667,5
1.67500,5
1.68333,5
1.69167,5
1.70000,5
1.70833,5
1.71667,4
1.72500,4
1.73333,4
1.74167,4
1.75000,5
1.75833,5
1.76667,5
1.77500,5
1.78333,5
1.79167,5
1.80000,5
1.80833,5
1.81667,5
1.82500,5
1.83333,5
1.84167,5
1.85000,5
1.85833,5
1.86667,5
1.87500,5
1.88333,5
1.89167,5
1.90000,5
1.90833,5
1.91667,5
1.92500,6
1.93333,6
1.94167,6
1.95000,7
1.95833,7
1.96667,7
1.97500,6
1.98333,6
1.99167,5
2.00000,5
2.00833,5
2.01667,5
2.02500,5
2.03333,5
2.04167,5
2.05000,5
2.05833,5
2.06667,5
2.07500,6
2.08333,6
2.09167,6
2.10000,6
2.10833,6
2.11667,6
2.12500,6
2.13333,6
2.14167,6
2.15000,6
2.15833,6
2.16667,6
2.17500,7
2.18333,7
2.19167,7
2.20000,7
2.20833,7
2.21667,7
2.22500,7
2.23333,7
2.24167,7
2.25000,7
2.25833,7
2.26667,7
2.27500,7
2.28333,7
2.29167,7
2.30000,7
2.30833,6
2.31667,6
2.32500,6
2.33333,6
2.34167,7
2.35000,7
2.35833,7
2.36667,7
2.37500,7
2.38333,7
2.39167,7
2.40000,7
2.40833,7
2.41667,8
2.42500,8
2.43333,8
2.44167,8
2.45000,8
2.45833,8
2.46667,8
2.47500,7
2.48333,7
2.49167,7
2.50000,7
2.50833,7
2.51667,7
2.52500,7
2.53333,7
2.54167,7
2.55000,7
2.55833,7
2.56667,7
2.57500,7
2.58333,7
2.59167,7
2.60000,7
2.60833,7
2.61667,7
2.62500,7
2.63333,7
2.64167,7
2.65000,7
2.65833,7
2.66667,7
2.67500,7
2.68333,7
2.69167,7
2.70000,7
2.70833,7
2.71667,7
2.72500,8
2.73333,8
2.74167,7
2.75000,7
2.75833,7
2.76667,7
2.77500,7
2.78333,7
2.79167,7
2.80000,7
2.80833,8
2.81667,8
2.82500,8
2.83333,8
2.84167,8
2.85000,8
2.85833,8
2.86667,8
2.87500,8
2.88333,8
2.89167,8
2.90000,7
2.90833,7
2.91667,7
2.92500,7
2.93333,7
2.94167,7
2.95000,7
2.95833,7
2.96667,7
2.97500,8
2.98333,8
2.99167,8
3.00000,8
3.00833,8
3.01667,8
3.02500,8
3.03333,9
3.04167,9
3.05000,9
3.05833,9
3.06667,8
3.07500,8
3.08333,8
3.09167,9
3.10000,9
3.10833,9
3.11667,9
3.12500,9
3.13333,9
3.14167,9
3.15000,9
3.15833,9
3.16667,9
3.17500,9
3.18333,9
3.19167,8
3.20000,8
3.20833,8
3.21667,9
3.22500,9
3.23333,9
3.24167,9
3.25000,9
3.25833,9
3.26667,9
3.27500,9
3.28333,9
3.29167,9
3.30000,9
3.30833,9
3.31667,9
3.32500,9
3.33333,9
3.34167,9
3.35000,9
3.35833,9
3.36667,8
3.37500,8
3.38333,8
3.39167,8
3.40000,7
3.40833,7
3.41667,7
3.42500,8
3.43333,8
3.44167,8
3.45000,8
3.45833,8
3.46667,9
3.47500,9
3.48333,9
3.49167,9
3.50000,9
3.50833,9
3.51667,9
3.52500,9
3.53333,9
3.54167,9
3.55000,9
3.55833,9
3.56667,9
3.57500,10
3.58333,10
3.59167,10
3.60000,10
3.60833,10
3.61667,9
3.62500,9
3.63333,9
3.64167,9
3.65000,9
3.65833,9
3.66667,9
3.67500,9
3.68333,9
3.69167,9
3.70000,9
3.70833,9
3.71667,8
3.72500,8
3.73333,8
3.74167,9
3.75000,9
3.75833,9
3.76667,10
3.77500,10
3.78333,10
3.79167,10
3.80000,10
3.80833,10
3.81667,10
3.82500,10
3.83333,10
3.84167,10
3.85000,10
3.85833,10
3.86667,10
3.87500,10
3.88333,10
3.89167,10
3.90000,10
3.90833,10
3.91667,10
3.92500,10
3.93333,10
3.94167,10
3.95000,10
3.95833,10
3.96667,11
3.97500,11
3.98333,11
3.99167,11
4.00000,11
4.00833,11
4.01667,10
4.02500,10
4.03333,10
4.04167,10
4.05000,10
4.05833,10
4.06667,10
4.07500,10
4.08333,10
4.09167,11
4.10000,11
4.10833,11
4.11667,11
4.12500,11
4.13333,11
4.14167,11
4.15000,11
4.15833,11
4.16667,11
4.17500,11
4.18333,11
4.19167,11
4.20000,11
4.20833,12
4.21667,12
4.22500,12
4.23333,12
4.24167,11
4.25000,11
4.25833,12
4.26667,12
4.27500,12
4.28333,12
4.29167,12
4.30000,12
4.30833,12
4.31667,12
4.32500,12
4.33333,12
4.34167,12
4.35000,11
4.35833,11
4.36667,11
4.37500,11
4.38333,11
4.39167,11
4.40000,12
4.40833,12
4.41667,11
4.42500,11
4.43333,11
4.44167,11
4.45000,11
4.45833,11
4.46667,12
4.47500,11
4.48333,11
4.49167,11
4.50000,11
4.50833,12
4.51667,12
4.52500,11
4.53333,11
4.54167,12
4.55000,12
4.55833,12
4.56667,11
4.57500,11
4.58333,11
4.59167,12
4.60000,12
4.60833,12
4.61667,12
4.62500,11
4.63333,11
4.64167,11
4.65000,11
4.65833,11
4.66667,11
4.67500,11
4.68333,12
4.69167,12
4.70000,12
4.70833,12
4.71667,13
4.72500,13
4.73333,13
4.74167,13
4.75000,13
4.75833,13
4.76667,13
4.77500,13
4.78333,13
4.79167,13
4.80000,13
4.80833,13
4.81667,13
4.82500,12
4.83333,13
4.84167,13
4.85000,13
4.85833,13
4.86667,13
4.87500,13
4.88333,14
4.89167,14
4.90000,14
4.90833,14
4.91667,14
4.92500,14
4.93333,14
4.94167,14
4.95000,14
4.95833,14
4.96667,13
4.97500,13
4.98333,13
4.99167,13
5.00000,13
5.00833,13
5.01667,14
5.02500,13
5.03333,13
5.04167,13
5.05000,13
5.05833,13
5.06667,13
5.07500,14
5.08333,14
5.09167,14
5.10000,14
5.10833,14
5.11667,14
5.12500,14
5.13333,14
5.14167,14
5.15000,14
5.15833,14
5.16667,14
5.17500,15
5.18333,15
5.19167,15
5.20000,15
5.20833,15
5.21667,15
5.22500,14
5.23333,14
5.24167,14
5.25000,14
5.25833,14
5.26667,14
5.27500,13
5.28333,14
5.29167,14
5.30000,14
5.30833,14
5.31667,14
5.32500,14
5.33333,14
5.34167,14
5.35000,14
5.35833,15
5.36667,15
5.37500,15
5.38333,15
5.39167,14
5.40000,15
5.40833,15
5.41667,15
5.42500,15
5.43333,16
5.44167,16
5.45000,16
5.45833,15
5.46667,15
5.47500,15
5.48333,15
5.49167,15
5.50000,15
5.50833,15
5.51667,15
5.52500,14
5.53333,15
5.54167,15
5.55000,15
5.55833,15
5.56667,15
5.57500,16
5.58333,16
5.59167,16
5.60000,16
5.60833,16
5.61667,16
5.62500,16
5.63333,16
5.64167,16
5.65000,16
5.65833,16
5.66667,16
5.67500,16
5.68333,15
5.69167,15
5.70000,15
5.70833,15
5.71667,15
5.72500,15
5.73333,15
5.74167,15
5.75000,15
5.75833,15
5.76667,15
5.77500,16
5.78333,16
5.79167,16
5.80000,16
5.80833,16
5.81667,17
5.82500,17
5.83333,17
5.84167,17
5.85000,16
5.85833,16
5.86667,16
5.87500,16
5.88333,16
5.89167,16
5.90000,15
5.90833,15
5.91667,15
5.92500,15
5.93333,15
5.94167,15
5.95000,15
5.95833,15
5.96667,15
5.97500,15
5.98333,15
5.99167,15
6.00000,15
6.00833,16
6.01667,16
6.02500,16
6.03333,17
6.04167,17
6.05000,17
6.05833,17
6.06667,17
6.07500,17
6.08333,17
6.09167,17
6.10000,17
6.10833,17
6.11667,16
6.12500,16
6.13333,17
6.14167,17
6.15000,16
6.15833,16
6.16667,15
6.17500,15
6.18333,15
6.19167,16
6.20000,16
6.20833,16
6.21667,16
6.22500,16
6.23333,16
6.24167,17
6.25000,17
6.25833,17
6.26667,16
6.27500,16
6.28333,16
6.29167,17
6.30000,17
6.30833,17
6.31667,17
6.32500,17
6.33333,17
6.34167,17
6.35000,17
6.35833,17
6.36667,17
6.37500,17
6.38333,17
6.39167,17
6.40000,16
6.40833,16
6.41667,16
6.42500,16
6.43333,17
6.44167,17
6.45000,17
6.45833,17
6.46667,18
6.47500,18
6.48333,18
6.49167,18
6.50000,18
6.50833,18
6.51667,17
6.52500,17
6.53333,17
6.54167,17
6.55000,17
6.55833,17
6.56667,17
6.57500,17
6.58333,17
6.59167,17
6.60000,17
6.60833,17
6.61667,17
6.62500,17
6.63333,17
6.64167,17
6.65000,17
6.65833,17
6.66667,17
6.67500,18
6.68333,18
6.69167,18
6.70000,19
6.70833,19
6.71667,19
6.72500,19
6.73333,19
6.74167,18
6.75000,18
6.75833,17
6.76667,17
6.77500,18
6.78333,18
6.79167,18
6.80000,18
6.80833,18
6.81667,18
6.82500,17
6.83333,17
6.84167,18
6.85000,18
6.85833,18
6.86667,17
6.87500,17
6.88333,17
6.89167,17
6.90000,17
6.90833,18
6.91667,18
6.92500,18
6.93333,18
6.94167,18
6.95000,19
6.95833,19
6.96667,19
6.97500,19
6.98333,18
6.99167,19
7.00000,19
7.00833,19
7.01667,19
7.02500,19
7.03333,18
7.04167,18
7.05000,18
7.05833,18
7.06667,18
7.07500,18
7.08333,18
7.09167,18
7.10000,19
7.10833,19
7.11667,19
7.12500,19
7.13333,19
7.14167,19
7.15000,19
7.15833,19
7.16667,19
7.17500,19
7.18333,19
7.19167,19
7.20000,20
7.20833,20
7.21667,20
7.22500,20
7.23333,19
7.24167,19
7.25000,19
7.25833,19
7.26667,19
7.27500,19
7.28333,19
7.29167,19
7.30000,19
7.30833,19
7.31667,19
7.32500,19
7.33333,19
7.34167,19
7.35000,19
7.35833,19
7.36667,19
7.37500,19
7.38333,20
7.39167,20
7.40000,20
7.40833,20
7.41667,20
7.42500,20
7.43333,20
7.44167,20
7.45000,20
7.45833,20
7.46667,20
7.47500,20
7.48333,20
7.49167,20
7.50000,20
7.50833,20
7.51667,20
7.52500,20
7.53333,20
7.54167,20
7.55000,21
7.55833,21
7.56667,21
7.57500,21
7.58333,21
7.59167,21
7.60000,21
7.60833,21
7.61667,21
7.62500,21
7.63333,21
7.64167,21
7.65000,21
7.65833,21
7.66667,21
7.67500,20
7.68333,20
7.69167,20
7.70000,21
7.70833,21
7.71667,21
7.72500,21
7.73333,21
7.74167,21
7.75000,21
7.75833,21
7.76667,20
7.77500,20
7.78333,20
7.79167,21
7.80000,21
7.80833,21
7.81667,21
7.82500,21
7.83333,21
7.84167,21
7.85000,21
7.85833,22
7.86667,22
7.87500,22
7.88333,22
7.89167,22
7.90000,22
7.90833,22
7.91667,22
7.92500,22
7.93333,22
7.94167,22
7.95000,21
7.95833,21
7.96667,21
7.97500,21
7.98333,21
7.99167,21
8.00000,21
8.00833,21
8.01667,21
8.02500,21
8.03333,21
8.04167,21
8.05000,21
8.05833,21
8.06667,22
8.07500,22
8.08333,21
8.09167,22
8.10000,22
8.10833,22
8.11667,22
8.12500,22
8.13333,22
8.14167,22
8.15000,22
8.15833,22
8.16667,22
8.17500,21
8.18333,21
8.19167,21
8.20000,21
8.20833,21
8.21667,21
8.22500,21
8.23333,21
8.24167,22
8.25000,22
8.25833,22
8.26667,22
8.27500,22
8.28333,22
8.29167,22
8.30000,22
8.30833,22
8.31667,22
8.32500,22
8.33333,22
8.34167,22
8.35000,22
8.35833,22
8.36667,22
8.37500,22
8.38333,22
8.39167,22
8.40000,22
8.40833,22
8.41667,22
8.42500,22
8.43333,22
8.44167,21
8.45000,21
8.45833,21
8.46667,21
8.47500,21
8.48333,21
8.49167,21
8.50000,22
8.50833,22
8.51667,22
8.52500,22
8.53333,22
8.54167,23
8.55000,23
8.55833,23
8.56667,23
8.57500,23
8.58333,23
8.59167,23
8.60000,23
8.60833,23
8.61667,23
8.62500,23
8.63333,23
8.64167,23
8.65000,23
8.65833,22
8.66667,22
8.67500,22
8.68333,22
8.69167,22
8.70000,22
8.70833,22
8.71667,22
8.72500,22
8.73333,23
8.74167,23
8.75000,23
8.75833,23
8.76667,24
8.77500,24
8.78333,24
8.79167,24
8.80000,24
8.80833,24
8.81667,24
8.82500,24
8.83333,24
8.84167,24
8.85000,24
8.85833,24
8.86667,24
8.87500,24
8.88333,23
8.89167,23
8.90000,23
8.90833,22
8.91667,22
8.92500,22
8.93333,22
8.94167,22
8.95000,23
8.95833,23
8.96667,23
8.97500,23
8.98333,22
8.99167,22
9.00000,23
9.00833,23
9.01667,23
9.02500,24
9.03333,24
9.04167,24
9.05000,24
9.05833,24
9.06667,24
9.07500,24
9.08333,24
9.09167,24
9.10000,24
9.10833,24
9.11667,24
9.12500,24
9.13333,24
9.14167,24
9.15000,23
9.15833,23
9.16667,23
9.17500,24
9.18333,24
9.19167,23
9.20000,23
9.20833,23
9.21667,24
9.22500,24
9.23333,24
9.24167,24
9.25000,24
9.25833,24
9.26667,25
9.27500,25
9.28333,25
9.29167,25
9.30000,25
9.30833,26
9.31667,25
9.32500,25
9.33333,25
9.34167,25
9.35000,25
9.35833,25
9.36667,24
9.37500,24
9.38333,24
9.39167,24
9.40000,24
9.40833,24
9.41667,24
9.42500,24
9.43333,24
9.44167,24
9.45000,24
9.45833,24
9.46667,24
9.47500,24
9.48333,25
9.49167,25
9.50000,25
9.50833,25
9.51667,25
9.52500,25
9.53333,25
9.54167,26
9.55000,26
9.55833,26
9.56667,26
9.57500,25
9.58333,25
9.59167,25
9.60000,25
9.60833,25
9.61667,25
9.62500,25
9.63333,25
9.64167,25
9.65000,24
9.65833,25
9.66667,25
9.67500,25
9.68333,25
9.69167,26
9.70000,26
9.70833,26
9.71667,26
9.72500,26
9.73333,26
9.74167,26
9.75000,26
9.75833,25
9.76667,25
9.77500,25
9.78333,26
9.79167,26
9.80000,26
9.80833,25
9.81667,25
9.82500,25
9.83333,25
9.84167,25
9.85000,25
9.85833,25
9.86667,25
9.87500,25
9.88333,25
9.89167,25
9.90000,25
9.90833,25
9.91667,25
9.92500,26
9.93333,26
9.94167,26
9.95000,26
9.95833,26
9.96667,26
9.97500,26
9.98333,27
9.99167,27
10.00000,27
10.00833,27
10.01667,27
10.02500,27
10.03333,26
10.04167,26
10.05000,27
10.05833,27
10.06667,27
10.07500,27
10.08333,26
10.09167,26
10.10000,25
10.10833,25
10.11667,24
10.12500,24
10.13333,24
10.14167,25
10.15000,25
10.15833,25
10.16667,25
10.17500,25
10.18333,25
10.19167,25
10.20000,25
10.20833,25
10.21667,25
10.22500,25
10.23333,25
10.24167,25
10.25000,25
10.25833,25
10.26667,25
10.27500,25
10.28333,26
10.29167,26
10.30000,26
10.30833,25
10.31667,25
10.32500,25
10.33333,25
10.34167,25
10.35000,25
10.35833,25
10.36667,25
10.37500,25
10.38333,26
10.39167,26
10.40000,26
10.40833,26
10.41667,26
10.42500,26
10.43333,26
10.44167,26
10.45000,26
10.45833,25
10.46667,25
10.47500,25
10.48333,25
10.49167,24
10.50000,24
10.50833,24
10.51667,24
10.52500,24
10.53333,23
10.54167,22
10.55000,22
10.55833,21
10.56667,20
10.57500,19
10.58333,17
10.59167,15
10.60000,12
10.60833,8
10.61667,3
10.62500,-5
10.63333,-15
10.64167,-29
10.65000,-49
10.65833,-75
10.66667,-110
10.67500,-157
10.68333,-219
10.69167,-301
10.70000,-407
10.70833,-543
10.71667,-714
10.72500,-929
10.73333,-1193
10.74167,-1515
10.75000,-1902
10.75833,-2362
10.76667,-2901
10.77500,-3525
10.78333,-4236
10.79167,-5037
10.80000,-5926
10.80833,-6899
10.81667,-7949
10.82500,-9066
10.83333,-10237
10.84167,-11448
10.85000,-12679
10.85833,-13913
10.86667,-15128
10.87500,-16305
10.88333,-17423
10.89167,-18464
10.90000,-19410
10.90833,-20246
10.91667,-20960
10.92500,-21543
10.93333,-21987
10.94167,-22290
10.95000,-22450
10.95833,-22470
10.96667,-22355
10.97500,-22111
10.98333,-21747
10.99167,-21273
11.00000,-20700
11.00833,-20040
11.01667,-19307
11.02500,-18511
11.03333,-17667
11.04167,-16785
11.05000,-15879
11.05833,-14958
11.06667,-14032
11.07500,-13111
11.08333,-12204
11.09167,-11317
11.10000,-10456
11.10833,-9626
11.11667,-8833
11.12500,-8079
11.13333,-7366
11.14167,-6696
11.15000,-6070
11.15833,-5488
11.16667,-4950
11.17500,-4455
11.18333,-4002
11.19167,-3589
11.20000,-3213
11.20833,-2873
11.21667,-2566
11.22500,-2290
11.23333,-2043
11.24167,-1823
11.25000,-1627
11.25833,-1454
11.26667,-1300
11.27500,-1164
11.28333,-1044
11.29167,-938
11.30000,-844
11.30833,-762
11.31667,-690
11.32500,-626
11.33333,-570
11.34167,-521
11.35000,-477
11.35833,-438
11.36667,-404
11.37500,-373
11.38333,-346
11.39167,-323
11.40000,-301
11.40833,-282
11.41667,-265
11.42500,-249
11.43333,-235
11.44167,-222
11.45000,-210
11.45833,-200
11.46667,-190
11.47500,-181
11.48333,-172
11.49167,-164
11.50000,-157
11.50833,-150
11.51667,-144
11.52500,-138
11.53333,-133
11.54167,-127
11.55000,-122
11.55833,-117
11.56667,-112
11.57500,-107
11.58333,-103
11.59167,-99
11.60000,-95
11.60833,-91
11.61667,-88
11.62500,-85
11.63333,-82
11.64167,-79
11.65000,-76
11.65833,-73
11.66667,-71
11.67500,-68
11.68333,-66
11.69167,-63
11.70000,-61
11.70833,-59
11.71667,-58
11.72500,-56
11.73333,-54
11.74167,-51
11.75000,-49
11.75833,-48
11.76667,-46
11.77500,-44
11.78333,-43
11.79167,-41
11.80000,-40
11.80833,-38
11.81667,-36
11.82500,-34
11.83333,-32
11.84167,-30
11.85000,-29
11.85833,-27
11.86667,-25
11.87500,-24
11.88333,-22
11.89167,-21
11.90000,-19
11.90833,-18
11.91667,-17
11.92500,-15
11.93333,-14
11.94167,-13
11.95000,-12
11.95833,-11
11.96667,-11
11.97500,-11
11.98333,-10
11.99167,-9
12.00000,-9
12.00833,-8
12.01667,-8
12.02500,-7
12.03333,-7
12.04167,-7
12.05000,-6
12.05833,-6
12.06667,-5
12.07500,-5
12.08333,-5
12.09167,-5
12.10000,-5
12.10833,-5
12.11667,-5
12.12500,-5
12.13333,-5
12.14167,-5
12.15000,-5
12.15833,-5
12.16667,-5
12.17500,-5
12.18333,-5
12.19167,-5
12.20000,-5
12.20833,-6
12.21667,-6
12.22500,-6
12.23333,-6
12.24167,-7
12.25000,-7
12.25833,-7
12.26667,-7
12.27500,-6
12.28333,-6
12.29167,-6
12.30000,-6
12.30833,-6
12.31667,-6
12.32500,-6
12.33333,-6
12.34167,-5
12.35000,-5
12.35833,-5
12.36667,-5
12.37500,-5
12.38333,-5
12.39167,-4
12.40000,-4
12.40833,-4
12.41667,-4
12.42500,-4
12.43333,-4
12.44167,-4
12.45000,-4
12.45833,-4
12.46667,-4
12.47500,-4
12.48333,-4
12.49167,-4
12.50000,-3
12.50833,-3
12.51667,-3
12.52500,-2
12.53333,-2
12.54167,-1
12.55000,-1
12.55833,-1
12.56667,-0
12.57500,-0
12.58333,0
12.59167,1
12.60000,1
12.60833,2
12.61667,2
12.62500,3
12.63333,3
12.64167,3
12.65000,3
12.65833,4
12.66667,4
12.67500,4
12.68333,5
12.69167,5
12.70000,5
12.70833,5
12.71667,6
12.72500,7
12.73333,7
12.74167,8
12.75000,9
12.75833,10
12.76667,10
12.77500,11
12.78333,12
12.79167,14
12.80000,15
12.80833,16
12.81667,17
12.82500,18
12.83333,19
12.84167,20
12.85000,22
12.85833,24
12.86667,25
12.87500,27
12.88333,29
12.89167,30
12.90000,32
12.90833,34
12.91667,36
12.92500,37
12.93333,39
12.94167,41
12.95000,43
12.95833,45
12.96667,47
12.97500,49
12.98333,51
12.99167,53
13.00000,55
13.00833,57
13.01667,58
13.02500,60
13.03333,62
13.04167,63
13.05000,65
13.05833,67
13.06667,68
13.07500,70
13.08333,72
13.09167,73
13.10000,75
13.10833,76
13.11667,77
13.12500,79
13.13333,80
13.14167,81
13.15000,82
13.15833,83
13.16667,84
13.17500,85
13.18333,85
13.19167,86
13.20000,87
13.20833,87
13.21667,88
13.22500,89
13.23333,89
13.24167,89
13.25000,90
13.25833,90
13.26667,90
13.27500,90
13.28333,90
13.29167,90
13.30000,89
13.30833,88
13.31667,88
13.32500,87
13.33333,86
13.34167,84
13.35000,83
13.35833,82
13.36667,80
13.37500,79
13.38333,77
13.39167,76
13.40000,74
13.40833,72
13.41667,71
13.42500,69
13.43333,67
13.44167,65
13.45000,64
13.45833,62
13.46667,60
13.47500,58
13.48333,56
13.49167,55
13.50000,53
13.50833,51
13.51667,50
13.52500,48
13.53333,47
13.54167,45
13.55000,44
13.55833,42
13.56667,41
13.57500,39
13.58333,38
13.59167,37
13.60000,36
13.60833,36
13.61667,35
13.62500,34
13.63333,33
13.64167,32
13.65000,31
13.65833,30
13.66667,30
13.67500,29
13.68333,29
13.69167,28
13.70000,28
13.70833,28
13.71667,27
13.72500,27
13.73333,26
13.74167,26
13.75000,26
13.75833,26
13.76667,26
13.77500,26
13.78333,26
13.79167,26
13.80000,26
13.80833,26
13.81667,26
13.82500,26
13.83333,26
13.84167,25
13.85000,25
13.85833,24
13.86667,24
13.87500,24
13.88333,24
13.89167,23
13.90000,23
13.90833,24
13.91667,24
13.92500,24
13.93333,24
13.94167,24
13.95000,24
13.95833,24
13.96667,25
13.97500,25
13.98333,26
13.99167,26
14.00000,26
14.00833,26
14.01667,26
14.02500,26
14.03333,26
14.04167,27
14.05000,27
14.05833,27
14.06667,26
14.07500,26
14.08333,26
14.09167,25
14.10000,25
14.10833,25
14.11667,26
14.12500,26
14.13333,26
14.14167,26
14.15000,26
14.15833,26
14.16667,27
14.17500,27
14.18333,27
14.19167,28
14.20000,28
14.20833,28
14.21667,28
14.22500,28
14.23333,28
14.24167,28
14.25000,28
14.25833,28
14.26667,28
14.27500,28
14.28333,28
14.29167,28
14.30000,28
14.30833,28
14.31667,28
14.32500,28
14.33333,28
14.34167,28
14.35000,28
14.35833,28
14.36667,28
14.37500,28
14.38333,28
14.39167,28
14.40000,29
14.40833,29
14.41667,29
14.42500,29
14.43333,30
14.44167,30
14.45000,30
14.45833,30
14.46667,30
14.47500,30
14.48333,30
14.49167,30
14.50000,30
14.50833,30
14.51667,30
14.52500,31
14.53333,31
14.54167,31
14.55000,31
14.55833,31
14.56667,31
14.57500,31
14.58333,31
14.59167,30
14.60000,30
14.60833,30
14.61667,30
14.62500,31
14.63333,31
14.64167,31
14.65000,32
14.65833,32
14.66667,32
14.67500,32
14.68333,32
14.69167,32
14.70000,33
14.70833,33
14.71667,33
14.72500,33
14.73333,33
14.74167,34
14.75000,34
14.75833,34
14.76667,34
14.77500,34
14.78333,34
14.79167,35
14.80000,34
14.80833,34
14.81667,34
14.82500,34
14.83333,35
14.84167,35
14.85000,35
14.85833,36
14.86667,36
14.87500,37
14.88333,38
14.89167,39
14.90000,39
14.90833,41
14.91667,42
14.92500,43
14.93333,44
14.94167,45
14.95000,46
14.95833,48
14.96667,50
14.97500,52
14.98333,55
14.99167,57
15.00000,60
15.00833,63
15.01667,67
15.02500,72
15.03333,77
15.04167,82
15.05000,89
15.05833,96
15.06667,105
15.07500,115
15.08333,128
15.09167,141
15.10000,158
15.10833,177
15.11667,199
15.12500,225
15.13333,256
15.14167,293
15.15000,336
15.15833,388
15.16667,450
15.17500,523
15.18333,610
15.19167,713
15.20000,835
15.20833,979
15.21667,1150
15.22500,1350
15.23333,1585
15.24167,1860
15.25000,2181
15.25833,2553
15.26667,2984
15.27500,3482
15.28333,4053
15.29167,4707
15.30000,5452
15.30833,6297
15.31667,7251
15.32500,8323
15.33333,9523
15.34167,10859
15.35000,12340
15.35833,13974
15.36667,15767
15.37500,17725
15.38333,19853
15.39167,22155
15.40000,24632
15.40833,27283
15.41667,30108
15.42500,33101
15.43333,36255
15.44167,39561
15.45000,43009
15.45833,46584
15.46667,50271
15.47500,54050
15.48333,57901
15.49167,61803
15.50000,65729
15.50833,69655
15.51667,73554
15.52500,77399
15.53333,81161
15.54167,84813
15.55000,88327
15.55833,91675
15.56667,94831
15.57500,97772
15.58333,100474
15.59167,102917
15.60000,105082
15.60833,106955
15.61667,108522
15.62500,109774
15.63333,110703
15.64167,111307
15.65000,111585
15.65833,111538
15.66667,111174
15.67500,110499
15.68333,109525
15.69167,108264
15.70000,106730
15.70833,104942
15.71667,102918
15.72500,100677
15.73333,98240
15.74167,95628
15.75000,92864
15.75833,89968
15.76667,86962
15.77500,83868
15.78333,80707
15.79167,77498
15.80000,74259
15.80833,71010
15.81667,67767
15.82500,64545
15.83333,61359
15.84167,58223
15.85000,55148
15.85833,52143
15.86667,49218
15.87500,46381
15.88333,43638
15.89167,40995
15.90000,38455
15.90833,36020
15.91667,33694
15.92500,31476
15.93333,29368
15.94167,27369
15.95000,25477
15.95833,23691
15.96667,22008
15.97500,20426
15.98333,18942
15.99167,17552
16.00000,16252
16.00833,15040
16.01667,13910
16.02500,12859
16.03333,11883
16.04167,10977
16.05000,10138
16.05833,9362
16.06667,8645
16.07500,7984
16.08333,7374
16.09167,6812
16.10000,6295
16.10833,5819
16.11667,5382
16.12500,4981
16.13333,4613
16.14167,4276
16.15000,3967
16.15833,3684
16.16667,3425
16.17500,3187
16.18333,2970
16.19167,2771
16.20000,2589
16.20833,2423
16.21667,2270
16.22500,2130
16.23333,2002
16.24167,1886
16.25000,1779
16.25833,1680
16.26667,1590
16.27500,1507
16.28333,1432
16.29167,1362
16.30000,1297
16.30833,1238
16.31667,1184
16.32500,1133
16.33333,1087
16.34167,1044
16.35000,1004
16.35833,967
16.36667,933
16.37500,902
16.38333,872
16.39167,845
16.40000,820
16.40833,796
16.41667,774
16.42500,753
16.43333,734
16.44167,715
16.45000,698
16.45833,683
16.46667,668
16.47500,655
16.48333,641
16.49167,628
16.50000,616
16.50833,605
16.51667,595
16.52500,585
16.53333,575
16.54167,566
16.55000,558
16.55833,550
16.56667,543
16.57500,535
16.58333,528
16.59167,522
16.60000,516
16.60833,510
16.61667,504
16.62500,499
16.63333,493
16.64167,488
16.65000,483
16.65833,478
16.66667,472
16.67500,468
16.68333,463
16.69167,459
16.70000,455
16.70833,451
16.71667,447
16.72500,443
16.73333,439
16.74167,435
16.75000,432
16.75833,429
16.76667,425
16.77500,422
16.78333,418
16.79167,415
16.80000,412
16.80833,409
16.81667,406
16.82500,403
16.83333,400
16.84167,397
16.85000,394
16.85833,391
16.86667,387
16.87500,384
16.88333,382
16.89167,379
16.90000,375
16.90833,372
16.91667,369
16.92500,366
16.93333,363
16.94167,360
16.95000,357
16.95833,355
16.96667,352
16.97500,349
16.98333,346
16.99167,343
17.00000,340
17.00833,337
17.01667,335
17.02500,332
17.03333,329
17.04167,326
17.05000,323
17.05833,320
17.06667,318
17.07500,315
17.08333,312
17.09167,309
17.10000,307
17.10833,304
17.11667,302
17.12500,299
17.13333,296
17.14167,293
17.15000,291
17.15833,288
17.16667,286
17.17500,284
17.18333,282
17.19167,280
17.20000,279
17.20833,277
17.21667,275
17.22500,273
17.23333,271
17.24167,269
17.25000,268
17.25833,266
17.26667,265
17.27500,263
17.28333,261
17.29167,259
17.30000,257
17.30833,256
17.31667,254
17.32500,253
17.33333,251
17.34167,250
17.35000,248
17.35833,246
17.36667,244
17.37500,243
17.38333,242
17.39167,240
17.40000,239
17.40833,238
17.41667,237
17.42500,236
17.43333,235
17.44167,234
17.45000,233
17.45833,232
17.46667,230
17.47500,229
17.48333,228
17.49167,227
17.50000,226
17.50833,226
17.51667,225
17.52500,224
17.53333,223
17.54167,222
17.55000,221
17.55833,220
17.56667,219
17.57500,218
17.58333,217
17.59167,217
17.60000,216
17.60833,215
17.61667,215
17.62500,214
17.63333,213
17.64167,212
17.65000,212
17.65833,211
17.66667,210
17.67500,209
17.68333,208
17.69167,207
17.70000,207
17.70833,206
17.71667,206
17.72500,205
17.73333,204
17.74167,203
17.75000,202
17.75833,202
17.76667,201
17.77500,200
17.78333,200
17.79167,199
17.80000,199
17.80833,198
17.81667,197
17.82500,197
17.83333,196
17.84167,195
17.85000,194
17.85833,193
17.86667,192
17.87500,192
17.88333,191
17.89167,191
17.90000,190
17.90833,190
17.91667,189
17.92500,188
17.93333,188
17.94167,187
17.95000,186
17.95833,186
17.96667,185
17.97500,184
17.98333,184
17.99167,183
18.00000,182
18.00833,182
18.01667,181
18.02500,180
18.03333,180
18.04167,179
18.05000,178
18.05833,178
18.06667,177
18.07500,177
18.08333,176
18.09167,175
18.10000,175
18.10833,174
18.11667,173
18.12500,173
18.13333,173
18.14167,173
18.15000,172
18.15833,172
18.16667,171
18.17500,170
18.18333,169
18.19167,168
18.20000,167
18.20833,166
18.21667,165
18.22500,165
18.23333,164
18.24167,163
18.25000,162
18.25833,162
18.26667,161
18.27500,160
18.28333,159
18.29167,159
18.30000,158
18.30833,157
18.31667,157
18.32500,156
18.33333,155
18.34167,155
18.35000,154
18.35833,154
18.36667,153
18.37500,153
18.38333,152
18.39167,152
18.40000,152
18.40833,151
18.41667,151
18.42500,150
18.43333,149
18.44167,149
18.45000,149
18.45833,148
18.46667,148
18.47500,147
18.48333,147
18.49167,146
18.50000,146
18.50833,145
18.51667,145
18.52500,144
18.53333,143
18.54167,143
18.55000,142
18.55833,142
18.56667,141
18.57500,141
18.58333,141
18.59167,141
18.60000,141
18.60833,141
18.61667,140
18.62500,140
18.63333,140
18.64167,140
18.65000,139
18.65833,139
18.66667,138
18.67500,138
18.68333,137
18.69167,137
18.70000,137
18.70833,137
18.71667,138
18.72500,138
18.73333,138
18.74167,138
18.75000,139
18.75833,139
18.76667,139
18.77500,140
18.78333,140
18.79167,141
18.80000,141
18.80833,142
18.81667,143
18.82500,144
18.83333,145
18.84167,146
18.85000,147
18.85833,147
18.86667,148
18.87500,149
18.88333,150
18.89167,151
18.90000,152
18.90833,152
18.91667,153
18.92500,154
18.93333,155
18.94167,156
18.95000,156
18.95833,156
18.96667,156
18.97500,156
18.98333,156
18.99167,156
19.00000,156
19.00833,156
19.01667,156
19.02500,156
19.03333,155
19.04167,154
19.05000,154
19.05833,153
19.06667,152
19.07500,152
19.08333,150
19.09167,149
19.10000,148
19.10833,147
19.11667,145
19.12500,144
19.13333,143
19.14167,142
19.15000,140
19.15833,139
19.16667,138
19.17500,136
19.18333,134
19.19167,133
19.20000,131
19.20833,130
19.21667,128
19.22500,126
19.23333,125
19.24167,124
19.25000,123
19.25833,122
19.26667,121
19.27500,120
19.28333,119
19.29167,118
19.30000,117
19.30833,117
19.31667,116
19.32500,115
19.33333,114
19.34167,114
19.35000,113
19.35833,112
19.36667,112
19.37500,111
19.38333,110
19.39167,109
19.40000,109
19.40833,109
19.41667,108
19.42500,107
19.43333,106
19.44167,106
19.45000,105
19.45833,105
19.46667,104
19.47500,104
19.48333,104
19.49167,103
19.50000,103
19.50833,103
19.51667,103
19.52500,102
19.53333,102
19.54167,102
19.55000,102
19.55833,101
19.56667,101
19.57500,101
19.58333,101
19.59167,100
19.60000,100
19.60833,100
19.61667,99
19.62500,99
19.63333,99
19.64167,99
19.65000,98
19.65833,98
19.66667,98
19.67500,98
19.68333,97
19.69167,97
19.70000,97
19.70833,96
19.71667,96
19.72500,95
19.73333,95
19.74167,95
19.75000,95
19.75833,95
19.76667,95
19.77500,95
19.78333,95
19.79167,95
19.80000,95
19.80833,95
19.81667,95
19.82500,95
19.83333,95
19.84167,94
19.85000,94
19.85833,94
19.86667,93
19.87500,93
19.88333,93
19.89167,93
19.90000,93
19.90833,93
19.91667,92
19.92500,92
19.93333,92
19.94167,91
19.95000,91
19.95833,91
19.96667,90
19.97500,90
19.98333,90
19.99167,90
20.00000,90
20.00833,90
20.01667,90
20.02500,90
20.03333,90
20.04167,90
20.05000,89
20.05833,89
20.06667,89
20.07500,89
20.08333,89
20.09167,89
20.10000,89
20.10833,89
20.11667,89
20.12500,88
20.13333,88
20.14167,87
20.15000,87
20.15833,87
20.16667,87
20.17500,87
20.18333,87
20.19167,87
20.20000,87
20.20833,87
20.21667,87
20.22500,87
20.23333,87
20.24167,87
20.25000,87
20.25833,87
20.26667,86
20.27500,86
20.28333,86
20.29167,86
20.30000,86
20.30833,86
20.31667,86
20.32500,86
20.33333,85
20.34167,85
20.35000,84
20.35833,84
20.36667,84
20.37500,84
20.38333,84
20.39167,84
20.40000,84
20.40833,84
20.41667,84
20.42500,84
20.43333,84
20.44167,83
20.45000,83
20.45833,83
20.46667,83
20.47500,84
20.48333,84
20.49167,84
20.50000,84
20.50833,84
20.51667,83
20.52500,83
20.53333,82
20.54167,82
20.55000,82
20.55833,82
20.56667,82
20.57500,82
20.58333,82
20.59167,82
20.60000,82
20.60833,82
20.61667,81
20.62500,82
20.63333,82
20.64167,81
20.65000,81
20.65833,81
20.66667,80
20.67500,80
20.68333,80
20.69167,80
20.70000,81
20.70833,81
20.71667,80
20.72500,80
20.73333,80
20.74167,80
20.75000,80
20.75833,80
20.76667,80
20.77500,80
20.78333,80
20.79167,80
20.80000,80
20.80833,80
20.81667,80
20.82500,80
20.83333,80
20.84167,80
20.85000,80
20.85833,80
20.86667,80
20.87500,80
20.88333,80
20.89167,80
20.90000,79
20.90833,79
20.91667,80
20.92500,80
20.93333,80
20.94167,80
20.95000,80
20.95833,80
20.96667,80
20.97500,80
20.98333,79
20.99167,79
21.00000,79
21.00833,79
21.01667,79
21.02500,79
21.03333,79
21.04167,79
21.05000,79
21.05833,79
21.06667,79
21.07500,78
21.08333,78
21.09167,78
21.10000,78
21.10833,78
21.11667,79
21.12500,79
21.13333,79
21.14167,79
21.15000,79
21.15833,79
21.16667,79
21.17500,79
21.18333,79
21.19167,79
21.20000,79
21.20833,79
21.21667,79
21.22500,80
21.23333,80
21.24167,80
21.25000,80
21.25833,81
21.26667,81
21.27500,82
21.28333,82
21.29167,82
21.30000,83
21.30833,83
21.31667,84
21.32500,85
21.33333,87
21.34167,89
21.35000,90
21.35833,92
21.36667,95
21.37500,97
21.38333,100
21.39167,103
21.40000,107
21.40833,110
21.41667,114
21.42500,119
21.43333,125
21.44167,131
21.45000,139
21.45833,147
21.46667,156
21.47500,167
21.48333,178
21.49167,192
21.50000,207
21.50833,224
21.51667,243
21.52500,265
21.53333,289
21.54167,317
21.55000,349
21.55833,385
21.56667,426
21.57500,471
21.58333,523
21.59167,581
21.60000,646
21.60833,720
21.61667,802
21.62500,894
21.63333,996
21.64167,1111
21.65000,1238
21.65833,1380
21.66667,1537
21.67500,1711
21.68333,1902
21.69167,2113
21.70000,2344
21.70833,2597
21.71667,2874
21.72500,3176
21.73333,3504
21.74167,3858
21.75000,4241
21.75833,4653
21.76667,5094
21.77500,5566
21.78333,6070
21.79167,6604
21.80000,7169
21.80833,7766
21.81667,8392
21.82500,9048
21.83333,9733
21.84167,10444
21.85000,11180
21.85833,11939
21.86667,12718
21.87500,13515
21.88333,14326
21.89167,15148
21.90000,15978
21.90833,16811
21.91667,17643
21.92500,18471
21.93333,19289
21.94167,20093
21.95000,20878
21.95833,21641
21.96667,22375
21.97500,23078
21.98333,23744
21.99167,24370
22.00000,24952
22.00833,25485
22.01667,25968
22.02500,26396
22.03333,26767
22.04167,27080
22.05000,27331
22.05833,27521
22.06667,27648
22.07500,27712
22.08333,27713
22.09167,27652
22.10000,27529
22.10833,27345
22.11667,27104
22.12500,26806
22.13333,26454
22.14167,26052
22.15000,25601
22.15833,25106
22.16667,24570
22.17500,23996
22.18333,23389
22.19167,22753
22.20000,22091
22.20833,21406
22.21667,20704
22.22500,19988
22.23333,19262
22.24167,18528
22.25000,17791
22.25833,17053
22.26667,16317
22.27500,15587
22.28333,14866
22.29167,14155
22.30000,13457
22.30833,12774
22.31667,12108
22.32500,11460
22.33333,10830
22.34167,10221
22.35000,9634
22.35833,9068
22.36667,8526
22.37500,8006
22.38333,7509
22.39167,7036
22.40000,6586
22.40833,6158
22.41667,5753
22.42500,5370
22.43333,5008
22.44167,4667
22.45000,4347
22.45833,4046
22.46667,3764
22.47500,3500
22.48333,3254
22.49167,3023
22.50000,2809
22.50833,2610
22.51667,2425
22.52500,2253
22.53333,2093
22.54167,1945
22.55000,1809
22.55833,1682
22.56667,1565
22.57500,1458
22.58333,1359
22.59167,1268
22.60000,1184
22.60833,1106
22.61667,1035
22.62500,969
22.63333,909
22.64167,854
22.65000,803
22.65833,757
22.66667,714
22.67500,675
22.68333,639
22.69167,606
22.70000,576
22.70833,549
22.71667,524
22.72500,501
22.73333,479
22.74167,459
22.75000,441
22.75833,424
22.76667,409
22.77500,395
22.78333,382
22.79167,370
22.80000,359
22.80833,348
22.81667,339
22.82500,330
22.83333,321
22.84167,313
22.85000,306
22.85833,298
22.86667,292
22.87500,286
22.88333,280
22.89167,275
22.90000,270
22.90833,265
22.91667,261
22.92500,256
22.93333,252
22.94167,249
22.95000,246
22.95833,242
22.96667,239
22.97500,237
22.98333,234
22.99167,231
23.00000,228
23.00833,226
23.01667,224
23.02500,222
23.03333,220
23.04167,218
23.05000,216
23.05833,214
23.06667,213
23.07500,211
23.08333,209
23.09167,207
23.10000,205
23.10833,204
23.11667,202
23.12500,200
23.13333,199
23.14167,197
23.15000,195
23.15833,194
23.16667,192
23.17500,191
23.18333,190
23.19167,189
23.20000,188
23.20833,187
23.21667,186
23.22500,185
23.23333,184
23.24167,183
23.25000,182
23.25833,181
23.26667,180
23.27500,179
23.28333,177
23.29167,176
23.30000,175
23.30833,174
23.31667,173
23.32500,172
23.33333,171
23.34167,170
23.35000,168
23.35833,167
23.36667,166
23.37500,166
23.38333,165
23.39167,164
23.40000,163
23.40833,163
23.41667,162
23.42500,161
23.43333,160
23.44167,160
23.45000,159
23.45833,158
23.46667,158
23.47500,157
23.48333,157
23.49167,156
23.50000,155
23.50833,154
23.51667,153
23.52500,153
23.53333,152
23.54167,151
23.55000,151
23.55833,150
23.56667,149
23.57500,149
23.58333,148
23.59167,148
23.60000,147
23.60833,147
23.61667,146
23.62500,146
23.63333,145
23.64167,144
23.65000,144
23.65833,144
23.66667,143
23.67500,143
23.68333,142
23.69167,142
23.70000,141
23.70833,141
23.71667,140
23.72500,140
23.73333,140
23.74167,139
23.75000,139
23.75833,138
23.76667,138
23.77500,137
23.78333,137
23.79167,136
23.80000,136
23.80833,136
23.81667,135
23.82500,135
23.83333,135
23.84167,135
23.85000,134
23.85833,134
23.86667,134
23.87500,133
23.88333,133
23.89167,133
23.90000,133
23.90833,132
23.91667,132
23.92500,133
23.93333,133
23.94167,132
23.95000,132
23.95833,132
23.96667,132
23.97500,132
23.98333,132
23.99167,131
24.00000,131
24.00833,131
24.01667,130
24.02500,130
24.03333,129
24.04167,129
24.05000,128
24.05833,128
24.06667,127
24.07500,127
24.08333,127
24.09167,127
24.10000,127
24.10833,127
24.11667,127
24.12500,127
24.13333,126
24.14167,126
24.15000,126
24.15833,126
24.16667,126
24.17500,126
24.18333,126
24.19167,126
24.20000,126
24.20833,126
24.21667,126
24.22500,126
24.23333,126
24.24167,126
24.25000,126
24.25833,126
24.26667,127
24.27500,127
24.28333,127
24.29167,128
24.30000,128
24.30833,128
24.31667,129
24.32500,130
24.33333,131
24.34167,133
24.35000,135
24.35833,137
24.36667,139
24.37500,142
24.38333,145
24.39167,148
24.40000,152
24.40833,156
24.41667,161
24.42500,167
24.43333,173
24.44167,180
24.45000,187
24.45833,195
24.46667,205
24.47500,215
24.48333,227
24.49167,240
24.50000,254
24.50833,270
24.51667,288
24.52500,307
24.53333,329
24.54167,354
24.55000,381
24.55833,411
24.56667,445
24.57500,481
24.58333,522
24.59167,566
24.60000,615
24.60833,669
24.61667,727
24.62500,791
24.63333,861
24.64167,938
24.65000,1021
24.65833,1110
24.66667,1207
24.67500,1312
24.68333,1424
24.69167,1545
24.70000,1675
24.70833,1814
24.71667,1961
24.72500,2118
24.73333,2283
24.74167,2459
24.75000,2644
24.75833,2839
24.76667,3043
24.77500,3257
24.78333,3480
24.79167,3712
24.80000,3953
24.80833,4201
24.81667,4457
24.82500,4720
24.83333,4988
24.84167,5262
24.85000,5541
24.85833,5822
24.86667,6106
24.87500,6391
24.88333,6675
24.89167,6959
24.90000,7240
24.90833,7518
24.91667,7790
24.92500,8056
24.93333,8314
24.94167,8563
24.95000,8802
24.95833,9029
24.96667,9244
24.97500,9445
24.98333,9631
24.99167,9802
25.00000,9955
25.00833,10091
25.01667,10210
25.02500,10309
25.03333,10390
25.04167,10450
25.05000,10492
25.05833,10513
25.06667,10515
25.07500,10497
25.08333,10460
25.09167,10403
25.10000,10327
25.10833,10234
25.11667,10124
25.12500,9997
25.13333,9854
25.14167,9696
25.15000,9524
25.15833,9339
25.16667,9142
25.17500,8934
25.18333,8716
25.19167,8490
25.20000,8256
25.20833,8015
25.21667,7769
25.22500,7519
25.23333,7266
25.24167,7011
25.25000,6754
25.25833,6497
25.26667,6241
25.27500,5986
25.28333,5733
25.29167,5484
25.30000,5238
25.30833,4996
25.31667,4760
25.32500,4529
25.33333,4304
25.34167,4085
25.35000,3873
25.35833,3667
25.36667,3468
25.37500,3276
25.38333,3092
25.39167,2916
25.40000,2747
25.40833,2585
25.41667,2431
25.42500,2284
25.43333,2144
25.44167,2012
25.45000,1886
25.45833,1768
25.46667,1656
25.47500,1550
25.48333,1451
25.49167,1357
25.50000,1269
25.50833,1187
25.51667,1111
25.52500,1039
25.53333,973
25.54167,911
25.55000,853
25.55833,799
25.56667,750
25.57500,704
25.58333,661
25.59167,621
25.60000,584
25.60833,550
25.61667,519
25.62500,489
25.63333,463
25.64167,438
25.65000,415
25.65833,394
25.66667,375
25.67500,357
25.68333,340
25.69167,325
25.70000,311
25.70833,299
25.71667,287
25.72500,277
25.73333,267
25.74167,258
25.75000,250
25.75833,242
25.76667,235
25.77500,229
25.78333,223
25.79167,217
25.80000,212
25.80833,208
25.81667,204
25.82500,200
25.83333,196
25.84167,193
25.85000,190
25.85833,187
25.86667,184
25.87500,182
25.88333,179
25.89167,177
25.90000,175
25.90833,173
25.91667,171
25.92500,169
25.93333,167
25.94167,166
25.95000,164
25.95833,162
25.96667,161
25.97500,159
25.98333,158
25.99167,157
26.00000,156
26.00833,155
26.01667,154
26.02500,153
26.03333,152
26.04167,151
26.05000,150
26.05833,149
26.06667,148
26.07500,147
26.08333,147
26.09167,146
26.10000,145
26.10833,144
26.11667,144
26.12500,143
26.13333,143
26.14167,142
26.15000,141
26.15833,140
26.16667,139
26.17500,138
26.18333,138
26.19167,137
26.20000,136
26.20833,136
26.21667,135
26.22500,135
26.23333,134
26.24167,134
26.25000,133
26.25833,133
26.26667,132
26.27500,132
26.28333,132
26.29167,131
26.30000,131
26.30833,131
26.31667,131
26.32500,130
26.33333,130
26.34167,129
26.35000,129
26.35833,129
26.36667,129
26.37500,128
26.38333,128
26.39167,128
26.40000,128
26.40833,127
26.41667,127
26.42500,126
26.43333,126
26.44167,126
26.45000,125
26.45833,125
26.46667,125
26.47500,125
26.48333,125
26.49167,125
26.50000,125
26.50833,125
26.51667,125
26.52500,125
26.53333,125
26.54167,125
26.55000,125
26.55833,125
26.56667,125
26.57500,125
26.58333,125
26.59167,125
26.60000,125
26.60833,125
26.61667,125
26.62500,125
26.63333,124
26.64167,124
26.65000,124
26.65833,124
26.66667,123
26.67500,123
26.68333,123
26.69167,122
26.70000,122
26.70833,123
26.71667,123
26.72500,122
26.73333,122
26.74167,122
26.75000,122
26.75833,122
26.76667,122
26.77500,122
26.78333,122
26.79167,122
26.80000,122
26.80833,122
26.81667,122
26.82500,121
26.83333,121
26.84167,122
26.85000,122
26.85833,121
26.86667,121
26.87500,120
26.88333,120
26.89167,119
26.90000,118
26.90833,118
26.91667,118
26.92500,118
26.93333,118
26.94167,117
26.95000,117
26.95833,117
26.96667,117
26.97500,117
26.98333,117
26.99167,117
27.00000,117
27.00833,117
27.01667,116
27.02500,116
27.03333,116
27.04167,116
27.05000,115
27.05833,115
27.06667,115
27.07500,115
27.08333,114
27.09167,114
27.10000,114
27.10833,114
27.11667,113
27.12500,113
27.13333,112
27.14167,112
27.15000,112
27.15833,112
27.16667,111
27.17500,111
27.18333,111
27.19167,111
27.20000,111
27.20833,111
27.21667,110
27.22500,110
27.23333,110
27.24167,110
27.25000,110
27.25833,111
27.26667,111
27.27500,111
27.28333,111
27.29167,111
27.30000,111
27.30833,111
27.31667,110
27.32500,110
27.33333,110
27.34167,110
27.35000,109
27.35833,109
27.36667,109
27.37500,109
27.38333,108
27.39167,108
27.40000,108
27.40833,108
27.41667,108
27.42500,108
27.43333,108
27.44167,108
27.45000,109
27.45833,109
27.46667,109
27.47500,109
27.48333,109
27.49167,109
27.50000,109
27.50833,109
27.51667,109
27.52500,109
27.53333,109
27.54167,109
27.55000,109
27.55833,109
27.56667,109
27.57500,108
27.58333,108
27.59167,107
27.60000,107
27.60833,107
27.61667,107
27.62500,107
27.63333,107
27.64167,107
27.65000,107
27.65833,107
27.66667,107
27.67500,107
27.68333,107
27.69167,107
27.70000,106
27.70833,106
27.71667,106
27.72500,106
27.73333,105
27.74167,105
27.75000,105
27.75833,105
27.76667,105
27.77500,105
27.78333,104
27.79167,104
27.80000,104
27.80833,104
27.81667,103
27.82500,103
27.83333,102
27.84167,101
27.85000,101
27.85833,100
27.86667,100
27.87500,100
27.88333,99
27.89167,98
27.90000,97
27.90833,96
27.91667,95
27.92500,94
27.93333,93
27.94167,91
27.95000,90
27.95833,89
27.96667,88
27.97500,87
27.98333,86
27.99167,85
28.00000,83
28.00833,81
28.01667,79
28.02500,77
28.03333,76
28.04167,74
28.05000,72
28.05833,70
28.06667,68
28.07500,65
28.08333,62
28.09167,60
28.10000,57
28.10833,54
28.11667,52
28.12500,49
28.13333,47
28.14167,44
28.15000,41
28.15833,38
28.16667,35
28.17500,32
28.18333,30
28.19167,26
28.20000,23
28.20833,20
28.21667,16
28.22500,13
28.23333,9
28.24167,6
28.25000,3
28.25833,-0
28.26667,-3
28.27500,-6
28.28333,-9
28.29167,-12
28.30000,-15
28.30833,-18
28.31667,-21
28.32500,-24
28.33333,-27
28.34167,-30
28.35000,-32
28.35833,-34
28.36667,-36
28.37500,-38
28.38333,-39
28.39167,-41
28.40000,-43
28.40833,-44
28.41667,-45
28.42500,-46
28.43333,-46
28.44167,-46
28.45000,-46
28.45833,-46
28.46667,-46
28.47500,-46
28.48333,-46
28.49167,-46
28.50000,-46
28.50833,-45
28.51667,-44
28.52500,-43
28.53333,-41
28.54167,-40
28.55000,-39
28.55833,-38
28.56667,-36
28.57500,-35
28.58333,-33
28.59167,-31
28.60000,-28
28.60833,-26
28.61667,-23
28.62500,-21
28.63333,-18
28.64167,-15
28.65000,-12
28.65833,-10
28.66667,-7
28.67500,-5
28.68333,-2
28.69167,1
28.70000,3
28.70833,6
28.71667,9
28.72500,11
28.73333,14
28.74167,17
28.75000,19
28.75833,22
28.76667,24
28.77500,27
28.78333,29
28.79167,31
28.80000,34
28.80833,36
28.81667,38
28.82500,40
28.83333,42
28.84167,45
28.85000,47
28.85833,49
28.86667,52
28.87500,54
28.88333,56
28.89167,58
28.90000,60
28.90833,62
28.91667,64
28.92500,66
28.93333,67
28.94167,68
28.95000,69
28.95833,70
28.96667,71
28.97500,72
28.98333,74
28.99167,75
29.00000,76
29.00833,76
29.01667,78
29.02500,78
29.03333,79
29.04167,80
29.05000,81
29.05833,81
29.06667,82
29.07500,83
29.08333,84
29.09167,84
29.10000,85
29.10833,86
29.11667,86
29.12500,87
29.13333,87
29.14167,88
29.15000,88
29.15833,88
29.16667,89
29.17500,89
29.18333,89
29.19167,90
29.20000,90
29.20833,91
29.21667,91
29.22500,92
29.23333,92
29.24167,92
29.25000,92
29.25833,92
29.26667,92
29.27500,91
29.28333,91
29.29167,91
29.30000,92
29.30833,92
29.31667,92
29.32500,93
29.33333,93
29.34167,93
29.35000,93
29.35833,94
29.36667,94
29.37500,94
29.38333,93
29.39167,94
29.40000,94
29.40833,94
29.41667,94
29.42500,94
29.43333,94
29.44167,94
29.45000,94
29.45833,94
29.46667,94
29.47500,94
29.48333,94
29.49167,94
29.50000,94
29.50833,93
29.51667,93
29.52500,93
29.53333,93
29.54167,92
29.55000,93
29.55833,93
29.56667,93
29.57500,92
29.58333,92
29.59167,92
29.60000,92
29.60833,91
29.61667,91
29.62500,91
29.63333,90
29.64167,90
29.65000,90
29.65833,89
29.66667,89
29.67500,88
29.68333,88
29.69167,87
29.70000,87
29.70833,86
29.71667,86
29.72500,85
29.73333,84
29.74167,83
29.75000,82
29.75833,81
29.76667,81
29.77500,80
29.78333,79
29.79167,79
29.80000,78
29.80833,77
29.81667,77
29.82500,76
29.83333,75
29.84167,74
29.85000,73
29.85833,72
29.86667,71
29.87500,70
29.88333,68
29.89167,67
29.90000,66
29.90833,65
29.91667,64
29.92500,62
29.93333,61
29.94167,60
29.95000,59
29.95833,58
29.96667,56
29.97500,55
29.98333,54
29.99167,52
30.00000,51
30.00833,50
30.01667,49
30.02500,48
30.03333,47
30.04167,46
30.05000,46
30.05833,44
30.06667,43
30.07500,42
30.08333,41
30.09167,40
30.10000,40
30.10833,39
30.11667,39
30.12500,38
30.13333,38
30.14167,38
30.15000,38
30.15833,37
30.16667,36
30.17500,36
30.18333,36
30.19167,36
30.20000,36
30.20833,35
30.21667,35
30.22500,35
30.23333,35
30.24167,36
30.25000,36
30.25833,36
30.26667,37
30.27500,37
30.28333,37
30.29167,37
30.30000,38
30.30833,38
30.31667,39
30.32500,40
30.33333,41
30.34167,42
30.35000,43
30.35833,44
30.36667,45
30.37500,45
30.38333,46
30.39167,46
30.40000,47
30.40833,48
30.41667,49
30.42500,50
30.43333,51
30.44167,52
30.45000,53
30.45833,54
30.46667,55
30.47500,56
30.48333,57
30.49167,58
30.50000,59
30.50833,60
30.51667,61
30.52500,62
30.53333,64
30.54167,65
30.55000,66
30.55833,67
30.56667,68
30.57500,69
30.58333,70
30.59167,70
30.60000,71
30.60833,72
30.61667,73
30.62500,74
30.63333,74
30.64167,74
30.65000,75
30.65833,76
30.66667,77
30.67500,77
30.68333,78
30.69167,78
30.70000,79
30.70833,80
30.71667,80
30.72500,81
30.73333,82
30.74167,82
30.75000,83
30.75833,83
30.76667,84
30.77500,84
30.78333,85
30.79167,85
30.80000,85
30.80833,85
30.81667,86
30.82500,86
30.83333,86
30.84167,86
30.85000,87
30.85833,87
30.86667,87
30.87500,88
30.88333,88
30.89167,88
30.90000,87
30.90833,87
30.91667,87
30.92500,87
30.93333,87
30.94167,87
30.95000,87
30.95833,88
30.96667,88
30.97500,89
30.98333,89
30.99167,89
31.00000,89
31.00833,89
31.01667,89
31.02500,89
31.03333,90
31.04167,90
31.05000,90
31.05833,90
31.06667,90
31.07500,90
31.08333,90
31.09167,90
31.10000,90
31.10833,90
31.11667,90
31.12500,90
31.13333,90
31.14167,90
31.15000,90
31.15833,89
31.16667,89
31.17500,90
31.18333,90
31.19167,91
31.20000,91
31.20833,91
31.21667,91
31.22500,92
31.23333,92
31.24167,93
31.25000,93
31.25833,93
31.26667,93
31.27500,93
31.28333,93
31.29167,93
31.30000,93
31.30833,93
31.31667,94
31.32500,94
31.33333,94
31.34167,94
31.35000,94
31.35833,94
31.36667,94
31.37500,93
31.38333,93
31.39167,94
31.40000,94
31.40833,94
31.41667,94
31.42500,94
31.43333,94
31.44167,95
31.45000,95
31.45833,96
31.46667,96
31.47500,96
31.48333,96
31.49167,96
31.50000,97
31.50833,97
31.51667,97
31.52500,97
31.53333,97
31.54167,97
31.55000,98
31.55833,98
31.56667,98
31.57500,98
31.58333,98
31.59167,97
31.60000,97
31.60833,97
31.61667,98
31.62500,98
31.63333,98
31.64167,98
31.65000,98
31.65833,99
31.66667,99
31.67500,99
31.68333,98
31.69167,98
31.70000,98
31.70833,98
31.71667,98
31.72500,98
31.73333,99
31.74167,99
31.75000,99
31.75833,99
31.76667,99
31.77500,99
31.78333,99
31.79167,98
31.80000,98
31.80833,98
31.81667,99
31.82500,99
31.83333,99
31.84167,99
31.85000,99
31.85833,98
31.86667,99
31.87500,99
31.88333,99
31.89167,99
31.90000,99
31.90833,100
31.91667,100
31.92500,100
31.93333,101
31.94167,100
31.95000,100
31.95833,100
31.96667,100
31.97500,100
31.98333,100
31.99167,100
32.00000,100
32.00833,100
32.01667,100
32.02500,101
32.03333,100
32.04167,100
32.05000,100
32.05833,100
32.06667,100
32.07500,100
32.08333,100
32.09167,100
32.10000,99
32.10833,99
32.11667,99
32.12500,99
32.13333,99
32.14167,99
32.15000,99
32.15833,99
32.16667,99
32.17500,99
32.18333,99
32.19167,100
32.20000,100
32.20833,100
32.21667,100
32.22500,100
32.23333,100
32.24167,100
32.25000,100
32.25833,101
32.26667,101
32.27500,101
32.28333,101
32.29167,100
32.30000,100
32.30833,100
32.31667,100
32.32500,100
32.33333,100
32.34167,100
32.35000,100
32.35833,100
32.36667,100
32.37500,100
32.38333,100
32.39167,101
32.40000,101
32.40833,100
32.41667,100
32.42500,100
32.43333,100
32.44167,99
32.45000,99
32.45833,100
32.46667,100
32.47500,100
32.48333,100
32.49167,100
32.50000,100
32.50833,100
32.51667,100
32.52500,100
32.53333,100
32.54167,99
32.55000,99
32.55833,100
32.56667,100
32.57500,100
32.58333,100
32.59167,100
32.60000,101
32.60833,100
32.61667,100
32.62500,100
32.63333,100
32.64167,100
32.65000,101
32.65833,101
32.66667,101
32.67500,101
32.68333,101
32.69167,101
32.70000,101
32.70833,101
32.71667,101
32.72500,101
32.73333,101
32.74167,101
32.75000,101
32.75833,101
32.76667,101
32.77500,101
32.78333,100
32.79167,100
32.80000,101
32.80833,101
32.81667,101
32.82500,101
32.83333,102
32.84167,102
32.85000,102
32.85833,102
32.86667,102
32.87500,102
32.88333,102
32.89167,102
32.90000,102
32.90833,102
32.91667,103
32.92500,102
32.93333,102
32.94167,102
32.95000,102
32.95833,102
32.96667,102
32.97500,102
32.98333,101
32.99167,101
33.00000,101
33.00833,101
33.01667,101
33.02500,101
33.03333,101
33.04167,101
33.05000,101
33.05833,101
33.06667,101
33.07500,101
33.08333,101
33.09167,102
33.10000,102
33.10833,102
33.11667,102
33.12500,102
33.13333,102
33.14167,102
33.15000,103
33.15833,103
33.16667,103
33.17500,103
33.18333,103
33.19167,102
33.20000,102
33.20833,102
33.21667,102
33.22500,102
33.23333,102
33.24167,102
33.25000,102
33.25833,102
33.26667,102
33.27500,102
33.28333,102
33.29167,102
33.30000,102
33.30833,102
33.31667,103
33.32500,103
33.33333,103
33.34167,103
33.35000,102
33.35833,102
33.36667,103
33.37500,103
33.38333,103
33.39167,103
33.40000,103
33.40833,103
33.41667,103
33.42500,103
33.43333,102
33.44167,102
33.45000,102
33.45833,102
33.46667,102
33.47500,102
33.48333,102
33.49167,102
33.50000,102
33.50833,102
33.51667,102
33.52500,103
33.53333,103
33.54167,104
33.55000,103
33.55833,103
33.56667,104
33.57500,104
33.58333,104
33.59167,104
33.60000,104
33.60833,104
33.61667,104
33.62500,104
33.63333,104
33.64167,104
33.65000,103
33.65833,103
33.66667,103
33.67500,103
33.68333,103
33.69167,103
33.70000,103
33.70833,103
33.71667,103
33.72500,103
33.73333,103
33.74167,103
33.75000,104
33.75833,104
33.76667,104
33.77500,104
33.78333,104
33.79167,104
33.80000,104
33.80833,105
33.81667,105
33.82500,105
33.83333,104
33.84167,104
33.85000,104
33.85833,104
33.86667,104
33.87500,104
33.88333,104
33.89167,104
33.90000,104
33.90833,104
33.91667,104
33.92500,103
33.93333,103
33.94167,103
33.95000,103
33.95833,104
33.96667,104
33.97500,105
33.98333,105
33.99167,105
34.00000,105
34.00833,105
34.01667,105
34.02500,105
34.03333,105
34.04167,105
34.05000,105
34.05833,105
34.06667,105
34.07500,105
34.08333,105
34.09167,105
34.10000,105
34.10833,105
34.11667,105
34.12500,104
34.13333,104
34.14167,104
34.15000,104
34.15833,104
34.16667,103
34.17500,104
34.18333,104
34.19167,104
34.20000,104
34.20833,104
34.21667,104
34.22500,104
34.23333,104
34.24167,104
34.25000,105
34.25833,105
34.26667,105
34.27500,105
34.28333,105
34.29167,105
34.30000,106
34.30833,105
34.31667,105
34.32500,105
34.33333,105
34.34167,105
34.35000,105
34.35833,105
34.36667,105
34.37500,104
34.38333,104
34.39167,104
34.40000,104
34.40833,104
34.41667,104
34.42500,105
34.43333,105
34.44167,105
34.45000,105
34.45833,105
34.46667,105
34.47500,105
34.48333,105
34.49167,105
34.50000,106
34.50833,106
34.51667,106
34.52500,106
34.53333,106
34.54167,106
34.55000,106
34.55833,106
34.56667,106
34.57500,106
34.58333,106
34.59167,106
34.60000,106
34.60833,106
34.61667,106
34.62500,106
34.63333,106
34.64167,106
34.65000,106
34.65833,106
34.66667,106
34.67500,106
34.68333,107
34.69167,107
34.70000,107
34.70833,107
34.71667,107
34.72500,107
34.73333,107
34.74167,107
34.75000,107
34.75833,107
34.76667,107
34.77500,107
34.78333,107
34.79167,107
34.80000,107
34.80833,108
34.81667,108
34.82500,108
34.83333,108
34.84167,107
34.85000,107
34.85833,107
34.86667,107
34.87500,107
34.88333,107
34.89167,107
34.90000,108
34.90833,108
34.91667,108
34.92500,108
34.93333,108
34.94167,108
34.95000,108
34.95833,109
34.96667,109
34.97500,109
34.98333,109
34.99167,109
35.00000,109
35.00833,109
35.01667,109
35.02500,109
35.03333,109
35.04167,109
35.05000,109
35.05833,108
35.06667,108
35.07500,108
35.08333,107
35.09167,107
35.10000,107
35.10833,107
35.11667,107
35.12500,107
35.13333,107
35.14167,107
35.15000,107
35.15833,108
35.16667,108
35.17500,108
35.18333,108
35.19167,109
35.20000,110
35.20833,110
35.21667,110
35.22500,110
35.23333,109
35.24167,109
35.25000,109
35.25833,110
35.26667,109
35.27500,109
35.28333,109
35.29167,109
35.30000,109
35.30833,109
35.31667,109
35.32500,109
35.33333,109
35.34167,109
35.35000,109
35.35833,109
35.36667,109
35.37500,108
35.38333,108
35.39167,108
35.40000,109
35.40833,109
35.41667,109
35.42500,109
35.43333,109
35.44167,109
35.45000,109
35.45833,109
35.46667,109
35.47500,110
35.48333,110
35.49167,110
35.50000,109
35.50833,109
35.51667,109
35.52500,109
35.53333,109
35.54167,109
35.55000,109
35.55833,109
35.56667,109
35.57500,109
35.58333,109
35.59167,109
35.60000,110
35.60833,111
35.61667,111
35.62500,111
35.63333,110
35.64167,110
35.65000,110
35.65833,111
35.66667,111
35.67500,111
35.68333,111
35.69167,111
35.70000,111
35.70833,111
35.71667,111
35.72500,111
35.73333,111
35.74167,111
35.75000,111
35.75833,111
35.76667,111
35.77500,111
35.78333,111
35.79167,111
35.80000,111
35.80833,111
35.81667,110
35.82500,110
35.83333,110
35.84167,110
35.85000,110
35.85833,111
35.86667,111
35.87500,112
35.88333,112
35.89167,112
35.90000,112
35.90833,112
35.91667,112
35.92500,111
35.93333,111
35.94167,111
35.95000,111
35.95833,111
35.96667,111
35.97500,111
35.98333,111
35.99167,111
36.00000,111
36.00833,110
36.01667,110
36.02500,110
36.03333,110
36.04167,110
36.05000,110
36.05833,110
36.06667,110
36.07500,110
36.08333,110
36.09167,111
36.10000,111
36.10833,111
36.11667,111
36.12500,111
36.13333,111
36.14167,111
36.15000,111
36.15833,111
36.16667,111
36.17500,110
36.18333,110
36.19167,110
36.20000,110
36.20833,110
36.21667,110
36.22500,110
36.23333,110
36.24167,110
36.25000,110
36.25833,111
36.26667,110
36.27500,110
36.28333,110
36.29167,110
36.30000,110
36.30833,110
36.31667,110
36.32500,110
36.33333,111
36.34167,111
36.35000,111
36.35833,111
36.36667,111
36.37500,111
36.38333,111
36.39167,111
36.40000,111
36.40833,111
36.41667,111
36.42500,110
36.43333,110
36.44167,111
36.45000,111
36.45833,111
36.46667,111
36.47500,110
36.48333,110
36.49167,110
36.50000,111
36.50833,111
36.51667,110
36.52500,110
36.53333,110
36.54167,111
36.55000,111
36.55833,111
36.56667,111
36.57500,111
36.58333,111
36.59167,111
36.60000,111
36.60833,111
36.61667,111
36.62500,111
36.63333,111
36.64167,112
36.65000,112
36.65833,112
36.66667,112
36.67500,111
36.68333,111
36.69167,111
36.70000,110
36.70833,110
36.71667,111
36.72500,111
36.73333,111
36.74167,111
36.75000,112
36.75833,112
36.76667,112
36.77500,112
36.78333,113
36.79167,113
36.80000,113
36.80833,113
36.81667,113
36.82500,113
36.83333,113
36.84167,113
36.85000,113
36.85833,113
36.86667,113
36.87500,113
36.88333,113
36.89167,113
36.90000,113
36.90833,113
36.91667,114
36.92500,114
36.93333,114
36.94167,114
36.95000,113
36.95833,113
36.96667,113
36.97500,113
36.98333,113
36.99167,113
37.00000,113
37.00833,113
37.01667,113
37.02500,112
37.03333,112
37.04167,113
37.05000,113
37.05833,113
37.06667,114
37.07500,114
37.08333,114
37.09167,114
37.10000,114
37.10833,114
37.11667,113
37.12500,113
37.13333,113
37.14167,113
37.15000,113
37.15833,113
37.16667,113
37.17500,113
37.18333,113
37.19167,113
37.20000,114
37.20833,114
37.21667,114
37.22500,114
37.23333,113
37.24167,113
37.25000,113
37.25833,113
37.26667,113
37.27500,114
37.28333,114
37.29167,114
37.30000,114
37.30833,114
37.31667,114
37.32500,114
37.33333,114
37.34167,113
37.35000,113
37.35833,113
37.36667,113
37.37500,113
37.38333,113
37.39167,113
37.40000,113
37.40833,113
37.41667,114
37.42500,114
37.43333,114
37.44167,114
37.45000,115
37.45833,114
37.46667,114
37.47500,114
37.48333,114
37.49167,113
37.50000,113
37.50833,113
37.51667,113
37.52500,113
37.53333,114
37.54167,114
37.55000,114
37.55833,115
37.56667,115
37.57500,115
37.58333,115
37.59167,115
37.60000,115
37.60833,115
37.61667,115
37.62500,115
37.63333,114
37.64167,114
37.65000,114
37.65833,114
37.66667,115
37.67500,115
37.68333,115
37.69167,115
37.70000,115
37.70833,115
37.71667,114
37.72500,115
37.73333,115
37.74167,116
37.75000,116
37.75833,116
37.76667,115
37.77500,115
37.78333,115
37.79167,115
37.80000,115
37.80833,115
37.81667,115
37.82500,115
37.83333,114
37.84167,114
37.85000,115
37.85833,116
37.86667,116
37.87500,116
37.88333,116
37.89167,117
37.90000,117
37.90833,116
37.91667,116
37.92500,116
37.93333,115
37.94167,116
37.95000,116
37.95833,116
37.96667,116
37.97500,116
37.98333,116
37.99167,117
38.00000,117
38.00833,116
38.01667,116
38.02500,116
38.03333,116
38.04167,116
38.05000,116
38.05833,116
38.06667,116
38.07500,116
38.08333,115
38.09167,115
38.10000,115
38.10833,116
38.11667,116
38.12500,116
38.13333,116
38.14167,116
38.15000,116
38.15833,117
38.16667,117
38.17500,117
38.18333,118
38.19167,118
38.20000,118
38.20833,118
38.21667,118
38.22500,117
38.23333,117
38.24167,117
38.25000,118
38.25833,118
38.26667,118
38.27500,118
38.28333,118
38.29167,118
38.30000,118
38.30833,118
38.31667,119
38.32500,119
38.33333,119
38.34167,119
38.35000,119
38.35833,119
38.36667,120
38.37500,120
38.38333,120
38.39167,120
38.40000,120
38.40833,120
38.41667,120
38.42500,120
38.43333,120
38.44167,120
38.45000,120
38.45833,120
38.46667,120
38.47500,120
38.48333,120
38.49167,120
38.50000,119
38.50833,119
38.51667,119
38.52500,119
38.53333,119
38.54167,118
38.55000,118
38.55833,119
38.56667,119
38.57500,119
38.58333,119
38.59167,120
38.60000,120
38.60833,120
38.61667,120
38.62500,120
38.63333,120
38.64167,119
38.65000,119
38.65833,119
38.66667,119
38.67500,119
38.68333,119
38.69167,119
38.70000,120
38.70833,120
38.71667,120
38.72500,120
38.73333,120
38.74167,119
38.75000,119
38.75833,119
38.76667,119
38.77500,118
38.78333,118
38.79167,118
38.80000,118
38.80833,118
38.81667,118
38.82500,118
38.83333,118
38.84167,118
38.85000,118
38.85833,119
38.86667,119
38.87500,119
38.88333,119
38.89167,119
38.90000,119
38.90833,119
38.91667,119
38.92500,119
38.93333,119
38.94167,119
38.95000,119
38.95833,119
38.96667,119
38.97500,119
38.98333,119
38.99167,119
39.00000,118
39.00833,118
39.01667,118
39.02500,117
39.03333,117
39.04167,117
39.05000,117
39.05833,117
39.06667,117
39.07500,118
39.08333,118
39.09167,118
39.10000,118
39.10833,118
39.11667,118
39.12500,118
39.13333,118
39.14167,118
39.15000,119
39.15833,119
39.16667,119
39.17500,119
39.18333,119
39.19167,118
39.20000,118
39.20833,118
39.21667,118
39.22500,118
39.23333,118
39.24167,118
39.25000,118
39.25833,119
39.26667,119
39.27500,119
39.28333,119
39.29167,118
39.30000,118
39.30833,118
39.31667,118
39.32500,118
39.33333,119
39.34167,119
39.35000,120
39.35833,120
39.36667,120
39.37500,120
39.38333,120
39.39167,119
39.40000,119
39.40833,119
39.41667,119
39.42500,119
39.43333,119
39.44167,120
39.45000,120
39.45833,120
39.46667,120
39.47500,120
39.48333,120
39.49167,120
39.50000,119
39.50833,119
39.51667,118
39.52500,118
39.53333,119
39.54167,119
39.55000,119
39.55833,119
39.56667,119
39.57500,119
39.58333,119
39.59167,119
39.60000,119
39.60833,119
39.61667,119
39.62500,120
39.63333,120
39.64167,119
39.65000,120
39.65833,120
39.66667,120
39.67500,120
39.68333,120
39.69167,120
39.70000,120
39.70833,120
39.71667,120
39.72500,120
39.73333,120
39.74167,120
39.75000,120
39.75833,120
39.76667,120
39.77500,120
39.78333,120
39.79167,121
39.80000,121
39.80833,121
39.81667,121
39.82500,120
39.83333,121
39.84167,120
39.85000,121
39.85833,121
39.86667,121
39.87500,121
39.88333,121
39.89167,121
39.90000,121
39.90833,121
39.91667,121
39.92500,121
39.93333,122
39.94167,121
39.95000,121
39.95833,121
39.96667,121
39.97500,121
39.98333,121
39.99167,120
40.00000,120

