[Header]
Application Name,LabSolutions
Version,5.97 SP1
Data File Name,C:\Users\cremerlab\Desktop\griffin\2021-03-31_NCM3722_NCglucose_turnover\2021-03-31_NCM3722_turnover_batch_3312021_004_025.lcd
Output Date,4/1/2021
Output Time,1:23:17 PM

[File Information]
Type,Data File
Generated,4/1/2021 12:42:58 PM
Generated by,System Administrator
Modified,4/1/2021 1:23:17 PM
Modified by,System Administrator

[Sample Information]
Operator Name,System Administrator
Acquired,4/1/2021 12:43:16 PM
Sample Type,1:Standard
Level,4
Sample Name,2021-03-31_NCM3722_NCglucose_replicate_04_timepoint_004
Sample ID,004
ISTD Amount1,1
ISTD Amount2,1
ISTD Amount3,1
ISTD Amount4,1
ISTD Amount5,1
ISTD Amount6,1
ISTD Amount7,1
ISTD Amount8,1
ISTD Amount9,1
ISTD Amount10,1
ISTD Amount11,1
ISTD Amount12,1
ISTD Amount13,1
ISTD Amount14,1
ISTD Amount15,1
ISTD Amount16,1
ISTD Amount17,1
ISTD Amount18,1
ISTD Amount19,1
ISTD Amount20,1
ISTD Amount21,1
ISTD Amount22,1
ISTD Amount23,1
ISTD Amount24,1
ISTD Amount25,1
ISTD Amount26,1
ISTD Amount27,1
ISTD Amount28,1
ISTD Amount29,1
ISTD Amount30,1
ISTD Amount31,1
ISTD Amount32,1
Sample Amount,1
Dilution Factor,1
Vial#,40
Injection Volume,20

[Original Files]
Data File,C:\Users\cremerlab\Desktop\griffin\2021-03-31_NCM3722_NCglucose_turnover\2021-03-31_NCM3722_turnover_batch_3312021_004_025.lcd
Method File,C:\LabSolutions\Data\Project1\organicacidsetc2.lcm
Batch File,C:\Users\cremerlab\Desktop\griffin\2021-03-31_NCM3722_NCglucose_turnover\2021-03-31_NCM3722_turnover_batch.lcb
Report Format File,c:\LabSolutions\System\DEFAULT.lsr

[File Description]


[Configuration]
Instrument Name,HPLC-PC-Instrument1
Instrument #,1
Line #,1
# of Detectors,2
Detector ID,Detector A,Detector B
Detector Name,Detector A,Detector B
# of Channels,1,1

[Peak Table(Detector A)]
# of Peaks,0

[Peak Table(Detector B)]
# of Peaks,5
Peak#,R.Time,I.Time,F.Time,Area,Height,A/H,Conc.,Mark,ID#,Name,k',Plate #,Plate Ht.,Tailing,Resolution,Sep.Factor,Area Ratio,Height Ratio,Conc. %,Norm Conc.
1,11.060,10.750,12.483,1220179,70429,17.325,0.000,   ,,,0.000,10746,13.958,1.273,0.000,0.000,0,0,0.000,0.000
2,15.109,14.100,15.400,3174942,119441,26.582,0.000,   ,,,0.366,7052,21.270,0.000,7.064,0.000,0,0,0.000,0.000
3,15.645,15.400,18.250,934720,38075,24.549,0.000, V ,,,0.415,8213,18.263,0.000,0.760,1.132,0,0,0.000,0.000
4,19.002,18.683,19.525,2362,107,22.163,0.000,   ,,,0.718,15358,9.767,1.224,5.150,1.732,0,0,0.000,0.000
5,25.060,24.608,25.700,6374,228,27.939,0.000,   ,,,1.266,18050,8.310,1.114,8.913,1.763,0,0,0.000,0.000

[LC Chromatogram(Detector B-Ch1)]
Interval(msec),500
# of Points,4801
Start Time(min),0.000
End Time(min),40.000
Intensity Units,mV
Intensity Multiplier,0.001
R.Time (min),Intensity
0.00000,-0
0.00833,-0
0.01667,0
0.02500,-0
0.03333,-0
0.04167,-1
0.05000,-1
0.05833,-1
0.06667,-0
0.07500,-0
0.08333,-0
0.09167,-0
0.10000,0
0.10833,1
0.11667,1
0.12500,1
0.13333,2
0.14167,1
0.15000,1
0.15833,1
0.16667,1
0.17500,1
0.18333,1
0.19167,1
0.20000,1
0.20833,2
0.21667,2
0.22500,2
0.23333,2
0.24167,1
0.25000,1
0.25833,1
0.26667,1
0.27500,1
0.28333,1
0.29167,1
0.30000,1
0.30833,1
0.31667,2
0.32500,2
0.33333,2
0.34167,3
0.35000,3
0.35833,3
0.36667,3
0.37500,3
0.38333,3
0.39167,3
0.40000,3
0.40833,3
0.41667,3
0.42500,3
0.43333,3
0.44167,3
0.45000,3
0.45833,2
0.46667,2
0.47500,2
0.48333,2
0.49167,2
0.50000,2
0.50833,2
0.51667,2
0.52500,3
0.53333,3
0.54167,3
0.55000,3
0.55833,4
0.56667,4
0.57500,4
0.58333,4
0.59167,4
0.60000,4
0.60833,4
0.61667,4
0.62500,3
0.63333,3
0.64167,3
0.65000,3
0.65833,3
0.66667,3
0.67500,2
0.68333,2
0.69167,2
0.70000,2
0.70833,2
0.71667,2
0.72500,2
0.73333,2
0.74167,2
0.75000,2
0.75833,2
0.76667,2
0.77500,2
0.78333,2
0.79167,2
0.80000,2
0.80833,2
0.81667,2
0.82500,2
0.83333,2
0.84167,2
0.85000,2
0.85833,2
0.86667,3
0.87500,2
0.88333,2
0.89167,2
0.90000,2
0.90833,2
0.91667,2
0.92500,2
0.93333,2
0.94167,2
0.95000,2
0.95833,2
0.96667,2
0.97500,2
0.98333,2
0.99167,2
1.00000,2
1.00833,2
1.01667,2
1.02500,3
1.03333,3
1.04167,3
1.05000,3
1.05833,3
1.06667,3
1.07500,3
1.08333,3
1.09167,3
1.10000,3
1.10833,3
1.11667,3
1.12500,3
1.13333,3
1.14167,3
1.15000,3
1.15833,3
1.16667,3
1.17500,3
1.18333,3
1.19167,3
1.20000,3
1.20833,3
1.21667,3
1.22500,3
1.23333,3
1.24167,2
1.25000,2
1.25833,2
1.26667,2
1.27500,2
1.28333,2
1.29167,2
1.30000,1
1.30833,1
1.31667,1
1.32500,1
1.33333,1
1.34167,1
1.35000,1
1.35833,2
1.36667,2
1.37500,3
1.38333,3
1.39167,3
1.40000,3
1.40833,3
1.41667,2
1.42500,2
1.43333,2
1.44167,2
1.45000,2
1.45833,2
1.46667,3
1.47500,3
1.48333,3
1.49167,3
1.50000,3
1.50833,3
1.51667,3
1.52500,3
1.53333,3
1.54167,3
1.55000,3
1.55833,3
1.56667,3
1.57500,3
1.58333,3
1.59167,3
1.60000,3
1.60833,4
1.61667,4
1.62500,4
1.63333,4
1.64167,4
1.65000,5
1.65833,4
1.66667,5
1.67500,5
1.68333,5
1.69167,5
1.70000,5
1.70833,5
1.71667,5
1.72500,5
1.73333,5
1.74167,5
1.75000,4
1.75833,4
1.76667,4
1.77500,4
1.78333,4
1.79167,4
1.80000,5
1.80833,5
1.81667,5
1.82500,5
1.83333,5
1.84167,5
1.85000,6
1.85833,6
1.86667,6
1.87500,7
1.88333,7
1.89167,7
1.90000,7
1.90833,7
1.91667,7
1.92500,7
1.93333,8
1.94167,8
1.95000,8
1.95833,8
1.96667,7
1.97500,7
1.98333,7
1.99167,7
2.00000,7
2.00833,7
2.01667,8
2.02500,8
2.03333,8
2.04167,8
2.05000,8
2.05833,8
2.06667,8
2.07500,8
2.08333,8
2.09167,8
2.10000,8
2.10833,7
2.11667,7
2.12500,8
2.13333,8
2.14167,8
2.15000,8
2.15833,8
2.16667,8
2.17500,8
2.18333,8
2.19167,8
2.20000,8
2.20833,7
2.21667,7
2.22500,7
2.23333,7
2.24167,7
2.25000,7
2.25833,6
2.26667,6
2.27500,6
2.28333,6
2.29167,6
2.30000,6
2.30833,6
2.31667,7
2.32500,7
2.33333,7
2.34167,7
2.35000,7
2.35833,7
2.36667,6
2.37500,6
2.38333,6
2.39167,6
2.40000,6
2.40833,6
2.41667,5
2.42500,5
2.43333,5
2.44167,5
2.45000,5
2.45833,5
2.46667,5
2.47500,5
2.48333,5
2.49167,6
2.50000,6
2.50833,6
2.51667,5
2.52500,5
2.53333,5
2.54167,5
2.55000,5
2.55833,5
2.56667,5
2.57500,5
2.58333,5
2.59167,4
2.60000,5
2.60833,5
2.61667,5
2.62500,5
2.63333,4
2.64167,4
2.65000,5
2.65833,5
2.66667,5
2.67500,5
2.68333,5
2.69167,5
2.70000,5
2.70833,5
2.71667,5
2.72500,5
2.73333,5
2.74167,5
2.75000,5
2.75833,4
2.76667,4
2.77500,4
2.78333,5
2.79167,4
2.80000,4
2.80833,4
2.81667,4
2.82500,4
2.83333,4
2.84167,4
2.85000,4
2.85833,4
2.86667,4
2.87500,3
2.88333,3
2.89167,3
2.90000,3
2.90833,3
2.91667,3
2.92500,3
2.93333,3
2.94167,3
2.95000,3
2.95833,4
2.96667,3
2.97500,3
2.98333,3
2.99167,3
3.00000,3
3.00833,3
3.01667,3
3.02500,3
3.03333,3
3.04167,4
3.05000,4
3.05833,4
3.06667,4
3.07500,4
3.08333,4
3.09167,3
3.10000,3
3.10833,3
3.11667,3
3.12500,3
3.13333,3
3.14167,3
3.15000,3
3.15833,3
3.16667,4
3.17500,4
3.18333,4
3.19167,4
3.20000,4
3.20833,5
3.21667,5
3.22500,5
3.23333,5
3.24167,5
3.25000,5
3.25833,5
3.26667,5
3.27500,5
3.28333,5
3.29167,5
3.30000,5
3.30833,5
3.31667,5
3.32500,5
3.33333,5
3.34167,5
3.35000,5
3.35833,5
3.36667,5
3.37500,5
3.38333,5
3.39167,5
3.40000,5
3.40833,6
3.41667,6
3.42500,6
3.43333,5
3.44167,5
3.45000,5
3.45833,5
3.46667,5
3.47500,5
3.48333,6
3.49167,6
3.50000,6
3.50833,6
3.51667,6
3.52500,6
3.53333,6
3.54167,6
3.55000,6
3.55833,5
3.56667,5
3.57500,5
3.58333,5
3.59167,5
3.60000,5
3.60833,5
3.61667,5
3.62500,6
3.63333,6
3.64167,6
3.65000,6
3.65833,6
3.66667,6
3.67500,6
3.68333,6
3.69167,6
3.70000,6
3.70833,6
3.71667,7
3.72500,7
3.73333,8
3.74167,8
3.75000,8
3.75833,8
3.76667,8
3.77500,8
3.78333,8
3.79167,7
3.80000,7
3.80833,8
3.81667,7
3.82500,8
3.83333,8
3.84167,8
3.85000,8
3.85833,8
3.86667,7
3.87500,7
3.88333,8
3.89167,8
3.90000,8
3.90833,8
3.91667,9
3.92500,9
3.93333,9
3.94167,9
3.95000,8
3.95833,8
3.96667,8
3.97500,9
3.98333,8
3.99167,8
4.00000,8
4.00833,8
4.01667,8
4.02500,8
4.03333,8
4.04167,8
4.05000,8
4.05833,8
4.06667,9
4.07500,9
4.08333,9
4.09167,9
4.10000,9
4.10833,9
4.11667,9
4.12500,9
4.13333,9
4.14167,9
4.15000,9
4.15833,9
4.16667,9
4.17500,9
4.18333,9
4.19167,9
4.20000,9
4.20833,9
4.21667,9
4.22500,10
4.23333,9
4.24167,9
4.25000,9
4.25833,9
4.26667,8
4.27500,8
4.28333,8
4.29167,8
4.30000,8
4.30833,8
4.31667,8
4.32500,8
4.33333,9
4.34167,9
4.35000,10
4.35833,10
4.36667,10
4.37500,10
4.38333,10
4.39167,10
4.40000,9
4.40833,9
4.41667,9
4.42500,9
4.43333,9
4.44167,8
4.45000,8
4.45833,8
4.46667,8
4.47500,8
4.48333,8
4.49167,8
4.50000,8
4.50833,8
4.51667,7
4.52500,7
4.53333,8
4.54167,8
4.55000,8
4.55833,8
4.56667,9
4.57500,9
4.58333,9
4.59167,9
4.60000,9
4.60833,9
4.61667,9
4.62500,9
4.63333,10
4.64167,9
4.65000,9
4.65833,8
4.66667,8
4.67500,7
4.68333,7
4.69167,7
4.70000,7
4.70833,7
4.71667,7
4.72500,7
4.73333,7
4.74167,7
4.75000,7
4.75833,7
4.76667,8
4.77500,8
4.78333,8
4.79167,8
4.80000,8
4.80833,7
4.81667,7
4.82500,7
4.83333,7
4.84167,7
4.85000,7
4.85833,7
4.86667,7
4.87500,7
4.88333,8
4.89167,8
4.90000,7
4.90833,8
4.91667,8
4.92500,7
4.93333,7
4.94167,7
4.95000,7
4.95833,7
4.96667,7
4.97500,7
4.98333,7
4.99167,7
5.00000,7
5.00833,7
5.01667,8
5.02500,8
5.03333,8
5.04167,8
5.05000,8
5.05833,9
5.06667,9
5.07500,9
5.08333,9
5.09167,8
5.10000,8
5.10833,9
5.11667,9
5.12500,8
5.13333,8
5.14167,8
5.15000,8
5.15833,8
5.16667,8
5.17500,8
5.18333,8
5.19167,8
5.20000,8
5.20833,9
5.21667,9
5.22500,9
5.23333,9
5.24167,9
5.25000,9
5.25833,9
5.26667,9
5.27500,9
5.28333,9
5.29167,9
5.30000,9
5.30833,9
5.31667,10
5.32500,9
5.33333,9
5.34167,9
5.35000,9
5.35833,9
5.36667,8
5.37500,8
5.38333,8
5.39167,8
5.40000,8
5.40833,8
5.41667,9
5.42500,9
5.43333,9
5.44167,9
5.45000,9
5.45833,9
5.46667,9
5.47500,9
5.48333,9
5.49167,10
5.50000,10
5.50833,9
5.51667,9
5.52500,9
5.53333,9
5.54167,9
5.55000,9
5.55833,9
5.56667,9
5.57500,9
5.58333,9
5.59167,10
5.60000,10
5.60833,10
5.61667,10
5.62500,10
5.63333,10
5.64167,10
5.65000,9
5.65833,9
5.66667,9
5.67500,10
5.68333,9
5.69167,9
5.70000,9
5.70833,9
5.71667,10
5.72500,10
5.73333,10
5.74167,10
5.75000,10
5.75833,10
5.76667,9
5.77500,9
5.78333,9
5.79167,10
5.80000,10
5.80833,10
5.81667,10
5.82500,10
5.83333,9
5.84167,9
5.85000,9
5.85833,9
5.86667,9
5.87500,9
5.88333,9
5.89167,9
5.90000,9
5.90833,9
5.91667,9
5.92500,9
5.93333,9
5.94167,9
5.95000,9
5.95833,10
5.96667,10
5.97500,10
5.98333,10
5.99167,10
6.00000,9
6.00833,9
6.01667,9
6.02500,9
6.03333,9
6.04167,9
6.05000,9
6.05833,9
6.06667,9
6.07500,10
6.08333,10
6.09167,11
6.10000,11
6.10833,11
6.11667,11
6.12500,10
6.13333,10
6.14167,10
6.15000,10
6.15833,10
6.16667,11
6.17500,11
6.18333,11
6.19167,11
6.20000,11
6.20833,11
6.21667,11
6.22500,11
6.23333,11
6.24167,11
6.25000,11
6.25833,11
6.26667,10
6.27500,10
6.28333,11
6.29167,11
6.30000,11
6.30833,11
6.31667,11
6.32500,12
6.33333,12
6.34167,12
6.35000,12
6.35833,12
6.36667,12
6.37500,12
6.38333,12
6.39167,12
6.40000,12
6.40833,12
6.41667,12
6.42500,12
6.43333,12
6.44167,12
6.45000,11
6.45833,11
6.46667,11
6.47500,12
6.48333,12
6.49167,12
6.50000,12
6.50833,12
6.51667,12
6.52500,12
6.53333,12
6.54167,12
6.55000,12
6.55833,12
6.56667,13
6.57500,13
6.58333,13
6.59167,14
6.60000,14
6.60833,14
6.61667,14
6.62500,14
6.63333,14
6.64167,14
6.65000,14
6.65833,14
6.66667,13
6.67500,13
6.68333,13
6.69167,13
6.70000,12
6.70833,13
6.71667,13
6.72500,13
6.73333,12
6.74167,12
6.75000,12
6.75833,12
6.76667,13
6.77500,13
6.78333,13
6.79167,13
6.80000,13
6.80833,13
6.81667,13
6.82500,13
6.83333,13
6.84167,13
6.85000,13
6.85833,13
6.86667,14
6.87500,14
6.88333,14
6.89167,14
6.90000,14
6.90833,13
6.91667,13
6.92500,13
6.93333,13
6.94167,13
6.95000,13
6.95833,13
6.96667,13
6.97500,13
6.98333,13
6.99167,13
7.00000,13
7.00833,13
7.01667,13
7.02500,12
7.03333,12
7.04167,13
7.05000,13
7.05833,13
7.06667,13
7.07500,13
7.08333,13
7.09167,13
7.10000,13
7.10833,13
7.11667,12
7.12500,12
7.13333,12
7.14167,12
7.15000,12
7.15833,12
7.16667,12
7.17500,12
7.18333,12
7.19167,12
7.20000,12
7.20833,13
7.21667,12
7.22500,12
7.23333,12
7.24167,12
7.25000,12
7.25833,11
7.26667,11
7.27500,11
7.28333,11
7.29167,12
7.30000,12
7.30833,12
7.31667,12
7.32500,12
7.33333,12
7.34167,12
7.35000,12
7.35833,12
7.36667,12
7.37500,12
7.38333,12
7.39167,12
7.40000,13
7.40833,13
7.41667,12
7.42500,12
7.43333,12
7.44167,12
7.45000,12
7.45833,12
7.46667,12
7.47500,12
7.48333,12
7.49167,12
7.50000,12
7.50833,13
7.51667,13
7.52500,13
7.53333,13
7.54167,13
7.55000,13
7.55833,12
7.56667,12
7.57500,12
7.58333,13
7.59167,13
7.60000,12
7.60833,12
7.61667,12
7.62500,11
7.63333,11
7.64167,12
7.65000,12
7.65833,13
7.66667,13
7.67500,13
7.68333,13
7.69167,13
7.70000,13
7.70833,13
7.71667,13
7.72500,13
7.73333,13
7.74167,13
7.75000,13
7.75833,13
7.76667,13
7.77500,12
7.78333,12
7.79167,12
7.80000,12
7.80833,12
7.81667,12
7.82500,12
7.83333,12
7.84167,12
7.85000,12
7.85833,13
7.86667,13
7.87500,13
7.88333,13
7.89167,13
7.90000,13
7.90833,13
7.91667,13
7.92500,13
7.93333,13
7.94167,13
7.95000,13
7.95833,13
7.96667,13
7.97500,13
7.98333,13
7.99167,13
8.00000,13
8.00833,13
8.01667,13
8.02500,13
8.03333,13
8.04167,13
8.05000,13
8.05833,13
8.06667,13
8.07500,13
8.08333,13
8.09167,14
8.10000,14
8.10833,15
8.11667,15
8.12500,15
8.13333,15
8.14167,15
8.15000,15
8.15833,15
8.16667,15
8.17500,15
8.18333,15
8.19167,14
8.20000,14
8.20833,15
8.21667,15
8.22500,14
8.23333,14
8.24167,14
8.25000,14
8.25833,14
8.26667,14
8.27500,14
8.28333,14
8.29167,14
8.30000,14
8.30833,14
8.31667,14
8.32500,14
8.33333,14
8.34167,14
8.35000,14
8.35833,14
8.36667,14
8.37500,14
8.38333,14
8.39167,14
8.40000,14
8.40833,14
8.41667,15
8.42500,15
8.43333,15
8.44167,15
8.45000,14
8.45833,14
8.46667,14
8.47500,13
8.48333,13
8.49167,13
8.50000,13
8.50833,13
8.51667,14
8.52500,14
8.53333,14
8.54167,15
8.55000,15
8.55833,15
8.56667,15
8.57500,15
8.58333,16
8.59167,16
8.60000,16
8.60833,16
8.61667,16
8.62500,16
8.63333,16
8.64167,16
8.65000,16
8.65833,16
8.66667,16
8.67500,15
8.68333,14
8.69167,14
8.70000,14
8.70833,13
8.71667,13
8.72500,14
8.73333,14
8.74167,14
8.75000,14
8.75833,14
8.76667,14
8.77500,14
8.78333,14
8.79167,15
8.80000,15
8.80833,15
8.81667,16
8.82500,16
8.83333,16
8.84167,16
8.85000,15
8.85833,15
8.86667,15
8.87500,15
8.88333,16
8.89167,16
8.90000,15
8.90833,15
8.91667,15
8.92500,15
8.93333,15
8.94167,15
8.95000,15
8.95833,15
8.96667,16
8.97500,16
8.98333,16
8.99167,15
9.00000,15
9.00833,15
9.01667,16
9.02500,16
9.03333,16
9.04167,16
9.05000,15
9.05833,15
9.06667,15
9.07500,15
9.08333,15
9.09167,15
9.10000,15
9.10833,15
9.11667,15
9.12500,15
9.13333,15
9.14167,15
9.15000,15
9.15833,15
9.16667,15
9.17500,15
9.18333,16
9.19167,16
9.20000,16
9.20833,16
9.21667,16
9.22500,16
9.23333,16
9.24167,16
9.25000,16
9.25833,16
9.26667,17
9.27500,17
9.28333,16
9.29167,16
9.30000,16
9.30833,17
9.31667,16
9.32500,16
9.33333,16
9.34167,16
9.35000,16
9.35833,16
9.36667,16
9.37500,16
9.38333,16
9.39167,16
9.40000,16
9.40833,16
9.41667,17
9.42500,17
9.43333,17
9.44167,17
9.45000,17
9.45833,17
9.46667,17
9.47500,17
9.48333,17
9.49167,17
9.50000,18
9.50833,17
9.51667,17
9.52500,17
9.53333,16
9.54167,16
9.55000,16
9.55833,16
9.56667,16
9.57500,16
9.58333,15
9.59167,16
9.60000,16
9.60833,16
9.61667,16
9.62500,16
9.63333,16
9.64167,17
9.65000,17
9.65833,17
9.66667,17
9.67500,17
9.68333,17
9.69167,17
9.70000,17
9.70833,17
9.71667,17
9.72500,17
9.73333,17
9.74167,17
9.75000,18
9.75833,18
9.76667,18
9.77500,17
9.78333,17
9.79167,17
9.80000,16
9.80833,17
9.81667,17
9.82500,17
9.83333,17
9.84167,17
9.85000,17
9.85833,17
9.86667,17
9.87500,17
9.88333,17
9.89167,17
9.90000,18
9.90833,18
9.91667,18
9.92500,18
9.93333,17
9.94167,18
9.95000,18
9.95833,18
9.96667,18
9.97500,18
9.98333,18
9.99167,18
10.00000,17
10.00833,17
10.01667,17
10.02500,17
10.03333,17
10.04167,17
10.05000,17
10.05833,17
10.06667,17
10.07500,17
10.08333,17
10.09167,17
10.10000,18
10.10833,18
10.11667,18
10.12500,19
10.13333,19
10.14167,19
10.15000,19
10.15833,18
10.16667,18
10.17500,18
10.18333,18
10.19167,18
10.20000,18
10.20833,18
10.21667,18
10.22500,18
10.23333,18
10.24167,19
10.25000,19
10.25833,19
10.26667,20
10.27500,20
10.28333,20
10.29167,20
10.30000,20
10.30833,20
10.31667,20
10.32500,21
10.33333,21
10.34167,21
10.35000,22
10.35833,22
10.36667,22
10.37500,22
10.38333,22
10.39167,22
10.40000,22
10.40833,23
10.41667,23
10.42500,24
10.43333,24
10.44167,24
10.45000,24
10.45833,24
10.46667,24
10.47500,24
10.48333,24
10.49167,23
10.50000,21
10.50833,19
10.51667,16
10.52500,11
10.53333,4
10.54167,-7
10.55000,-21
10.55833,-40
10.56667,-66
10.57500,-100
10.58333,-145
10.59167,-201
10.60000,-271
10.60833,-358
10.61667,-462
10.62500,-587
10.63333,-734
10.64167,-903
10.65000,-1097
10.65833,-1312
10.66667,-1550
10.67500,-1805
10.68333,-2074
10.69167,-2351
10.70000,-2629
10.70833,-2899
10.71667,-3150
10.72500,-3373
10.73333,-3554
10.74167,-3681
10.75000,-3740
10.75833,-3719
10.76667,-3603
10.77500,-3379
10.78333,-3035
10.79167,-2559
10.80000,-1942
10.80833,-1172
10.81667,-244
10.82500,851
10.83333,2117
10.84167,3557
10.85000,5173
10.85833,6967
10.86667,8938
10.87500,11081
10.88333,13395
10.89167,15872
10.90000,18505
10.90833,21284
10.91667,24199
10.92500,27235
10.93333,30376
10.94167,33602
10.95000,36890
10.95833,40211
10.96667,43535
10.97500,46824
10.98333,50038
10.99167,53130
11.00000,56050
11.00833,58747
11.01667,61166
11.02500,63253
11.03333,64958
11.04167,66237
11.05000,67052
11.05833,67380
11.06667,67208
11.07500,66536
11.08333,65381
11.09167,63773
11.10000,61753
11.10833,59372
11.11667,56689
11.12500,53767
11.13333,50670
11.14167,47460
11.15000,44198
11.15833,40938
11.16667,37727
11.17500,34604
11.18333,31603
11.19167,28748
11.20000,26057
11.20833,23541
11.21667,21206
11.22500,19055
11.23333,17083
11.24167,15286
11.25000,13656
11.25833,12184
11.26667,10859
11.27500,9672
11.28333,8610
11.29167,7664
11.30000,6822
11.30833,6075
11.31667,5413
11.32500,4827
11.33333,4310
11.34167,3853
11.35000,3451
11.35833,3096
11.36667,2784
11.37500,2509
11.38333,2266
11.39167,2052
11.40000,1864
11.40833,1699
11.41667,1552
11.42500,1423
11.43333,1308
11.44167,1207
11.45000,1117
11.45833,1037
11.46667,966
11.47500,902
11.48333,844
11.49167,793
11.50000,747
11.50833,706
11.51667,668
11.52500,634
11.53333,603
11.54167,574
11.55000,548
11.55833,524
11.56667,501
11.57500,481
11.58333,463
11.59167,445
11.60000,429
11.60833,414
11.61667,400
11.62500,387
11.63333,375
11.64167,364
11.65000,353
11.65833,343
11.66667,334
11.67500,325
11.68333,317
11.69167,309
11.70000,301
11.70833,294
11.71667,288
11.72500,281
11.73333,275
11.74167,270
11.75000,264
11.75833,259
11.76667,254
11.77500,249
11.78333,245
11.79167,241
11.80000,237
11.80833,233
11.81667,230
11.82500,227
11.83333,225
11.84167,222
11.85000,220
11.85833,217
11.86667,215
11.87500,212
11.88333,210
11.89167,208
11.90000,206
11.90833,204
11.91667,203
11.92500,201
11.93333,199
11.94167,198
11.95000,197
11.95833,196
11.96667,194
11.97500,192
11.98333,191
11.99167,189
12.00000,187
12.00833,186
12.01667,186
12.02500,185
12.03333,183
12.04167,182
12.05000,181
12.05833,180
12.06667,179
12.07500,178
12.08333,177
12.09167,176
12.10000,174
12.10833,173
12.11667,172
12.12500,171
12.13333,170
12.14167,169
12.15000,168
12.15833,166
12.16667,165
12.17500,164
12.18333,162
12.19167,161
12.20000,160
12.20833,159
12.21667,158
12.22500,158
12.23333,157
12.24167,156
12.25000,155
12.25833,154
12.26667,153
12.27500,152
12.28333,151
12.29167,150
12.30000,149
12.30833,148
12.31667,147
12.32500,146
12.33333,145
12.34167,144
12.35000,143
12.35833,143
12.36667,143
12.37500,142
12.38333,141
12.39167,140
12.40000,139
12.40833,138
12.41667,137
12.42500,136
12.43333,136
12.44167,135
12.45000,135
12.45833,135
12.46667,134
12.47500,133
12.48333,133
12.49167,133
12.50000,132
12.50833,132
12.51667,131
12.52500,131
12.53333,131
12.54167,130
12.55000,129
12.55833,129
12.56667,128
12.57500,128
12.58333,127
12.59167,127
12.60000,127
12.60833,126
12.61667,126
12.62500,125
12.63333,124
12.64167,124
12.65000,123
12.65833,123
12.66667,122
12.67500,122
12.68333,122
12.69167,121
12.70000,121
12.70833,120
12.71667,120
12.72500,120
12.73333,119
12.74167,119
12.75000,118
12.75833,118
12.76667,118
12.77500,117
12.78333,117
12.79167,116
12.80000,116
12.80833,115
12.81667,115
12.82500,115
12.83333,114
12.84167,114
12.85000,114
12.85833,114
12.86667,114
12.87500,114
12.88333,114
12.89167,114
12.90000,114
12.90833,114
12.91667,114
12.92500,115
12.93333,115
12.94167,115
12.95000,115
12.95833,116
12.96667,116
12.97500,116
12.98333,116
12.99167,116
13.00000,115
13.00833,116
13.01667,115
13.02500,115
13.03333,115
13.04167,115
13.05000,115
13.05833,115
13.06667,115
13.07500,115
13.08333,114
13.09167,114
13.10000,114
13.10833,114
13.11667,114
13.12500,114
13.13333,113
13.14167,113
13.15000,113
13.15833,113
13.16667,114
13.17500,114
13.18333,114
13.19167,114
13.20000,114
13.20833,113
13.21667,113
13.22500,112
13.23333,112
13.24167,111
13.25000,110
13.25833,110
13.26667,109
13.27500,108
13.28333,108
13.29167,107
13.30000,107
13.30833,106
13.31667,106
13.32500,105
13.33333,104
13.34167,103
13.35000,102
13.35833,102
13.36667,101
13.37500,100
13.38333,99
13.39167,98
13.40000,98
13.40833,97
13.41667,96
13.42500,95
13.43333,93
13.44167,92
13.45000,91
13.45833,90
13.46667,89
13.47500,88
13.48333,88
13.49167,87
13.50000,86
13.50833,85
13.51667,85
13.52500,84
13.53333,84
13.54167,83
13.55000,83
13.55833,83
13.56667,82
13.57500,82
13.58333,81
13.59167,81
13.60000,80
13.60833,80
13.61667,79
13.62500,79
13.63333,78
13.64167,78
13.65000,78
13.65833,78
13.66667,78
13.67500,77
13.68333,77
13.69167,77
13.70000,77
13.70833,77
13.71667,76
13.72500,76
13.73333,76
13.74167,76
13.75000,76
13.75833,76
13.76667,77
13.77500,78
13.78333,78
13.79167,78
13.80000,78
13.80833,79
13.81667,79
13.82500,79
13.83333,79
13.84167,80
13.85000,80
13.85833,81
13.86667,81
13.87500,81
13.88333,82
13.89167,82
13.90000,82
13.90833,83
13.91667,83
13.92500,83
13.93333,83
13.94167,83
13.95000,83
13.95833,83
13.96667,84
13.97500,84
13.98333,85
13.99167,86
14.00000,86
14.00833,87
14.01667,88
14.02500,88
14.03333,89
14.04167,90
14.05000,90
14.05833,92
14.06667,92
14.07500,93
14.08333,94
14.09167,95
14.10000,96
14.10833,97
14.11667,97
14.12500,98
14.13333,100
14.14167,102
14.15000,103
14.15833,105
14.16667,108
14.17500,111
14.18333,114
14.19167,118
14.20000,122
14.20833,128
14.21667,134
14.22500,143
14.23333,152
14.24167,164
14.25000,178
14.25833,195
14.26667,216
14.27500,240
14.28333,270
14.29167,305
14.30000,347
14.30833,397
14.31667,456
14.32500,525
14.33333,606
14.34167,700
14.35000,808
14.35833,933
14.36667,1076
14.37500,1239
14.38333,1423
14.39167,1631
14.40000,1863
14.40833,2122
14.41667,2410
14.42500,2726
14.43333,3074
14.44167,3454
14.45000,3867
14.45833,4314
14.46667,4797
14.47500,5315
14.48333,5870
14.49167,6460
14.50000,7088
14.50833,7754
14.51667,8457
14.52500,9197
14.53333,9974
14.54167,10787
14.55000,11637
14.55833,12522
14.56667,13443
14.57500,14398
14.58333,15388
14.59167,16412
14.60000,17469
14.60833,18558
14.61667,19680
14.62500,20833
14.63333,22016
14.64167,23230
14.65000,24474
14.65833,25746
14.66667,27047
14.67500,28376
14.68333,29732
14.69167,31116
14.70000,32526
14.70833,33963
14.71667,35425
14.72500,36912
14.73333,38425
14.74167,39962
14.75000,41523
14.75833,43109
14.76667,44719
14.77500,46352
14.78333,48010
14.79167,49691
14.80000,51394
14.80833,53121
14.81667,54869
14.82500,56641
14.83333,58434
14.84167,60250
14.85000,62088
14.85833,63947
14.86667,65828
14.87500,67731
14.88333,69655
14.89167,71599
14.90000,73565
14.90833,75549
14.91667,77554
14.92500,79578
14.93333,81620
14.94167,83680
14.95000,85758
14.95833,87851
14.96667,89959
14.97500,92080
14.98333,94211
14.99167,96351
15.00000,98496
15.00833,100641
15.01667,102780
15.02500,104905
15.03333,107001
15.04167,109053
15.05000,111036
15.05833,112922
15.06667,114672
15.07500,116240
15.08333,117573
15.09167,118612
15.10000,119293
15.10833,119554
15.11667,119333
15.12500,118577
15.13333,117247
15.14167,115316
15.15000,112779
15.15833,109650
15.16667,105963
15.17500,101770
15.18333,97143
15.19167,92163
15.20000,86922
15.20833,81514
15.21667,76034
15.22500,70573
15.23333,65211
15.24167,60020
15.25000,55061
15.25833,50378
15.26667,46006
15.27500,41969
15.28333,38277
15.29167,34935
15.30000,31939
15.30833,29279
15.31667,26942
15.32500,24911
15.33333,23169
15.34167,21699
15.35000,20482
15.35833,19499
15.36667,18736
15.37500,18175
15.38333,17801
15.39167,17602
15.40000,17565
15.40833,17676
15.41667,17926
15.42500,18303
15.43333,18797
15.44167,19397
15.45000,20093
15.45833,20874
15.46667,21730
15.47500,22650
15.48333,23624
15.49167,24640
15.50000,25689
15.50833,26757
15.51667,27834
15.52500,28908
15.53333,29968
15.54167,31003
15.55000,32002
15.55833,32955
15.56667,33852
15.57500,34684
15.58333,35443
15.59167,36121
15.60000,36711
15.60833,37209
15.61667,37609
15.62500,37908
15.63333,38105
15.64167,38197
15.65000,38184
15.65833,38067
15.66667,37849
15.67500,37531
15.68333,37119
15.69167,36616
15.70000,36027
15.70833,35359
15.71667,34616
15.72500,33806
15.73333,32936
15.74167,32013
15.75000,31044
15.75833,30035
15.76667,28996
15.77500,27931
15.78333,26849
15.79167,25755
15.80000,24657
15.80833,23559
15.81667,22467
15.82500,21386
15.83333,20321
15.84167,19275
15.85000,18253
15.85833,17257
15.86667,16290
15.87500,15355
15.88333,14453
15.89167,13585
15.90000,12754
15.90833,11960
15.91667,11202
15.92500,10482
15.93333,9798
15.94167,9150
15.95000,8539
15.95833,7963
15.96667,7422
15.97500,6914
15.98333,6438
15.99167,5992
16.00000,5577
16.00833,5190
16.01667,4829
16.02500,4494
16.03333,4183
16.04167,3895
16.05000,3629
16.05833,3382
16.06667,3155
16.07500,2944
16.08333,2751
16.09167,2572
16.10000,2407
16.10833,2256
16.11667,2117
16.12500,1990
16.13333,1873
16.14167,1765
16.15000,1666
16.15833,1575
16.16667,1492
16.17500,1416
16.18333,1346
16.19167,1282
16.20000,1224
16.20833,1170
16.21667,1120
16.22500,1074
16.23333,1031
16.24167,992
16.25000,956
16.25833,923
16.26667,892
16.27500,863
16.28333,837
16.29167,813
16.30000,790
16.30833,769
16.31667,749
16.32500,730
16.33333,712
16.34167,696
16.35000,681
16.35833,667
16.36667,654
16.37500,641
16.38333,629
16.39167,618
16.40000,607
16.40833,597
16.41667,588
16.42500,579
16.43333,571
16.44167,563
16.45000,556
16.45833,548
16.46667,541
16.47500,535
16.48333,528
16.49167,522
16.50000,516
16.50833,510
16.51667,505
16.52500,499
16.53333,494
16.54167,489
16.55000,483
16.55833,479
16.56667,474
16.57500,470
16.58333,466
16.59167,462
16.60000,458
16.60833,454
16.61667,450
16.62500,447
16.63333,443
16.64167,440
16.65000,437
16.65833,433
16.66667,430
16.67500,428
16.68333,425
16.69167,422
16.70000,418
16.70833,415
16.71667,412
16.72500,409
16.73333,407
16.74167,404
16.75000,401
16.75833,398
16.76667,396
16.77500,393
16.78333,391
16.79167,388
16.80000,386
16.80833,383
16.81667,381
16.82500,379
16.83333,377
16.84167,375
16.85000,372
16.85833,370
16.86667,368
16.87500,366
16.88333,364
16.89167,362
16.90000,360
16.90833,357
16.91667,355
16.92500,353
16.93333,351
16.94167,349
16.95000,347
16.95833,345
16.96667,343
16.97500,341
16.98333,339
16.99167,337
17.00000,335
17.00833,333
17.01667,331
17.02500,329
17.03333,327
17.04167,325
17.05000,323
17.05833,322
17.06667,320
17.07500,319
17.08333,317
17.09167,316
17.10000,314
17.10833,313
17.11667,311
17.12500,309
17.13333,308
17.14167,306
17.15000,304
17.15833,302
17.16667,300
17.17500,299
17.18333,297
17.19167,296
17.20000,294
17.20833,292
17.21667,290
17.22500,289
17.23333,287
17.24167,285
17.25000,284
17.25833,282
17.26667,281
17.27500,280
17.28333,278
17.29167,277
17.30000,276
17.30833,275
17.31667,273
17.32500,272
17.33333,271
17.34167,270
17.35000,268
17.35833,267
17.36667,265
17.37500,264
17.38333,263
17.39167,262
17.40000,261
17.40833,259
17.41667,258
17.42500,257
17.43333,256
17.44167,254
17.45000,252
17.45833,251
17.46667,249
17.47500,248
17.48333,247
17.49167,246
17.50000,245
17.50833,244
17.51667,242
17.52500,242
17.53333,241
17.54167,239
17.55000,238
17.55833,237
17.56667,235
17.57500,234
17.58333,233
17.59167,232
17.60000,231
17.60833,229
17.61667,228
17.62500,227
17.63333,226
17.64167,225
17.65000,224
17.65833,223
17.66667,222
17.67500,221
17.68333,220
17.69167,219
17.70000,218
17.70833,217
17.71667,216
17.72500,215
17.73333,215
17.74167,214
17.75000,213
17.75833,212
17.76667,211
17.77500,209
17.78333,209
17.79167,208
17.80000,207
17.80833,206
17.81667,205
17.82500,204
17.83333,203
17.84167,202
17.85000,201
17.85833,201
17.86667,200
17.87500,199
17.88333,199
17.89167,198
17.90000,197
17.90833,196
17.91667,195
17.92500,194
17.93333,193
17.94167,193
17.95000,192
17.95833,192
17.96667,191
17.97500,189
17.98333,189
17.99167,188
18.00000,187
18.00833,187
18.01667,186
18.02500,185
18.03333,184
18.04167,184
18.05000,183
18.05833,182
18.06667,182
18.07500,181
18.08333,180
18.09167,179
18.10000,178
18.10833,178
18.11667,177
18.12500,176
18.13333,175
18.14167,174
18.15000,173
18.15833,172
18.16667,172
18.17500,170
18.18333,169
18.19167,169
18.20000,168
18.20833,167
18.21667,167
18.22500,166
18.23333,166
18.24167,166
18.25000,165
18.25833,165
18.26667,164
18.27500,164
18.28333,163
18.29167,162
18.30000,162
18.30833,161
18.31667,160
18.32500,159
18.33333,158
18.34167,157
18.35000,157
18.35833,156
18.36667,155
18.37500,155
18.38333,154
18.39167,153
18.40000,152
18.40833,152
18.41667,151
18.42500,150
18.43333,150
18.44167,149
18.45000,149
18.45833,149
18.46667,148
18.47500,148
18.48333,147
18.49167,147
18.50000,146
18.50833,146
18.51667,145
18.52500,145
18.53333,144
18.54167,144
18.55000,144
18.55833,144
18.56667,143
18.57500,143
18.58333,142
18.59167,142
18.60000,142
18.60833,142
18.61667,142
18.62500,142
18.63333,142
18.64167,142
18.65000,143
18.65833,144
18.66667,144
18.67500,144
18.68333,145
18.69167,146
18.70000,147
18.70833,148
18.71667,149
18.72500,151
18.73333,153
18.74167,154
18.75000,156
18.75833,158
18.76667,160
18.77500,162
18.78333,165
18.79167,167
18.80000,170
18.80833,173
18.81667,176
18.82500,180
18.83333,183
18.84167,187
18.85000,190
18.85833,194
18.86667,198
18.87500,201
18.88333,204
18.89167,208
18.90000,211
18.90833,214
18.91667,217
18.92500,220
18.93333,223
18.94167,226
18.95000,228
18.95833,231
18.96667,232
18.97500,233
18.98333,234
18.99167,235
19.00000,235
19.00833,235
19.01667,235
19.02500,234
19.03333,232
19.04167,231
19.05000,230
19.05833,228
19.06667,226
19.07500,224
19.08333,222
19.09167,219
19.10000,216
19.10833,213
19.11667,210
19.12500,206
19.13333,202
19.14167,199
19.15000,195
19.15833,192
19.16667,189
19.17500,185
19.18333,182
19.19167,178
19.20000,175
19.20833,171
19.21667,167
19.22500,164
19.23333,160
19.24167,156
19.25000,153
19.25833,150
19.26667,147
19.27500,144
19.28333,142
19.29167,139
19.30000,137
19.30833,134
19.31667,132
19.32500,130
19.33333,129
19.34167,127
19.35000,125
19.35833,123
19.36667,122
19.37500,120
19.38333,119
19.39167,118
19.40000,116
19.40833,115
19.41667,114
19.42500,113
19.43333,112
19.44167,111
19.45000,110
19.45833,108
19.46667,107
19.47500,106
19.48333,105
19.49167,104
19.50000,103
19.50833,103
19.51667,103
19.52500,103
19.53333,102
19.54167,102
19.55000,102
19.55833,101
19.56667,101
19.57500,101
19.58333,100
19.59167,100
19.60000,99
19.60833,99
19.61667,99
19.62500,99
19.63333,98
19.64167,98
19.65000,98
19.65833,97
19.66667,97
19.67500,96
19.68333,96
19.69167,96
19.70000,96
19.70833,96
19.71667,95
19.72500,95
19.73333,94
19.74167,94
19.75000,94
19.75833,94
19.76667,94
19.77500,93
19.78333,93
19.79167,92
19.80000,92
19.80833,92
19.81667,92
19.82500,92
19.83333,92
19.84167,92
19.85000,91
19.85833,91
19.86667,91
19.87500,90
19.88333,90
19.89167,90
19.90000,89
19.90833,89
19.91667,88
19.92500,88
19.93333,88
19.94167,88
19.95000,87
19.95833,87
19.96667,87
19.97500,87
19.98333,87
19.99167,87
20.00000,87
20.00833,86
20.01667,86
20.02500,86
20.03333,86
20.04167,86
20.05000,86
20.05833,86
20.06667,86
20.07500,86
20.08333,85
20.09167,85
20.10000,85
20.10833,85
20.11667,85
20.12500,84
20.13333,84
20.14167,83
20.15000,83
20.15833,82
20.16667,82
20.17500,82
20.18333,82
20.19167,82
20.20000,82
20.20833,82
20.21667,82
20.22500,82
20.23333,82
20.24167,82
20.25000,82
20.25833,82
20.26667,82
20.27500,82
20.28333,81
20.29167,81
20.30000,81
20.30833,81
20.31667,81
20.32500,80
20.33333,80
20.34167,80
20.35000,80
20.35833,80
20.36667,80
20.37500,80
20.38333,79
20.39167,79
20.40000,79
20.40833,79
20.41667,79
20.42500,79
20.43333,79
20.44167,78
20.45000,78
20.45833,78
20.46667,78
20.47500,79
20.48333,79
20.49167,79
20.50000,79
20.50833,79
20.51667,78
20.52500,78
20.53333,78
20.54167,78
20.55000,78
20.55833,78
20.56667,77
20.57500,77
20.58333,76
20.59167,76
20.60000,75
20.60833,75
20.61667,74
20.62500,74
20.63333,74
20.64167,75
20.65000,75
20.65833,75
20.66667,75
20.67500,75
20.68333,75
20.69167,75
20.70000,75
20.70833,75
20.71667,75
20.72500,75
20.73333,75
20.74167,75
20.75000,75
20.75833,75
20.76667,75
20.77500,75
20.78333,75
20.79167,75
20.80000,75
20.80833,74
20.81667,74
20.82500,73
20.83333,73
20.84167,73
20.85000,72
20.85833,73
20.86667,73
20.87500,72
20.88333,72
20.89167,72
20.90000,72
20.90833,72
20.91667,72
20.92500,72
20.93333,72
20.94167,71
20.95000,71
20.95833,71
20.96667,71
20.97500,71
20.98333,71
20.99167,71
21.00000,70
21.00833,70
21.01667,70
21.02500,69
21.03333,69
21.04167,69
21.05000,69
21.05833,69
21.06667,69
21.07500,68
21.08333,68
21.09167,69
21.10000,69
21.10833,69
21.11667,69
21.12500,69
21.13333,69
21.14167,69
21.15000,69
21.15833,69
21.16667,68
21.17500,69
21.18333,69
21.19167,69
21.20000,69
21.20833,69
21.21667,69
21.22500,69
21.23333,69
21.24167,69
21.25000,68
21.25833,68
21.26667,68
21.27500,68
21.28333,68
21.29167,68
21.30000,67
21.30833,67
21.31667,67
21.32500,67
21.33333,68
21.34167,68
21.35000,68
21.35833,68
21.36667,68
21.37500,68
21.38333,68
21.39167,69
21.40000,69
21.40833,69
21.41667,68
21.42500,68
21.43333,68
21.44167,67
21.45000,67
21.45833,67
21.46667,67
21.47500,68
21.48333,67
21.49167,67
21.50000,67
21.50833,67
21.51667,66
21.52500,66
21.53333,66
21.54167,66
21.55000,66
21.55833,66
21.56667,67
21.57500,67
21.58333,67
21.59167,67
21.60000,67
21.60833,67
21.61667,67
21.62500,67
21.63333,67
21.64167,67
21.65000,68
21.65833,68
21.66667,69
21.67500,69
21.68333,69
21.69167,69
21.70000,69
21.70833,69
21.71667,68
21.72500,68
21.73333,68
21.74167,68
21.75000,68
21.75833,68
21.76667,68
21.77500,68
21.78333,68
21.79167,68
21.80000,69
21.80833,69
21.81667,69
21.82500,69
21.83333,69
21.84167,70
21.85000,70
21.85833,70
21.86667,71
21.87500,71
21.88333,71
21.89167,71
21.90000,71
21.90833,70
21.91667,70
21.92500,70
21.93333,70
21.94167,70
21.95000,69
21.95833,69
21.96667,69
21.97500,69
21.98333,69
21.99167,69
22.00000,69
22.00833,69
22.01667,69
22.02500,70
22.03333,70
22.04167,69
22.05000,69
22.05833,69
22.06667,69
22.07500,68
22.08333,68
22.09167,68
22.10000,68
22.10833,68
22.11667,67
22.12500,67
22.13333,66
22.14167,66
22.15000,66
22.15833,66
22.16667,66
22.17500,66
22.18333,65
22.19167,64
22.20000,64
22.20833,64
22.21667,64
22.22500,65
22.23333,65
22.24167,66
22.25000,65
22.25833,65
22.26667,65
22.27500,65
22.28333,65
22.29167,65
22.30000,65
22.30833,65
22.31667,65
22.32500,65
22.33333,65
22.34167,65
22.35000,64
22.35833,64
22.36667,63
22.37500,63
22.38333,63
22.39167,63
22.40000,63
22.40833,63
22.41667,63
22.42500,62
22.43333,62
22.44167,62
22.45000,62
22.45833,62
22.46667,62
22.47500,62
22.48333,62
22.49167,62
22.50000,62
22.50833,62
22.51667,62
22.52500,62
22.53333,62
22.54167,62
22.55000,62
22.55833,62
22.56667,62
22.57500,62
22.58333,62
22.59167,62
22.60000,62
22.60833,62
22.61667,61
22.62500,61
22.63333,61
22.64167,61
22.65000,61
22.65833,61
22.66667,62
22.67500,62
22.68333,62
22.69167,62
22.70000,62
22.70833,62
22.71667,62
22.72500,62
22.73333,62
22.74167,62
22.75000,63
22.75833,63
22.76667,63
22.77500,63
22.78333,63
22.79167,63
22.80000,63
22.80833,63
22.81667,62
22.82500,62
22.83333,62
22.84167,62
22.85000,63
22.85833,63
22.86667,63
22.87500,64
22.88333,64
22.89167,64
22.90000,65
22.90833,65
22.91667,66
22.92500,66
22.93333,66
22.94167,67
22.95000,68
22.95833,68
22.96667,68
22.97500,69
22.98333,70
22.99167,71
23.00000,71
23.00833,72
23.01667,73
23.02500,73
23.03333,73
23.04167,73
23.05000,74
23.05833,75
23.06667,75
23.07500,76
23.08333,77
23.09167,78
23.10000,79
23.10833,80
23.11667,81
23.12500,82
23.13333,82
23.14167,83
23.15000,83
23.15833,84
23.16667,84
23.17500,85
23.18333,85
23.19167,86
23.20000,86
23.20833,87
23.21667,87
23.22500,87
23.23333,87
23.24167,87
23.25000,87
23.25833,87
23.26667,87
23.27500,86
23.28333,86
23.29167,86
23.30000,86
23.30833,86
23.31667,85
23.32500,85
23.33333,84
23.34167,84
23.35000,84
23.35833,83
23.36667,83
23.37500,82
23.38333,81
23.39167,80
23.40000,80
23.40833,80
23.41667,79
23.42500,79
23.43333,78
23.44167,77
23.45000,76
23.45833,75
23.46667,74
23.47500,73
23.48333,72
23.49167,72
23.50000,71
23.50833,70
23.51667,69
23.52500,69
23.53333,68
23.54167,68
23.55000,68
23.55833,68
23.56667,67
23.57500,67
23.58333,67
23.59167,67
23.60000,66
23.60833,66
23.61667,66
23.62500,65
23.63333,65
23.64167,64
23.65000,64
23.65833,63
23.66667,63
23.67500,63
23.68333,63
23.69167,62
23.70000,62
23.70833,61
23.71667,61
23.72500,60
23.73333,60
23.74167,60
23.75000,60
23.75833,60
23.76667,60
23.77500,60
23.78333,60
23.79167,60
23.80000,61
23.80833,61
23.81667,61
23.82500,62
23.83333,62
23.84167,62
23.85000,62
23.85833,61
23.86667,61
23.87500,61
23.88333,61
23.89167,61
23.90000,61
23.90833,61
23.91667,61
23.92500,61
23.93333,60
23.94167,60
23.95000,60
23.95833,60
23.96667,60
23.97500,60
23.98333,60
23.99167,60
24.00000,60
24.00833,60
24.01667,60
24.02500,60
24.03333,60
24.04167,60
24.05000,60
24.05833,60
24.06667,60
24.07500,60
24.08333,60
24.09167,60
24.10000,60
24.10833,60
24.11667,60
24.12500,60
24.13333,60
24.14167,60
24.15000,60
24.15833,59
24.16667,59
24.17500,59
24.18333,59
24.19167,59
24.20000,60
24.20833,60
24.21667,60
24.22500,60
24.23333,60
24.24167,60
24.25000,60
24.25833,59
24.26667,59
24.27500,60
24.28333,60
24.29167,60
24.30000,60
24.30833,60
24.31667,61
24.32500,61
24.33333,61
24.34167,61
24.35000,61
24.35833,61
24.36667,61
24.37500,61
24.38333,61
24.39167,61
24.40000,61
24.40833,61
24.41667,61
24.42500,61
24.43333,61
24.44167,62
24.45000,62
24.45833,62
24.46667,62
24.47500,63
24.48333,63
24.49167,63
24.50000,64
24.50833,64
24.51667,64
24.52500,65
24.53333,65
24.54167,66
24.55000,66
24.55833,67
24.56667,68
24.57500,69
24.58333,70
24.59167,72
24.60000,73
24.60833,74
24.61667,76
24.62500,77
24.63333,78
24.64167,80
24.65000,82
24.65833,84
24.66667,86
24.67500,88
24.68333,90
24.69167,93
24.70000,96
24.70833,100
24.71667,103
24.72500,107
24.73333,111
24.74167,116
24.75000,120
24.75833,125
24.76667,129
24.77500,134
24.78333,140
24.79167,145
24.80000,150
24.80833,156
24.81667,161
24.82500,167
24.83333,173
24.84167,179
24.85000,185
24.85833,191
24.86667,198
24.87500,204
24.88333,211
24.89167,217
24.90000,224
24.90833,230
24.91667,237
24.92500,243
24.93333,250
24.94167,256
24.95000,261
24.95833,266
24.96667,271
24.97500,276
24.98333,280
24.99167,284
25.00000,288
25.00833,291
25.01667,294
25.02500,296
25.03333,298
25.04167,299
25.05000,300
25.05833,300
25.06667,300
25.07500,299
25.08333,299
25.09167,298
25.10000,296
25.10833,295
25.11667,293
25.12500,290
25.13333,287
25.14167,284
25.15000,280
25.15833,275
25.16667,271
25.17500,266
25.18333,261
25.19167,256
25.20000,251
25.20833,246
25.21667,240
25.22500,235
25.23333,229
25.24167,223
25.25000,216
25.25833,210
25.26667,204
25.27500,199
25.28333,193
25.29167,187
25.30000,181
25.30833,175
25.31667,170
25.32500,164
25.33333,159
25.34167,154
25.35000,149
25.35833,144
25.36667,139
25.37500,135
25.38333,131
25.39167,127
25.40000,123
25.40833,119
25.41667,115
25.42500,112
25.43333,109
25.44167,106
25.45000,104
25.45833,101
25.46667,98
25.47500,96
25.48333,94
25.49167,92
25.50000,90
25.50833,88
25.51667,86
25.52500,84
25.53333,82
25.54167,81
25.55000,80
25.55833,79
25.56667,78
25.57500,77
25.58333,77
25.59167,76
25.60000,75
25.60833,74
25.61667,74
25.62500,73
25.63333,72
25.64167,71
25.65000,71
25.65833,70
25.66667,70
25.67500,69
25.68333,69
25.69167,68
25.70000,68
25.70833,68
25.71667,68
25.72500,67
25.73333,67
25.74167,67
25.75000,67
25.75833,67
25.76667,67
25.77500,67
25.78333,67
25.79167,67
25.80000,67
25.80833,67
25.81667,67
25.82500,67
25.83333,67
25.84167,68
25.85000,67
25.85833,67
25.86667,67
25.87500,67
25.88333,67
25.89167,68
25.90000,68
25.90833,68
25.91667,68
25.92500,67
25.93333,67
25.94167,67
25.95000,67
25.95833,67
25.96667,67
25.97500,67
25.98333,67
25.99167,67
26.00000,67
26.00833,67
26.01667,67
26.02500,68
26.03333,68
26.04167,68
26.05000,68
26.05833,68
26.06667,68
26.07500,68
26.08333,68
26.09167,68
26.10000,68
26.10833,68
26.11667,68
26.12500,68
26.13333,68
26.14167,68
26.15000,68
26.15833,68
26.16667,68
26.17500,67
26.18333,67
26.19167,67
26.20000,68
26.20833,68
26.21667,69
26.22500,69
26.23333,69
26.24167,69
26.25000,69
26.25833,70
26.26667,69
26.27500,69
26.28333,69
26.29167,69
26.30000,69
26.30833,70
26.31667,70
26.32500,70
26.33333,70
26.34167,70
26.35000,69
26.35833,69
26.36667,69
26.37500,69
26.38333,69
26.39167,69
26.40000,68
26.40833,69
26.41667,69
26.42500,69
26.43333,69
26.44167,69
26.45000,69
26.45833,69
26.46667,69
26.47500,69
26.48333,69
26.49167,70
26.50000,69
26.50833,69
26.51667,69
26.52500,69
26.53333,70
26.54167,70
26.55000,70
26.55833,70
26.56667,70
26.57500,70
26.58333,70
26.59167,70
26.60000,70
26.60833,70
26.61667,69
26.62500,69
26.63333,69
26.64167,69
26.65000,69
26.65833,70
26.66667,70
26.67500,70
26.68333,70
26.69167,71
26.70000,71
26.70833,71
26.71667,71
26.72500,71
26.73333,71
26.74167,71
26.75000,71
26.75833,72
26.76667,72
26.77500,72
26.78333,72
26.79167,72
26.80000,72
26.80833,72
26.81667,71
26.82500,71
26.83333,71
26.84167,71
26.85000,71
26.85833,71
26.86667,71
26.87500,71
26.88333,72
26.89167,72
26.90000,72
26.90833,72
26.91667,72
26.92500,72
26.93333,72
26.94167,72
26.95000,73
26.95833,73
26.96667,73
26.97500,73
26.98333,73
26.99167,72
27.00000,72
27.00833,72
27.01667,72
27.02500,72
27.03333,72
27.04167,72
27.05000,72
27.05833,72
27.06667,71
27.07500,72
27.08333,72
27.09167,72
27.10000,72
27.10833,72
27.11667,73
27.12500,73
27.13333,73
27.14167,73
27.15000,73
27.15833,73
27.16667,73
27.17500,73
27.18333,73
27.19167,73
27.20000,74
27.20833,74
27.21667,74
27.22500,73
27.23333,73
27.24167,73
27.25000,73
27.25833,73
27.26667,73
27.27500,73
27.28333,73
27.29167,73
27.30000,74
27.30833,74
27.31667,74
27.32500,74
27.33333,74
27.34167,74
27.35000,75
27.35833,75
27.36667,75
27.37500,75
27.38333,75
27.39167,75
27.40000,75
27.40833,75
27.41667,76
27.42500,76
27.43333,76
27.44167,76
27.45000,76
27.45833,75
27.46667,75
27.47500,75
27.48333,76
27.49167,76
27.50000,76
27.50833,76
27.51667,76
27.52500,76
27.53333,76
27.54167,76
27.55000,76
27.55833,76
27.56667,76
27.57500,76
27.58333,76
27.59167,76
27.60000,76
27.60833,76
27.61667,76
27.62500,76
27.63333,76
27.64167,76
27.65000,76
27.65833,76
27.66667,76
27.67500,76
27.68333,76
27.69167,76
27.70000,76
27.70833,76
27.71667,76
27.72500,75
27.73333,75
27.74167,74
27.75000,74
27.75833,74
27.76667,74
27.77500,74
27.78333,75
27.79167,75
27.80000,75
27.80833,75
27.81667,74
27.82500,74
27.83333,73
27.84167,73
27.85000,72
27.85833,72
27.86667,72
27.87500,71
27.88333,70
27.89167,69
27.90000,68
27.90833,67
27.91667,66
27.92500,65
27.93333,64
27.94167,63
27.95000,62
27.95833,61
27.96667,60
27.97500,59
27.98333,58
27.99167,57
28.00000,56
28.00833,55
28.01667,53
28.02500,51
28.03333,50
28.04167,48
28.05000,45
28.05833,43
28.06667,41
28.07500,39
28.08333,37
28.09167,34
28.10000,31
28.10833,28
28.11667,26
28.12500,23
28.13333,20
28.14167,17
28.15000,14
28.15833,11
28.16667,8
28.17500,4
28.18333,1
28.19167,-1
28.20000,-4
28.20833,-8
28.21667,-11
28.22500,-14
28.23333,-18
28.24167,-21
28.25000,-24
28.25833,-27
28.26667,-31
28.27500,-34
28.28333,-37
28.29167,-41
28.30000,-44
28.30833,-46
28.31667,-49
28.32500,-52
28.33333,-55
28.34167,-57
28.35000,-59
28.35833,-61
28.36667,-63
28.37500,-66
28.38333,-68
28.39167,-69
28.40000,-71
28.40833,-72
28.41667,-73
28.42500,-74
28.43333,-74
28.44167,-75
28.45000,-75
28.45833,-76
28.46667,-76
28.47500,-77
28.48333,-76
28.49167,-76
28.50000,-75
28.50833,-75
28.51667,-74
28.52500,-73
28.53333,-72
28.54167,-71
28.55000,-69
28.55833,-67
28.56667,-66
28.57500,-64
28.58333,-62
28.59167,-60
28.60000,-58
28.60833,-55
28.61667,-53
28.62500,-50
28.63333,-48
28.64167,-45
28.65000,-43
28.65833,-40
28.66667,-37
28.67500,-34
28.68333,-31
28.69167,-28
28.70000,-25
28.70833,-22
28.71667,-20
28.72500,-17
28.73333,-14
28.74167,-12
28.75000,-9
28.75833,-6
28.76667,-4
28.77500,-1
28.78333,1
28.79167,4
28.80000,7
28.80833,10
28.81667,12
28.82500,14
28.83333,17
28.84167,19
28.85000,21
28.85833,23
28.86667,25
28.87500,27
28.88333,29
28.89167,31
28.90000,33
28.90833,35
28.91667,37
28.92500,38
28.93333,40
28.94167,41
28.95000,43
28.95833,45
28.96667,46
28.97500,47
28.98333,48
28.99167,49
29.00000,50
29.00833,51
29.01667,52
29.02500,53
29.03333,54
29.04167,54
29.05000,55
29.05833,56
29.06667,57
29.07500,58
29.08333,59
29.09167,59
29.10000,60
29.10833,61
29.11667,61
29.12500,62
29.13333,63
29.14167,63
29.15000,64
29.15833,65
29.16667,65
29.17500,66
29.18333,66
29.19167,66
29.20000,66
29.20833,66
29.21667,66
29.22500,67
29.23333,67
29.24167,68
29.25000,68
29.25833,68
29.26667,68
29.27500,68
29.28333,68
29.29167,68
29.30000,68
29.30833,69
29.31667,69
29.32500,69
29.33333,68
29.34167,69
29.35000,69
29.35833,69
29.36667,69
29.37500,69
29.38333,69
29.39167,69
29.40000,70
29.40833,70
29.41667,70
29.42500,70
29.43333,69
29.44167,69
29.45000,69
29.45833,69
29.46667,69
29.47500,68
29.48333,68
29.49167,68
29.50000,68
29.50833,68
29.51667,68
29.52500,68
29.53333,67
29.54167,67
29.55000,66
29.55833,66
29.56667,65
29.57500,65
29.58333,65
29.59167,64
29.60000,64
29.60833,64
29.61667,63
29.62500,63
29.63333,62
29.64167,62
29.65000,62
29.65833,61
29.66667,61
29.67500,60
29.68333,59
29.69167,59
29.70000,58
29.70833,58
29.71667,57
29.72500,57
29.73333,56
29.74167,55
29.75000,55
29.75833,54
29.76667,54
29.77500,53
29.78333,52
29.79167,52
29.80000,51
29.80833,50
29.81667,49
29.82500,48
29.83333,47
29.84167,46
29.85000,45
29.85833,43
29.86667,42
29.87500,41
29.88333,40
29.89167,39
29.90000,38
29.90833,37
29.91667,36
29.92500,35
29.93333,34
29.94167,33
29.95000,32
29.95833,31
29.96667,30
29.97500,29
29.98333,28
29.99167,27
30.00000,26
30.00833,25
30.01667,24
30.02500,23
30.03333,22
30.04167,21
30.05000,20
30.05833,19
30.06667,18
30.07500,17
30.08333,16
30.09167,16
30.10000,15
30.10833,14
30.11667,13
30.12500,12
30.13333,12
30.14167,11
30.15000,11
30.15833,10
30.16667,10
30.17500,10
30.18333,9
30.19167,9
30.20000,9
30.20833,10
30.21667,10
30.22500,10
30.23333,10
30.24167,10
30.25000,11
30.25833,11
30.26667,11
30.27500,11
30.28333,11
30.29167,12
30.30000,12
30.30833,12
30.31667,12
30.32500,13
30.33333,13
30.34167,13
30.35000,14
30.35833,15
30.36667,16
30.37500,17
30.38333,18
30.39167,19
30.40000,20
30.40833,21
30.41667,22
30.42500,23
30.43333,24
30.44167,25
30.45000,26
30.45833,27
30.46667,28
30.47500,28
30.48333,29
30.49167,30
30.50000,31
30.50833,32
30.51667,33
30.52500,34
30.53333,34
30.54167,35
30.55000,37
30.55833,38
30.56667,38
30.57500,39
30.58333,39
30.59167,40
30.60000,41
30.60833,41
30.61667,42
30.62500,43
30.63333,44
30.64167,44
30.65000,45
30.65833,46
30.66667,47
30.67500,47
30.68333,47
30.69167,47
30.70000,48
30.70833,48
30.71667,48
30.72500,48
30.73333,48
30.74167,48
30.75000,48
30.75833,48
30.76667,48
30.77500,48
30.78333,49
30.79167,49
30.80000,50
30.80833,50
30.81667,50
30.82500,50
30.83333,51
30.84167,51
30.85000,50
30.85833,50
30.86667,50
30.87500,49
30.88333,49
30.89167,49
30.90000,49
30.90833,49
30.91667,48
30.92500,48
30.93333,47
30.94167,47
30.95000,46
30.95833,46
30.96667,46
30.97500,46
30.98333,46
30.99167,46
31.00000,46
31.00833,46
31.01667,46
31.02500,45
31.03333,45
31.04167,45
31.05000,45
31.05833,45
31.06667,45
31.07500,45
31.08333,45
31.09167,46
31.10000,46
31.10833,46
31.11667,45
31.12500,45
31.13333,45
31.14167,45
31.15000,45
31.15833,45
31.16667,46
31.17500,46
31.18333,46
31.19167,47
31.20000,47
31.20833,47
31.21667,48
31.22500,48
31.23333,49
31.24167,49
31.25000,49
31.25833,49
31.26667,50
31.27500,50
31.28333,50
31.29167,51
31.30000,52
31.30833,52
31.31667,53
31.32500,53
31.33333,53
31.34167,54
31.35000,54
31.35833,55
31.36667,55
31.37500,56
31.38333,57
31.39167,57
31.40000,58
31.40833,59
31.41667,59
31.42500,59
31.43333,59
31.44167,60
31.45000,60
31.45833,61
31.46667,61
31.47500,61
31.48333,62
31.49167,63
31.50000,64
31.50833,65
31.51667,65
31.52500,66
31.53333,66
31.54167,67
31.55000,67
31.55833,67
31.56667,67
31.57500,68
31.58333,68
31.59167,68
31.60000,69
31.60833,69
31.61667,69
31.62500,69
31.63333,69
31.64167,69
31.65000,70
31.65833,70
31.66667,71
31.67500,71
31.68333,72
31.69167,72
31.70000,72
31.70833,72
31.71667,73
31.72500,73
31.73333,73
31.74167,73
31.75000,73
31.75833,73
31.76667,73
31.77500,73
31.78333,73
31.79167,74
31.80000,73
31.80833,73
31.81667,73
31.82500,73
31.83333,73
31.84167,73
31.85000,73
31.85833,73
31.86667,73
31.87500,73
31.88333,73
31.89167,73
31.90000,73
31.90833,73
31.91667,73
31.92500,73
31.93333,73
31.94167,73
31.95000,73
31.95833,73
31.96667,73
31.97500,73
31.98333,73
31.99167,73
32.00000,73
32.00833,73
32.01667,73
32.02500,73
32.03333,73
32.04167,72
32.05000,72
32.05833,71
32.06667,71
32.07500,71
32.08333,70
32.09167,70
32.10000,70
32.10833,70
32.11667,70
32.12500,70
32.13333,71
32.14167,71
32.15000,71
32.15833,71
32.16667,71
32.17500,70
32.18333,70
32.19167,70
32.20000,70
32.20833,71
32.21667,71
32.22500,71
32.23333,71
32.24167,71
32.25000,71
32.25833,71
32.26667,70
32.27500,70
32.28333,70
32.29167,70
32.30000,69
32.30833,69
32.31667,68
32.32500,68
32.33333,68
32.34167,68
32.35000,69
32.35833,69
32.36667,69
32.37500,69
32.38333,70
32.39167,70
32.40000,70
32.40833,70
32.41667,71
32.42500,71
32.43333,70
32.44167,70
32.45000,70
32.45833,70
32.46667,70
32.47500,70
32.48333,70
32.49167,70
32.50000,70
32.50833,70
32.51667,70
32.52500,70
32.53333,70
32.54167,70
32.55000,70
32.55833,70
32.56667,70
32.57500,70
32.58333,70
32.59167,70
32.60000,70
32.60833,70
32.61667,70
32.62500,70
32.63333,71
32.64167,71
32.65000,71
32.65833,71
32.66667,71
32.67500,71
32.68333,71
32.69167,71
32.70000,72
32.70833,71
32.71667,71
32.72500,71
32.73333,70
32.74167,70
32.75000,70
32.75833,70
32.76667,70
32.77500,70
32.78333,70
32.79167,70
32.80000,70
32.80833,70
32.81667,70
32.82500,70
32.83333,71
32.84167,71
32.85000,71
32.85833,71
32.86667,71
32.87500,71
32.88333,71
32.89167,71
32.90000,71
32.90833,72
32.91667,72
32.92500,72
32.93333,72
32.94167,71
32.95000,71
32.95833,71
32.96667,71
32.97500,71
32.98333,71
32.99167,71
33.00000,71
33.00833,71
33.01667,71
33.02500,71
33.03333,71
33.04167,71
33.05000,71
33.05833,71
33.06667,71
33.07500,71
33.08333,71
33.09167,71
33.10000,71
33.10833,71
33.11667,71
33.12500,71
33.13333,72
33.14167,71
33.15000,71
33.15833,72
33.16667,72
33.17500,72
33.18333,72
33.19167,72
33.20000,72
33.20833,72
33.21667,72
33.22500,72
33.23333,72
33.24167,72
33.25000,72
33.25833,72
33.26667,72
33.27500,72
33.28333,72
33.29167,72
33.30000,72
33.30833,72
33.31667,72
33.32500,72
33.33333,72
33.34167,72
33.35000,72
33.35833,72
33.36667,72
33.37500,72
33.38333,72
33.39167,72
33.40000,72
33.40833,72
33.41667,72
33.42500,72
33.43333,72
33.44167,71
33.45000,71
33.45833,71
33.46667,71
33.47500,71
33.48333,71
33.49167,70
33.50000,70
33.50833,70
33.51667,70
33.52500,70
33.53333,70
33.54167,71
33.55000,71
33.55833,72
33.56667,72
33.57500,72
33.58333,72
33.59167,72
33.60000,72
33.60833,72
33.61667,72
33.62500,71
33.63333,71
33.64167,70
33.65000,70
33.65833,70
33.66667,70
33.67500,70
33.68333,70
33.69167,70
33.70000,71
33.70833,71
33.71667,71
33.72500,71
33.73333,71
33.74167,71
33.75000,71
33.75833,71
33.76667,71
33.77500,71
33.78333,71
33.79167,71
33.80000,71
33.80833,72
33.81667,72
33.82500,71
33.83333,71
33.84167,71
33.85000,71
33.85833,71
33.86667,71
33.87500,71
33.88333,71
33.89167,70
33.90000,70
33.90833,70
33.91667,70
33.92500,70
33.93333,71
33.94167,71
33.95000,71
33.95833,71
33.96667,71
33.97500,71
33.98333,71
33.99167,72
34.00000,72
34.00833,72
34.01667,72
34.02500,71
34.03333,71
34.04167,72
34.05000,72
34.05833,72
34.06667,71
34.07500,71
34.08333,71
34.09167,71
34.10000,71
34.10833,71
34.11667,71
34.12500,71
34.13333,71
34.14167,71
34.15000,71
34.15833,71
34.16667,71
34.17500,71
34.18333,71
34.19167,71
34.20000,71
34.20833,71
34.21667,71
34.22500,71
34.23333,72
34.24167,72
34.25000,72
34.25833,72
34.26667,72
34.27500,72
34.28333,72
34.29167,72
34.30000,71
34.30833,71
34.31667,71
34.32500,71
34.33333,71
34.34167,71
34.35000,71
34.35833,71
34.36667,71
34.37500,71
34.38333,71
34.39167,71
34.40000,71
34.40833,72
34.41667,72
34.42500,72
34.43333,72
34.44167,72
34.45000,72
34.45833,72
34.46667,72
34.47500,72
34.48333,72
34.49167,72
34.50000,72
34.50833,72
34.51667,72
34.52500,72
34.53333,72
34.54167,72
34.55000,72
34.55833,72
34.56667,72
34.57500,71
34.58333,71
34.59167,71
34.60000,71
34.60833,71
34.61667,71
34.62500,71
34.63333,71
34.64167,72
34.65000,72
34.65833,72
34.66667,72
34.67500,72
34.68333,72
34.69167,73
34.70000,73
34.70833,72
34.71667,72
34.72500,72
34.73333,72
34.74167,72
34.75000,71
34.75833,71
34.76667,71
34.77500,71
34.78333,71
34.79167,71
34.80000,72
34.80833,72
34.81667,72
34.82500,72
34.83333,72
34.84167,72
34.85000,72
34.85833,72
34.86667,73
34.87500,73
34.88333,73
34.89167,73
34.90000,73
34.90833,73
34.91667,73
34.92500,73
34.93333,72
34.94167,72
34.95000,72
34.95833,72
34.96667,72
34.97500,72
34.98333,72
34.99167,72
35.00000,72
35.00833,72
35.01667,72
35.02500,72
35.03333,72
35.04167,72
35.05000,72
35.05833,73
35.06667,72
35.07500,72
35.08333,72
35.09167,72
35.10000,72
35.10833,73
35.11667,73
35.12500,73
35.13333,73
35.14167,73
35.15000,73
35.15833,73
35.16667,73
35.17500,73
35.18333,73
35.19167,73
35.20000,73
35.20833,74
35.21667,74
35.22500,73
35.23333,72
35.24167,72
35.25000,72
35.25833,72
35.26667,72
35.27500,72
35.28333,72
35.29167,72
35.30000,73
35.30833,73
35.31667,73
35.32500,73
35.33333,73
35.34167,73
35.35000,73
35.35833,73
35.36667,73
35.37500,73
35.38333,73
35.39167,72
35.40000,72
35.40833,72
35.41667,72
35.42500,73
35.43333,73
35.44167,73
35.45000,73
35.45833,73
35.46667,73
35.47500,73
35.48333,73
35.49167,73
35.50000,73
35.50833,73
35.51667,73
35.52500,72
35.53333,73
35.54167,73
35.55000,73
35.55833,73
35.56667,73
35.57500,73
35.58333,73
35.59167,73
35.60000,73
35.60833,73
35.61667,73
35.62500,74
35.63333,74
35.64167,74
35.65000,74
35.65833,74
35.66667,73
35.67500,73
35.68333,74
35.69167,74
35.70000,74
35.70833,74
35.71667,74
35.72500,74
35.73333,74
35.74167,74
35.75000,74
35.75833,74
35.76667,75
35.77500,75
35.78333,75
35.79167,75
35.80000,75
35.80833,75
35.81667,74
35.82500,75
35.83333,75
35.84167,75
35.85000,75
35.85833,75
35.86667,75
35.87500,75
35.88333,75
35.89167,75
35.90000,75
35.90833,74
35.91667,74
35.92500,74
35.93333,73
35.94167,73
35.95000,73
35.95833,74
35.96667,74
35.97500,74
35.98333,74
35.99167,75
36.00000,75
36.00833,75
36.01667,75
36.02500,75
36.03333,75
36.04167,75
36.05000,74
36.05833,74
36.06667,74
36.07500,74
36.08333,74
36.09167,74
36.10000,74
36.10833,74
36.11667,74
36.12500,74
36.13333,74
36.14167,74
36.15000,73
36.15833,73
36.16667,73
36.17500,74
36.18333,74
36.19167,74
36.20000,74
36.20833,75
36.21667,75
36.22500,75
36.23333,74
36.24167,75
36.25000,75
36.25833,75
36.26667,75
36.27500,75
36.28333,75
36.29167,75
36.30000,75
36.30833,75
36.31667,75
36.32500,75
36.33333,75
36.34167,75
36.35000,75
36.35833,75
36.36667,75
36.37500,74
36.38333,75
36.39167,75
36.40000,75
36.40833,75
36.41667,75
36.42500,76
36.43333,75
36.44167,76
36.45000,76
36.45833,76
36.46667,76
36.47500,75
36.48333,75
36.49167,75
36.50000,75
36.50833,75
36.51667,75
36.52500,75
36.53333,75
36.54167,75
36.55000,74
36.55833,74
36.56667,75
36.57500,75
36.58333,76
36.59167,76
36.60000,76
36.60833,76
36.61667,77
36.62500,77
36.63333,76
36.64167,76
36.65000,76
36.65833,76
36.66667,76
36.67500,76
36.68333,76
36.69167,76
36.70000,76
36.70833,76
36.71667,76
36.72500,76
36.73333,76
36.74167,76
36.75000,77
36.75833,77
36.76667,77
36.77500,76
36.78333,76
36.79167,76
36.80000,76
36.80833,76
36.81667,76
36.82500,76
36.83333,76
36.84167,77
36.85000,77
36.85833,77
36.86667,77
36.87500,77
36.88333,76
36.89167,76
36.90000,76
36.90833,76
36.91667,76
36.92500,76
36.93333,77
36.94167,77
36.95000,77
36.95833,77
36.96667,77
36.97500,77
36.98333,77
36.99167,77
37.00000,76
37.00833,76
37.01667,76
37.02500,76
37.03333,76
37.04167,76
37.05000,76
37.05833,76
37.06667,76
37.07500,76
37.08333,76
37.09167,76
37.10000,76
37.10833,76
37.11667,76
37.12500,76
37.13333,76
37.14167,77
37.15000,77
37.15833,77
37.16667,77
37.17500,77
37.18333,77
37.19167,77
37.20000,78
37.20833,78
37.21667,78
37.22500,78
37.23333,78
37.24167,78
37.25000,77
37.25833,77
37.26667,77
37.27500,77
37.28333,77
37.29167,77
37.30000,77
37.30833,77
37.31667,77
37.32500,77
37.33333,77
37.34167,77
37.35000,77
37.35833,77
37.36667,77
37.37500,77
37.38333,77
37.39167,77
37.40000,77
37.40833,77
37.41667,77
37.42500,77
37.43333,77
37.44167,77
37.45000,77
37.45833,77
37.46667,77
37.47500,77
37.48333,77
37.49167,77
37.50000,77
37.50833,77
37.51667,76
37.52500,76
37.53333,76
37.54167,76
37.55000,76
37.55833,77
37.56667,77
37.57500,77
37.58333,77
37.59167,77
37.60000,77
37.60833,78
37.61667,78
37.62500,78
37.63333,78
37.64167,78
37.65000,78
37.65833,78
37.66667,78
37.67500,78
37.68333,77
37.69167,77
37.70000,77
37.70833,77
37.71667,77
37.72500,77
37.73333,77
37.74167,77
37.75000,78
37.75833,78
37.76667,78
37.77500,78
37.78333,78
37.79167,78
37.80000,78
37.80833,78
37.81667,78
37.82500,78
37.83333,78
37.84167,78
37.85000,78
37.85833,78
37.86667,78
37.87500,78
37.88333,79
37.89167,79
37.90000,79
37.90833,78
37.91667,78
37.92500,78
37.93333,78
37.94167,77
37.95000,77
37.95833,78
37.96667,78
37.97500,78
37.98333,78
37.99167,78
38.00000,77
38.00833,78
38.01667,78
38.02500,78
38.03333,78
38.04167,78
38.05000,78
38.05833,78
38.06667,78
38.07500,78
38.08333,78
38.09167,78
38.10000,78
38.10833,78
38.11667,78
38.12500,78
38.13333,78
38.14167,78
38.15000,78
38.15833,78
38.16667,77
38.17500,77
38.18333,77
38.19167,77
38.20000,77
38.20833,77
38.21667,77
38.22500,77
38.23333,77
38.24167,78
38.25000,78
38.25833,78
38.26667,79
38.27500,78
38.28333,78
38.29167,78
38.30000,78
38.30833,78
38.31667,78
38.32500,78
38.33333,77
38.34167,77
38.35000,78
38.35833,78
38.36667,78
38.37500,77
38.38333,77
38.39167,77
38.40000,77
38.40833,77
38.41667,77
38.42500,78
38.43333,78
38.44167,78
38.45000,78
38.45833,78
38.46667,78
38.47500,78
38.48333,78
38.49167,78
38.50000,78
38.50833,79
38.51667,79
38.52500,79
38.53333,78
38.54167,79
38.55000,79
38.55833,79
38.56667,79
38.57500,79
38.58333,78
38.59167,78
38.60000,78
38.60833,78
38.61667,78
38.62500,78
38.63333,77
38.64167,77
38.65000,77
38.65833,77
38.66667,77
38.67500,77
38.68333,78
38.69167,78
38.70000,78
38.70833,78
38.71667,78
38.72500,78
38.73333,79
38.74167,78
38.75000,79
38.75833,79
38.76667,79
38.77500,79
38.78333,79
38.79167,79
38.80000,78
38.80833,78
38.81667,78
38.82500,78
38.83333,77
38.84167,77
38.85000,77
38.85833,77
38.86667,77
38.87500,77
38.88333,77
38.89167,77
38.90000,77
38.90833,77
38.91667,78
38.92500,78
38.93333,78
38.94167,78
38.95000,78
38.95833,78
38.96667,78
38.97500,78
38.98333,78
38.99167,78
39.00000,78
39.00833,78
39.01667,78
39.02500,78
39.03333,78
39.04167,78
39.05000,78
39.05833,78
39.06667,78
39.07500,78
39.08333,79
39.09167,79
39.10000,79
39.10833,79
39.11667,78
39.12500,78
39.13333,78
39.14167,78
39.15000,79
39.15833,79
39.16667,79
39.17500,79
39.18333,79
39.19167,80
39.20000,80
39.20833,79
39.21667,79
39.22500,79
39.23333,79
39.24167,79
39.25000,79
39.25833,79
39.26667,79
39.27500,79
39.28333,79
39.29167,79
39.30000,79
39.30833,79
39.31667,79
39.32500,79
39.33333,79
39.34167,78
39.35000,78
39.35833,78
39.36667,79
39.37500,79
39.38333,79
39.39167,79
39.40000,79
39.40833,79
39.41667,79
39.42500,79
39.43333,79
39.44167,79
39.45000,79
39.45833,79
39.46667,78
39.47500,78
39.48333,78
39.49167,78
39.50000,78
39.50833,78
39.51667,79
39.52500,79
39.53333,79
39.54167,79
39.55000,80
39.55833,80
39.56667,80
39.57500,81
39.58333,81
39.59167,81
39.60000,81
39.60833,80
39.61667,81
39.62500,81
39.63333,81
39.64167,81
39.65000,80
39.65833,80
39.66667,81
39.67500,81
39.68333,81
39.69167,81
39.70000,80
39.70833,80
39.71667,80
39.72500,80
39.73333,80
39.74167,80
39.75000,80
39.75833,80
39.76667,80
39.77500,80
39.78333,80
39.79167,80
39.80000,80
39.80833,80
39.81667,80
39.82500,80
39.83333,80
39.84167,80
39.85000,80
39.85833,79
39.86667,79
39.87500,80
39.88333,80
39.89167,80
39.90000,80
39.90833,80
39.91667,80
39.92500,80
39.93333,80
39.94167,80
39.95000,80
39.95833,80
39.96667,80
39.97500,80
39.98333,80
39.99167,79
40.00000,79

