[Header]
Application Name,LabSolutions
Version,5.97 SP1
Data File Name,C:\Users\cremerlab\Desktop\griffin\2021-03-31_NCM3722_NCglucose_turnover\2021-03-31_NCM3722_turnover_batch_3312021_001_015.lcd
Output Date,4/1/2021
Output Time,5:59:17 AM

[File Information]
Type,Data File
Generated,4/1/2021 5:18:58 AM
Generated by,System Administrator
Modified,4/1/2021 5:59:17 AM
Modified by,System Administrator

[Sample Information]
Operator Name,System Administrator
Acquired,4/1/2021 5:19:17 AM
Sample Type,1:Standard
Level,1
Sample Name,2021-03-31_NCM3722_NCglucose_replicate_03_timepoint_001
Sample ID,001
ISTD Amount1,1
ISTD Amount2,1
ISTD Amount3,1
ISTD Amount4,1
ISTD Amount5,1
ISTD Amount6,1
ISTD Amount7,1
ISTD Amount8,1
ISTD Amount9,1
ISTD Amount10,1
ISTD Amount11,1
ISTD Amount12,1
ISTD Amount13,1
ISTD Amount14,1
ISTD Amount15,1
ISTD Amount16,1
ISTD Amount17,1
ISTD Amount18,1
ISTD Amount19,1
ISTD Amount20,1
ISTD Amount21,1
ISTD Amount22,1
ISTD Amount23,1
ISTD Amount24,1
ISTD Amount25,1
ISTD Amount26,1
ISTD Amount27,1
ISTD Amount28,1
ISTD Amount29,1
ISTD Amount30,1
ISTD Amount31,1
ISTD Amount32,1
Sample Amount,1
Dilution Factor,1
Vial#,28
Injection Volume,20

[Original Files]
Data File,C:\Users\cremerlab\Desktop\griffin\2021-03-31_NCM3722_NCglucose_turnover\2021-03-31_NCM3722_turnover_batch_3312021_001_015.lcd
Method File,C:\LabSolutions\Data\Project1\organicacidsetc2.lcm
Batch File,C:\Users\cremerlab\Desktop\griffin\2021-03-31_NCM3722_NCglucose_turnover\2021-03-31_NCM3722_turnover_batch.lcb
Report Format File,c:\LabSolutions\System\DEFAULT.lsr

[File Description]


[Configuration]
Instrument Name,HPLC-PC-Instrument1
Instrument #,1
Line #,1
# of Detectors,2
Detector ID,Detector A,Detector B
Detector Name,Detector A,Detector B
# of Channels,1,1

[Peak Table(Detector A)]
# of Peaks,0

[Peak Table(Detector B)]
# of Peaks,6
Peak#,R.Time,I.Time,F.Time,Area,Height,A/H,Conc.,Mark,ID#,Name,k',Plate #,Plate Ht.,Tailing,Resolution,Sep.Factor,Area Ratio,Height Ratio,Conc. %,Norm Conc.
1,11.038,10.750,11.583,917704,54720,16.771,0.000,   ,,,0.000,10841,13.837,0.000,0.000,0.000,0,0,0.000,0.000
2,11.917,11.583,13.108,137802,2535,54.358,0.000, V ,,,0.080,0,0.000,0.000,0.000,0.000,0,0,0.000,0.000
3,15.030,14.100,15.342,2416053,96975,24.914,0.000,   ,,,0.362,7862,19.079,0.000,0.000,4.545,0,0,0.000,0.000
4,15.625,15.342,18.058,732751,30257,24.217,0.000, V ,,,0.416,9580,15.658,0.000,0.903,1.149,0,0,0.000,0.000
5,18.975,18.700,19.508,1599,76,21.134,0.000,   ,,,0.719,17154,8.744,1.265,5.501,1.730,0,0,0.000,0.000
6,25.063,24.717,25.575,1839,75,24.554,0.000,   ,,,1.271,23229,6.457,1.151,9.840,1.767,0,0,0.000,0.000

[LC Chromatogram(Detector B-Ch1)]
Interval(msec),500
# of Points,4801
Start Time(min),0.000
End Time(min),40.000
Intensity Units,mV
Intensity Multiplier,0.001
R.Time (min),Intensity
0.00000,54
0.00833,54
0.01667,2
0.02500,5
0.03333,7
0.04167,9
0.05000,10
0.05833,11
0.06667,12
0.07500,13
0.08333,14
0.09167,16
0.10000,17
0.10833,18
0.11667,19
0.12500,20
0.13333,22
0.14167,22
0.15000,23
0.15833,23
0.16667,23
0.17500,23
0.18333,23
0.19167,23
0.20000,23
0.20833,23
0.21667,24
0.22500,25
0.23333,26
0.24167,28
0.25000,29
0.25833,29
0.26667,30
0.27500,30
0.28333,30
0.29167,30
0.30000,30
0.30833,30
0.31667,30
0.32500,29
0.33333,29
0.34167,29
0.35000,29
0.35833,29
0.36667,29
0.37500,29
0.38333,30
0.39167,30
0.40000,29
0.40833,29
0.41667,29
0.42500,28
0.43333,28
0.44167,28
0.45000,28
0.45833,28
0.46667,28
0.47500,27
0.48333,27
0.49167,27
0.50000,27
0.50833,27
0.51667,27
0.52500,27
0.53333,28
0.54167,28
0.55000,29
0.55833,30
0.56667,31
0.57500,32
0.58333,32
0.59167,33
0.60000,34
0.60833,34
0.61667,33
0.62500,32
0.63333,30
0.64167,29
0.65000,26
0.65833,24
0.66667,21
0.67500,19
0.68333,16
0.69167,13
0.70000,11
0.70833,8
0.71667,6
0.72500,5
0.73333,4
0.74167,4
0.75000,4
0.75833,3
0.76667,3
0.77500,4
0.78333,4
0.79167,4
0.80000,5
0.80833,5
0.81667,5
0.82500,6
0.83333,6
0.84167,7
0.85000,7
0.85833,7
0.86667,7
0.87500,7
0.88333,7
0.89167,7
0.90000,7
0.90833,7
0.91667,6
0.92500,6
0.93333,6
0.94167,6
0.95000,6
0.95833,6
0.96667,5
0.97500,5
0.98333,5
0.99167,5
1.00000,5
1.00833,5
1.01667,5
1.02500,4
1.03333,4
1.04167,3
1.05000,3
1.05833,3
1.06667,2
1.07500,2
1.08333,2
1.09167,1
1.10000,1
1.10833,1
1.11667,1
1.12500,1
1.13333,0
1.14167,-0
1.15000,-0
1.15833,-1
1.16667,-1
1.17500,-2
1.18333,-2
1.19167,-2
1.20000,-3
1.20833,-4
1.21667,-4
1.22500,-5
1.23333,-5
1.24167,-6
1.25000,-7
1.25833,-7
1.26667,-7
1.27500,-7
1.28333,-7
1.29167,-7
1.30000,-8
1.30833,-8
1.31667,-9
1.32500,-9
1.33333,-10
1.34167,-10
1.35000,-11
1.35833,-11
1.36667,-12
1.37500,-12
1.38333,-13
1.39167,-13
1.40000,-13
1.40833,-13
1.41667,-14
1.42500,-14
1.43333,-14
1.44167,-15
1.45000,-15
1.45833,-15
1.46667,-15
1.47500,-15
1.48333,-15
1.49167,-15
1.50000,-16
1.50833,-16
1.51667,-16
1.52500,-16
1.53333,-17
1.54167,-17
1.55000,-17
1.55833,-18
1.56667,-18
1.57500,-19
1.58333,-19
1.59167,-19
1.60000,-19
1.60833,-19
1.61667,-19
1.62500,-19
1.63333,-20
1.64167,-20
1.65000,-20
1.65833,-20
1.66667,-21
1.67500,-21
1.68333,-22
1.69167,-22
1.70000,-23
1.70833,-23
1.71667,-24
1.72500,-24
1.73333,-24
1.74167,-25
1.75000,-25
1.75833,-25
1.76667,-25
1.77500,-25
1.78333,-25
1.79167,-26
1.80000,-26
1.80833,-26
1.81667,-26
1.82500,-26
1.83333,-26
1.84167,-27
1.85000,-27
1.85833,-27
1.86667,-28
1.87500,-28
1.88333,-28
1.89167,-28
1.90000,-28
1.90833,-28
1.91667,-28
1.92500,-28
1.93333,-28
1.94167,-29
1.95000,-29
1.95833,-30
1.96667,-30
1.97500,-30
1.98333,-30
1.99167,-30
2.00000,-30
2.00833,-30
2.01667,-30
2.02500,-30
2.03333,-30
2.04167,-31
2.05000,-31
2.05833,-31
2.06667,-31
2.07500,-32
2.08333,-32
2.09167,-32
2.10000,-32
2.10833,-32
2.11667,-32
2.12500,-32
2.13333,-32
2.14167,-32
2.15000,-32
2.15833,-32
2.16667,-32
2.17500,-33
2.18333,-33
2.19167,-33
2.20000,-33
2.20833,-33
2.21667,-34
2.22500,-34
2.23333,-34
2.24167,-34
2.25000,-35
2.25833,-35
2.26667,-35
2.27500,-35
2.28333,-35
2.29167,-35
2.30000,-35
2.30833,-35
2.31667,-36
2.32500,-36
2.33333,-37
2.34167,-37
2.35000,-37
2.35833,-37
2.36667,-36
2.37500,-36
2.38333,-36
2.39167,-36
2.40000,-36
2.40833,-36
2.41667,-37
2.42500,-37
2.43333,-37
2.44167,-37
2.45000,-37
2.45833,-37
2.46667,-38
2.47500,-38
2.48333,-38
2.49167,-38
2.50000,-38
2.50833,-38
2.51667,-38
2.52500,-39
2.53333,-39
2.54167,-40
2.55000,-40
2.55833,-41
2.56667,-42
2.57500,-43
2.58333,-43
2.59167,-43
2.60000,-44
2.60833,-44
2.61667,-45
2.62500,-45
2.63333,-45
2.64167,-46
2.65000,-47
2.65833,-47
2.66667,-48
2.67500,-49
2.68333,-51
2.69167,-53
2.70000,-54
2.70833,-56
2.71667,-58
2.72500,-59
2.73333,-61
2.74167,-63
2.75000,-65
2.75833,-67
2.76667,-69
2.77500,-72
2.78333,-75
2.79167,-78
2.80000,-81
2.80833,-84
2.81667,-88
2.82500,-91
2.83333,-95
2.84167,-99
2.85000,-104
2.85833,-109
2.86667,-114
2.87500,-119
2.88333,-124
2.89167,-129
2.90000,-135
2.90833,-141
2.91667,-147
2.92500,-154
2.93333,-161
2.94167,-169
2.95000,-176
2.95833,-185
2.96667,-193
2.97500,-202
2.98333,-210
2.99167,-220
3.00000,-229
3.00833,-239
3.01667,-249
3.02500,-259
3.03333,-270
3.04167,-280
3.05000,-291
3.05833,-302
3.06667,-314
3.07500,-326
3.08333,-338
3.09167,-350
3.10000,-362
3.10833,-375
3.11667,-388
3.12500,-401
3.13333,-414
3.14167,-427
3.15000,-440
3.15833,-453
3.16667,-467
3.17500,-481
3.18333,-494
3.19167,-507
3.20000,-521
3.20833,-534
3.21667,-548
3.22500,-561
3.23333,-575
3.24167,-588
3.25000,-602
3.25833,-616
3.26667,-630
3.27500,-644
3.28333,-657
3.29167,-670
3.30000,-683
3.30833,-696
3.31667,-708
3.32500,-720
3.33333,-732
3.34167,-744
3.35000,-755
3.35833,-767
3.36667,-778
3.37500,-789
3.38333,-799
3.39167,-809
3.40000,-820
3.40833,-830
3.41667,-840
3.42500,-850
3.43333,-859
3.44167,-869
3.45000,-878
3.45833,-886
3.46667,-895
3.47500,-903
3.48333,-912
3.49167,-920
3.50000,-927
3.50833,-934
3.51667,-941
3.52500,-947
3.53333,-954
3.54167,-960
3.55000,-966
3.55833,-972
3.56667,-978
3.57500,-983
3.58333,-988
3.59167,-994
3.60000,-999
3.60833,-1004
3.61667,-1010
3.62500,-1015
3.63333,-1020
3.64167,-1024
3.65000,-1029
3.65833,-1034
3.66667,-1038
3.67500,-1042
3.68333,-1046
3.69167,-1050
3.70000,-1054
3.70833,-1058
3.71667,-1063
3.72500,-1067
3.73333,-1070
3.74167,-1074
3.75000,-1078
3.75833,-1082
3.76667,-1085
3.77500,-1089
3.78333,-1093
3.79167,-1097
3.80000,-1101
3.80833,-1105
3.81667,-1109
3.82500,-1113
3.83333,-1117
3.84167,-1121
3.85000,-1125
3.85833,-1129
3.86667,-1133
3.87500,-1137
3.88333,-1141
3.89167,-1145
3.90000,-1149
3.90833,-1154
3.91667,-1158
3.92500,-1162
3.93333,-1167
3.94167,-1171
3.95000,-1175
3.95833,-1179
3.96667,-1183
3.97500,-1187
3.98333,-1191
3.99167,-1195
4.00000,-1199
4.00833,-1203
4.01667,-1207
4.02500,-1210
4.03333,-1214
4.04167,-1218
4.05000,-1222
4.05833,-1225
4.06667,-1228
4.07500,-1232
4.08333,-1235
4.09167,-1239
4.10000,-1242
4.10833,-1245
4.11667,-1248
4.12500,-1251
4.13333,-1254
4.14167,-1256
4.15000,-1258
4.15833,-1261
4.16667,-1263
4.17500,-1265
4.18333,-1267
4.19167,-1268
4.20000,-1270
4.20833,-1271
4.21667,-1272
4.22500,-1273
4.23333,-1273
4.24167,-1274
4.25000,-1275
4.25833,-1275
4.26667,-1275
4.27500,-1275
4.28333,-1274
4.29167,-1274
4.30000,-1273
4.30833,-1272
4.31667,-1271
4.32500,-1270
4.33333,-1268
4.34167,-1267
4.35000,-1265
4.35833,-1263
4.36667,-1261
4.37500,-1259
4.38333,-1257
4.39167,-1255
4.40000,-1253
4.40833,-1251
4.41667,-1248
4.42500,-1245
4.43333,-1242
4.44167,-1239
4.45000,-1236
4.45833,-1233
4.46667,-1230
4.47500,-1227
4.48333,-1224
4.49167,-1220
4.50000,-1217
4.50833,-1214
4.51667,-1211
4.52500,-1208
4.53333,-1205
4.54167,-1202
4.55000,-1198
4.55833,-1195
4.56667,-1192
4.57500,-1189
4.58333,-1185
4.59167,-1182
4.60000,-1179
4.60833,-1176
4.61667,-1173
4.62500,-1171
4.63333,-1168
4.64167,-1165
4.65000,-1163
4.65833,-1161
4.66667,-1158
4.67500,-1156
4.68333,-1154
4.69167,-1152
4.70000,-1150
4.70833,-1148
4.71667,-1146
4.72500,-1144
4.73333,-1143
4.74167,-1141
4.75000,-1140
4.75833,-1139
4.76667,-1137
4.77500,-1136
4.78333,-1135
4.79167,-1134
4.80000,-1133
4.80833,-1132
4.81667,-1131
4.82500,-1130
4.83333,-1129
4.84167,-1129
4.85000,-1128
4.85833,-1128
4.86667,-1127
4.87500,-1127
4.88333,-1126
4.89167,-1125
4.90000,-1125
4.90833,-1124
4.91667,-1123
4.92500,-1123
4.93333,-1123
4.94167,-1122
4.95000,-1122
4.95833,-1121
4.96667,-1120
4.97500,-1120
4.98333,-1119
4.99167,-1119
5.00000,-1118
5.00833,-1117
5.01667,-1116
5.02500,-1115
5.03333,-1114
5.04167,-1113
5.05000,-1112
5.05833,-1110
5.06667,-1109
5.07500,-1108
5.08333,-1107
5.09167,-1105
5.10000,-1103
5.10833,-1100
5.11667,-1098
5.12500,-1096
5.13333,-1093
5.14167,-1091
5.15000,-1088
5.15833,-1085
5.16667,-1082
5.17500,-1078
5.18333,-1075
5.19167,-1071
5.20000,-1068
5.20833,-1065
5.21667,-1062
5.22500,-1058
5.23333,-1055
5.24167,-1051
5.25000,-1047
5.25833,-1043
5.26667,-1039
5.27500,-1035
5.28333,-1031
5.29167,-1027
5.30000,-1023
5.30833,-1019
5.31667,-1014
5.32500,-1010
5.33333,-1005
5.34167,-1001
5.35000,-996
5.35833,-991
5.36667,-987
5.37500,-982
5.38333,-977
5.39167,-972
5.40000,-967
5.40833,-963
5.41667,-958
5.42500,-953
5.43333,-948
5.44167,-944
5.45000,-940
5.45833,-936
5.46667,-932
5.47500,-927
5.48333,-923
5.49167,-918
5.50000,-914
5.50833,-909
5.51667,-905
5.52500,-901
5.53333,-897
5.54167,-893
5.55000,-890
5.55833,-886
5.56667,-883
5.57500,-879
5.58333,-876
5.59167,-872
5.60000,-868
5.60833,-865
5.61667,-862
5.62500,-859
5.63333,-856
5.64167,-853
5.65000,-850
5.65833,-847
5.66667,-844
5.67500,-842
5.68333,-840
5.69167,-837
5.70000,-835
5.70833,-833
5.71667,-830
5.72500,-828
5.73333,-825
5.74167,-823
5.75000,-821
5.75833,-819
5.76667,-817
5.77500,-815
5.78333,-813
5.79167,-811
5.80000,-808
5.80833,-806
5.81667,-805
5.82500,-803
5.83333,-801
5.84167,-799
5.85000,-798
5.85833,-796
5.86667,-794
5.87500,-792
5.88333,-790
5.89167,-789
5.90000,-787
5.90833,-786
5.91667,-784
5.92500,-782
5.93333,-781
5.94167,-779
5.95000,-777
5.95833,-775
5.96667,-773
5.97500,-771
5.98333,-769
5.99167,-767
6.00000,-765
6.00833,-763
6.01667,-761
6.02500,-759
6.03333,-757
6.04167,-754
6.05000,-752
6.05833,-750
6.06667,-747
6.07500,-744
6.08333,-742
6.09167,-739
6.10000,-737
6.10833,-734
6.11667,-731
6.12500,-729
6.13333,-726
6.14167,-724
6.15000,-721
6.15833,-718
6.16667,-715
6.17500,-713
6.18333,-709
6.19167,-707
6.20000,-704
6.20833,-701
6.21667,-698
6.22500,-695
6.23333,-691
6.24167,-688
6.25000,-685
6.25833,-682
6.26667,-678
6.27500,-675
6.28333,-671
6.29167,-668
6.30000,-665
6.30833,-661
6.31667,-657
6.32500,-654
6.33333,-650
6.34167,-646
6.35000,-643
6.35833,-639
6.36667,-635
6.37500,-632
6.38333,-628
6.39167,-624
6.40000,-620
6.40833,-616
6.41667,-612
6.42500,-608
6.43333,-605
6.44167,-601
6.45000,-597
6.45833,-594
6.46667,-590
6.47500,-586
6.48333,-582
6.49167,-578
6.50000,-574
6.50833,-570
6.51667,-566
6.52500,-562
6.53333,-557
6.54167,-553
6.55000,-549
6.55833,-544
6.56667,-540
6.57500,-536
6.58333,-533
6.59167,-529
6.60000,-525
6.60833,-521
6.61667,-517
6.62500,-513
6.63333,-509
6.64167,-505
6.65000,-501
6.65833,-497
6.66667,-493
6.67500,-490
6.68333,-486
6.69167,-482
6.70000,-477
6.70833,-473
6.71667,-469
6.72500,-465
6.73333,-461
6.74167,-457
6.75000,-453
6.75833,-449
6.76667,-445
6.77500,-441
6.78333,-437
6.79167,-433
6.80000,-429
6.80833,-425
6.81667,-421
6.82500,-417
6.83333,-414
6.84167,-410
6.85000,-406
6.85833,-402
6.86667,-399
6.87500,-395
6.88333,-391
6.89167,-387
6.90000,-384
6.90833,-380
6.91667,-377
6.92500,-373
6.93333,-370
6.94167,-366
6.95000,-362
6.95833,-358
6.96667,-354
6.97500,-351
6.98333,-347
6.99167,-344
7.00000,-341
7.00833,-338
7.01667,-335
7.02500,-331
7.03333,-328
7.04167,-325
7.05000,-322
7.05833,-319
7.06667,-316
7.07500,-313
7.08333,-310
7.09167,-307
7.10000,-304
7.10833,-301
7.11667,-298
7.12500,-295
7.13333,-293
7.14167,-290
7.15000,-287
7.15833,-284
7.16667,-281
7.17500,-278
7.18333,-276
7.19167,-274
7.20000,-272
7.20833,-270
7.21667,-268
7.22500,-266
7.23333,-264
7.24167,-262
7.25000,-260
7.25833,-257
7.26667,-255
7.27500,-253
7.28333,-251
7.29167,-249
7.30000,-247
7.30833,-245
7.31667,-243
7.32500,-241
7.33333,-240
7.34167,-238
7.35000,-236
7.35833,-235
7.36667,-234
7.37500,-232
7.38333,-231
7.39167,-229
7.40000,-228
7.40833,-226
7.41667,-225
7.42500,-224
7.43333,-222
7.44167,-221
7.45000,-220
7.45833,-218
7.46667,-217
7.47500,-216
7.48333,-215
7.49167,-214
7.50000,-213
7.50833,-212
7.51667,-211
7.52500,-210
7.53333,-209
7.54167,-208
7.55000,-207
7.55833,-205
7.56667,-204
7.57500,-204
7.58333,-203
7.59167,-202
7.60000,-202
7.60833,-201
7.61667,-200
7.62500,-200
7.63333,-199
7.64167,-199
7.65000,-198
7.65833,-198
7.66667,-197
7.67500,-197
7.68333,-196
7.69167,-196
7.70000,-195
7.70833,-194
7.71667,-194
7.72500,-193
7.73333,-192
7.74167,-192
7.75000,-191
7.75833,-190
7.76667,-190
7.77500,-189
7.78333,-189
7.79167,-189
7.80000,-188
7.80833,-188
7.81667,-187
7.82500,-187
7.83333,-187
7.84167,-187
7.85000,-186
7.85833,-186
7.86667,-186
7.87500,-186
7.88333,-185
7.89167,-185
7.90000,-185
7.90833,-184
7.91667,-183
7.92500,-183
7.93333,-182
7.94167,-182
7.95000,-182
7.95833,-181
7.96667,-181
7.97500,-181
7.98333,-181
7.99167,-181
8.00000,-180
8.00833,-180
8.01667,-179
8.02500,-179
8.03333,-178
8.04167,-178
8.05000,-178
8.05833,-178
8.06667,-177
8.07500,-177
8.08333,-176
8.09167,-176
8.10000,-175
8.10833,-175
8.11667,-175
8.12500,-175
8.13333,-174
8.14167,-174
8.15000,-173
8.15833,-173
8.16667,-172
8.17500,-172
8.18333,-172
8.19167,-171
8.20000,-171
8.20833,-170
8.21667,-170
8.22500,-170
8.23333,-169
8.24167,-169
8.25000,-169
8.25833,-168
8.26667,-168
8.27500,-168
8.28333,-167
8.29167,-167
8.30000,-166
8.30833,-166
8.31667,-165
8.32500,-165
8.33333,-165
8.34167,-165
8.35000,-164
8.35833,-164
8.36667,-164
8.37500,-163
8.38333,-162
8.39167,-162
8.40000,-161
8.40833,-161
8.41667,-161
8.42500,-161
8.43333,-161
8.44167,-161
8.45000,-160
8.45833,-160
8.46667,-159
8.47500,-159
8.48333,-158
8.49167,-158
8.50000,-158
8.50833,-158
8.51667,-158
8.52500,-157
8.53333,-157
8.54167,-156
8.55000,-155
8.55833,-155
8.56667,-154
8.57500,-154
8.58333,-153
8.59167,-153
8.60000,-152
8.60833,-152
8.61667,-152
8.62500,-151
8.63333,-151
8.64167,-151
8.65000,-150
8.65833,-150
8.66667,-150
8.67500,-149
8.68333,-149
8.69167,-148
8.70000,-148
8.70833,-147
8.71667,-147
8.72500,-147
8.73333,-146
8.74167,-146
8.75000,-145
8.75833,-145
8.76667,-144
8.77500,-144
8.78333,-143
8.79167,-143
8.80000,-142
8.80833,-142
8.81667,-141
8.82500,-141
8.83333,-141
8.84167,-140
8.85000,-140
8.85833,-140
8.86667,-139
8.87500,-139
8.88333,-139
8.89167,-138
8.90000,-138
8.90833,-138
8.91667,-137
8.92500,-137
8.93333,-136
8.94167,-136
8.95000,-135
8.95833,-135
8.96667,-135
8.97500,-134
8.98333,-133
8.99167,-133
9.00000,-133
9.00833,-132
9.01667,-132
9.02500,-132
9.03333,-132
9.04167,-132
9.05000,-131
9.05833,-131
9.06667,-131
9.07500,-130
9.08333,-130
9.09167,-129
9.10000,-129
9.10833,-129
9.11667,-128
9.12500,-128
9.13333,-128
9.14167,-128
9.15000,-127
9.15833,-127
9.16667,-126
9.17500,-126
9.18333,-126
9.19167,-125
9.20000,-125
9.20833,-125
9.21667,-124
9.22500,-124
9.23333,-124
9.24167,-123
9.25000,-123
9.25833,-123
9.26667,-123
9.27500,-122
9.28333,-122
9.29167,-121
9.30000,-120
9.30833,-120
9.31667,-120
9.32500,-120
9.33333,-120
9.34167,-119
9.35000,-119
9.35833,-119
9.36667,-119
9.37500,-118
9.38333,-118
9.39167,-118
9.40000,-118
9.40833,-117
9.41667,-117
9.42500,-117
9.43333,-117
9.44167,-117
9.45000,-116
9.45833,-116
9.46667,-115
9.47500,-115
9.48333,-114
9.49167,-114
9.50000,-114
9.50833,-114
9.51667,-113
9.52500,-112
9.53333,-112
9.54167,-112
9.55000,-112
9.55833,-112
9.56667,-111
9.57500,-111
9.58333,-110
9.59167,-110
9.60000,-110
9.60833,-110
9.61667,-110
9.62500,-110
9.63333,-110
9.64167,-109
9.65000,-109
9.65833,-108
9.66667,-108
9.67500,-107
9.68333,-107
9.69167,-107
9.70000,-107
9.70833,-106
9.71667,-106
9.72500,-106
9.73333,-106
9.74167,-106
9.75000,-105
9.75833,-105
9.76667,-105
9.77500,-105
9.78333,-105
9.79167,-105
9.80000,-105
9.80833,-105
9.81667,-104
9.82500,-104
9.83333,-104
9.84167,-104
9.85000,-103
9.85833,-103
9.86667,-103
9.87500,-102
9.88333,-102
9.89167,-102
9.90000,-101
9.90833,-101
9.91667,-101
9.92500,-101
9.93333,-101
9.94167,-101
9.95000,-100
9.95833,-100
9.96667,-100
9.97500,-99
9.98333,-99
9.99167,-99
10.00000,-99
10.00833,-98
10.01667,-98
10.02500,-98
10.03333,-98
10.04167,-98
10.05000,-97
10.05833,-97
10.06667,-97
10.07500,-96
10.08333,-96
10.09167,-96
10.10000,-95
10.10833,-96
10.11667,-96
10.12500,-96
10.13333,-96
10.14167,-96
10.15000,-96
10.15833,-95
10.16667,-95
10.17500,-95
10.18333,-95
10.19167,-95
10.20000,-94
10.20833,-94
10.21667,-94
10.22500,-94
10.23333,-94
10.24167,-93
10.25000,-93
10.25833,-92
10.26667,-92
10.27500,-91
10.28333,-91
10.29167,-90
10.30000,-90
10.30833,-89
10.31667,-88
10.32500,-87
10.33333,-86
10.34167,-86
10.35000,-85
10.35833,-84
10.36667,-83
10.37500,-83
10.38333,-82
10.39167,-81
10.40000,-80
10.40833,-78
10.41667,-77
10.42500,-76
10.43333,-74
10.44167,-74
10.45000,-73
10.45833,-73
10.46667,-73
10.47500,-72
10.48333,-73
10.49167,-73
10.50000,-74
10.50833,-76
10.51667,-79
10.52500,-83
10.53333,-89
10.54167,-98
10.55000,-111
10.55833,-127
10.56667,-150
10.57500,-179
10.58333,-216
10.59167,-265
10.60000,-325
10.60833,-400
10.61667,-492
10.62500,-602
10.63333,-732
10.64167,-885
10.65000,-1059
10.65833,-1254
10.66667,-1470
10.67500,-1703
10.68333,-1950
10.69167,-2205
10.70000,-2462
10.70833,-2713
10.71667,-2947
10.72500,-3154
10.73333,-3322
10.74167,-3439
10.75000,-3490
10.75833,-3464
10.76667,-3347
10.77500,-3125
10.78333,-2786
10.79167,-2319
10.80000,-1715
10.80833,-963
10.81667,-57
10.82500,1009
10.83333,2239
10.84167,3637
10.85000,5201
10.85833,6930
10.86667,8821
10.87500,10867
10.88333,13060
10.89167,15389
10.90000,17841
10.90833,20399
10.91667,23045
10.92500,25756
10.93333,28506
10.94167,31266
10.95000,34003
10.95833,36681
10.96667,39262
10.97500,41706
10.98333,43969
10.99167,46009
11.00000,47788
11.00833,49267
11.01667,50415
11.02500,51207
11.03333,51624
11.04167,51660
11.05000,51316
11.05833,50604
11.06667,49544
11.07500,48166
11.08333,46506
11.09167,44605
11.10000,42507
11.10833,40258
11.11667,37903
11.12500,35486
11.13333,33047
11.14167,30621
11.15000,28241
11.15833,25932
11.16667,23715
11.17500,21606
11.18333,19618
11.19167,17756
11.20000,16027
11.20833,14429
11.21667,12962
11.22500,11621
11.23333,10402
11.24167,9299
11.25000,8303
11.25833,7409
11.26667,6607
11.27500,5891
11.28333,5254
11.29167,4687
11.30000,4185
11.30833,3740
11.31667,3348
11.32500,3002
11.33333,2697
11.34167,2429
11.35000,2194
11.35833,1988
11.36667,1807
11.37500,1648
11.38333,1510
11.39167,1389
11.40000,1283
11.40833,1191
11.41667,1110
11.42500,1040
11.43333,979
11.44167,926
11.45000,880
11.45833,840
11.46667,806
11.47500,777
11.48333,752
11.49167,730
11.50000,711
11.50833,695
11.51667,682
11.52500,671
11.53333,661
11.54167,654
11.55000,648
11.55833,643
11.56667,640
11.57500,638
11.58333,638
11.59167,638
11.60000,639
11.60833,641
11.61667,643
11.62500,646
11.63333,650
11.64167,654
11.65000,658
11.65833,662
11.66667,667
11.67500,672
11.68333,677
11.69167,683
11.70000,689
11.70833,695
11.71667,700
11.72500,706
11.73333,712
11.74167,718
11.75000,723
11.75833,728
11.76667,733
11.77500,738
11.78333,743
11.79167,748
11.80000,753
11.80833,758
11.81667,762
11.82500,766
11.83333,770
11.84167,773
11.85000,777
11.85833,780
11.86667,782
11.87500,784
11.88333,786
11.89167,787
11.90000,787
11.90833,788
11.91667,788
11.92500,788
11.93333,787
11.94167,785
11.95000,784
11.95833,781
11.96667,779
11.97500,776
11.98333,773
11.99167,769
12.00000,765
12.00833,761
12.01667,757
12.02500,751
12.03333,746
12.04167,740
12.05000,733
12.05833,726
12.06667,720
12.07500,712
12.08333,705
12.09167,696
12.10000,688
12.10833,679
12.11667,670
12.12500,661
12.13333,652
12.14167,642
12.15000,632
12.15833,622
12.16667,611
12.17500,601
12.18333,591
12.19167,580
12.20000,570
12.20833,560
12.21667,549
12.22500,539
12.23333,528
12.24167,518
12.25000,507
12.25833,497
12.26667,486
12.27500,476
12.28333,465
12.29167,455
12.30000,445
12.30833,434
12.31667,424
12.32500,414
12.33333,403
12.34167,393
12.35000,383
12.35833,374
12.36667,364
12.37500,355
12.38333,345
12.39167,336
12.40000,327
12.40833,318
12.41667,310
12.42500,301
12.43333,292
12.44167,284
12.45000,276
12.45833,268
12.46667,260
12.47500,252
12.48333,245
12.49167,237
12.50000,230
12.50833,223
12.51667,216
12.52500,210
12.53333,203
12.54167,196
12.55000,190
12.55833,184
12.56667,179
12.57500,173
12.58333,168
12.59167,162
12.60000,157
12.60833,152
12.61667,146
12.62500,142
12.63333,137
12.64167,132
12.65000,128
12.65833,124
12.66667,120
12.67500,116
12.68333,112
12.69167,108
12.70000,105
12.70833,101
12.71667,98
12.72500,95
12.73333,92
12.74167,89
12.75000,86
12.75833,82
12.76667,79
12.77500,77
12.78333,75
12.79167,73
12.80000,71
12.80833,69
12.81667,67
12.82500,65
12.83333,64
12.84167,62
12.85000,60
12.85833,58
12.86667,57
12.87500,56
12.88333,55
12.89167,54
12.90000,52
12.90833,51
12.91667,50
12.92500,48
12.93333,47
12.94167,46
12.95000,45
12.95833,44
12.96667,43
12.97500,43
12.98333,42
12.99167,42
13.00000,41
13.00833,40
13.01667,40
13.02500,39
13.03333,38
13.04167,37
13.05000,37
13.05833,36
13.06667,36
13.07500,35
13.08333,35
13.09167,34
13.10000,34
13.10833,33
13.11667,33
13.12500,32
13.13333,32
13.14167,31
13.15000,30
13.15833,30
13.16667,29
13.17500,29
13.18333,29
13.19167,28
13.20000,28
13.20833,27
13.21667,27
13.22500,26
13.23333,25
13.24167,24
13.25000,24
13.25833,23
13.26667,23
13.27500,23
13.28333,22
13.29167,22
13.30000,21
13.30833,20
13.31667,19
13.32500,18
13.33333,17
13.34167,17
13.35000,16
13.35833,15
13.36667,14
13.37500,14
13.38333,13
13.39167,12
13.40000,11
13.40833,10
13.41667,9
13.42500,9
13.43333,8
13.44167,7
13.45000,7
13.45833,6
13.46667,5
13.47500,4
13.48333,4
13.49167,3
13.50000,2
13.50833,1
13.51667,0
13.52500,-0
13.53333,-1
13.54167,-2
13.55000,-2
13.55833,-3
13.56667,-3
13.57500,-4
13.58333,-5
13.59167,-5
13.60000,-5
13.60833,-6
13.61667,-6
13.62500,-7
13.63333,-7
13.64167,-7
13.65000,-8
13.65833,-8
13.66667,-9
13.67500,-9
13.68333,-9
13.69167,-10
13.70000,-10
13.70833,-10
13.71667,-9
13.72500,-9
13.73333,-10
13.74167,-10
13.75000,-10
13.75833,-10
13.76667,-10
13.77500,-10
13.78333,-10
13.79167,-10
13.80000,-10
13.80833,-10
13.81667,-10
13.82500,-10
13.83333,-10
13.84167,-10
13.85000,-11
13.85833,-11
13.86667,-11
13.87500,-11
13.88333,-11
13.89167,-11
13.90000,-11
13.90833,-10
13.91667,-10
13.92500,-10
13.93333,-10
13.94167,-10
13.95000,-10
13.95833,-10
13.96667,-9
13.97500,-9
13.98333,-9
13.99167,-8
14.00000,-8
14.00833,-8
14.01667,-7
14.02500,-7
14.03333,-7
14.04167,-6
14.05000,-6
14.05833,-5
14.06667,-4
14.07500,-4
14.08333,-3
14.09167,-3
14.10000,-2
14.10833,-1
14.11667,-0
14.12500,1
14.13333,3
14.14167,4
14.15000,7
14.15833,9
14.16667,12
14.17500,15
14.18333,19
14.19167,23
14.20000,28
14.20833,34
14.21667,42
14.22500,51
14.23333,62
14.24167,75
14.25000,91
14.25833,110
14.26667,133
14.27500,161
14.28333,193
14.29167,232
14.30000,279
14.30833,334
14.31667,399
14.32500,475
14.33333,563
14.34167,666
14.35000,784
14.35833,920
14.36667,1075
14.37500,1250
14.38333,1448
14.39167,1671
14.40000,1919
14.40833,2195
14.41667,2500
14.42500,2835
14.43333,3202
14.44167,3602
14.45000,4037
14.45833,4506
14.46667,5011
14.47500,5551
14.48333,6128
14.49167,6742
14.50000,7393
14.50833,8081
14.51667,8807
14.52500,9569
14.53333,10368
14.54167,11204
14.55000,12075
14.55833,12981
14.56667,13922
14.57500,14898
14.58333,15908
14.59167,16951
14.60000,18027
14.60833,19135
14.61667,20273
14.62500,21442
14.63333,22641
14.64167,23869
14.65000,25126
14.65833,26411
14.66667,27724
14.67500,29063
14.68333,30429
14.69167,31821
14.70000,33238
14.70833,34681
14.71667,36148
14.72500,37639
14.73333,39154
14.74167,40693
14.75000,42253
14.75833,43837
14.76667,45442
14.77500,47070
14.78333,48719
14.79167,50389
14.80000,52080
14.80833,53790
14.81667,55520
14.82500,57270
14.83333,59037
14.84167,60823
14.85000,62626
14.85833,64445
14.86667,66279
14.87500,68129
14.88333,69991
14.89167,71866
14.90000,73750
14.90833,75642
14.91667,77539
14.92500,79437
14.93333,81330
14.94167,83212
14.95000,85071
14.95833,86897
14.96667,88670
14.97500,90368
14.98333,91961
14.99167,93415
15.00000,94689
15.00833,95735
15.01667,96503
15.02500,96939
15.03333,96994
15.04167,96621
15.05000,95781
15.05833,94449
15.06667,92612
15.07500,90274
15.08333,87454
15.09167,84190
15.10000,80532
15.10833,76545
15.11667,72299
15.12500,67873
15.13333,63344
15.14167,58788
15.15000,54276
15.15833,49869
15.16667,45621
15.17500,41575
15.18333,37762
15.19167,34206
15.20000,30918
15.20833,27906
15.21667,25166
15.22500,22693
15.23333,20476
15.24167,18503
15.25000,16760
15.25833,15230
15.26667,13899
15.27500,12752
15.28333,11775
15.29167,10955
15.30000,10282
15.30833,9745
15.31667,9335
15.32500,9044
15.33333,8865
15.34167,8792
15.35000,8820
15.35833,8944
15.36667,9161
15.37500,9466
15.38333,9856
15.39167,10326
15.40000,10872
15.40833,11491
15.41667,12176
15.42500,12924
15.43333,13729
15.44167,14585
15.45000,15484
15.45833,16419
15.46667,17384
15.47500,18369
15.48333,19367
15.49167,20369
15.50000,21365
15.50833,22347
15.51667,23306
15.52500,24233
15.53333,25119
15.54167,25957
15.55000,26737
15.55833,27454
15.56667,28101
15.57500,28671
15.58333,29161
15.59167,29566
15.60000,29883
15.60833,30110
15.61667,30246
15.62500,30291
15.63333,30245
15.64167,30110
15.65000,29890
15.65833,29586
15.66667,29202
15.67500,28744
15.68333,28217
15.69167,27625
15.70000,26976
15.70833,26274
15.71667,25527
15.72500,24740
15.73333,23919
15.74167,23071
15.75000,22203
15.75833,21320
15.76667,20428
15.77500,19531
15.78333,18636
15.79167,17746
15.80000,16867
15.80833,16001
15.81667,15152
15.82500,14323
15.83333,13516
15.84167,12735
15.85000,11981
15.85833,11254
15.86667,10557
15.87500,9890
15.88333,9254
15.89167,8649
15.90000,8075
15.90833,7532
15.91667,7018
15.92500,6534
15.93333,6079
15.94167,5652
15.95000,5253
15.95833,4879
15.96667,4530
15.97500,4206
15.98333,3904
15.99167,3623
16.00000,3363
16.00833,3123
16.01667,2901
16.02500,2695
16.03333,2506
16.04167,2331
16.05000,2170
16.05833,2021
16.06667,1885
16.07500,1761
16.08333,1645
16.09167,1540
16.10000,1443
16.10833,1355
16.11667,1274
16.12500,1200
16.13333,1132
16.14167,1069
16.15000,1012
16.15833,959
16.16667,911
16.17500,866
16.18333,825
16.19167,788
16.20000,753
16.20833,721
16.21667,692
16.22500,665
16.23333,640
16.24167,617
16.25000,595
16.25833,576
16.26667,558
16.27500,541
16.28333,525
16.29167,510
16.30000,497
16.30833,485
16.31667,472
16.32500,461
16.33333,450
16.34167,440
16.35000,431
16.35833,422
16.36667,414
16.37500,406
16.38333,399
16.39167,393
16.40000,387
16.40833,381
16.41667,375
16.42500,369
16.43333,363
16.44167,358
16.45000,352
16.45833,348
16.46667,343
16.47500,339
16.48333,334
16.49167,330
16.50000,326
16.50833,323
16.51667,319
16.52500,316
16.53333,312
16.54167,309
16.55000,306
16.55833,302
16.56667,300
16.57500,297
16.58333,294
16.59167,291
16.60000,288
16.60833,285
16.61667,283
16.62500,281
16.63333,279
16.64167,277
16.65000,274
16.65833,272
16.66667,270
16.67500,267
16.68333,266
16.69167,264
16.70000,262
16.70833,260
16.71667,259
16.72500,257
16.73333,255
16.74167,253
16.75000,251
16.75833,249
16.76667,247
16.77500,245
16.78333,244
16.79167,242
16.80000,240
16.80833,238
16.81667,236
16.82500,234
16.83333,233
16.84167,231
16.85000,229
16.85833,227
16.86667,226
16.87500,224
16.88333,223
16.89167,221
16.90000,220
16.90833,219
16.91667,217
16.92500,215
16.93333,213
16.94167,212
16.95000,210
16.95833,209
16.96667,208
16.97500,207
16.98333,205
16.99167,204
17.00000,202
17.00833,201
17.01667,199
17.02500,198
17.03333,196
17.04167,195
17.05000,194
17.05833,193
17.06667,192
17.07500,191
17.08333,190
17.09167,189
17.10000,188
17.10833,186
17.11667,185
17.12500,184
17.13333,183
17.14167,181
17.15000,180
17.15833,178
17.16667,177
17.17500,176
17.18333,175
17.19167,174
17.20000,173
17.20833,172
17.21667,171
17.22500,169
17.23333,168
17.24167,167
17.25000,166
17.25833,165
17.26667,164
17.27500,163
17.28333,161
17.29167,160
17.30000,159
17.30833,158
17.31667,157
17.32500,156
17.33333,155
17.34167,155
17.35000,154
17.35833,153
17.36667,152
17.37500,151
17.38333,150
17.39167,149
17.40000,148
17.40833,147
17.41667,146
17.42500,145
17.43333,143
17.44167,142
17.45000,141
17.45833,140
17.46667,139
17.47500,138
17.48333,138
17.49167,137
17.50000,136
17.50833,135
17.51667,134
17.52500,133
17.53333,133
17.54167,132
17.55000,131
17.55833,130
17.56667,129
17.57500,128
17.58333,127
17.59167,126
17.60000,125
17.60833,125
17.61667,124
17.62500,124
17.63333,123
17.64167,123
17.65000,122
17.65833,121
17.66667,120
17.67500,119
17.68333,119
17.69167,118
17.70000,117
17.70833,116
17.71667,115
17.72500,115
17.73333,114
17.74167,114
17.75000,113
17.75833,112
17.76667,112
17.77500,111
17.78333,110
17.79167,109
17.80000,108
17.80833,107
17.81667,106
17.82500,106
17.83333,105
17.84167,104
17.85000,104
17.85833,103
17.86667,103
17.87500,102
17.88333,101
17.89167,100
17.90000,100
17.90833,99
17.91667,98
17.92500,98
17.93333,97
17.94167,97
17.95000,96
17.95833,96
17.96667,95
17.97500,95
17.98333,94
17.99167,94
18.00000,93
18.00833,92
18.01667,91
18.02500,91
18.03333,90
18.04167,90
18.05000,89
18.05833,89
18.06667,89
18.07500,88
18.08333,88
18.09167,87
18.10000,86
18.10833,86
18.11667,85
18.12500,85
18.13333,84
18.14167,84
18.15000,83
18.15833,82
18.16667,81
18.17500,81
18.18333,81
18.19167,80
18.20000,80
18.20833,79
18.21667,79
18.22500,78
18.23333,78
18.24167,77
18.25000,77
18.25833,76
18.26667,76
18.27500,75
18.28333,75
18.29167,74
18.30000,74
18.30833,73
18.31667,73
18.32500,72
18.33333,72
18.34167,71
18.35000,71
18.35833,70
18.36667,70
18.37500,69
18.38333,69
18.39167,68
18.40000,68
18.40833,67
18.41667,66
18.42500,66
18.43333,65
18.44167,65
18.45000,64
18.45833,64
18.46667,64
18.47500,63
18.48333,63
18.49167,62
18.50000,62
18.50833,62
18.51667,62
18.52500,62
18.53333,61
18.54167,61
18.55000,61
18.55833,60
18.56667,60
18.57500,60
18.58333,60
18.59167,60
18.60000,60
18.60833,60
18.61667,60
18.62500,60
18.63333,60
18.64167,61
18.65000,61
18.65833,62
18.66667,63
18.67500,64
18.68333,64
18.69167,65
18.70000,66
18.70833,67
18.71667,68
18.72500,69
18.73333,70
18.74167,72
18.75000,74
18.75833,76
18.76667,78
18.77500,80
18.78333,82
18.79167,85
18.80000,87
18.80833,90
18.81667,93
18.82500,96
18.83333,98
18.84167,101
18.85000,103
18.85833,106
18.86667,109
18.87500,112
18.88333,115
18.89167,118
18.90000,120
18.90833,122
18.91667,123
18.92500,125
18.93333,126
18.94167,127
18.95000,128
18.95833,129
18.96667,130
18.97500,130
18.98333,130
18.99167,130
19.00000,129
19.00833,129
19.01667,128
19.02500,127
19.03333,125
19.04167,124
19.05000,122
19.05833,120
19.06667,118
19.07500,115
19.08333,113
19.09167,110
19.10000,108
19.10833,105
19.11667,102
19.12500,99
19.13333,97
19.14167,94
19.15000,92
19.15833,89
19.16667,86
19.17500,83
19.18333,81
19.19167,78
19.20000,75
19.20833,73
19.21667,70
19.22500,68
19.23333,66
19.24167,64
19.25000,62
19.25833,61
19.26667,59
19.27500,57
19.28333,55
19.29167,53
19.30000,52
19.30833,50
19.31667,49
19.32500,47
19.33333,46
19.34167,45
19.35000,43
19.35833,42
19.36667,41
19.37500,41
19.38333,40
19.39167,39
19.40000,38
19.40833,38
19.41667,37
19.42500,37
19.43333,36
19.44167,36
19.45000,35
19.45833,35
19.46667,34
19.47500,34
19.48333,33
19.49167,33
19.50000,33
19.50833,32
19.51667,32
19.52500,32
19.53333,32
19.54167,31
19.55000,31
19.55833,30
19.56667,30
19.57500,29
19.58333,29
19.59167,29
19.60000,29
19.60833,29
19.61667,28
19.62500,28
19.63333,28
19.64167,27
19.65000,27
19.65833,27
19.66667,27
19.67500,27
19.68333,27
19.69167,27
19.70000,27
19.70833,27
19.71667,26
19.72500,26
19.73333,26
19.74167,25
19.75000,25
19.75833,25
19.76667,24
19.77500,24
19.78333,24
19.79167,24
19.80000,25
19.80833,24
19.81667,24
19.82500,24
19.83333,24
19.84167,24
19.85000,24
19.85833,24
19.86667,24
19.87500,23
19.88333,23
19.89167,23
19.90000,22
19.90833,22
19.91667,22
19.92500,22
19.93333,22
19.94167,22
19.95000,22
19.95833,22
19.96667,21
19.97500,21
19.98333,22
19.99167,22
20.00000,22
20.00833,22
20.01667,21
20.02500,21
20.03333,21
20.04167,21
20.05000,20
20.05833,20
20.06667,20
20.07500,20
20.08333,20
20.09167,21
20.10000,21
20.10833,21
20.11667,21
20.12500,20
20.13333,20
20.14167,20
20.15000,20
20.15833,20
20.16667,20
20.17500,20
20.18333,20
20.19167,20
20.20000,20
20.20833,20
20.21667,20
20.22500,19
20.23333,19
20.24167,19
20.25000,19
20.25833,19
20.26667,19
20.27500,18
20.28333,18
20.29167,18
20.30000,18
20.30833,18
20.31667,18
20.32500,18
20.33333,18
20.34167,17
20.35000,17
20.35833,17
20.36667,17
20.37500,17
20.38333,16
20.39167,16
20.40000,16
20.40833,16
20.41667,16
20.42500,16
20.43333,16
20.44167,16
20.45000,16
20.45833,16
20.46667,16
20.47500,16
20.48333,16
20.49167,16
20.50000,16
20.50833,16
20.51667,17
20.52500,16
20.53333,16
20.54167,16
20.55000,16
20.55833,16
20.56667,15
20.57500,15
20.58333,15
20.59167,15
20.60000,15
20.60833,15
20.61667,15
20.62500,15
20.63333,15
20.64167,15
20.65000,15
20.65833,16
20.66667,16
20.67500,16
20.68333,16
20.69167,16
20.70000,15
20.70833,15
20.71667,15
20.72500,15
20.73333,15
20.74167,14
20.75000,14
20.75833,14
20.76667,14
20.77500,14
20.78333,14
20.79167,13
20.80000,14
20.80833,14
20.81667,14
20.82500,14
20.83333,14
20.84167,14
20.85000,14
20.85833,14
20.86667,14
20.87500,14
20.88333,14
20.89167,14
20.90000,14
20.90833,14
20.91667,14
20.92500,14
20.93333,14
20.94167,14
20.95000,13
20.95833,13
20.96667,13
20.97500,13
20.98333,13
20.99167,13
21.00000,12
21.00833,12
21.01667,13
21.02500,13
21.03333,13
21.04167,14
21.05000,14
21.05833,14
21.06667,13
21.07500,13
21.08333,13
21.09167,14
21.10000,13
21.10833,13
21.11667,13
21.12500,13
21.13333,13
21.14167,12
21.15000,12
21.15833,12
21.16667,12
21.17500,12
21.18333,12
21.19167,12
21.20000,12
21.20833,12
21.21667,12
21.22500,12
21.23333,11
21.24167,11
21.25000,12
21.25833,12
21.26667,12
21.27500,12
21.28333,12
21.29167,12
21.30000,12
21.30833,12
21.31667,13
21.32500,13
21.33333,13
21.34167,12
21.35000,12
21.35833,12
21.36667,12
21.37500,12
21.38333,12
21.39167,12
21.40000,12
21.40833,12
21.41667,12
21.42500,12
21.43333,12
21.44167,12
21.45000,11
21.45833,11
21.46667,12
21.47500,12
21.48333,12
21.49167,12
21.50000,12
21.50833,12
21.51667,13
21.52500,13
21.53333,13
21.54167,13
21.55000,12
21.55833,12
21.56667,11
21.57500,11
21.58333,12
21.59167,12
21.60000,12
21.60833,12
21.61667,13
21.62500,13
21.63333,13
21.64167,13
21.65000,13
21.65833,13
21.66667,13
21.67500,13
21.68333,13
21.69167,13
21.70000,13
21.70833,13
21.71667,13
21.72500,13
21.73333,12
21.74167,12
21.75000,13
21.75833,13
21.76667,13
21.77500,13
21.78333,13
21.79167,13
21.80000,13
21.80833,13
21.81667,13
21.82500,13
21.83333,13
21.84167,13
21.85000,14
21.85833,14
21.86667,13
21.87500,13
21.88333,14
21.89167,14
21.90000,14
21.90833,15
21.91667,15
21.92500,15
21.93333,14
21.94167,14
21.95000,14
21.95833,13
21.96667,13
21.97500,13
21.98333,13
21.99167,13
22.00000,13
22.00833,13
22.01667,13
22.02500,13
22.03333,13
22.04167,13
22.05000,13
22.05833,13
22.06667,13
22.07500,13
22.08333,13
22.09167,13
22.10000,13
22.10833,13
22.11667,13
22.12500,13
22.13333,12
22.14167,12
22.15000,12
22.15833,12
22.16667,12
22.17500,12
22.18333,12
22.19167,12
22.20000,12
22.20833,12
22.21667,12
22.22500,12
22.23333,12
22.24167,13
22.25000,12
22.25833,12
22.26667,12
22.27500,12
22.28333,12
22.29167,12
22.30000,12
22.30833,12
22.31667,12
22.32500,12
22.33333,12
22.34167,12
22.35000,12
22.35833,12
22.36667,12
22.37500,12
22.38333,12
22.39167,12
22.40000,12
22.40833,12
22.41667,11
22.42500,11
22.43333,11
22.44167,11
22.45000,12
22.45833,12
22.46667,12
22.47500,12
22.48333,12
22.49167,12
22.50000,12
22.50833,12
22.51667,12
22.52500,11
22.53333,11
22.54167,11
22.55000,10
22.55833,10
22.56667,11
22.57500,11
22.58333,11
22.59167,12
22.60000,12
22.60833,12
22.61667,12
22.62500,12
22.63333,12
22.64167,12
22.65000,12
22.65833,12
22.66667,12
22.67500,12
22.68333,12
22.69167,12
22.70000,12
22.70833,12
22.71667,12
22.72500,12
22.73333,12
22.74167,12
22.75000,12
22.75833,12
22.76667,12
22.77500,12
22.78333,13
22.79167,13
22.80000,13
22.80833,12
22.81667,12
22.82500,12
22.83333,12
22.84167,13
22.85000,13
22.85833,13
22.86667,14
22.87500,15
22.88333,15
22.89167,16
22.90000,16
22.90833,16
22.91667,17
22.92500,17
22.93333,16
22.94167,17
22.95000,17
22.95833,18
22.96667,18
22.97500,19
22.98333,19
22.99167,20
23.00000,21
23.00833,21
23.01667,21
23.02500,22
23.03333,22
23.04167,23
23.05000,24
23.05833,24
23.06667,25
23.07500,26
23.08333,26
23.09167,27
23.10000,28
23.10833,28
23.11667,29
23.12500,29
23.13333,29
23.14167,29
23.15000,30
23.15833,30
23.16667,30
23.17500,31
23.18333,31
23.19167,31
23.20000,32
23.20833,32
23.21667,32
23.22500,32
23.23333,32
23.24167,32
23.25000,32
23.25833,32
23.26667,31
23.27500,31
23.28333,31
23.29167,31
23.30000,31
23.30833,30
23.31667,30
23.32500,29
23.33333,29
23.34167,29
23.35000,29
23.35833,28
23.36667,27
23.37500,27
23.38333,26
23.39167,26
23.40000,25
23.40833,25
23.41667,24
23.42500,24
23.43333,23
23.44167,23
23.45000,22
23.45833,22
23.46667,21
23.47500,21
23.48333,20
23.49167,20
23.50000,19
23.50833,18
23.51667,18
23.52500,17
23.53333,17
23.54167,17
23.55000,16
23.55833,16
23.56667,16
23.57500,16
23.58333,16
23.59167,16
23.60000,16
23.60833,16
23.61667,16
23.62500,16
23.63333,16
23.64167,16
23.65000,16
23.65833,16
23.66667,16
23.67500,15
23.68333,15
23.69167,15
23.70000,14
23.70833,14
23.71667,14
23.72500,14
23.73333,13
23.74167,13
23.75000,13
23.75833,13
23.76667,13
23.77500,13
23.78333,13
23.79167,13
23.80000,13
23.80833,13
23.81667,13
23.82500,13
23.83333,14
23.84167,14
23.85000,14
23.85833,13
23.86667,13
23.87500,13
23.88333,13
23.89167,13
23.90000,14
23.90833,14
23.91667,14
23.92500,14
23.93333,14
23.94167,14
23.95000,14
23.95833,14
23.96667,13
23.97500,13
23.98333,13
23.99167,13
24.00000,13
24.00833,13
24.01667,13
24.02500,13
24.03333,13
24.04167,13
24.05000,13
24.05833,14
24.06667,14
24.07500,14
24.08333,14
24.09167,13
24.10000,13
24.10833,13
24.11667,13
24.12500,13
24.13333,13
24.14167,13
24.15000,13
24.15833,13
24.16667,13
24.17500,13
24.18333,13
24.19167,14
24.20000,14
24.20833,14
24.21667,14
24.22500,14
24.23333,14
24.24167,14
24.25000,14
24.25833,14
24.26667,14
24.27500,14
24.28333,14
24.29167,14
24.30000,15
24.30833,15
24.31667,15
24.32500,15
24.33333,15
24.34167,15
24.35000,15
24.35833,15
24.36667,14
24.37500,14
24.38333,14
24.39167,14
24.40000,14
24.40833,14
24.41667,15
24.42500,15
24.43333,15
24.44167,15
24.45000,15
24.45833,16
24.46667,16
24.47500,16
24.48333,16
24.49167,17
24.50000,17
24.50833,17
24.51667,17
24.52500,17
24.53333,18
24.54167,18
24.55000,18
24.55833,18
24.56667,18
24.57500,18
24.58333,19
24.59167,19
24.60000,20
24.60833,21
24.61667,22
24.62500,23
24.63333,23
24.64167,24
24.65000,25
24.65833,26
24.66667,27
24.67500,28
24.68333,29
24.69167,30
24.70000,31
24.70833,33
24.71667,34
24.72500,35
24.73333,37
24.74167,38
24.75000,40
24.75833,42
24.76667,44
24.77500,45
24.78333,47
24.79167,49
24.80000,52
24.80833,54
24.81667,56
24.82500,59
24.83333,61
24.84167,64
24.85000,66
24.85833,69
24.86667,71
24.87500,74
24.88333,76
24.89167,78
24.90000,81
24.90833,83
24.91667,85
24.92500,87
24.93333,89
24.94167,91
24.95000,93
24.95833,95
24.96667,96
24.97500,97
24.98333,99
24.99167,100
25.00000,101
25.00833,102
25.01667,102
25.02500,103
25.03333,103
25.04167,103
25.05000,104
25.05833,104
25.06667,104
25.07500,104
25.08333,103
25.09167,102
25.10000,101
25.10833,100
25.11667,98
25.12500,97
25.13333,95
25.14167,93
25.15000,91
25.15833,90
25.16667,88
25.17500,86
25.18333,84
25.19167,82
25.20000,80
25.20833,78
25.21667,76
25.22500,73
25.23333,71
25.24167,68
25.25000,66
25.25833,64
25.26667,62
25.27500,60
25.28333,58
25.29167,56
25.30000,54
25.30833,53
25.31667,51
25.32500,49
25.33333,47
25.34167,45
25.35000,43
25.35833,42
25.36667,40
25.37500,38
25.38333,37
25.39167,36
25.40000,35
25.40833,34
25.41667,33
25.42500,32
25.43333,31
25.44167,30
25.45000,29
25.45833,29
25.46667,28
25.47500,28
25.48333,27
25.49167,26
25.50000,26
25.50833,25
25.51667,25
25.52500,24
25.53333,24
25.54167,23
25.55000,23
25.55833,22
25.56667,22
25.57500,21
25.58333,22
25.59167,22
25.60000,22
25.60833,21
25.61667,22
25.62500,22
25.63333,22
25.64167,22
25.65000,22
25.65833,21
25.66667,21
25.67500,21
25.68333,21
25.69167,21
25.70000,20
25.70833,20
25.71667,20
25.72500,20
25.73333,20
25.74167,20
25.75000,20
25.75833,20
25.76667,20
25.77500,20
25.78333,19
25.79167,20
25.80000,20
25.80833,20
25.81667,20
25.82500,21
25.83333,21
25.84167,21
25.85000,22
25.85833,22
25.86667,21
25.87500,21
25.88333,21
25.89167,21
25.90000,21
25.90833,21
25.91667,21
25.92500,20
25.93333,20
25.94167,21
25.95000,21
25.95833,21
25.96667,21
25.97500,21
25.98333,22
25.99167,22
26.00000,22
26.00833,22
26.01667,22
26.02500,22
26.03333,22
26.04167,22
26.05000,22
26.05833,22
26.06667,22
26.07500,22
26.08333,22
26.09167,22
26.10000,22
26.10833,22
26.11667,23
26.12500,23
26.13333,23
26.14167,23
26.15000,23
26.15833,23
26.16667,23
26.17500,23
26.18333,23
26.19167,23
26.20000,23
26.20833,24
26.21667,24
26.22500,24
26.23333,24
26.24167,24
26.25000,24
26.25833,25
26.26667,25
26.27500,25
26.28333,25
26.29167,25
26.30000,24
26.30833,24
26.31667,24
26.32500,24
26.33333,24
26.34167,23
26.35000,23
26.35833,23
26.36667,23
26.37500,23
26.38333,23
26.39167,23
26.40000,23
26.40833,23
26.41667,23
26.42500,24
26.43333,24
26.44167,24
26.45000,24
26.45833,24
26.46667,24
26.47500,24
26.48333,25
26.49167,25
26.50000,25
26.50833,25
26.51667,24
26.52500,24
26.53333,24
26.54167,24
26.55000,24
26.55833,24
26.56667,24
26.57500,24
26.58333,25
26.59167,25
26.60000,26
26.60833,26
26.61667,26
26.62500,26
26.63333,25
26.64167,25
26.65000,25
26.65833,25
26.66667,25
26.67500,25
26.68333,26
26.69167,26
26.70000,26
26.70833,26
26.71667,26
26.72500,27
26.73333,27
26.74167,27
26.75000,26
26.75833,26
26.76667,26
26.77500,26
26.78333,27
26.79167,27
26.80000,27
26.80833,26
26.81667,26
26.82500,26
26.83333,26
26.84167,26
26.85000,26
26.85833,26
26.86667,26
26.87500,26
26.88333,26
26.89167,26
26.90000,26
26.90833,26
26.91667,26
26.92500,26
26.93333,26
26.94167,26
26.95000,26
26.95833,27
26.96667,27
26.97500,27
26.98333,28
26.99167,28
27.00000,28
27.00833,28
27.01667,28
27.02500,28
27.03333,28
27.04167,28
27.05000,28
27.05833,28
27.06667,28
27.07500,28
27.08333,28
27.09167,28
27.10000,27
27.10833,27
27.11667,27
27.12500,27
27.13333,27
27.14167,27
27.15000,27
27.15833,28
27.16667,28
27.17500,28
27.18333,29
27.19167,29
27.20000,29
27.20833,29
27.21667,29
27.22500,29
27.23333,29
27.24167,29
27.25000,29
27.25833,29
27.26667,29
27.27500,29
27.28333,29
27.29167,29
27.30000,29
27.30833,28
27.31667,28
27.32500,29
27.33333,29
27.34167,29
27.35000,29
27.35833,29
27.36667,29
27.37500,29
27.38333,29
27.39167,30
27.40000,30
27.40833,30
27.41667,30
27.42500,30
27.43333,31
27.44167,31
27.45000,30
27.45833,30
27.46667,30
27.47500,30
27.48333,30
27.49167,30
27.50000,29
27.50833,29
27.51667,30
27.52500,30
27.53333,30
27.54167,30
27.55000,30
27.55833,30
27.56667,30
27.57500,30
27.58333,31
27.59167,31
27.60000,30
27.60833,30
27.61667,30
27.62500,30
27.63333,30
27.64167,30
27.65000,30
27.65833,29
27.66667,29
27.67500,29
27.68333,29
27.69167,29
27.70000,28
27.70833,28
27.71667,28
27.72500,27
27.73333,27
27.74167,26
27.75000,26
27.75833,25
27.76667,25
27.77500,24
27.78333,24
27.79167,23
27.80000,22
27.80833,21
27.81667,20
27.82500,19
27.83333,17
27.84167,16
27.85000,14
27.85833,11
27.86667,9
27.87500,6
27.88333,4
27.89167,2
27.90000,-1
27.90833,-3
27.91667,-6
27.92500,-9
27.93333,-13
27.94167,-17
27.95000,-21
27.95833,-25
27.96667,-30
27.97500,-35
27.98333,-40
27.99167,-46
28.00000,-52
28.00833,-58
28.01667,-64
28.02500,-72
28.03333,-79
28.04167,-87
28.05000,-95
28.05833,-104
28.06667,-113
28.07500,-123
28.08333,-133
28.09167,-143
28.10000,-153
28.10833,-164
28.11667,-175
28.12500,-187
28.13333,-199
28.14167,-212
28.15000,-225
28.15833,-238
28.16667,-252
28.17500,-266
28.18333,-280
28.19167,-294
28.20000,-309
28.20833,-324
28.21667,-339
28.22500,-355
28.23333,-371
28.24167,-386
28.25000,-402
28.25833,-418
28.26667,-434
28.27500,-449
28.28333,-465
28.29167,-481
28.30000,-496
28.30833,-512
28.31667,-527
28.32500,-542
28.33333,-557
28.34167,-571
28.35000,-585
28.35833,-598
28.36667,-611
28.37500,-623
28.38333,-635
28.39167,-646
28.40000,-657
28.40833,-667
28.41667,-677
28.42500,-685
28.43333,-693
28.44167,-701
28.45000,-707
28.45833,-713
28.46667,-719
28.47500,-724
28.48333,-728
28.49167,-732
28.50000,-735
28.50833,-737
28.51667,-738
28.52500,-738
28.53333,-738
28.54167,-737
28.55000,-735
28.55833,-733
28.56667,-730
28.57500,-726
28.58333,-722
28.59167,-717
28.60000,-712
28.60833,-706
28.61667,-700
28.62500,-693
28.63333,-685
28.64167,-677
28.65000,-669
28.65833,-661
28.66667,-652
28.67500,-644
28.68333,-635
28.69167,-626
28.70000,-617
28.70833,-608
28.71667,-598
28.72500,-588
28.73333,-578
28.74167,-568
28.75000,-558
28.75833,-548
28.76667,-538
28.77500,-529
28.78333,-520
28.79167,-510
28.80000,-501
28.80833,-492
28.81667,-483
28.82500,-474
28.83333,-466
28.84167,-457
28.85000,-449
28.85833,-441
28.86667,-433
28.87500,-425
28.88333,-418
28.89167,-411
28.90000,-404
28.90833,-397
28.91667,-391
28.92500,-385
28.93333,-379
28.94167,-373
28.95000,-367
28.95833,-362
28.96667,-356
28.97500,-351
28.98333,-347
28.99167,-342
29.00000,-338
29.00833,-334
29.01667,-330
29.02500,-326
29.03333,-323
29.04167,-319
29.05000,-316
29.05833,-314
29.06667,-311
29.07500,-308
29.08333,-306
29.09167,-303
29.10000,-301
29.10833,-298
29.11667,-296
29.12500,-294
29.13333,-293
29.14167,-291
29.15000,-289
29.15833,-287
29.16667,-285
29.17500,-284
29.18333,-283
29.19167,-281
29.20000,-280
29.20833,-279
29.21667,-278
29.22500,-277
29.23333,-276
29.24167,-275
29.25000,-274
29.25833,-274
29.26667,-273
29.27500,-273
29.28333,-273
29.29167,-272
29.30000,-272
29.30833,-272
29.31667,-272
29.32500,-271
29.33333,-270
29.34167,-270
29.35000,-270
29.35833,-270
29.36667,-269
29.37500,-269
29.38333,-269
29.39167,-269
29.40000,-268
29.40833,-269
29.41667,-268
29.42500,-268
29.43333,-268
29.44167,-269
29.45000,-269
29.45833,-269
29.46667,-270
29.47500,-270
29.48333,-271
29.49167,-271
29.50000,-272
29.50833,-272
29.51667,-272
29.52500,-273
29.53333,-273
29.54167,-273
29.55000,-274
29.55833,-274
29.56667,-275
29.57500,-276
29.58333,-277
29.59167,-278
29.60000,-279
29.60833,-280
29.61667,-280
29.62500,-281
29.63333,-283
29.64167,-284
29.65000,-286
29.65833,-287
29.66667,-289
29.67500,-291
29.68333,-293
29.69167,-295
29.70000,-297
29.70833,-299
29.71667,-302
29.72500,-304
29.73333,-306
29.74167,-308
29.75000,-311
29.75833,-314
29.76667,-316
29.77500,-319
29.78333,-322
29.79167,-325
29.80000,-329
29.80833,-332
29.81667,-336
29.82500,-339
29.83333,-343
29.84167,-347
29.85000,-351
29.85833,-355
29.86667,-360
29.87500,-364
29.88333,-369
29.89167,-373
29.90000,-378
29.90833,-383
29.91667,-387
29.92500,-392
29.93333,-397
29.94167,-402
29.95000,-407
29.95833,-412
29.96667,-417
29.97500,-422
29.98333,-426
29.99167,-431
30.00000,-436
30.00833,-442
30.01667,-447
30.02500,-452
30.03333,-456
30.04167,-461
30.05000,-466
30.05833,-471
30.06667,-476
30.07500,-480
30.08333,-485
30.09167,-489
30.10000,-494
30.10833,-498
30.11667,-501
30.12500,-505
30.13333,-509
30.14167,-512
30.15000,-515
30.15833,-518
30.16667,-521
30.17500,-524
30.18333,-526
30.19167,-528
30.20000,-530
30.20833,-532
30.21667,-533
30.22500,-535
30.23333,-537
30.24167,-538
30.25000,-539
30.25833,-539
30.26667,-539
30.27500,-539
30.28333,-539
30.29167,-538
30.30000,-538
30.30833,-537
30.31667,-536
30.32500,-535
30.33333,-534
30.34167,-532
30.35000,-530
30.35833,-528
30.36667,-525
30.37500,-523
30.38333,-521
30.39167,-518
30.40000,-515
30.40833,-512
30.41667,-510
30.42500,-507
30.43333,-504
30.44167,-501
30.45000,-498
30.45833,-494
30.46667,-491
30.47500,-487
30.48333,-484
30.49167,-480
30.50000,-476
30.50833,-473
30.51667,-469
30.52500,-465
30.53333,-461
30.54167,-457
30.55000,-453
30.55833,-450
30.56667,-446
30.57500,-442
30.58333,-439
30.59167,-435
30.60000,-432
30.60833,-428
30.61667,-425
30.62500,-422
30.63333,-418
30.64167,-415
30.65000,-412
30.65833,-409
30.66667,-406
30.67500,-404
30.68333,-401
30.69167,-398
30.70000,-395
30.70833,-393
30.71667,-390
30.72500,-387
30.73333,-385
30.74167,-382
30.75000,-380
30.75833,-378
30.76667,-375
30.77500,-374
30.78333,-372
30.79167,-370
30.80000,-368
30.80833,-366
30.81667,-364
30.82500,-363
30.83333,-361
30.84167,-359
30.85000,-358
30.85833,-357
30.86667,-355
30.87500,-354
30.88333,-353
30.89167,-351
30.90000,-350
30.90833,-348
30.91667,-347
30.92500,-346
30.93333,-344
30.94167,-343
30.95000,-342
30.95833,-341
30.96667,-340
30.97500,-339
30.98333,-338
30.99167,-337
31.00000,-337
31.00833,-336
31.01667,-335
31.02500,-334
31.03333,-332
31.04167,-331
31.05000,-330
31.05833,-329
31.06667,-328
31.07500,-327
31.08333,-327
31.09167,-326
31.10000,-325
31.10833,-324
31.11667,-323
31.12500,-322
31.13333,-321
31.14167,-320
31.15000,-319
31.15833,-318
31.16667,-317
31.17500,-315
31.18333,-314
31.19167,-313
31.20000,-312
31.20833,-311
31.21667,-310
31.22500,-309
31.23333,-309
31.24167,-308
31.25000,-307
31.25833,-306
31.26667,-305
31.27500,-304
31.28333,-303
31.29167,-302
31.30000,-301
31.30833,-299
31.31667,-298
31.32500,-296
31.33333,-295
31.34167,-293
31.35000,-292
31.35833,-291
31.36667,-290
31.37500,-289
31.38333,-288
31.39167,-287
31.40000,-286
31.40833,-285
31.41667,-284
31.42500,-283
31.43333,-282
31.44167,-281
31.45000,-280
31.45833,-279
31.46667,-277
31.47500,-276
31.48333,-275
31.49167,-274
31.50000,-273
31.50833,-272
31.51667,-270
31.52500,-269
31.53333,-268
31.54167,-267
31.55000,-266
31.55833,-264
31.56667,-263
31.57500,-262
31.58333,-261
31.59167,-260
31.60000,-259
31.60833,-258
31.61667,-257
31.62500,-256
31.63333,-256
31.64167,-255
31.65000,-253
31.65833,-252
31.66667,-251
31.67500,-250
31.68333,-249
31.69167,-248
31.70000,-247
31.70833,-246
31.71667,-245
31.72500,-244
31.73333,-243
31.74167,-242
31.75000,-241
31.75833,-240
31.76667,-239
31.77500,-239
31.78333,-238
31.79167,-237
31.80000,-237
31.80833,-236
31.81667,-235
31.82500,-234
31.83333,-233
31.84167,-233
31.85000,-232
31.85833,-231
31.86667,-230
31.87500,-229
31.88333,-228
31.89167,-227
31.90000,-227
31.90833,-226
31.91667,-225
31.92500,-224
31.93333,-223
31.94167,-222
31.95000,-222
31.95833,-221
31.96667,-220
31.97500,-219
31.98333,-219
31.99167,-219
32.00000,-218
32.00833,-218
32.01667,-218
32.02500,-217
32.03333,-216
32.04167,-215
32.05000,-214
32.05833,-214
32.06667,-213
32.07500,-212
32.08333,-212
32.09167,-211
32.10000,-210
32.10833,-209
32.11667,-208
32.12500,-207
32.13333,-206
32.14167,-206
32.15000,-205
32.15833,-205
32.16667,-204
32.17500,-204
32.18333,-203
32.19167,-202
32.20000,-201
32.20833,-200
32.21667,-200
32.22500,-199
32.23333,-198
32.24167,-198
32.25000,-197
32.25833,-196
32.26667,-195
32.27500,-194
32.28333,-194
32.29167,-193
32.30000,-192
32.30833,-192
32.31667,-191
32.32500,-190
32.33333,-189
32.34167,-188
32.35000,-187
32.35833,-187
32.36667,-186
32.37500,-185
32.38333,-185
32.39167,-184
32.40000,-183
32.40833,-183
32.41667,-182
32.42500,-182
32.43333,-181
32.44167,-180
32.45000,-179
32.45833,-178
32.46667,-177
32.47500,-177
32.48333,-176
32.49167,-176
32.50000,-175
32.50833,-174
32.51667,-173
32.52500,-172
32.53333,-170
32.54167,-169
32.55000,-168
32.55833,-167
32.56667,-167
32.57500,-166
32.58333,-166
32.59167,-166
32.60000,-166
32.60833,-165
32.61667,-164
32.62500,-163
32.63333,-162
32.64167,-161
32.65000,-161
32.65833,-160
32.66667,-159
32.67500,-158
32.68333,-158
32.69167,-157
32.70000,-156
32.70833,-156
32.71667,-155
32.72500,-154
32.73333,-154
32.74167,-153
32.75000,-152
32.75833,-152
32.76667,-151
32.77500,-150
32.78333,-149
32.79167,-148
32.80000,-147
32.80833,-146
32.81667,-146
32.82500,-145
32.83333,-145
32.84167,-144
32.85000,-143
32.85833,-143
32.86667,-142
32.87500,-141
32.88333,-140
32.89167,-140
32.90000,-139
32.90833,-138
32.91667,-137
32.92500,-137
32.93333,-136
32.94167,-136
32.95000,-135
32.95833,-134
32.96667,-133
32.97500,-133
32.98333,-132
32.99167,-131
33.00000,-130
33.00833,-130
33.01667,-129
33.02500,-128
33.03333,-127
33.04167,-127
33.05000,-127
33.05833,-126
33.06667,-126
33.07500,-125
33.08333,-124
33.09167,-123
33.10000,-123
33.10833,-122
33.11667,-122
33.12500,-121
33.13333,-120
33.14167,-119
33.15000,-119
33.15833,-118
33.16667,-118
33.17500,-118
33.18333,-117
33.19167,-116
33.20000,-116
33.20833,-115
33.21667,-115
33.22500,-114
33.23333,-114
33.24167,-113
33.25000,-112
33.25833,-112
33.26667,-111
33.27500,-110
33.28333,-110
33.29167,-110
33.30000,-109
33.30833,-109
33.31667,-108
33.32500,-108
33.33333,-107
33.34167,-106
33.35000,-106
33.35833,-105
33.36667,-105
33.37500,-104
33.38333,-103
33.39167,-103
33.40000,-102
33.40833,-101
33.41667,-100
33.42500,-100
33.43333,-99
33.44167,-98
33.45000,-97
33.45833,-97
33.46667,-96
33.47500,-96
33.48333,-95
33.49167,-95
33.50000,-94
33.50833,-94
33.51667,-93
33.52500,-93
33.53333,-93
33.54167,-92
33.55000,-92
33.55833,-92
33.56667,-91
33.57500,-91
33.58333,-90
33.59167,-90
33.60000,-89
33.60833,-88
33.61667,-88
33.62500,-87
33.63333,-87
33.64167,-86
33.65000,-85
33.65833,-85
33.66667,-84
33.67500,-83
33.68333,-83
33.69167,-82
33.70000,-82
33.70833,-81
33.71667,-81
33.72500,-80
33.73333,-79
33.74167,-78
33.75000,-78
33.75833,-77
33.76667,-77
33.77500,-77
33.78333,-77
33.79167,-76
33.80000,-76
33.80833,-75
33.81667,-74
33.82500,-74
33.83333,-73
33.84167,-73
33.85000,-72
33.85833,-72
33.86667,-71
33.87500,-70
33.88333,-69
33.89167,-69
33.90000,-69
33.90833,-68
33.91667,-68
33.92500,-67
33.93333,-67
33.94167,-67
33.95000,-66
33.95833,-66
33.96667,-65
33.97500,-65
33.98333,-64
33.99167,-63
34.00000,-62
34.00833,-62
34.01667,-61
34.02500,-61
34.03333,-60
34.04167,-59
34.05000,-59
34.05833,-58
34.06667,-57
34.07500,-57
34.08333,-56
34.09167,-56
34.10000,-56
34.10833,-55
34.11667,-55
34.12500,-54
34.13333,-54
34.14167,-53
34.15000,-53
34.15833,-53
34.16667,-53
34.17500,-52
34.18333,-52
34.19167,-51
34.20000,-50
34.20833,-50
34.21667,-49
34.22500,-49
34.23333,-48
34.24167,-47
34.25000,-47
34.25833,-46
34.26667,-45
34.27500,-44
34.28333,-44
34.29167,-43
34.30000,-43
34.30833,-42
34.31667,-42
34.32500,-41
34.33333,-41
34.34167,-40
34.35000,-40
34.35833,-39
34.36667,-39
34.37500,-38
34.38333,-37
34.39167,-37
34.40000,-36
34.40833,-36
34.41667,-35
34.42500,-34
34.43333,-34
34.44167,-33
34.45000,-33
34.45833,-32
34.46667,-32
34.47500,-32
34.48333,-31
34.49167,-31
34.50000,-30
34.50833,-30
34.51667,-29
34.52500,-28
34.53333,-28
34.54167,-27
34.55000,-27
34.55833,-26
34.56667,-26
34.57500,-26
34.58333,-26
34.59167,-25
34.60000,-24
34.60833,-24
34.61667,-23
34.62500,-23
34.63333,-22
34.64167,-22
34.65000,-21
34.65833,-21
34.66667,-21
34.67500,-20
34.68333,-19
34.69167,-19
34.70000,-19
34.70833,-18
34.71667,-17
34.72500,-17
34.73333,-16
34.74167,-16
34.75000,-15
34.75833,-15
34.76667,-14
34.77500,-14
34.78333,-13
34.79167,-13
34.80000,-13
34.80833,-13
34.81667,-12
34.82500,-12
34.83333,-11
34.84167,-10
34.85000,-10
34.85833,-9
34.86667,-9
34.87500,-8
34.88333,-7
34.89167,-7
34.90000,-6
34.90833,-6
34.91667,-6
34.92500,-5
34.93333,-5
34.94167,-5
34.95000,-4
34.95833,-4
34.96667,-3
34.97500,-3
34.98333,-3
34.99167,-3
35.00000,-2
35.00833,-1
35.01667,-0
35.02500,0
35.03333,1
35.04167,1
35.05000,1
35.05833,1
35.06667,2
35.07500,2
35.08333,2
35.09167,3
35.10000,3
35.10833,4
35.11667,5
35.12500,5
35.13333,5
35.14167,6
35.15000,6
35.15833,6
35.16667,6
35.17500,7
35.18333,7
35.19167,7
35.20000,8
35.20833,8
35.21667,8
35.22500,9
35.23333,10
35.24167,10
35.25000,11
35.25833,11
35.26667,12
35.27500,12
35.28333,12
35.29167,13
35.30000,13
35.30833,13
35.31667,14
35.32500,14
35.33333,14
35.34167,15
35.35000,15
35.35833,15
35.36667,15
35.37500,15
35.38333,15
35.39167,15
35.40000,16
35.40833,16
35.41667,17
35.42500,17
35.43333,18
35.44167,18
35.45000,18
35.45833,19
35.46667,19
35.47500,19
35.48333,19
35.49167,20
35.50000,20
35.50833,21
35.51667,21
35.52500,21
35.53333,21
35.54167,22
35.55000,22
35.55833,22
35.56667,22
35.57500,22
35.58333,22
35.59167,22
35.60000,22
35.60833,22
35.61667,22
35.62500,23
35.63333,24
35.64167,24
35.65000,24
35.65833,25
35.66667,25
35.67500,26
35.68333,26
35.69167,26
35.70000,26
35.70833,26
35.71667,26
35.72500,26
35.73333,26
35.74167,27
35.75000,27
35.75833,26
35.76667,26
35.77500,27
35.78333,27
35.79167,27
35.80000,27
35.80833,28
35.81667,28
35.82500,28
35.83333,28
35.84167,28
35.85000,28
35.85833,28
35.86667,28
35.87500,28
35.88333,28
35.89167,29
35.90000,29
35.90833,29
35.91667,29
35.92500,29
35.93333,29
35.94167,29
35.95000,29
35.95833,30
35.96667,30
35.97500,30
35.98333,30
35.99167,30
36.00000,29
36.00833,29
36.01667,29
36.02500,29
36.03333,29
36.04167,29
36.05000,29
36.05833,29
36.06667,29
36.07500,29
36.08333,29
36.09167,29
36.10000,30
36.10833,30
36.11667,30
36.12500,30
36.13333,30
36.14167,30
36.15000,31
36.15833,31
36.16667,31
36.17500,31
36.18333,31
36.19167,31
36.20000,31
36.20833,31
36.21667,31
36.22500,31
36.23333,31
36.24167,31
36.25000,31
36.25833,31
36.26667,32
36.27500,32
36.28333,32
36.29167,32
36.30000,32
36.30833,32
36.31667,33
36.32500,33
36.33333,33
36.34167,32
36.35000,32
36.35833,32
36.36667,32
36.37500,32
36.38333,33
36.39167,33
36.40000,33
36.40833,33
36.41667,32
36.42500,33
36.43333,33
36.44167,33
36.45000,33
36.45833,34
36.46667,34
36.47500,34
36.48333,35
36.49167,35
36.50000,35
36.50833,35
36.51667,35
36.52500,35
36.53333,36
36.54167,36
36.55000,37
36.55833,37
36.56667,37
36.57500,37
36.58333,37
36.59167,37
36.60000,38
36.60833,38
36.61667,38
36.62500,39
36.63333,39
36.64167,40
36.65000,40
36.65833,40
36.66667,40
36.67500,41
36.68333,42
36.69167,42
36.70000,43
36.70833,44
36.71667,44
36.72500,45
36.73333,45
36.74167,46
36.75000,46
36.75833,47
36.76667,48
36.77500,49
36.78333,49
36.79167,49
36.80000,50
36.80833,50
36.81667,50
36.82500,51
36.83333,51
36.84167,52
36.85000,52
36.85833,53
36.86667,53
36.87500,54
36.88333,54
36.89167,55
36.90000,56
36.90833,56
36.91667,56
36.92500,57
36.93333,57
36.94167,58
36.95000,58
36.95833,59
36.96667,59
36.97500,60
36.98333,60
36.99167,61
37.00000,61
37.00833,62
37.01667,62
37.02500,62
37.03333,62
37.04167,63
37.05000,63
37.05833,63
37.06667,64
37.07500,64
37.08333,64
37.09167,65
37.10000,65
37.10833,66
37.11667,66
37.12500,66
37.13333,66
37.14167,66
37.15000,66
37.15833,66
37.16667,66
37.17500,67
37.18333,67
37.19167,67
37.20000,67
37.20833,67
37.21667,67
37.22500,67
37.23333,66
37.24167,67
37.25000,67
37.25833,67
37.26667,67
37.27500,67
37.28333,67
37.29167,66
37.30000,66
37.30833,66
37.31667,65
37.32500,65
37.33333,64
37.34167,64
37.35000,64
37.35833,64
37.36667,64
37.37500,63
37.38333,63
37.39167,62
37.40000,62
37.40833,61
37.41667,61
37.42500,60
37.43333,60
37.44167,60
37.45000,60
37.45833,60
37.46667,59
37.47500,59
37.48333,58
37.49167,58
37.50000,58
37.50833,57
37.51667,57
37.52500,57
37.53333,56
37.54167,56
37.55000,55
37.55833,55
37.56667,54
37.57500,53
37.58333,53
37.59167,53
37.60000,52
37.60833,52
37.61667,52
37.62500,52
37.63333,52
37.64167,51
37.65000,51
37.65833,50
37.66667,49
37.67500,49
37.68333,48
37.69167,48
37.70000,47
37.70833,47
37.71667,47
37.72500,46
37.73333,46
37.74167,46
37.75000,46
37.75833,46
37.76667,46
37.77500,45
37.78333,45
37.79167,44
37.80000,44
37.80833,44
37.81667,43
37.82500,43
37.83333,42
37.84167,42
37.85000,43
37.85833,43
37.86667,43
37.87500,43
37.88333,42
37.89167,42
37.90000,42
37.90833,42
37.91667,41
37.92500,41
37.93333,41
37.94167,41
37.95000,40
37.95833,40
37.96667,40
37.97500,40
37.98333,40
37.99167,39
38.00000,39
38.00833,39
38.01667,39
38.02500,39
38.03333,39
38.04167,39
38.05000,39
38.05833,38
38.06667,39
38.07500,39
38.08333,39
38.09167,39
38.10000,39
38.10833,39
38.11667,39
38.12500,38
38.13333,39
38.14167,39
38.15000,39
38.15833,40
38.16667,40
38.17500,40
38.18333,40
38.19167,40
38.20000,40
38.20833,40
38.21667,40
38.22500,40
38.23333,40
38.24167,39
38.25000,39
38.25833,39
38.26667,39
38.27500,39
38.28333,40
38.29167,40
38.30000,40
38.30833,40
38.31667,40
38.32500,40
38.33333,40
38.34167,40
38.35000,40
38.35833,40
38.36667,40
38.37500,40
38.38333,39
38.39167,39
38.40000,39
38.40833,39
38.41667,39
38.42500,40
38.43333,40
38.44167,40
38.45000,40
38.45833,40
38.46667,40
38.47500,40
38.48333,40
38.49167,40
38.50000,40
38.50833,40
38.51667,41
38.52500,41
38.53333,41
38.54167,41
38.55000,40
38.55833,40
38.56667,40
38.57500,40
38.58333,40
38.59167,40
38.60000,40
38.60833,40
38.61667,40
38.62500,40
38.63333,40
38.64167,40
38.65000,40
38.65833,40
38.66667,40
38.67500,40
38.68333,40
38.69167,40
38.70000,40
38.70833,40
38.71667,40
38.72500,40
38.73333,41
38.74167,41
38.75000,41
38.75833,41
38.76667,41
38.77500,41
38.78333,40
38.79167,40
38.80000,40
38.80833,40
38.81667,40
38.82500,40
38.83333,40
38.84167,41
38.85000,41
38.85833,41
38.86667,41
38.87500,41
38.88333,40
38.89167,40
38.90000,40
38.90833,40
38.91667,40
38.92500,40
38.93333,40
38.94167,40
38.95000,40
38.95833,41
38.96667,41
38.97500,41
38.98333,41
38.99167,41
39.00000,41
39.00833,41
39.01667,41
39.02500,41
39.03333,41
39.04167,41
39.05000,41
39.05833,42
39.06667,42
39.07500,41
39.08333,41
39.09167,41
39.10000,41
39.10833,41
39.11667,41
39.12500,41
39.13333,42
39.14167,42
39.15000,42
39.15833,42
39.16667,42
39.17500,42
39.18333,41
39.19167,41
39.20000,41
39.20833,41
39.21667,41
39.22500,41
39.23333,40
39.24167,40
39.25000,40
39.25833,40
39.26667,40
39.27500,40
39.28333,40
39.29167,41
39.30000,41
39.30833,41
39.31667,42
39.32500,42
39.33333,42
39.34167,42
39.35000,42
39.35833,42
39.36667,42
39.37500,42
39.38333,42
39.39167,42
39.40000,42
39.40833,42
39.41667,42
39.42500,43
39.43333,43
39.44167,43
39.45000,43
39.45833,43
39.46667,43
39.47500,43
39.48333,43
39.49167,43
39.50000,43
39.50833,43
39.51667,43
39.52500,43
39.53333,43
39.54167,43
39.55000,44
39.55833,44
39.56667,44
39.57500,43
39.58333,43
39.59167,43
39.60000,43
39.60833,43
39.61667,43
39.62500,43
39.63333,43
39.64167,43
39.65000,43
39.65833,43
39.66667,43
39.67500,43
39.68333,43
39.69167,43
39.70000,44
39.70833,44
39.71667,44
39.72500,44
39.73333,44
39.74167,44
39.75000,44
39.75833,44
39.76667,44
39.77500,44
39.78333,44
39.79167,44
39.80000,44
39.80833,45
39.81667,44
39.82500,44
39.83333,44
39.84167,43
39.85000,43
39.85833,44
39.86667,44
39.87500,44
39.88333,44
39.89167,45
39.90000,45
39.90833,45
39.91667,45
39.92500,45
39.93333,45
39.94167,45
39.95000,45
39.95833,45
39.96667,45
39.97500,45
39.98333,44
39.99167,45
40.00000,45

