[Header]
Application Name,LabSolutions
Version,5.97 SP1
Data File Name,C:\Users\cremerlab\Desktop\griffin\2021-03-31_NCM3722_NCglucose_turnover\2021-03-31_NCM3722_turnover_batch_3312021_001_008.lcd
Output Date,4/1/2021
Output Time,12:36:20 AM

[File Information]
Type,Data File
Generated,3/31/2021 11:56:00 PM
Generated by,System Administrator
Modified,4/1/2021 12:36:20 AM
Modified by,System Administrator

[Sample Information]
Operator Name,System Administrator
Acquired,3/31/2021 11:56:19 PM
Sample Type,1:Standard
Level,1
Sample Name,2021-03-31_NCM3722_NCglucose_replicate_02_timepoint_001
Sample ID,001
ISTD Amount1,1
ISTD Amount2,1
ISTD Amount3,1
ISTD Amount4,1
ISTD Amount5,1
ISTD Amount6,1
ISTD Amount7,1
ISTD Amount8,1
ISTD Amount9,1
ISTD Amount10,1
ISTD Amount11,1
ISTD Amount12,1
ISTD Amount13,1
ISTD Amount14,1
ISTD Amount15,1
ISTD Amount16,1
ISTD Amount17,1
ISTD Amount18,1
ISTD Amount19,1
ISTD Amount20,1
ISTD Amount21,1
ISTD Amount22,1
ISTD Amount23,1
ISTD Amount24,1
ISTD Amount25,1
ISTD Amount26,1
ISTD Amount27,1
ISTD Amount28,1
ISTD Amount29,1
ISTD Amount30,1
ISTD Amount31,1
ISTD Amount32,1
Sample Amount,1
Dilution Factor,1
Vial#,19
Injection Volume,20

[Original Files]
Data File,C:\Users\cremerlab\Desktop\griffin\2021-03-31_NCM3722_NCglucose_turnover\2021-03-31_NCM3722_turnover_batch_3312021_001_008.lcd
Method File,C:\LabSolutions\Data\Project1\organicacidsetc2.lcm
Batch File,C:\Users\cremerlab\Desktop\griffin\2021-03-31_NCM3722_NCglucose_turnover\2021-03-31_NCM3722_turnover_batch.lcb
Report Format File,c:\LabSolutions\System\DEFAULT.lsr

[File Description]


[Configuration]
Instrument Name,HPLC-PC-Instrument1
Instrument #,1
Line #,1
# of Detectors,2
Detector ID,Detector A,Detector B
Detector Name,Detector A,Detector B
# of Channels,1,1

[Peak Table(Detector A)]
# of Peaks,0

[Peak Table(Detector B)]
# of Peaks,5
Peak#,R.Time,I.Time,F.Time,Area,Height,A/H,Conc.,Mark,ID#,Name,k',Plate #,Plate Ht.,Tailing,Resolution,Sep.Factor,Area Ratio,Height Ratio,Conc. %,Norm Conc.
1,11.054,10.750,11.625,1200281,71217,16.854,0.000,   ,,,0.000,10654,14.080,1.393,0.000,0.000,0,0,0.000,0.000
2,11.921,11.625,13.175,148132,2769,53.489,0.000, V ,,,0.078,0,0.000,0.000,0.000,0.000,0,0,0.000,0.000
3,15.097,14.083,15.383,3175390,119171,26.646,0.000,   ,,,0.366,6998,21.435,0.000,0.000,4.664,0,0,0.000,0.000
4,15.629,15.383,18.567,999145,40348,24.763,0.000, V ,,,0.414,7983,18.791,0.000,0.748,1.132,0,0,0.000,0.000
5,25.049,24.675,25.533,2364,92,25.561,0.000,   ,,,1.266,20850,7.194,1.103,13.520,3.059,0,0,0.000,0.000

[LC Chromatogram(Detector B-Ch1)]
Interval(msec),500
# of Points,4801
Start Time(min),0.000
End Time(min),40.000
Intensity Units,mV
Intensity Multiplier,0.001
R.Time (min),Intensity
0.00000,67
0.00833,67
0.01667,2
0.02500,5
0.03333,7
0.04167,8
0.05000,10
0.05833,12
0.06667,13
0.07500,15
0.08333,16
0.09167,17
0.10000,19
0.10833,20
0.11667,21
0.12500,22
0.13333,23
0.14167,24
0.15000,24
0.15833,25
0.16667,25
0.17500,26
0.18333,26
0.19167,27
0.20000,28
0.20833,29
0.21667,29
0.22500,30
0.23333,30
0.24167,31
0.25000,32
0.25833,32
0.26667,33
0.27500,33
0.28333,34
0.29167,34
0.30000,34
0.30833,34
0.31667,35
0.32500,36
0.33333,36
0.34167,36
0.35000,36
0.35833,36
0.36667,36
0.37500,36
0.38333,36
0.39167,36
0.40000,36
0.40833,36
0.41667,36
0.42500,36
0.43333,36
0.44167,37
0.45000,37
0.45833,36
0.46667,36
0.47500,36
0.48333,37
0.49167,37
0.50000,37
0.50833,37
0.51667,37
0.52500,37
0.53333,37
0.54167,36
0.55000,36
0.55833,36
0.56667,36
0.57500,36
0.58333,36
0.59167,36
0.60000,36
0.60833,36
0.61667,36
0.62500,35
0.63333,35
0.64167,35
0.65000,34
0.65833,34
0.66667,33
0.67500,33
0.68333,33
0.69167,33
0.70000,32
0.70833,32
0.71667,32
0.72500,32
0.73333,31
0.74167,31
0.75000,31
0.75833,30
0.76667,30
0.77500,29
0.78333,29
0.79167,29
0.80000,29
0.80833,29
0.81667,29
0.82500,29
0.83333,29
0.84167,29
0.85000,29
0.85833,28
0.86667,28
0.87500,28
0.88333,28
0.89167,28
0.90000,27
0.90833,27
0.91667,27
0.92500,26
0.93333,26
0.94167,25
0.95000,25
0.95833,25
0.96667,24
0.97500,24
0.98333,24
0.99167,24
1.00000,23
1.00833,23
1.01667,22
1.02500,22
1.03333,21
1.04167,20
1.05000,20
1.05833,19
1.06667,19
1.07500,19
1.08333,19
1.09167,18
1.10000,18
1.10833,18
1.11667,18
1.12500,18
1.13333,18
1.14167,18
1.15000,17
1.15833,17
1.16667,16
1.17500,15
1.18333,15
1.19167,15
1.20000,15
1.20833,15
1.21667,14
1.22500,13
1.23333,13
1.24167,12
1.25000,12
1.25833,12
1.26667,12
1.27500,12
1.28333,11
1.29167,11
1.30000,11
1.30833,11
1.31667,11
1.32500,10
1.33333,10
1.34167,10
1.35000,10
1.35833,9
1.36667,9
1.37500,9
1.38333,8
1.39167,8
1.40000,8
1.40833,8
1.41667,8
1.42500,7
1.43333,7
1.44167,7
1.45000,6
1.45833,5
1.46667,5
1.47500,5
1.48333,5
1.49167,4
1.50000,4
1.50833,4
1.51667,4
1.52500,4
1.53333,3
1.54167,3
1.55000,3
1.55833,2
1.56667,2
1.57500,2
1.58333,1
1.59167,1
1.60000,1
1.60833,1
1.61667,1
1.62500,1
1.63333,1
1.64167,1
1.65000,1
1.65833,0
1.66667,0
1.67500,-0
1.68333,-0
1.69167,-1
1.70000,-1
1.70833,-1
1.71667,-2
1.72500,-2
1.73333,-2
1.74167,-3
1.75000,-3
1.75833,-3
1.76667,-3
1.77500,-2
1.78333,-2
1.79167,-2
1.80000,-2
1.80833,-2
1.81667,-2
1.82500,-2
1.83333,-3
1.84167,-3
1.85000,-3
1.85833,-4
1.86667,-4
1.87500,-5
1.88333,-5
1.89167,-5
1.90000,-5
1.90833,-5
1.91667,-5
1.92500,-5
1.93333,-5
1.94167,-5
1.95000,-5
1.95833,-5
1.96667,-5
1.97500,-5
1.98333,-5
1.99167,-5
2.00000,-5
2.00833,-5
2.01667,-6
2.02500,-6
2.03333,-7
2.04167,-7
2.05000,-7
2.05833,-7
2.06667,-7
2.07500,-8
2.08333,-7
2.09167,-7
2.10000,-7
2.10833,-7
2.11667,-7
2.12500,-7
2.13333,-7
2.14167,-7
2.15000,-7
2.15833,-7
2.16667,-7
2.17500,-7
2.18333,-7
2.19167,-7
2.20000,-8
2.20833,-8
2.21667,-8
2.22500,-9
2.23333,-9
2.24167,-9
2.25000,-9
2.25833,-9
2.26667,-9
2.27500,-9
2.28333,-9
2.29167,-9
2.30000,-9
2.30833,-9
2.31667,-9
2.32500,-10
2.33333,-10
2.34167,-11
2.35000,-11
2.35833,-11
2.36667,-10
2.37500,-10
2.38333,-10
2.39167,-10
2.40000,-10
2.40833,-10
2.41667,-10
2.42500,-10
2.43333,-10
2.44167,-11
2.45000,-11
2.45833,-11
2.46667,-11
2.47500,-11
2.48333,-11
2.49167,-11
2.50000,-11
2.50833,-11
2.51667,-11
2.52500,-11
2.53333,-11
2.54167,-12
2.55000,-12
2.55833,-13
2.56667,-13
2.57500,-14
2.58333,-14
2.59167,-15
2.60000,-15
2.60833,-16
2.61667,-17
2.62500,-18
2.63333,-18
2.64167,-19
2.65000,-20
2.65833,-21
2.66667,-22
2.67500,-23
2.68333,-25
2.69167,-26
2.70000,-27
2.70833,-29
2.71667,-30
2.72500,-32
2.73333,-33
2.74167,-35
2.75000,-38
2.75833,-40
2.76667,-43
2.77500,-46
2.78333,-48
2.79167,-51
2.80000,-55
2.80833,-58
2.81667,-62
2.82500,-66
2.83333,-70
2.84167,-74
2.85000,-78
2.85833,-83
2.86667,-87
2.87500,-92
2.88333,-98
2.89167,-103
2.90000,-109
2.90833,-115
2.91667,-122
2.92500,-129
2.93333,-136
2.94167,-143
2.95000,-151
2.95833,-159
2.96667,-167
2.97500,-176
2.98333,-185
2.99167,-194
3.00000,-203
3.00833,-213
3.01667,-222
3.02500,-233
3.03333,-244
3.04167,-254
3.05000,-265
3.05833,-277
3.06667,-289
3.07500,-300
3.08333,-312
3.09167,-324
3.10000,-336
3.10833,-349
3.11667,-362
3.12500,-374
3.13333,-387
3.14167,-400
3.15000,-413
3.15833,-427
3.16667,-440
3.17500,-453
3.18333,-466
3.19167,-479
3.20000,-492
3.20833,-506
3.21667,-519
3.22500,-532
3.23333,-545
3.24167,-558
3.25000,-571
3.25833,-584
3.26667,-597
3.27500,-610
3.28333,-623
3.29167,-635
3.30000,-648
3.30833,-660
3.31667,-672
3.32500,-683
3.33333,-695
3.34167,-707
3.35000,-718
3.35833,-728
3.36667,-739
3.37500,-749
3.38333,-759
3.39167,-769
3.40000,-779
3.40833,-789
3.41667,-798
3.42500,-808
3.43333,-817
3.44167,-825
3.45000,-834
3.45833,-842
3.46667,-850
3.47500,-858
3.48333,-865
3.49167,-872
3.50000,-879
3.50833,-885
3.51667,-891
3.52500,-897
3.53333,-903
3.54167,-909
3.55000,-915
3.55833,-920
3.56667,-926
3.57500,-931
3.58333,-936
3.59167,-941
3.60000,-946
3.60833,-950
3.61667,-955
3.62500,-959
3.63333,-963
3.64167,-967
3.65000,-971
3.65833,-975
3.66667,-979
3.67500,-982
3.68333,-985
3.69167,-989
3.70000,-992
3.70833,-996
3.71667,-999
3.72500,-1002
3.73333,-1006
3.74167,-1009
3.75000,-1012
3.75833,-1015
3.76667,-1019
3.77500,-1022
3.78333,-1025
3.79167,-1028
3.80000,-1031
3.80833,-1034
3.81667,-1036
3.82500,-1039
3.83333,-1042
3.84167,-1045
3.85000,-1048
3.85833,-1052
3.86667,-1055
3.87500,-1057
3.88333,-1060
3.89167,-1063
3.90000,-1066
3.90833,-1069
3.91667,-1072
3.92500,-1075
3.93333,-1078
3.94167,-1081
3.95000,-1084
3.95833,-1087
3.96667,-1089
3.97500,-1092
3.98333,-1094
3.99167,-1097
4.00000,-1100
4.00833,-1103
4.01667,-1105
4.02500,-1108
4.03333,-1110
4.04167,-1112
4.05000,-1114
4.05833,-1116
4.06667,-1118
4.07500,-1120
4.08333,-1122
4.09167,-1124
4.10000,-1126
4.10833,-1128
4.11667,-1129
4.12500,-1131
4.13333,-1132
4.14167,-1133
4.15000,-1134
4.15833,-1135
4.16667,-1136
4.17500,-1137
4.18333,-1138
4.19167,-1139
4.20000,-1139
4.20833,-1139
4.21667,-1139
4.22500,-1140
4.23333,-1140
4.24167,-1140
4.25000,-1139
4.25833,-1138
4.26667,-1138
4.27500,-1136
4.28333,-1135
4.29167,-1134
4.30000,-1132
4.30833,-1131
4.31667,-1130
4.32500,-1128
4.33333,-1126
4.34167,-1124
4.35000,-1123
4.35833,-1121
4.36667,-1119
4.37500,-1117
4.38333,-1115
4.39167,-1112
4.40000,-1110
4.40833,-1107
4.41667,-1105
4.42500,-1103
4.43333,-1100
4.44167,-1097
4.45000,-1094
4.45833,-1092
4.46667,-1089
4.47500,-1086
4.48333,-1083
4.49167,-1080
4.50000,-1077
4.50833,-1074
4.51667,-1071
4.52500,-1068
4.53333,-1066
4.54167,-1063
4.55000,-1060
4.55833,-1058
4.56667,-1055
4.57500,-1053
4.58333,-1051
4.59167,-1048
4.60000,-1046
4.60833,-1044
4.61667,-1042
4.62500,-1040
4.63333,-1037
4.64167,-1035
4.65000,-1033
4.65833,-1031
4.66667,-1030
4.67500,-1028
4.68333,-1026
4.69167,-1025
4.70000,-1023
4.70833,-1022
4.71667,-1020
4.72500,-1019
4.73333,-1018
4.74167,-1017
4.75000,-1016
4.75833,-1015
4.76667,-1014
4.77500,-1013
4.78333,-1013
4.79167,-1012
4.80000,-1011
4.80833,-1010
4.81667,-1010
4.82500,-1009
4.83333,-1009
4.84167,-1009
4.85000,-1009
4.85833,-1009
4.86667,-1009
4.87500,-1008
4.88333,-1008
4.89167,-1008
4.90000,-1007
4.90833,-1007
4.91667,-1006
4.92500,-1006
4.93333,-1006
4.94167,-1006
4.95000,-1005
4.95833,-1004
4.96667,-1004
4.97500,-1003
4.98333,-1002
4.99167,-1002
5.00000,-1000
5.00833,-999
5.01667,-998
5.02500,-997
5.03333,-996
5.04167,-994
5.05000,-992
5.05833,-991
5.06667,-989
5.07500,-988
5.08333,-985
5.09167,-983
5.10000,-980
5.10833,-978
5.11667,-975
5.12500,-973
5.13333,-970
5.14167,-967
5.15000,-964
5.15833,-961
5.16667,-957
5.17500,-954
5.18333,-951
5.19167,-947
5.20000,-943
5.20833,-940
5.21667,-936
5.22500,-932
5.23333,-928
5.24167,-923
5.25000,-919
5.25833,-915
5.26667,-910
5.27500,-905
5.28333,-901
5.29167,-896
5.30000,-891
5.30833,-886
5.31667,-881
5.32500,-876
5.33333,-871
5.34167,-866
5.35000,-861
5.35833,-856
5.36667,-851
5.37500,-847
5.38333,-842
5.39167,-838
5.40000,-833
5.40833,-828
5.41667,-823
5.42500,-819
5.43333,-814
5.44167,-809
5.45000,-805
5.45833,-800
5.46667,-796
5.47500,-792
5.48333,-788
5.49167,-784
5.50000,-779
5.50833,-775
5.51667,-771
5.52500,-767
5.53333,-764
5.54167,-760
5.55000,-757
5.55833,-754
5.56667,-751
5.57500,-748
5.58333,-745
5.59167,-742
5.60000,-740
5.60833,-737
5.61667,-734
5.62500,-731
5.63333,-729
5.64167,-727
5.65000,-724
5.65833,-722
5.66667,-720
5.67500,-718
5.68333,-716
5.69167,-714
5.70000,-712
5.70833,-710
5.71667,-708
5.72500,-707
5.73333,-706
5.74167,-705
5.75000,-703
5.75833,-702
5.76667,-700
5.77500,-699
5.78333,-698
5.79167,-697
5.80000,-695
5.80833,-694
5.81667,-692
5.82500,-691
5.83333,-690
5.84167,-689
5.85000,-688
5.85833,-687
5.86667,-686
5.87500,-685
5.88333,-683
5.89167,-682
5.90000,-681
5.90833,-679
5.91667,-678
5.92500,-676
5.93333,-675
5.94167,-673
5.95000,-672
5.95833,-671
5.96667,-669
5.97500,-668
5.98333,-666
5.99167,-664
6.00000,-663
6.00833,-661
6.01667,-660
6.02500,-658
6.03333,-656
6.04167,-654
6.05000,-652
6.05833,-651
6.06667,-649
6.07500,-646
6.08333,-644
6.09167,-642
6.10000,-640
6.10833,-637
6.11667,-635
6.12500,-632
6.13333,-630
6.14167,-627
6.15000,-625
6.15833,-622
6.16667,-620
6.17500,-618
6.18333,-615
6.19167,-613
6.20000,-610
6.20833,-607
6.21667,-604
6.22500,-601
6.23333,-598
6.24167,-595
6.25000,-592
6.25833,-589
6.26667,-585
6.27500,-582
6.28333,-579
6.29167,-576
6.30000,-573
6.30833,-570
6.31667,-567
6.32500,-563
6.33333,-560
6.34167,-556
6.35000,-553
6.35833,-550
6.36667,-546
6.37500,-543
6.38333,-539
6.39167,-535
6.40000,-532
6.40833,-528
6.41667,-525
6.42500,-521
6.43333,-518
6.44167,-514
6.45000,-511
6.45833,-507
6.46667,-504
6.47500,-500
6.48333,-497
6.49167,-493
6.50000,-489
6.50833,-485
6.51667,-481
6.52500,-477
6.53333,-473
6.54167,-469
6.55000,-466
6.55833,-462
6.56667,-458
6.57500,-454
6.58333,-450
6.59167,-446
6.60000,-441
6.60833,-438
6.61667,-434
6.62500,-430
6.63333,-426
6.64167,-422
6.65000,-418
6.65833,-414
6.66667,-410
6.67500,-407
6.68333,-403
6.69167,-399
6.70000,-396
6.70833,-392
6.71667,-388
6.72500,-384
6.73333,-380
6.74167,-376
6.75000,-373
6.75833,-369
6.76667,-365
6.77500,-362
6.78333,-358
6.79167,-354
6.80000,-350
6.80833,-346
6.81667,-342
6.82500,-339
6.83333,-335
6.84167,-332
6.85000,-328
6.85833,-324
6.86667,-321
6.87500,-318
6.88333,-314
6.89167,-310
6.90000,-307
6.90833,-304
6.91667,-300
6.92500,-297
6.93333,-294
6.94167,-290
6.95000,-287
6.95833,-284
6.96667,-280
6.97500,-277
6.98333,-274
6.99167,-271
7.00000,-268
7.00833,-265
7.01667,-262
7.02500,-259
7.03333,-256
7.04167,-253
7.05000,-250
7.05833,-247
7.06667,-244
7.07500,-241
7.08333,-239
7.09167,-236
7.10000,-233
7.10833,-230
7.11667,-227
7.12500,-225
7.13333,-222
7.14167,-220
7.15000,-218
7.15833,-215
7.16667,-213
7.17500,-211
7.18333,-209
7.19167,-207
7.20000,-205
7.20833,-203
7.21667,-201
7.22500,-199
7.23333,-196
7.24167,-194
7.25000,-193
7.25833,-191
7.26667,-190
7.27500,-188
7.28333,-186
7.29167,-184
7.30000,-182
7.30833,-180
7.31667,-179
7.32500,-177
7.33333,-175
7.34167,-173
7.35000,-172
7.35833,-171
7.36667,-170
7.37500,-168
7.38333,-167
7.39167,-166
7.40000,-165
7.40833,-164
7.41667,-163
7.42500,-162
7.43333,-161
7.44167,-160
7.45000,-158
7.45833,-157
7.46667,-156
7.47500,-155
7.48333,-154
7.49167,-153
7.50000,-153
7.50833,-152
7.51667,-151
7.52500,-150
7.53333,-149
7.54167,-149
7.55000,-148
7.55833,-147
7.56667,-146
7.57500,-145
7.58333,-144
7.59167,-144
7.60000,-143
7.60833,-142
7.61667,-142
7.62500,-141
7.63333,-141
7.64167,-140
7.65000,-140
7.65833,-139
7.66667,-138
7.67500,-138
7.68333,-138
7.69167,-138
7.70000,-138
7.70833,-138
7.71667,-137
7.72500,-137
7.73333,-137
7.74167,-136
7.75000,-135
7.75833,-135
7.76667,-134
7.77500,-134
7.78333,-133
7.79167,-133
7.80000,-133
7.80833,-133
7.81667,-133
7.82500,-133
7.83333,-133
7.84167,-132
7.85000,-132
7.85833,-131
7.86667,-131
7.87500,-131
7.88333,-130
7.89167,-130
7.90000,-129
7.90833,-129
7.91667,-129
7.92500,-128
7.93333,-127
7.94167,-127
7.95000,-127
7.95833,-127
7.96667,-127
7.97500,-126
7.98333,-126
7.99167,-126
8.00000,-125
8.00833,-125
8.01667,-125
8.02500,-124
8.03333,-124
8.04167,-124
8.05000,-124
8.05833,-124
8.06667,-124
8.07500,-123
8.08333,-123
8.09167,-122
8.10000,-122
8.10833,-122
8.11667,-121
8.12500,-121
8.13333,-121
8.14167,-121
8.15000,-120
8.15833,-120
8.16667,-120
8.17500,-119
8.18333,-119
8.19167,-119
8.20000,-119
8.20833,-119
8.21667,-118
8.22500,-118
8.23333,-118
8.24167,-117
8.25000,-116
8.25833,-116
8.26667,-116
8.27500,-115
8.28333,-115
8.29167,-114
8.30000,-114
8.30833,-114
8.31667,-113
8.32500,-113
8.33333,-113
8.34167,-112
8.35000,-112
8.35833,-112
8.36667,-112
8.37500,-111
8.38333,-111
8.39167,-110
8.40000,-109
8.40833,-109
8.41667,-109
8.42500,-109
8.43333,-108
8.44167,-108
8.45000,-108
8.45833,-108
8.46667,-107
8.47500,-107
8.48333,-107
8.49167,-106
8.50000,-106
8.50833,-105
8.51667,-105
8.52500,-105
8.53333,-104
8.54167,-104
8.55000,-104
8.55833,-103
8.56667,-103
8.57500,-103
8.58333,-102
8.59167,-102
8.60000,-101
8.60833,-101
8.61667,-100
8.62500,-100
8.63333,-100
8.64167,-99
8.65000,-99
8.65833,-99
8.66667,-98
8.67500,-97
8.68333,-97
8.69167,-97
8.70000,-96
8.70833,-96
8.71667,-96
8.72500,-96
8.73333,-96
8.74167,-96
8.75000,-95
8.75833,-95
8.76667,-94
8.77500,-93
8.78333,-92
8.79167,-92
8.80000,-91
8.80833,-91
8.81667,-90
8.82500,-90
8.83333,-90
8.84167,-89
8.85000,-89
8.85833,-89
8.86667,-88
8.87500,-88
8.88333,-87
8.89167,-87
8.90000,-87
8.90833,-86
8.91667,-86
8.92500,-86
8.93333,-85
8.94167,-85
8.95000,-86
8.95833,-86
8.96667,-85
8.97500,-85
8.98333,-84
8.99167,-84
9.00000,-83
9.00833,-82
9.01667,-82
9.02500,-81
9.03333,-81
9.04167,-81
9.05000,-80
9.05833,-80
9.06667,-79
9.07500,-79
9.08333,-79
9.09167,-79
9.10000,-79
9.10833,-79
9.11667,-78
9.12500,-78
9.13333,-78
9.14167,-77
9.15000,-77
9.15833,-76
9.16667,-76
9.17500,-75
9.18333,-75
9.19167,-75
9.20000,-75
9.20833,-75
9.21667,-75
9.22500,-75
9.23333,-74
9.24167,-74
9.25000,-73
9.25833,-73
9.26667,-72
9.27500,-72
9.28333,-71
9.29167,-71
9.30000,-71
9.30833,-70
9.31667,-70
9.32500,-70
9.33333,-70
9.34167,-69
9.35000,-69
9.35833,-69
9.36667,-68
9.37500,-68
9.38333,-68
9.39167,-68
9.40000,-67
9.40833,-66
9.41667,-66
9.42500,-66
9.43333,-66
9.44167,-65
9.45000,-65
9.45833,-64
9.46667,-64
9.47500,-64
9.48333,-63
9.49167,-63
9.50000,-63
9.50833,-63
9.51667,-63
9.52500,-62
9.53333,-62
9.54167,-62
9.55000,-61
9.55833,-61
9.56667,-61
9.57500,-61
9.58333,-61
9.59167,-61
9.60000,-61
9.60833,-60
9.61667,-60
9.62500,-60
9.63333,-59
9.64167,-58
9.65000,-58
9.65833,-58
9.66667,-57
9.67500,-57
9.68333,-57
9.69167,-56
9.70000,-56
9.70833,-56
9.71667,-55
9.72500,-55
9.73333,-55
9.74167,-55
9.75000,-54
9.75833,-54
9.76667,-54
9.77500,-54
9.78333,-53
9.79167,-53
9.80000,-52
9.80833,-52
9.81667,-52
9.82500,-52
9.83333,-52
9.84167,-51
9.85000,-51
9.85833,-51
9.86667,-51
9.87500,-51
9.88333,-51
9.89167,-50
9.90000,-50
9.90833,-50
9.91667,-50
9.92500,-49
9.93333,-49
9.94167,-49
9.95000,-48
9.95833,-48
9.96667,-48
9.97500,-47
9.98333,-47
9.99167,-47
10.00000,-46
10.00833,-46
10.01667,-46
10.02500,-46
10.03333,-46
10.04167,-45
10.05000,-45
10.05833,-45
10.06667,-45
10.07500,-44
10.08333,-44
10.09167,-44
10.10000,-44
10.10833,-44
10.11667,-44
10.12500,-44
10.13333,-44
10.14167,-44
10.15000,-44
10.15833,-44
10.16667,-43
10.17500,-43
10.18333,-42
10.19167,-42
10.20000,-42
10.20833,-42
10.21667,-42
10.22500,-41
10.23333,-41
10.24167,-41
10.25000,-40
10.25833,-40
10.26667,-39
10.27500,-39
10.28333,-39
10.29167,-38
10.30000,-38
10.30833,-37
10.31667,-37
10.32500,-36
10.33333,-36
10.34167,-36
10.35000,-35
10.35833,-35
10.36667,-34
10.37500,-34
10.38333,-33
10.39167,-33
10.40000,-32
10.40833,-31
10.41667,-30
10.42500,-30
10.43333,-30
10.44167,-29
10.45000,-29
10.45833,-29
10.46667,-28
10.47500,-28
10.48333,-29
10.49167,-30
10.50000,-32
10.50833,-35
10.51667,-39
10.52500,-46
10.53333,-56
10.54167,-69
10.55000,-87
10.55833,-111
10.56667,-143
10.57500,-185
10.58333,-238
10.59167,-305
10.60000,-388
10.60833,-489
10.61667,-610
10.62500,-752
10.63333,-918
10.64167,-1106
10.65000,-1318
10.65833,-1550
10.66667,-1802
10.67500,-2067
10.68333,-2341
10.69167,-2618
10.70000,-2887
10.70833,-3141
10.71667,-3368
10.72500,-3555
10.73333,-3690
10.74167,-3759
10.75000,-3750
10.75833,-3649
10.76667,-3443
10.77500,-3119
10.78333,-2666
10.79167,-2073
10.80000,-1330
10.80833,-430
10.81667,635
10.82500,1870
10.83333,3279
10.84167,4863
10.85000,6625
10.85833,8563
10.86667,10674
10.87500,12957
10.88333,15404
10.89167,18009
10.90000,20764
10.90833,23657
10.91667,26675
10.92500,29802
10.93333,33021
10.94167,36308
10.95000,39637
10.95833,42979
10.96667,46298
10.97500,49555
10.98333,52705
10.99167,55699
11.00000,58486
11.00833,61011
11.01667,63220
11.02500,65061
11.03333,66488
11.04167,67461
11.05000,67950
11.05833,67939
11.06667,67425
11.07500,66418
11.08333,64944
11.09167,63040
11.10000,60755
11.10833,58145
11.11667,55273
11.12500,52204
11.13333,49000
11.14167,45724
11.15000,42431
11.15833,39172
11.16667,35990
11.17500,32921
11.18333,29991
11.19167,27221
11.20000,24625
11.20833,22210
11.21667,19979
11.22500,17930
11.23333,16060
11.24167,14361
11.25000,12824
11.25833,11440
11.26667,10197
11.27500,9085
11.28333,8094
11.29167,7212
11.30000,6428
11.30833,5735
11.31667,5122
11.32500,4580
11.33333,4103
11.34167,3683
11.35000,3313
11.35833,2988
11.36667,2703
11.37500,2454
11.38333,2235
11.39167,2042
11.40000,1874
11.40833,1727
11.41667,1598
11.42500,1485
11.43333,1387
11.44167,1300
11.45000,1225
11.45833,1158
11.46667,1101
11.47500,1051
11.48333,1007
11.49167,968
11.50000,935
11.50833,906
11.51667,880
11.52500,858
11.53333,840
11.54167,823
11.55000,810
11.55833,799
11.56667,790
11.57500,782
11.58333,776
11.59167,772
11.60000,768
11.60833,766
11.61667,764
11.62500,764
11.63333,764
11.64167,765
11.65000,767
11.65833,769
11.66667,772
11.67500,775
11.68333,779
11.69167,784
11.70000,788
11.70833,792
11.71667,796
11.72500,800
11.73333,805
11.74167,810
11.75000,815
11.75833,820
11.76667,825
11.77500,830
11.78333,834
11.79167,839
11.80000,844
11.80833,848
11.81667,852
11.82500,857
11.83333,861
11.84167,864
11.85000,867
11.85833,870
11.86667,873
11.87500,876
11.88333,878
11.89167,879
11.90000,880
11.90833,881
11.91667,882
11.92500,882
11.93333,881
11.94167,880
11.95000,879
11.95833,878
11.96667,875
11.97500,873
11.98333,870
11.99167,866
12.00000,863
12.00833,859
12.01667,854
12.02500,849
12.03333,844
12.04167,838
12.05000,832
12.05833,826
12.06667,819
12.07500,811
12.08333,804
12.09167,795
12.10000,787
12.10833,779
12.11667,770
12.12500,761
12.13333,752
12.14167,743
12.15000,733
12.15833,723
12.16667,712
12.17500,702
12.18333,691
12.19167,681
12.20000,670
12.20833,660
12.21667,649
12.22500,638
12.23333,628
12.24167,617
12.25000,606
12.25833,595
12.26667,584
12.27500,573
12.28333,562
12.29167,551
12.30000,540
12.30833,529
12.31667,519
12.32500,509
12.33333,498
12.34167,488
12.35000,477
12.35833,467
12.36667,457
12.37500,448
12.38333,438
12.39167,429
12.40000,419
12.40833,409
12.41667,400
12.42500,391
12.43333,382
12.44167,374
12.45000,366
12.45833,358
12.46667,350
12.47500,342
12.48333,335
12.49167,327
12.50000,319
12.50833,312
12.51667,304
12.52500,297
12.53333,290
12.54167,284
12.55000,277
12.55833,271
12.56667,265
12.57500,259
12.58333,253
12.59167,247
12.60000,242
12.60833,237
12.61667,232
12.62500,227
12.63333,223
12.64167,218
12.65000,213
12.65833,208
12.66667,204
12.67500,199
12.68333,195
12.69167,191
12.70000,188
12.70833,184
12.71667,181
12.72500,177
12.73333,173
12.74167,170
12.75000,166
12.75833,163
12.76667,160
12.77500,158
12.78333,156
12.79167,153
12.80000,151
12.80833,149
12.81667,146
12.82500,144
12.83333,142
12.84167,140
12.85000,138
12.85833,137
12.86667,135
12.87500,134
12.88333,132
12.89167,131
12.90000,130
12.90833,129
12.91667,128
12.92500,127
12.93333,126
12.94167,125
12.95000,124
12.95833,123
12.96667,123
12.97500,122
12.98333,122
12.99167,121
13.00000,120
13.00833,120
13.01667,119
13.02500,119
13.03333,118
13.04167,117
13.05000,117
13.05833,116
13.06667,116
13.07500,115
13.08333,114
13.09167,113
13.10000,112
13.10833,112
13.11667,111
13.12500,110
13.13333,109
13.14167,109
13.15000,108
13.15833,108
13.16667,108
13.17500,107
13.18333,107
13.19167,107
13.20000,106
13.20833,106
13.21667,105
13.22500,104
13.23333,104
13.24167,104
13.25000,103
13.25833,102
13.26667,101
13.27500,101
13.28333,100
13.29167,99
13.30000,98
13.30833,96
13.31667,96
13.32500,94
13.33333,93
13.34167,92
13.35000,91
13.35833,90
13.36667,89
13.37500,88
13.38333,87
13.39167,86
13.40000,84
13.40833,84
13.41667,83
13.42500,82
13.43333,81
13.44167,80
13.45000,79
13.45833,78
13.46667,77
13.47500,76
13.48333,75
13.49167,74
13.50000,73
13.50833,72
13.51667,71
13.52500,71
13.53333,70
13.54167,69
13.55000,69
13.55833,68
13.56667,67
13.57500,66
13.58333,66
13.59167,66
13.60000,65
13.60833,65
13.61667,64
13.62500,64
13.63333,63
13.64167,63
13.65000,62
13.65833,62
13.66667,62
13.67500,62
13.68333,62
13.69167,62
13.70000,62
13.70833,61
13.71667,61
13.72500,61
13.73333,61
13.74167,61
13.75000,61
13.75833,61
13.76667,61
13.77500,62
13.78333,62
13.79167,62
13.80000,62
13.80833,63
13.81667,63
13.82500,63
13.83333,63
13.84167,64
13.85000,64
13.85833,65
13.86667,65
13.87500,65
13.88333,66
13.89167,66
13.90000,66
13.90833,67
13.91667,67
13.92500,68
13.93333,69
13.94167,69
13.95000,69
13.95833,70
13.96667,70
13.97500,71
13.98333,71
13.99167,72
14.00000,73
14.00833,74
14.01667,75
14.02500,75
14.03333,76
14.04167,77
14.05000,77
14.05833,78
14.06667,78
14.07500,79
14.08333,80
14.09167,81
14.10000,82
14.10833,84
14.11667,85
14.12500,87
14.13333,89
14.14167,91
14.15000,93
14.15833,95
14.16667,98
14.17500,101
14.18333,105
14.19167,110
14.20000,116
14.20833,123
14.21667,132
14.22500,142
14.23333,155
14.24167,170
14.25000,188
14.25833,209
14.26667,235
14.27500,267
14.28333,304
14.29167,348
14.30000,401
14.30833,462
14.31667,534
14.32500,619
14.33333,717
14.34167,830
14.35000,961
14.35833,1109
14.36667,1278
14.37500,1469
14.38333,1684
14.39167,1925
14.40000,2192
14.40833,2488
14.41667,2813
14.42500,3170
14.43333,3560
14.44167,3983
14.45000,4441
14.45833,4934
14.46667,5463
14.47500,6029
14.48333,6631
14.49167,7271
14.50000,7948
14.50833,8663
14.51667,9414
14.52500,10203
14.53333,11028
14.54167,11889
14.55000,12786
14.55833,13718
14.56667,14685
14.57500,15687
14.58333,16722
14.59167,17790
14.60000,18891
14.60833,20024
14.61667,21188
14.62500,22382
14.63333,23607
14.64167,24861
14.65000,26144
14.65833,27455
14.66667,28794
14.67500,30160
14.68333,31553
14.69167,32972
14.70000,34417
14.70833,35888
14.71667,37385
14.72500,38907
14.73333,40453
14.74167,42024
14.75000,43619
14.75833,45239
14.76667,46882
14.77500,48549
14.78333,50239
14.79167,51952
14.80000,53688
14.80833,55447
14.81667,57228
14.82500,59031
14.83333,60857
14.84167,62704
14.85000,64573
14.85833,66463
14.86667,68374
14.87500,70306
14.88333,72259
14.89167,74232
14.90000,76226
14.90833,78238
14.91667,80269
14.92500,82318
14.93333,84384
14.94167,86466
14.95000,88563
14.95833,90674
14.96667,92797
14.97500,94930
14.98333,97069
14.99167,99211
15.00000,101351
15.00833,103481
15.01667,105591
15.02500,107666
15.03333,109687
15.04167,111627
15.05000,113453
15.05833,115125
15.06667,116594
15.07500,117804
15.08333,118694
15.09167,119203
15.10000,119266
15.10833,118829
15.11667,117844
15.12500,116278
15.13333,114115
15.14167,111357
15.15000,108027
15.15833,104167
15.16667,99838
15.17500,95114
15.18333,90082
15.19167,84833
15.20000,79461
15.20833,74059
15.21667,68711
15.22500,63494
15.23333,58474
15.24167,53703
15.25000,49222
15.25833,45061
15.26667,41236
15.27500,37756
15.28333,34623
15.29167,31828
15.30000,29363
15.30833,27212
15.31667,25359
15.32500,23788
15.33333,22479
15.34167,21415
15.35000,20580
15.35833,19957
15.36667,19531
15.37500,19288
15.38333,19214
15.39167,19297
15.40000,19526
15.40833,19889
15.41667,20375
15.42500,20973
15.43333,21673
15.44167,22464
15.45000,23335
15.45833,24274
15.46667,25272
15.47500,26316
15.48333,27394
15.49167,28496
15.50000,29609
15.50833,30721
15.51667,31820
15.52500,32895
15.53333,33934
15.54167,34928
15.55000,35865
15.55833,36735
15.56667,37530
15.57500,38242
15.58333,38864
15.59167,39390
15.60000,39815
15.60833,40135
15.61667,40348
15.62500,40452
15.63333,40446
15.64167,40331
15.65000,40110
15.65833,39784
15.66667,39359
15.67500,38837
15.68333,38224
15.69167,37527
15.70000,36751
15.70833,35904
15.71667,34993
15.72500,34024
15.73333,33006
15.74167,31947
15.75000,30853
15.75833,29733
15.76667,28593
15.77500,27440
15.78333,26281
15.79167,25122
15.80000,23968
15.80833,22824
15.81667,21697
15.82500,20589
15.83333,19506
15.84167,18449
15.85000,17423
15.85833,16429
15.86667,15470
15.87500,14547
15.88333,13662
15.89167,12815
15.90000,12007
15.90833,11238
15.91667,10508
15.92500,9816
15.93333,9163
15.94167,8547
15.95000,7966
15.95833,7421
15.96667,6911
15.97500,6433
15.98333,5986
15.99167,5570
16.00000,5182
16.00833,4822
16.01667,4487
16.02500,4177
16.03333,3889
16.04167,3623
16.05000,3378
16.05833,3151
16.06667,2942
16.07500,2749
16.08333,2572
16.09167,2408
16.10000,2258
16.10833,2120
16.11667,1993
16.12500,1877
16.13333,1770
16.14167,1671
16.15000,1581
16.15833,1498
16.16667,1423
16.17500,1353
16.18333,1289
16.19167,1230
16.20000,1175
16.20833,1126
16.21667,1080
16.22500,1038
16.23333,999
16.24167,963
16.25000,930
16.25833,899
16.26667,871
16.27500,845
16.28333,821
16.29167,798
16.30000,777
16.30833,757
16.31667,739
16.32500,722
16.33333,705
16.34167,690
16.35000,675
16.35833,662
16.36667,649
16.37500,637
16.38333,626
16.39167,616
16.40000,606
16.40833,596
16.41667,587
16.42500,579
16.43333,570
16.44167,563
16.45000,555
16.45833,548
16.46667,542
16.47500,535
16.48333,529
16.49167,523
16.50000,517
16.50833,512
16.51667,507
16.52500,502
16.53333,497
16.54167,492
16.55000,487
16.55833,482
16.56667,478
16.57500,473
16.58333,469
16.59167,465
16.60000,461
16.60833,457
16.61667,454
16.62500,450
16.63333,447
16.64167,443
16.65000,440
16.65833,437
16.66667,433
16.67500,430
16.68333,427
16.69167,425
16.70000,422
16.70833,419
16.71667,416
16.72500,413
16.73333,410
16.74167,408
16.75000,405
16.75833,403
16.76667,400
16.77500,397
16.78333,395
16.79167,392
16.80000,390
16.80833,387
16.81667,385
16.82500,383
16.83333,380
16.84167,378
16.85000,375
16.85833,373
16.86667,370
16.87500,368
16.88333,366
16.89167,364
16.90000,361
16.90833,359
16.91667,357
16.92500,355
16.93333,353
16.94167,351
16.95000,349
16.95833,347
16.96667,345
16.97500,343
16.98333,341
16.99167,339
17.00000,337
17.00833,335
17.01667,333
17.02500,331
17.03333,329
17.04167,327
17.05000,326
17.05833,324
17.06667,323
17.07500,321
17.08333,319
17.09167,317
17.10000,315
17.10833,314
17.11667,312
17.12500,310
17.13333,309
17.14167,307
17.15000,306
17.15833,304
17.16667,303
17.17500,301
17.18333,300
17.19167,298
17.20000,297
17.20833,295
17.21667,293
17.22500,292
17.23333,291
17.24167,290
17.25000,288
17.25833,287
17.26667,285
17.27500,284
17.28333,282
17.29167,281
17.30000,280
17.30833,279
17.31667,277
17.32500,276
17.33333,275
17.34167,273
17.35000,272
17.35833,270
17.36667,269
17.37500,267
17.38333,266
17.39167,265
17.40000,264
17.40833,263
17.41667,262
17.42500,260
17.43333,259
17.44167,257
17.45000,256
17.45833,255
17.46667,254
17.47500,253
17.48333,252
17.49167,251
17.50000,250
17.50833,248
17.51667,247
17.52500,246
17.53333,245
17.54167,244
17.55000,243
17.55833,241
17.56667,240
17.57500,239
17.58333,237
17.59167,236
17.60000,235
17.60833,234
17.61667,233
17.62500,233
17.63333,231
17.64167,230
17.65000,230
17.65833,229
17.66667,227
17.67500,226
17.68333,225
17.69167,224
17.70000,223
17.70833,222
17.71667,221
17.72500,220
17.73333,220
17.74167,219
17.75000,218
17.75833,217
17.76667,216
17.77500,215
17.78333,214
17.79167,213
17.80000,212
17.80833,211
17.81667,210
17.82500,209
17.83333,208
17.84167,207
17.85000,207
17.85833,206
17.86667,205
17.87500,204
17.88333,204
17.89167,203
17.90000,202
17.90833,202
17.91667,201
17.92500,200
17.93333,199
17.94167,199
17.95000,198
17.95833,197
17.96667,196
17.97500,195
17.98333,194
17.99167,193
18.00000,193
18.00833,192
18.01667,191
18.02500,191
18.03333,190
18.04167,189
18.05000,188
18.05833,187
18.06667,186
18.07500,185
18.08333,185
18.09167,184
18.10000,183
18.10833,182
18.11667,182
18.12500,181
18.13333,180
18.14167,180
18.15000,179
18.15833,178
18.16667,178
18.17500,177
18.18333,176
18.19167,176
18.20000,175
18.20833,175
18.21667,174
18.22500,173
18.23333,173
18.24167,172
18.25000,171
18.25833,170
18.26667,169
18.27500,169
18.28333,168
18.29167,167
18.30000,167
18.30833,166
18.31667,165
18.32500,165
18.33333,164
18.34167,163
18.35000,163
18.35833,163
18.36667,162
18.37500,161
18.38333,161
18.39167,161
18.40000,160
18.40833,159
18.41667,158
18.42500,158
18.43333,157
18.44167,156
18.45000,156
18.45833,155
18.46667,154
18.47500,154
18.48333,154
18.49167,153
18.50000,152
18.50833,152
18.51667,151
18.52500,151
18.53333,150
18.54167,150
18.55000,150
18.55833,149
18.56667,149
18.57500,148
18.58333,148
18.59167,148
18.60000,148
18.60833,148
18.61667,148
18.62500,148
18.63333,147
18.64167,147
18.65000,147
18.65833,147
18.66667,147
18.67500,148
18.68333,148
18.69167,149
18.70000,149
18.70833,150
18.71667,150
18.72500,151
18.73333,152
18.74167,153
18.75000,154
18.75833,155
18.76667,157
18.77500,158
18.78333,159
18.79167,161
18.80000,162
18.80833,164
18.81667,165
18.82500,167
18.83333,169
18.84167,171
18.85000,172
18.85833,174
18.86667,175
18.87500,176
18.88333,178
18.89167,180
18.90000,181
18.90833,183
18.91667,183
18.92500,184
18.93333,185
18.94167,185
18.95000,186
18.95833,186
18.96667,186
18.97500,186
18.98333,186
18.99167,185
19.00000,185
19.00833,184
19.01667,184
19.02500,183
19.03333,182
19.04167,181
19.05000,180
19.05833,179
19.06667,178
19.07500,176
19.08333,174
19.09167,172
19.10000,170
19.10833,168
19.11667,166
19.12500,163
19.13333,161
19.14167,159
19.15000,157
19.15833,155
19.16667,153
19.17500,151
19.18333,149
19.19167,147
19.20000,145
19.20833,144
19.21667,142
19.22500,140
19.23333,138
19.24167,136
19.25000,135
19.25833,133
19.26667,132
19.27500,130
19.28333,129
19.29167,127
19.30000,126
19.30833,125
19.31667,124
19.32500,124
19.33333,123
19.34167,122
19.35000,121
19.35833,120
19.36667,119
19.37500,118
19.38333,118
19.39167,117
19.40000,116
19.40833,115
19.41667,114
19.42500,114
19.43333,114
19.44167,113
19.45000,112
19.45833,112
19.46667,111
19.47500,111
19.48333,111
19.49167,110
19.50000,110
19.50833,110
19.51667,110
19.52500,110
19.53333,109
19.54167,109
19.55000,109
19.55833,109
19.56667,108
19.57500,108
19.58333,107
19.59167,107
19.60000,107
19.60833,106
19.61667,106
19.62500,106
19.63333,106
19.64167,105
19.65000,105
19.65833,105
19.66667,105
19.67500,104
19.68333,104
19.69167,104
19.70000,104
19.70833,103
19.71667,103
19.72500,103
19.73333,103
19.74167,103
19.75000,103
19.75833,103
19.76667,102
19.77500,102
19.78333,102
19.79167,102
19.80000,101
19.80833,101
19.81667,101
19.82500,101
19.83333,101
19.84167,101
19.85000,101
19.85833,101
19.86667,100
19.87500,100
19.88333,100
19.89167,99
19.90000,99
19.90833,99
19.91667,99
19.92500,99
19.93333,99
19.94167,99
19.95000,98
19.95833,98
19.96667,98
19.97500,98
19.98333,98
19.99167,98
20.00000,98
20.00833,98
20.01667,98
20.02500,98
20.03333,97
20.04167,97
20.05000,97
20.05833,97
20.06667,97
20.07500,96
20.08333,96
20.09167,96
20.10000,96
20.10833,96
20.11667,96
20.12500,95
20.13333,95
20.14167,95
20.15000,95
20.15833,95
20.16667,96
20.17500,95
20.18333,95
20.19167,95
20.20000,94
20.20833,94
20.21667,94
20.22500,94
20.23333,94
20.24167,94
20.25000,95
20.25833,95
20.26667,95
20.27500,95
20.28333,94
20.29167,94
20.30000,94
20.30833,94
20.31667,94
20.32500,94
20.33333,94
20.34167,94
20.35000,94
20.35833,93
20.36667,93
20.37500,93
20.38333,93
20.39167,93
20.40000,92
20.40833,93
20.41667,93
20.42500,93
20.43333,93
20.44167,93
20.45000,92
20.45833,92
20.46667,92
20.47500,92
20.48333,91
20.49167,91
20.50000,91
20.50833,91
20.51667,91
20.52500,91
20.53333,91
20.54167,91
20.55000,91
20.55833,91
20.56667,91
20.57500,91
20.58333,91
20.59167,90
20.60000,89
20.60833,89
20.61667,90
20.62500,90
20.63333,90
20.64167,91
20.65000,91
20.65833,91
20.66667,91
20.67500,90
20.68333,90
20.69167,90
20.70000,90
20.70833,90
20.71667,90
20.72500,89
20.73333,89
20.74167,89
20.75000,89
20.75833,89
20.76667,89
20.77500,89
20.78333,89
20.79167,89
20.80000,90
20.80833,90
20.81667,90
20.82500,89
20.83333,89
20.84167,88
20.85000,88
20.85833,88
20.86667,88
20.87500,88
20.88333,88
20.89167,88
20.90000,88
20.90833,88
20.91667,88
20.92500,88
20.93333,87
20.94167,87
20.95000,87
20.95833,87
20.96667,87
20.97500,87
20.98333,87
20.99167,87
21.00000,87
21.00833,87
21.01667,87
21.02500,87
21.03333,87
21.04167,87
21.05000,87
21.05833,87
21.06667,87
21.07500,87
21.08333,87
21.09167,87
21.10000,87
21.10833,87
21.11667,87
21.12500,87
21.13333,86
21.14167,86
21.15000,86
21.15833,86
21.16667,86
21.17500,87
21.18333,86
21.19167,86
21.20000,86
21.20833,86
21.21667,86
21.22500,86
21.23333,86
21.24167,86
21.25000,86
21.25833,86
21.26667,85
21.27500,86
21.28333,85
21.29167,85
21.30000,86
21.30833,86
21.31667,86
21.32500,86
21.33333,86
21.34167,86
21.35000,86
21.35833,86
21.36667,86
21.37500,87
21.38333,86
21.39167,86
21.40000,86
21.40833,86
21.41667,86
21.42500,86
21.43333,86
21.44167,86
21.45000,86
21.45833,86
21.46667,85
21.47500,85
21.48333,85
21.49167,85
21.50000,85
21.50833,85
21.51667,85
21.52500,85
21.53333,85
21.54167,85
21.55000,86
21.55833,86
21.56667,86
21.57500,86
21.58333,86
21.59167,86
21.60000,86
21.60833,86
21.61667,86
21.62500,87
21.63333,87
21.64167,86
21.65000,86
21.65833,86
21.66667,86
21.67500,86
21.68333,86
21.69167,87
21.70000,87
21.70833,86
21.71667,86
21.72500,86
21.73333,86
21.74167,86
21.75000,86
21.75833,86
21.76667,86
21.77500,86
21.78333,86
21.79167,86
21.80000,87
21.80833,87
21.81667,87
21.82500,87
21.83333,87
21.84167,87
21.85000,87
21.85833,87
21.86667,87
21.87500,87
21.88333,87
21.89167,88
21.90000,88
21.90833,88
21.91667,88
21.92500,87
21.93333,87
21.94167,87
21.95000,87
21.95833,87
21.96667,87
21.97500,87
21.98333,87
21.99167,87
22.00000,87
22.00833,87
22.01667,87
22.02500,87
22.03333,87
22.04167,87
22.05000,87
22.05833,87
22.06667,87
22.07500,87
22.08333,87
22.09167,87
22.10000,87
22.10833,88
22.11667,87
22.12500,87
22.13333,87
22.14167,87
22.15000,87
22.15833,87
22.16667,87
22.17500,87
22.18333,87
22.19167,87
22.20000,86
22.20833,86
22.21667,86
22.22500,87
22.23333,87
22.24167,87
22.25000,87
22.25833,87
22.26667,86
22.27500,87
22.28333,86
22.29167,87
22.30000,87
22.30833,87
22.31667,87
22.32500,87
22.33333,86
22.34167,86
22.35000,86
22.35833,86
22.36667,86
22.37500,86
22.38333,85
22.39167,85
22.40000,85
22.40833,86
22.41667,86
22.42500,86
22.43333,86
22.44167,87
22.45000,87
22.45833,87
22.46667,87
22.47500,86
22.48333,86
22.49167,86
22.50000,86
22.50833,86
22.51667,86
22.52500,86
22.53333,86
22.54167,86
22.55000,86
22.55833,86
22.56667,87
22.57500,87
22.58333,87
22.59167,87
22.60000,87
22.60833,86
22.61667,86
22.62500,87
22.63333,86
22.64167,86
22.65000,86
22.65833,86
22.66667,86
22.67500,86
22.68333,86
22.69167,86
22.70000,86
22.70833,87
22.71667,87
22.72500,87
22.73333,87
22.74167,87
22.75000,87
22.75833,86
22.76667,86
22.77500,86
22.78333,87
22.79167,87
22.80000,87
22.80833,87
22.81667,87
22.82500,88
22.83333,88
22.84167,88
22.85000,88
22.85833,88
22.86667,88
22.87500,88
22.88333,89
22.89167,89
22.90000,90
22.90833,90
22.91667,91
22.92500,92
22.93333,92
22.94167,93
22.95000,93
22.95833,94
22.96667,94
22.97500,95
22.98333,96
22.99167,96
23.00000,97
23.00833,97
23.01667,98
23.02500,98
23.03333,99
23.04167,100
23.05000,100
23.05833,101
23.06667,102
23.07500,103
23.08333,104
23.09167,104
23.10000,105
23.10833,106
23.11667,107
23.12500,107
23.13333,108
23.14167,108
23.15000,109
23.15833,110
23.16667,111
23.17500,111
23.18333,111
23.19167,112
23.20000,112
23.20833,112
23.21667,112
23.22500,112
23.23333,112
23.24167,111
23.25000,111
23.25833,111
23.26667,110
23.27500,110
23.28333,110
23.29167,110
23.30000,110
23.30833,110
23.31667,110
23.32500,109
23.33333,109
23.34167,109
23.35000,108
23.35833,107
23.36667,106
23.37500,106
23.38333,105
23.39167,104
23.40000,104
23.40833,103
23.41667,103
23.42500,102
23.43333,101
23.44167,101
23.45000,100
23.45833,99
23.46667,99
23.47500,98
23.48333,97
23.49167,96
23.50000,96
23.50833,96
23.51667,95
23.52500,95
23.53333,94
23.54167,93
23.55000,93
23.55833,92
23.56667,92
23.57500,91
23.58333,91
23.59167,90
23.60000,90
23.60833,90
23.61667,90
23.62500,90
23.63333,90
23.64167,90
23.65000,89
23.65833,89
23.66667,90
23.67500,90
23.68333,89
23.69167,89
23.70000,89
23.70833,89
23.71667,89
23.72500,89
23.73333,89
23.74167,89
23.75000,89
23.75833,89
23.76667,89
23.77500,89
23.78333,89
23.79167,88
23.80000,88
23.80833,88
23.81667,88
23.82500,88
23.83333,88
23.84167,88
23.85000,88
23.85833,88
23.86667,89
23.87500,89
23.88333,88
23.89167,88
23.90000,88
23.90833,88
23.91667,88
23.92500,87
23.93333,87
23.94167,88
23.95000,88
23.95833,88
23.96667,89
23.97500,89
23.98333,89
23.99167,89
24.00000,89
24.00833,89
24.01667,88
24.02500,88
24.03333,88
24.04167,88
24.05000,88
24.05833,88
24.06667,88
24.07500,88
24.08333,88
24.09167,88
24.10000,88
24.10833,88
24.11667,88
24.12500,88
24.13333,89
24.14167,89
24.15000,89
24.15833,89
24.16667,89
24.17500,89
24.18333,89
24.19167,89
24.20000,89
24.20833,89
24.21667,89
24.22500,89
24.23333,89
24.24167,89
24.25000,89
24.25833,90
24.26667,90
24.27500,90
24.28333,90
24.29167,89
24.30000,89
24.30833,89
24.31667,89
24.32500,90
24.33333,90
24.34167,90
24.35000,90
24.35833,90
24.36667,90
24.37500,90
24.38333,90
24.39167,91
24.40000,91
24.40833,91
24.41667,91
24.42500,91
24.43333,91
24.44167,91
24.45000,91
24.45833,91
24.46667,91
24.47500,91
24.48333,92
24.49167,92
24.50000,92
24.50833,93
24.51667,93
24.52500,94
24.53333,94
24.54167,95
24.55000,96
24.55833,96
24.56667,97
24.57500,97
24.58333,97
24.59167,98
24.60000,98
24.60833,99
24.61667,100
24.62500,100
24.63333,101
24.64167,102
24.65000,103
24.65833,104
24.66667,105
24.67500,106
24.68333,108
24.69167,109
24.70000,110
24.70833,112
24.71667,114
24.72500,116
24.73333,118
24.74167,120
24.75000,122
24.75833,124
24.76667,127
24.77500,129
24.78333,132
24.79167,134
24.80000,137
24.80833,139
24.81667,142
24.82500,145
24.83333,147
24.84167,150
24.85000,153
24.85833,156
24.86667,159
24.87500,163
24.88333,166
24.89167,168
24.90000,171
24.90833,174
24.91667,176
24.92500,178
24.93333,180
24.94167,182
24.95000,185
24.95833,187
24.96667,189
24.97500,191
24.98333,192
24.99167,193
25.00000,194
25.00833,195
25.01667,196
25.02500,197
25.03333,197
25.04167,197
25.05000,197
25.05833,197
25.06667,197
25.07500,197
25.08333,196
25.09167,195
25.10000,194
25.10833,193
25.11667,192
25.12500,190
25.13333,189
25.14167,187
25.15000,185
25.15833,182
25.16667,180
25.17500,177
25.18333,174
25.19167,172
25.20000,170
25.20833,167
25.21667,165
25.22500,162
25.23333,160
25.24167,157
25.25000,154
25.25833,152
25.26667,149
25.27500,147
25.28333,144
25.29167,142
25.30000,140
25.30833,137
25.31667,135
25.32500,133
25.33333,130
25.34167,129
25.35000,127
25.35833,125
25.36667,123
25.37500,121
25.38333,120
25.39167,118
25.40000,117
25.40833,116
25.41667,114
25.42500,113
25.43333,111
25.44167,111
25.45000,110
25.45833,109
25.46667,108
25.47500,107
25.48333,106
25.49167,105
25.50000,105
25.50833,104
25.51667,104
25.52500,103
25.53333,103
25.54167,103
25.55000,102
25.55833,101
25.56667,101
25.57500,100
25.58333,100
25.59167,100
25.60000,99
25.60833,99
25.61667,99
25.62500,99
25.63333,99
25.64167,99
25.65000,99
25.65833,98
25.66667,98
25.67500,98
25.68333,98
25.69167,98
25.70000,98
25.70833,98
25.71667,98
25.72500,98
25.73333,99
25.74167,99
25.75000,99
25.75833,98
25.76667,98
25.77500,98
25.78333,98
25.79167,98
25.80000,98
25.80833,98
25.81667,99
25.82500,99
25.83333,98
25.84167,98
25.85000,98
25.85833,99
25.86667,98
25.87500,98
25.88333,98
25.89167,98
25.90000,98
25.90833,98
25.91667,98
25.92500,99
25.93333,99
25.94167,99
25.95000,99
25.95833,99
25.96667,99
25.97500,98
25.98333,98
25.99167,98
26.00000,99
26.00833,99
26.01667,99
26.02500,99
26.03333,99
26.04167,99
26.05000,99
26.05833,99
26.06667,99
26.07500,100
26.08333,100
26.09167,99
26.10000,99
26.10833,99
26.11667,100
26.12500,100
26.13333,100
26.14167,100
26.15000,100
26.15833,100
26.16667,100
26.17500,101
26.18333,101
26.19167,101
26.20000,101
26.20833,101
26.21667,101
26.22500,101
26.23333,101
26.24167,101
26.25000,101
26.25833,101
26.26667,101
26.27500,101
26.28333,101
26.29167,101
26.30000,101
26.30833,101
26.31667,101
26.32500,102
26.33333,102
26.34167,102
26.35000,102
26.35833,102
26.36667,102
26.37500,102
26.38333,102
26.39167,102
26.40000,102
26.40833,102
26.41667,101
26.42500,101
26.43333,102
26.44167,102
26.45000,102
26.45833,102
26.46667,102
26.47500,102
26.48333,102
26.49167,102
26.50000,102
26.50833,102
26.51667,102
26.52500,102
26.53333,102
26.54167,102
26.55000,103
26.55833,103
26.56667,103
26.57500,103
26.58333,103
26.59167,103
26.60000,103
26.60833,103
26.61667,103
26.62500,103
26.63333,103
26.64167,103
26.65000,103
26.65833,103
26.66667,103
26.67500,103
26.68333,104
26.69167,104
26.70000,104
26.70833,104
26.71667,104
26.72500,105
26.73333,105
26.74167,105
26.75000,104
26.75833,105
26.76667,105
26.77500,105
26.78333,105
26.79167,105
26.80000,105
26.80833,105
26.81667,105
26.82500,105
26.83333,105
26.84167,105
26.85000,105
26.85833,105
26.86667,106
26.87500,106
26.88333,106
26.89167,106
26.90000,106
26.90833,105
26.91667,105
26.92500,106
26.93333,106
26.94167,106
26.95000,106
26.95833,106
26.96667,105
26.97500,106
26.98333,106
26.99167,106
27.00000,106
27.00833,106
27.01667,106
27.02500,107
27.03333,107
27.04167,107
27.05000,107
27.05833,107
27.06667,107
27.07500,108
27.08333,108
27.09167,108
27.10000,108
27.10833,108
27.11667,108
27.12500,108
27.13333,108
27.14167,108
27.15000,109
27.15833,109
27.16667,108
27.17500,108
27.18333,108
27.19167,108
27.20000,108
27.20833,108
27.21667,108
27.22500,108
27.23333,109
27.24167,108
27.25000,109
27.25833,109
27.26667,109
27.27500,109
27.28333,109
27.29167,109
27.30000,110
27.30833,110
27.31667,109
27.32500,109
27.33333,109
27.34167,110
27.35000,110
27.35833,110
27.36667,110
27.37500,110
27.38333,110
27.39167,110
27.40000,110
27.40833,110
27.41667,110
27.42500,109
27.43333,109
27.44167,109
27.45000,109
27.45833,109
27.46667,110
27.47500,110
27.48333,110
27.49167,111
27.50000,111
27.50833,111
27.51667,111
27.52500,111
27.53333,112
27.54167,112
27.55000,111
27.55833,112
27.56667,112
27.57500,112
27.58333,112
27.59167,112
27.60000,111
27.60833,111
27.61667,111
27.62500,111
27.63333,111
27.64167,111
27.65000,111
27.65833,112
27.66667,112
27.67500,111
27.68333,112
27.69167,112
27.70000,112
27.70833,111
27.71667,111
27.72500,111
27.73333,111
27.74167,111
27.75000,110
27.75833,110
27.76667,110
27.77500,110
27.78333,110
27.79167,110
27.80000,110
27.80833,110
27.81667,109
27.82500,109
27.83333,109
27.84167,109
27.85000,109
27.85833,108
27.86667,108
27.87500,108
27.88333,107
27.89167,107
27.90000,106
27.90833,105
27.91667,105
27.92500,104
27.93333,103
27.94167,102
27.95000,100
27.95833,99
27.96667,98
27.97500,97
27.98333,96
27.99167,95
28.00000,93
28.00833,92
28.01667,90
28.02500,88
28.03333,87
28.04167,85
28.05000,83
28.05833,81
28.06667,79
28.07500,77
28.08333,74
28.09167,72
28.10000,69
28.10833,67
28.11667,64
28.12500,62
28.13333,59
28.14167,57
28.15000,54
28.15833,51
28.16667,48
28.17500,45
28.18333,42
28.19167,38
28.20000,35
28.20833,31
28.21667,28
28.22500,25
28.23333,22
28.24167,19
28.25000,15
28.25833,12
28.26667,9
28.27500,7
28.28333,3
28.29167,0
28.30000,-3
28.30833,-6
28.31667,-9
28.32500,-12
28.33333,-15
28.34167,-18
28.35000,-20
28.35833,-23
28.36667,-25
28.37500,-28
28.38333,-30
28.39167,-32
28.40000,-34
28.40833,-35
28.41667,-37
28.42500,-38
28.43333,-40
28.44167,-40
28.45000,-41
28.45833,-41
28.46667,-42
28.47500,-42
28.48333,-43
28.49167,-43
28.50000,-43
28.50833,-42
28.51667,-42
28.52500,-41
28.53333,-40
28.54167,-39
28.55000,-37
28.55833,-35
28.56667,-33
28.57500,-32
28.58333,-30
28.59167,-28
28.60000,-26
28.60833,-24
28.61667,-22
28.62500,-20
28.63333,-17
28.64167,-15
28.65000,-12
28.65833,-9
28.66667,-6
28.67500,-3
28.68333,-0
28.69167,2
28.70000,5
28.70833,8
28.71667,11
28.72500,14
28.73333,17
28.74167,20
28.75000,23
28.75833,25
28.76667,28
28.77500,31
28.78333,34
28.79167,37
28.80000,39
28.80833,42
28.81667,44
28.82500,47
28.83333,49
28.84167,51
28.85000,54
28.85833,56
28.86667,58
28.87500,60
28.88333,63
28.89167,65
28.90000,67
28.90833,69
28.91667,70
28.92500,72
28.93333,74
28.94167,76
28.95000,78
28.95833,80
28.96667,81
28.97500,83
28.98333,84
28.99167,85
29.00000,86
29.00833,87
29.01667,89
29.02500,90
29.03333,90
29.04167,91
29.05000,92
29.05833,93
29.06667,94
29.07500,95
29.08333,96
29.09167,97
29.10000,98
29.10833,99
29.11667,99
29.12500,100
29.13333,101
29.14167,101
29.15000,102
29.15833,102
29.16667,102
29.17500,103
29.18333,103
29.19167,104
29.20000,104
29.20833,104
29.21667,104
29.22500,105
29.23333,105
29.24167,106
29.25000,106
29.25833,106
29.26667,107
29.27500,107
29.28333,107
29.29167,107
29.30000,108
29.30833,108
29.31667,108
29.32500,108
29.33333,109
29.34167,109
29.35000,109
29.35833,110
29.36667,110
29.37500,110
29.38333,110
29.39167,110
29.40000,110
29.40833,110
29.41667,110
29.42500,110
29.43333,110
29.44167,110
29.45000,110
29.45833,110
29.46667,110
29.47500,110
29.48333,110
29.49167,110
29.50000,110
29.50833,110
29.51667,110
29.52500,110
29.53333,110
29.54167,109
29.55000,109
29.55833,109
29.56667,109
29.57500,109
29.58333,109
29.59167,109
29.60000,109
29.60833,108
29.61667,108
29.62500,107
29.63333,107
29.64167,106
29.65000,106
29.65833,106
29.66667,105
29.67500,106
29.68333,106
29.69167,106
29.70000,105
29.70833,104
29.71667,104
29.72500,103
29.73333,103
29.74167,102
29.75000,101
29.75833,101
29.76667,100
29.77500,100
29.78333,99
29.79167,98
29.80000,98
29.80833,98
29.81667,97
29.82500,96
29.83333,95
29.84167,94
29.85000,93
29.85833,93
29.86667,92
29.87500,91
29.88333,89
29.89167,88
29.90000,87
29.90833,86
29.91667,85
29.92500,85
29.93333,84
29.94167,83
29.95000,82
29.95833,80
29.96667,79
29.97500,78
29.98333,77
29.99167,76
30.00000,75
30.00833,74
30.01667,73
30.02500,72
30.03333,70
30.04167,69
30.05000,68
30.05833,67
30.06667,66
30.07500,65
30.08333,64
30.09167,63
30.10000,63
30.10833,62
30.11667,61
30.12500,61
30.13333,60
30.14167,59
30.15000,59
30.15833,58
30.16667,57
30.17500,57
30.18333,56
30.19167,56
30.20000,55
30.20833,55
30.21667,55
30.22500,55
30.23333,56
30.24167,56
30.25000,57
30.25833,57
30.26667,57
30.27500,57
30.28333,58
30.29167,58
30.30000,58
30.30833,58
30.31667,58
30.32500,59
30.33333,59
30.34167,60
30.35000,61
30.35833,62
30.36667,63
30.37500,64
30.38333,65
30.39167,65
30.40000,66
30.40833,67
30.41667,68
30.42500,69
30.43333,70
30.44167,71
30.45000,73
30.45833,74
30.46667,75
30.47500,76
30.48333,78
30.49167,79
30.50000,80
30.50833,80
30.51667,81
30.52500,82
30.53333,83
30.54167,83
30.55000,84
30.55833,85
30.56667,86
30.57500,86
30.58333,87
30.59167,88
30.60000,89
30.60833,90
30.61667,91
30.62500,91
30.63333,92
30.64167,93
30.65000,93
30.65833,94
30.66667,95
30.67500,95
30.68333,96
30.69167,96
30.70000,97
30.70833,98
30.71667,98
30.72500,99
30.73333,99
30.74167,99
30.75000,100
30.75833,100
30.76667,101
30.77500,101
30.78333,101
30.79167,101
30.80000,101
30.80833,101
30.81667,101
30.82500,101
30.83333,101
30.84167,101
30.85000,102
30.85833,102
30.86667,102
30.87500,102
30.88333,101
30.89167,101
30.90000,101
30.90833,101
30.91667,100
30.92500,100
30.93333,100
30.94167,100
30.95000,101
30.95833,101
30.96667,101
30.97500,101
30.98333,101
30.99167,101
31.00000,101
31.00833,101
31.01667,101
31.02500,101
31.03333,101
31.04167,101
31.05000,101
31.05833,101
31.06667,101
31.07500,101
31.08333,101
31.09167,101
31.10000,101
31.10833,101
31.11667,101
31.12500,101
31.13333,101
31.14167,101
31.15000,101
31.15833,101
31.16667,101
31.17500,102
31.18333,103
31.19167,103
31.20000,103
31.20833,103
31.21667,104
31.22500,104
31.23333,104
31.24167,104
31.25000,104
31.25833,104
31.26667,104
31.27500,105
31.28333,105
31.29167,106
31.30000,106
31.30833,106
31.31667,107
31.32500,107
31.33333,107
31.34167,107
31.35000,107
31.35833,108
31.36667,108
31.37500,109
31.38333,109
31.39167,110
31.40000,110
31.40833,111
31.41667,112
31.42500,113
31.43333,113
31.44167,113
31.45000,113
31.45833,114
31.46667,114
31.47500,115
31.48333,115
31.49167,116
31.50000,116
31.50833,116
31.51667,117
31.52500,117
31.53333,117
31.54167,118
31.55000,118
31.55833,119
31.56667,120
31.57500,120
31.58333,121
31.59167,121
31.60000,121
31.60833,121
31.61667,122
31.62500,122
31.63333,122
31.64167,122
31.65000,122
31.65833,122
31.66667,122
31.67500,122
31.68333,122
31.69167,123
31.70000,123
31.70833,124
31.71667,124
31.72500,125
31.73333,125
31.74167,125
31.75000,125
31.75833,125
31.76667,124
31.77500,124
31.78333,124
31.79167,125
31.80000,125
31.80833,125
31.81667,125
31.82500,125
31.83333,125
31.84167,125
31.85000,125
31.85833,125
31.86667,125
31.87500,125
31.88333,125
31.89167,124
31.90000,124
31.90833,124
31.91667,124
31.92500,124
31.93333,124
31.94167,124
31.95000,124
31.95833,124
31.96667,124
31.97500,124
31.98333,124
31.99167,124
32.00000,124
32.00833,124
32.01667,124
32.02500,124
32.03333,124
32.04167,123
32.05000,123
32.05833,123
32.06667,123
32.07500,123
32.08333,123
32.09167,123
32.10000,124
32.10833,124
32.11667,123
32.12500,123
32.13333,123
32.14167,123
32.15000,122
32.15833,122
32.16667,122
32.17500,122
32.18333,122
32.19167,122
32.20000,122
32.20833,122
32.21667,123
32.22500,123
32.23333,123
32.24167,123
32.25000,123
32.25833,122
32.26667,122
32.27500,122
32.28333,122
32.29167,122
32.30000,122
32.30833,122
32.31667,122
32.32500,122
32.33333,122
32.34167,122
32.35000,122
32.35833,122
32.36667,122
32.37500,122
32.38333,123
32.39167,123
32.40000,123
32.40833,122
32.41667,122
32.42500,122
32.43333,122
32.44167,122
32.45000,122
32.45833,122
32.46667,122
32.47500,122
32.48333,122
32.49167,122
32.50000,122
32.50833,123
32.51667,122
32.52500,122
32.53333,122
32.54167,122
32.55000,123
32.55833,123
32.56667,123
32.57500,122
32.58333,123
32.59167,123
32.60000,122
32.60833,123
32.61667,123
32.62500,123
32.63333,123
32.64167,123
32.65000,123
32.65833,122
32.66667,122
32.67500,123
32.68333,123
32.69167,123
32.70000,123
32.70833,123
32.71667,123
32.72500,123
32.73333,123
32.74167,123
32.75000,124
32.75833,124
32.76667,123
32.77500,123
32.78333,123
32.79167,123
32.80000,123
32.80833,123
32.81667,123
32.82500,123
32.83333,123
32.84167,123
32.85000,124
32.85833,124
32.86667,124
32.87500,124
32.88333,124
32.89167,124
32.90000,124
32.90833,123
32.91667,123
32.92500,123
32.93333,123
32.94167,123
32.95000,123
32.95833,123
32.96667,123
32.97500,123
32.98333,123
32.99167,123
33.00000,123
33.00833,123
33.01667,123
33.02500,123
33.03333,123
33.04167,123
33.05000,123
33.05833,123
33.06667,123
33.07500,124
33.08333,124
33.09167,124
33.10000,124
33.10833,124
33.11667,123
33.12500,123
33.13333,124
33.14167,124
33.15000,124
33.15833,124
33.16667,124
33.17500,124
33.18333,124
33.19167,124
33.20000,124
33.20833,125
33.21667,125
33.22500,125
33.23333,125
33.24167,125
33.25000,125
33.25833,125
33.26667,124
33.27500,125
33.28333,125
33.29167,125
33.30000,125
33.30833,125
33.31667,125
33.32500,125
33.33333,125
33.34167,125
33.35000,125
33.35833,125
33.36667,125
33.37500,125
33.38333,125
33.39167,125
33.40000,125
33.40833,125
33.41667,125
33.42500,125
33.43333,125
33.44167,125
33.45000,125
33.45833,125
33.46667,125
33.47500,125
33.48333,125
33.49167,125
33.50000,125
33.50833,126
33.51667,126
33.52500,126
33.53333,126
33.54167,126
33.55000,126
33.55833,126
33.56667,126
33.57500,126
33.58333,126
33.59167,126
33.60000,126
33.60833,126
33.61667,126
33.62500,126
33.63333,126
33.64167,126
33.65000,126
33.65833,126
33.66667,126
33.67500,126
33.68333,126
33.69167,126
33.70000,126
33.70833,126
33.71667,127
33.72500,127
33.73333,126
33.74167,126
33.75000,126
33.75833,126
33.76667,126
33.77500,126
33.78333,127
33.79167,127
33.80000,127
33.80833,127
33.81667,126
33.82500,126
33.83333,127
33.84167,126
33.85000,127
33.85833,127
33.86667,127
33.87500,127
33.88333,128
33.89167,128
33.90000,128
33.90833,128
33.91667,128
33.92500,128
33.93333,128
33.94167,127
33.95000,127
33.95833,127
33.96667,127
33.97500,127
33.98333,127
33.99167,127
34.00000,127
34.00833,128
34.01667,128
34.02500,128
34.03333,128
34.04167,128
34.05000,128
34.05833,129
34.06667,129
34.07500,129
34.08333,129
34.09167,129
34.10000,129
34.10833,129
34.11667,129
34.12500,129
34.13333,129
34.14167,129
34.15000,129
34.15833,128
34.16667,128
34.17500,128
34.18333,128
34.19167,128
34.20000,128
34.20833,129
34.21667,129
34.22500,130
34.23333,130
34.24167,130
34.25000,130
34.25833,130
34.26667,130
34.27500,130
34.28333,130
34.29167,130
34.30000,130
34.30833,130
34.31667,130
34.32500,130
34.33333,131
34.34167,131
34.35000,131
34.35833,131
34.36667,131
34.37500,131
34.38333,131
34.39167,131
34.40000,131
34.40833,131
34.41667,131
34.42500,131
34.43333,131
34.44167,131
34.45000,131
34.45833,131
34.46667,131
34.47500,131
34.48333,131
34.49167,130
34.50000,130
34.50833,130
34.51667,131
34.52500,131
34.53333,131
34.54167,130
34.55000,131
34.55833,131
34.56667,131
34.57500,131
34.58333,131
34.59167,131
34.60000,131
34.60833,131
34.61667,132
34.62500,132
34.63333,132
34.64167,132
34.65000,132
34.65833,132
34.66667,132
34.67500,132
34.68333,131
34.69167,131
34.70000,132
34.70833,132
34.71667,131
34.72500,131
34.73333,131
34.74167,132
34.75000,133
34.75833,133
34.76667,133
34.77500,133
34.78333,133
34.79167,133
34.80000,133
34.80833,132
34.81667,132
34.82500,132
34.83333,132
34.84167,132
34.85000,132
34.85833,132
34.86667,132
34.87500,132
34.88333,132
34.89167,132
34.90000,132
34.90833,132
34.91667,132
34.92500,132
34.93333,132
34.94167,133
34.95000,133
34.95833,133
34.96667,133
34.97500,133
34.98333,133
34.99167,133
35.00000,133
35.00833,134
35.01667,134
35.02500,134
35.03333,134
35.04167,134
35.05000,134
35.05833,134
35.06667,133
35.07500,133
35.08333,133
35.09167,133
35.10000,133
35.10833,133
35.11667,133
35.12500,133
35.13333,133
35.14167,133
35.15000,133
35.15833,133
35.16667,133
35.17500,134
35.18333,134
35.19167,133
35.20000,133
35.20833,133
35.21667,133
35.22500,133
35.23333,134
35.24167,134
35.25000,133
35.25833,133
35.26667,133
35.27500,133
35.28333,133
35.29167,133
35.30000,133
35.30833,132
35.31667,132
35.32500,132
35.33333,132
35.34167,132
35.35000,132
35.35833,132
35.36667,132
35.37500,132
35.38333,132
35.39167,133
35.40000,133
35.40833,133
35.41667,133
35.42500,133
35.43333,132
35.44167,132
35.45000,132
35.45833,132
35.46667,132
35.47500,132
35.48333,133
35.49167,133
35.50000,133
35.50833,133
35.51667,133
35.52500,132
35.53333,132
35.54167,132
35.55000,132
35.55833,132
35.56667,132
35.57500,132
35.58333,133
35.59167,133
35.60000,133
35.60833,133
35.61667,133
35.62500,133
35.63333,133
35.64167,133
35.65000,133
35.65833,133
35.66667,133
35.67500,133
35.68333,133
35.69167,133
35.70000,133
35.70833,132
35.71667,132
35.72500,132
35.73333,132
35.74167,133
35.75000,133
35.75833,133
35.76667,133
35.77500,133
35.78333,133
35.79167,133
35.80000,132
35.80833,132
35.81667,132
35.82500,132
35.83333,133
35.84167,133
35.85000,133
35.85833,132
35.86667,132
35.87500,132
35.88333,132
35.89167,132
35.90000,132
35.90833,133
35.91667,133
35.92500,133
35.93333,133
35.94167,133
35.95000,133
35.95833,133
35.96667,133
35.97500,133
35.98333,133
35.99167,133
36.00000,133
36.00833,133
36.01667,133
36.02500,133
36.03333,133
36.04167,133
36.05000,133
36.05833,133
36.06667,133
36.07500,133
36.08333,133
36.09167,133
36.10000,133
36.10833,133
36.11667,133
36.12500,133
36.13333,133
36.14167,132
36.15000,132
36.15833,132
36.16667,132
36.17500,132
36.18333,132
36.19167,132
36.20000,132
36.20833,132
36.21667,132
36.22500,132
36.23333,132
36.24167,132
36.25000,132
36.25833,132
36.26667,132
36.27500,132
36.28333,132
36.29167,133
36.30000,133
36.30833,133
36.31667,133
36.32500,134
36.33333,134
36.34167,133
36.35000,133
36.35833,133
36.36667,133
36.37500,133
36.38333,133
36.39167,133
36.40000,133
36.40833,133
36.41667,133
36.42500,133
36.43333,132
36.44167,132
36.45000,132
36.45833,132
36.46667,132
36.47500,132
36.48333,132
36.49167,132
36.50000,132
36.50833,132
36.51667,132
36.52500,132
36.53333,132
36.54167,132
36.55000,132
36.55833,132
36.56667,132
36.57500,132
36.58333,132
36.59167,132
36.60000,132
36.60833,132
36.61667,132
36.62500,132
36.63333,132
36.64167,133
36.65000,133
36.65833,133
36.66667,134
36.67500,134
36.68333,134
36.69167,134
36.70000,134
36.70833,134
36.71667,133
36.72500,133
36.73333,133
36.74167,133
36.75000,133
36.75833,133
36.76667,133
36.77500,133
36.78333,133
36.79167,133
36.80000,133
36.80833,133
36.81667,133
36.82500,133
36.83333,133
36.84167,133
36.85000,133
36.85833,133
36.86667,133
36.87500,133
36.88333,133
36.89167,133
36.90000,133
36.90833,134
36.91667,134
36.92500,134
36.93333,134
36.94167,135
36.95000,135
36.95833,135
36.96667,134
36.97500,134
36.98333,134
36.99167,134
37.00000,135
37.00833,135
37.01667,135
37.02500,135
37.03333,135
37.04167,136
37.05000,136
37.05833,136
37.06667,136
37.07500,136
37.08333,136
37.09167,136
37.10000,135
37.10833,135
37.11667,135
37.12500,134
37.13333,134
37.14167,134
37.15000,135
37.15833,135
37.16667,135
37.17500,135
37.18333,135
37.19167,135
37.20000,135
37.20833,135
37.21667,135
37.22500,135
37.23333,135
37.24167,135
37.25000,136
37.25833,136
37.26667,136
37.27500,136
37.28333,136
37.29167,136
37.30000,136
37.30833,136
37.31667,135
37.32500,135
37.33333,135
37.34167,136
37.35000,136
37.35833,136
37.36667,136
37.37500,136
37.38333,136
37.39167,136
37.40000,136
37.40833,136
37.41667,136
37.42500,137
37.43333,137
37.44167,137
37.45000,137
37.45833,137
37.46667,136
37.47500,137
37.48333,137
37.49167,137
37.50000,137
37.50833,137
37.51667,137
37.52500,136
37.53333,136
37.54167,136
37.55000,136
37.55833,136
37.56667,136
37.57500,137
37.58333,137
37.59167,137
37.60000,136
37.60833,136
37.61667,136
37.62500,136
37.63333,136
37.64167,136
37.65000,137
37.65833,137
37.66667,137
37.67500,137
37.68333,137
37.69167,138
37.70000,138
37.70833,138
37.71667,138
37.72500,138
37.73333,138
37.74167,138
37.75000,138
37.75833,138
37.76667,138
37.77500,138
37.78333,138
37.79167,138
37.80000,138
37.80833,138
37.81667,138
37.82500,138
37.83333,139
37.84167,139
37.85000,139
37.85833,139
37.86667,138
37.87500,138
37.88333,138
37.89167,138
37.90000,138
37.90833,138
37.91667,137
37.92500,137
37.93333,138
37.94167,138
37.95000,138
37.95833,138
37.96667,138
37.97500,138
37.98333,138
37.99167,138
38.00000,139
38.00833,139
38.01667,139
38.02500,138
38.03333,138
38.04167,138
38.05000,138
38.05833,138
38.06667,138
38.07500,138
38.08333,138
38.09167,138
38.10000,139
38.10833,139
38.11667,138
38.12500,138
38.13333,138
38.14167,138
38.15000,138
38.15833,137
38.16667,138
38.17500,138
38.18333,138
38.19167,138
38.20000,138
38.20833,138
38.21667,138
38.22500,138
38.23333,139
38.24167,139
38.25000,139
38.25833,138
38.26667,138
38.27500,138
38.28333,138
38.29167,139
38.30000,139
38.30833,139
38.31667,139
38.32500,139
38.33333,139
38.34167,139
38.35000,139
38.35833,139
38.36667,139
38.37500,140
38.38333,140
38.39167,140
38.40000,140
38.40833,140
38.41667,140
38.42500,139
38.43333,139
38.44167,139
38.45000,140
38.45833,140
38.46667,140
38.47500,140
38.48333,140
38.49167,140
38.50000,140
38.50833,140
38.51667,140
38.52500,140
38.53333,140
38.54167,140
38.55000,140
38.55833,140
38.56667,140
38.57500,139
38.58333,139
38.59167,139
38.60000,139
38.60833,138
38.61667,138
38.62500,138
38.63333,139
38.64167,139
38.65000,139
38.65833,140
38.66667,141
38.67500,141
38.68333,141
38.69167,141
38.70000,141
38.70833,141
38.71667,141
38.72500,140
38.73333,140
38.74167,140
38.75000,140
38.75833,141
38.76667,140
38.77500,141
38.78333,140
38.79167,140
38.80000,140
38.80833,141
38.81667,141
38.82500,141
38.83333,141
38.84167,141
38.85000,141
38.85833,141
38.86667,141
38.87500,141
38.88333,141
38.89167,141
38.90000,141
38.90833,141
38.91667,141
38.92500,141
38.93333,141
38.94167,141
38.95000,141
38.95833,141
38.96667,140
38.97500,140
38.98333,140
38.99167,140
39.00000,140
39.00833,140
39.01667,140
39.02500,140
39.03333,140
39.04167,140
39.05000,141
39.05833,141
39.06667,140
39.07500,140
39.08333,140
39.09167,140
39.10000,140
39.10833,140
39.11667,140
39.12500,140
39.13333,141
39.14167,141
39.15000,141
39.15833,141
39.16667,141
39.17500,141
39.18333,141
39.19167,141
39.20000,141
39.20833,141
39.21667,141
39.22500,141
39.23333,141
39.24167,141
39.25000,141
39.25833,141
39.26667,141
39.27500,141
39.28333,141
39.29167,140
39.30000,140
39.30833,140
39.31667,140
39.32500,140
39.33333,140
39.34167,141
39.35000,141
39.35833,141
39.36667,141
39.37500,141
39.38333,141
39.39167,141
39.40000,141
39.40833,141
39.41667,141
39.42500,142
39.43333,142
39.44167,142
39.45000,142
39.45833,142
39.46667,141
39.47500,141
39.48333,141
39.49167,141
39.50000,141
39.50833,141
39.51667,142
39.52500,142
39.53333,143
39.54167,142
39.55000,142
39.55833,142
39.56667,142
39.57500,142
39.58333,142
39.59167,142
39.60000,142
39.60833,142
39.61667,143
39.62500,143
39.63333,142
39.64167,142
39.65000,142
39.65833,142
39.66667,142
39.67500,142
39.68333,142
39.69167,142
39.70000,142
39.70833,143
39.71667,143
39.72500,143
39.73333,143
39.74167,143
39.75000,143
39.75833,143
39.76667,143
39.77500,143
39.78333,143
39.79167,143
39.80000,144
39.80833,144
39.81667,144
39.82500,144
39.83333,143
39.84167,143
39.85000,143
39.85833,143
39.86667,143
39.87500,143
39.88333,143
39.89167,143
39.90000,143
39.90833,143
39.91667,143
39.92500,143
39.93333,143
39.94167,143
39.95000,143
39.95833,143
39.96667,143
39.97500,143
39.98333,143
39.99167,143
40.00000,143

