[Header]
Application Name,LabSolutions
Version,5.97 SP1
Data File Name,C:\Users\cremerlab\Desktop\griffin\2021-03-31_NCM3722_NCglucose_turnover\2021-03-31_NCM3722_turnover_batch_3312021_004_004.lcd
Output Date,3/31/2021
Output Time,9:14:20 PM

[File Information]
Type,Data File
Generated,3/31/2021 8:34:01 PM
Generated by,System Administrator
Modified,3/31/2021 9:14:20 PM
Modified by,System Administrator

[Sample Information]
Operator Name,System Administrator
Acquired,3/31/2021 8:34:20 PM
Sample Type,1:Standard
Level,4
Sample Name,2021-03-31_NCM3722_NCglucose_replicate_01_timepoint_004
Sample ID,004
ISTD Amount1,1
ISTD Amount2,1
ISTD Amount3,1
ISTD Amount4,1
ISTD Amount5,1
ISTD Amount6,1
ISTD Amount7,1
ISTD Amount8,1
ISTD Amount9,1
ISTD Amount10,1
ISTD Amount11,1
ISTD Amount12,1
ISTD Amount13,1
ISTD Amount14,1
ISTD Amount15,1
ISTD Amount16,1
ISTD Amount17,1
ISTD Amount18,1
ISTD Amount19,1
ISTD Amount20,1
ISTD Amount21,1
ISTD Amount22,1
ISTD Amount23,1
ISTD Amount24,1
ISTD Amount25,1
ISTD Amount26,1
ISTD Amount27,1
ISTD Amount28,1
ISTD Amount29,1
ISTD Amount30,1
ISTD Amount31,1
ISTD Amount32,1
Sample Amount,1
Dilution Factor,1
Vial#,13
Injection Volume,20

[Original Files]
Data File,C:\Users\cremerlab\Desktop\griffin\2021-03-31_NCM3722_NCglucose_turnover\2021-03-31_NCM3722_turnover_batch_3312021_004_004.lcd
Method File,C:\LabSolutions\Data\Project1\organicacidsetc2.lcm
Batch File,C:\Users\cremerlab\Desktop\griffin\2021-03-31_NCM3722_NCglucose_turnover\2021-03-31_NCM3722_turnover_batch.lcb
Report Format File,c:\LabSolutions\System\DEFAULT.lsr

[File Description]


[Configuration]
Instrument Name,HPLC-PC-Instrument1
Instrument #,1
Line #,1
# of Detectors,2
Detector ID,Detector A,Detector B
Detector Name,Detector A,Detector B
# of Channels,1,1

[Peak Table(Detector A)]
# of Peaks,0

[Peak Table(Detector B)]
# of Peaks,4
Peak#,R.Time,I.Time,F.Time,Area,Height,A/H,Conc.,Mark,ID#,Name,k',Plate #,Plate Ht.,Tailing,Resolution,Sep.Factor,Area Ratio,Height Ratio,Conc. %,Norm Conc.
1,11.055,10.750,12.408,1227609,71270,17.225,0.000,   ,,,0.000,10722,13.990,1.254,0.000,0.000,0,0,0.000,0.000
2,15.097,14.092,15.383,3171535,118858,26.683,0.000,   ,,,0.366,6980,21.490,0.000,7.031,0.000,0,0,0.000,0.000
3,15.628,15.383,18.550,962085,38616,24.914,0.000, V ,,,0.414,7760,19.331,0.000,0.742,1.132,0,0,0.000,0.000
4,25.044,24.575,25.658,6870,247,27.810,0.000,   ,,,1.265,17970,8.347,1.098,12.925,3.059,0,0,0.000,0.000

[LC Chromatogram(Detector B-Ch1)]
Interval(msec),500
# of Points,4801
Start Time(min),0.000
End Time(min),40.000
Intensity Units,mV
Intensity Multiplier,0.001
R.Time (min),Intensity
0.00000,0
0.00833,0
0.01667,-0
0.02500,0
0.03333,-0
0.04167,-0
0.05000,-1
0.05833,-1
0.06667,-0
0.07500,-0
0.08333,-0
0.09167,-0
0.10000,0
0.10833,0
0.11667,1
0.12500,1
0.13333,1
0.14167,1
0.15000,1
0.15833,1
0.16667,1
0.17500,0
0.18333,0
0.19167,0
0.20000,0
0.20833,-0
0.21667,-0
0.22500,-1
0.23333,-1
0.24167,-1
0.25000,-1
0.25833,-1
0.26667,-1
0.27500,-1
0.28333,-1
0.29167,-1
0.30000,-1
0.30833,-1
0.31667,-1
0.32500,-1
0.33333,-1
0.34167,-1
0.35000,-1
0.35833,-1
0.36667,-1
0.37500,-1
0.38333,-1
0.39167,-1
0.40000,-1
0.40833,-1
0.41667,-1
0.42500,-1
0.43333,-1
0.44167,-1
0.45000,-1
0.45833,-1
0.46667,-1
0.47500,-0
0.48333,-0
0.49167,-0
0.50000,-0
0.50833,-0
0.51667,-1
0.52500,-1
0.53333,-1
0.54167,-1
0.55000,-1
0.55833,-1
0.56667,-1
0.57500,-1
0.58333,-1
0.59167,-1
0.60000,-0
0.60833,-0
0.61667,-0
0.62500,-0
0.63333,-1
0.64167,-1
0.65000,-2
0.65833,-2
0.66667,-2
0.67500,-3
0.68333,-3
0.69167,-3
0.70000,-3
0.70833,-3
0.71667,-3
0.72500,-3
0.73333,-2
0.74167,-2
0.75000,-2
0.75833,-2
0.76667,-2
0.77500,-2
0.78333,-2
0.79167,-2
0.80000,-2
0.80833,-2
0.81667,-2
0.82500,-2
0.83333,-2
0.84167,-2
0.85000,-2
0.85833,-2
0.86667,-2
0.87500,-2
0.88333,-2
0.89167,-2
0.90000,-2
0.90833,-2
0.91667,-2
0.92500,-2
0.93333,-2
0.94167,-2
0.95000,-2
0.95833,-2
0.96667,-2
0.97500,-1
0.98333,-1
0.99167,-2
1.00000,-2
1.00833,-2
1.01667,-2
1.02500,-2
1.03333,-2
1.04167,-2
1.05000,-3
1.05833,-3
1.06667,-2
1.07500,-2
1.08333,-2
1.09167,-2
1.10000,-2
1.10833,-2
1.11667,-2
1.12500,-2
1.13333,-2
1.14167,-2
1.15000,-2
1.15833,-3
1.16667,-3
1.17500,-3
1.18333,-3
1.19167,-3
1.20000,-3
1.20833,-2
1.21667,-2
1.22500,-2
1.23333,-2
1.24167,-2
1.25000,-2
1.25833,-2
1.26667,-2
1.27500,-2
1.28333,-2
1.29167,-2
1.30000,-2
1.30833,-2
1.31667,-2
1.32500,-2
1.33333,-2
1.34167,-2
1.35000,-2
1.35833,-2
1.36667,-2
1.37500,-2
1.38333,-2
1.39167,-2
1.40000,-2
1.40833,-2
1.41667,-2
1.42500,-2
1.43333,-1
1.44167,-1
1.45000,-1
1.45833,-1
1.46667,-1
1.47500,-1
1.48333,-1
1.49167,-1
1.50000,-1
1.50833,-1
1.51667,-1
1.52500,-1
1.53333,-2
1.54167,-2
1.55000,-2
1.55833,-2
1.56667,-2
1.57500,-2
1.58333,-2
1.59167,-2
1.60000,-2
1.60833,-2
1.61667,-2
1.62500,-2
1.63333,-2
1.64167,-2
1.65000,-2
1.65833,-1
1.66667,-1
1.67500,-1
1.68333,-1
1.69167,-1
1.70000,-0
1.70833,-0
1.71667,-0
1.72500,-0
1.73333,-0
1.74167,-0
1.75000,-0
1.75833,-0
1.76667,-0
1.77500,-0
1.78333,0
1.79167,0
1.80000,0
1.80833,0
1.81667,1
1.82500,1
1.83333,1
1.84167,1
1.85000,2
1.85833,2
1.86667,2
1.87500,2
1.88333,2
1.89167,2
1.90000,1
1.90833,1
1.91667,1
1.92500,1
1.93333,2
1.94167,2
1.95000,2
1.95833,2
1.96667,2
1.97500,2
1.98333,2
1.99167,2
2.00000,2
2.00833,2
2.01667,2
2.02500,2
2.03333,2
2.04167,2
2.05000,2
2.05833,2
2.06667,2
2.07500,2
2.08333,2
2.09167,2
2.10000,2
2.10833,2
2.11667,2
2.12500,2
2.13333,2
2.14167,2
2.15000,2
2.15833,2
2.16667,2
2.17500,2
2.18333,2
2.19167,2
2.20000,2
2.20833,2
2.21667,1
2.22500,1
2.23333,1
2.24167,1
2.25000,1
2.25833,1
2.26667,1
2.27500,1
2.28333,1
2.29167,0
2.30000,0
2.30833,1
2.31667,1
2.32500,1
2.33333,1
2.34167,1
2.35000,1
2.35833,0
2.36667,-0
2.37500,-0
2.38333,-0
2.39167,1
2.40000,1
2.40833,1
2.41667,1
2.42500,0
2.43333,0
2.44167,0
2.45000,0
2.45833,0
2.46667,0
2.47500,0
2.48333,0
2.49167,-0
2.50000,-0
2.50833,-1
2.51667,-1
2.52500,-1
2.53333,-1
2.54167,-1
2.55000,-1
2.55833,-1
2.56667,-1
2.57500,-2
2.58333,-2
2.59167,-2
2.60000,-2
2.60833,-2
2.61667,-2
2.62500,-2
2.63333,-2
2.64167,-2
2.65000,-2
2.65833,-2
2.66667,-2
2.67500,-2
2.68333,-3
2.69167,-3
2.70000,-3
2.70833,-3
2.71667,-3
2.72500,-3
2.73333,-3
2.74167,-3
2.75000,-3
2.75833,-3
2.76667,-3
2.77500,-3
2.78333,-3
2.79167,-3
2.80000,-3
2.80833,-4
2.81667,-4
2.82500,-4
2.83333,-4
2.84167,-4
2.85000,-4
2.85833,-3
2.86667,-3
2.87500,-3
2.88333,-3
2.89167,-3
2.90000,-3
2.90833,-4
2.91667,-4
2.92500,-4
2.93333,-4
2.94167,-4
2.95000,-4
2.95833,-4
2.96667,-4
2.97500,-5
2.98333,-5
2.99167,-5
3.00000,-5
3.00833,-5
3.01667,-5
3.02500,-5
3.03333,-5
3.04167,-5
3.05000,-6
3.05833,-6
3.06667,-6
3.07500,-6
3.08333,-5
3.09167,-5
3.10000,-5
3.10833,-5
3.11667,-5
3.12500,-6
3.13333,-6
3.14167,-6
3.15000,-6
3.15833,-6
3.16667,-5
3.17500,-5
3.18333,-5
3.19167,-6
3.20000,-5
3.20833,-5
3.21667,-5
3.22500,-5
3.23333,-5
3.24167,-6
3.25000,-6
3.25833,-5
3.26667,-5
3.27500,-5
3.28333,-5
3.29167,-5
3.30000,-5
3.30833,-5
3.31667,-5
3.32500,-5
3.33333,-5
3.34167,-5
3.35000,-5
3.35833,-5
3.36667,-5
3.37500,-5
3.38333,-6
3.39167,-6
3.40000,-6
3.40833,-5
3.41667,-5
3.42500,-5
3.43333,-5
3.44167,-5
3.45000,-5
3.45833,-5
3.46667,-5
3.47500,-4
3.48333,-4
3.49167,-4
3.50000,-4
3.50833,-4
3.51667,-4
3.52500,-4
3.53333,-4
3.54167,-4
3.55000,-3
3.55833,-3
3.56667,-3
3.57500,-3
3.58333,-3
3.59167,-3
3.60000,-3
3.60833,-4
3.61667,-4
3.62500,-4
3.63333,-4
3.64167,-4
3.65000,-4
3.65833,-4
3.66667,-4
3.67500,-4
3.68333,-4
3.69167,-4
3.70000,-4
3.70833,-4
3.71667,-4
3.72500,-3
3.73333,-3
3.74167,-3
3.75000,-3
3.75833,-2
3.76667,-3
3.77500,-3
3.78333,-3
3.79167,-3
3.80000,-3
3.80833,-3
3.81667,-3
3.82500,-3
3.83333,-2
3.84167,-2
3.85000,-2
3.85833,-2
3.86667,-2
3.87500,-2
3.88333,-2
3.89167,-2
3.90000,-2
3.90833,-2
3.91667,-2
3.92500,-2
3.93333,-2
3.94167,-2
3.95000,-2
3.95833,-2
3.96667,-2
3.97500,-2
3.98333,-2
3.99167,-2
4.00000,-2
4.00833,-2
4.01667,-2
4.02500,-2
4.03333,-2
4.04167,-2
4.05000,-2
4.05833,-2
4.06667,-2
4.07500,-2
4.08333,-2
4.09167,-2
4.10000,-2
4.10833,-2
4.11667,-2
4.12500,-2
4.13333,-2
4.14167,-3
4.15000,-3
4.15833,-2
4.16667,-2
4.17500,-2
4.18333,-2
4.19167,-2
4.20000,-2
4.20833,-2
4.21667,-2
4.22500,-1
4.23333,-1
4.24167,-1
4.25000,-1
4.25833,-1
4.26667,-1
4.27500,-2
4.28333,-2
4.29167,-2
4.30000,-2
4.30833,-2
4.31667,-2
4.32500,-3
4.33333,-3
4.34167,-3
4.35000,-4
4.35833,-4
4.36667,-5
4.37500,-5
4.38333,-4
4.39167,-4
4.40000,-4
4.40833,-4
4.41667,-4
4.42500,-3
4.43333,-3
4.44167,-3
4.45000,-3
4.45833,-4
4.46667,-4
4.47500,-4
4.48333,-3
4.49167,-4
4.50000,-4
4.50833,-5
4.51667,-5
4.52500,-5
4.53333,-5
4.54167,-6
4.55000,-6
4.55833,-6
4.56667,-6
4.57500,-6
4.58333,-6
4.59167,-5
4.60000,-5
4.60833,-5
4.61667,-5
4.62500,-5
4.63333,-5
4.64167,-5
4.65000,-5
4.65833,-6
4.66667,-6
4.67500,-6
4.68333,-6
4.69167,-7
4.70000,-7
4.70833,-7
4.71667,-7
4.72500,-7
4.73333,-7
4.74167,-7
4.75000,-7
4.75833,-7
4.76667,-7
4.77500,-7
4.78333,-7
4.79167,-7
4.80000,-7
4.80833,-8
4.81667,-8
4.82500,-8
4.83333,-8
4.84167,-7
4.85000,-7
4.85833,-7
4.86667,-7
4.87500,-7
4.88333,-7
4.89167,-7
4.90000,-7
4.90833,-7
4.91667,-7
4.92500,-7
4.93333,-7
4.94167,-7
4.95000,-7
4.95833,-7
4.96667,-7
4.97500,-7
4.98333,-7
4.99167,-7
5.00000,-7
5.00833,-7
5.01667,-7
5.02500,-7
5.03333,-7
5.04167,-7
5.05000,-8
5.05833,-8
5.06667,-8
5.07500,-8
5.08333,-8
5.09167,-8
5.10000,-8
5.10833,-8
5.11667,-8
5.12500,-8
5.13333,-8
5.14167,-8
5.15000,-8
5.15833,-8
5.16667,-8
5.17500,-8
5.18333,-8
5.19167,-8
5.20000,-8
5.20833,-8
5.21667,-8
5.22500,-8
5.23333,-8
5.24167,-8
5.25000,-8
5.25833,-8
5.26667,-8
5.27500,-8
5.28333,-8
5.29167,-8
5.30000,-8
5.30833,-8
5.31667,-8
5.32500,-8
5.33333,-8
5.34167,-8
5.35000,-8
5.35833,-8
5.36667,-8
5.37500,-8
5.38333,-8
5.39167,-8
5.40000,-8
5.40833,-8
5.41667,-8
5.42500,-8
5.43333,-8
5.44167,-7
5.45000,-7
5.45833,-7
5.46667,-7
5.47500,-7
5.48333,-8
5.49167,-8
5.50000,-8
5.50833,-8
5.51667,-8
5.52500,-8
5.53333,-8
5.54167,-8
5.55000,-8
5.55833,-8
5.56667,-8
5.57500,-8
5.58333,-8
5.59167,-8
5.60000,-8
5.60833,-8
5.61667,-8
5.62500,-8
5.63333,-8
5.64167,-7
5.65000,-7
5.65833,-7
5.66667,-7
5.67500,-7
5.68333,-8
5.69167,-8
5.70000,-8
5.70833,-8
5.71667,-8
5.72500,-8
5.73333,-8
5.74167,-8
5.75000,-8
5.75833,-8
5.76667,-8
5.77500,-8
5.78333,-8
5.79167,-8
5.80000,-8
5.80833,-8
5.81667,-8
5.82500,-8
5.83333,-8
5.84167,-8
5.85000,-8
5.85833,-8
5.86667,-8
5.87500,-9
5.88333,-9
5.89167,-9
5.90000,-9
5.90833,-9
5.91667,-9
5.92500,-9
5.93333,-9
5.94167,-9
5.95000,-8
5.95833,-8
5.96667,-8
5.97500,-8
5.98333,-8
5.99167,-9
6.00000,-9
6.00833,-9
6.01667,-9
6.02500,-9
6.03333,-9
6.04167,-9
6.05000,-9
6.05833,-9
6.06667,-9
6.07500,-9
6.08333,-8
6.09167,-8
6.10000,-8
6.10833,-8
6.11667,-8
6.12500,-8
6.13333,-9
6.14167,-9
6.15000,-9
6.15833,-9
6.16667,-9
6.17500,-9
6.18333,-9
6.19167,-8
6.20000,-8
6.20833,-8
6.21667,-8
6.22500,-8
6.23333,-8
6.24167,-8
6.25000,-9
6.25833,-9
6.26667,-9
6.27500,-9
6.28333,-9
6.29167,-8
6.30000,-8
6.30833,-9
6.31667,-9
6.32500,-9
6.33333,-9
6.34167,-9
6.35000,-9
6.35833,-9
6.36667,-9
6.37500,-9
6.38333,-10
6.39167,-10
6.40000,-10
6.40833,-9
6.41667,-9
6.42500,-9
6.43333,-9
6.44167,-9
6.45000,-9
6.45833,-10
6.46667,-10
6.47500,-9
6.48333,-9
6.49167,-9
6.50000,-9
6.50833,-9
6.51667,-9
6.52500,-9
6.53333,-9
6.54167,-9
6.55000,-9
6.55833,-9
6.56667,-9
6.57500,-9
6.58333,-9
6.59167,-9
6.60000,-9
6.60833,-9
6.61667,-9
6.62500,-9
6.63333,-9
6.64167,-10
6.65000,-10
6.65833,-10
6.66667,-9
6.67500,-9
6.68333,-9
6.69167,-9
6.70000,-9
6.70833,-9
6.71667,-9
6.72500,-9
6.73333,-9
6.74167,-9
6.75000,-9
6.75833,-9
6.76667,-9
6.77500,-10
6.78333,-10
6.79167,-9
6.80000,-9
6.80833,-9
6.81667,-8
6.82500,-8
6.83333,-8
6.84167,-9
6.85000,-9
6.85833,-9
6.86667,-10
6.87500,-10
6.88333,-10
6.89167,-10
6.90000,-10
6.90833,-10
6.91667,-11
6.92500,-11
6.93333,-11
6.94167,-10
6.95000,-10
6.95833,-10
6.96667,-10
6.97500,-10
6.98333,-10
6.99167,-10
7.00000,-10
7.00833,-10
7.01667,-10
7.02500,-10
7.03333,-10
7.04167,-10
7.05000,-10
7.05833,-10
7.06667,-10
7.07500,-10
7.08333,-10
7.09167,-10
7.10000,-10
7.10833,-10
7.11667,-10
7.12500,-10
7.13333,-9
7.14167,-9
7.15000,-9
7.15833,-9
7.16667,-9
7.17500,-9
7.18333,-9
7.19167,-9
7.20000,-9
7.20833,-10
7.21667,-10
7.22500,-10
7.23333,-10
7.24167,-10
7.25000,-9
7.25833,-10
7.26667,-10
7.27500,-10
7.28333,-10
7.29167,-11
7.30000,-11
7.30833,-11
7.31667,-11
7.32500,-11
7.33333,-11
7.34167,-10
7.35000,-10
7.35833,-10
7.36667,-11
7.37500,-11
7.38333,-10
7.39167,-10
7.40000,-10
7.40833,-10
7.41667,-10
7.42500,-10
7.43333,-10
7.44167,-10
7.45000,-10
7.45833,-11
7.46667,-11
7.47500,-11
7.48333,-11
7.49167,-10
7.50000,-10
7.50833,-11
7.51667,-11
7.52500,-11
7.53333,-11
7.54167,-11
7.55000,-11
7.55833,-11
7.56667,-11
7.57500,-10
7.58333,-10
7.59167,-10
7.60000,-10
7.60833,-10
7.61667,-10
7.62500,-10
7.63333,-10
7.64167,-10
7.65000,-10
7.65833,-10
7.66667,-10
7.67500,-10
7.68333,-10
7.69167,-10
7.70000,-10
7.70833,-10
7.71667,-10
7.72500,-10
7.73333,-10
7.74167,-10
7.75000,-10
7.75833,-10
7.76667,-11
7.77500,-11
7.78333,-11
7.79167,-12
7.80000,-11
7.80833,-11
7.81667,-11
7.82500,-11
7.83333,-10
7.84167,-10
7.85000,-10
7.85833,-10
7.86667,-11
7.87500,-11
7.88333,-11
7.89167,-11
7.90000,-11
7.90833,-11
7.91667,-11
7.92500,-11
7.93333,-11
7.94167,-11
7.95000,-11
7.95833,-11
7.96667,-11
7.97500,-10
7.98333,-10
7.99167,-10
8.00000,-10
8.00833,-10
8.01667,-10
8.02500,-10
8.03333,-10
8.04167,-10
8.05000,-10
8.05833,-10
8.06667,-9
8.07500,-9
8.08333,-9
8.09167,-10
8.10000,-10
8.10833,-10
8.11667,-10
8.12500,-10
8.13333,-11
8.14167,-11
8.15000,-12
8.15833,-12
8.16667,-12
8.17500,-11
8.18333,-11
8.19167,-11
8.20000,-11
8.20833,-11
8.21667,-11
8.22500,-11
8.23333,-12
8.24167,-12
8.25000,-12
8.25833,-12
8.26667,-12
8.27500,-12
8.28333,-12
8.29167,-12
8.30000,-12
8.30833,-12
8.31667,-11
8.32500,-11
8.33333,-11
8.34167,-11
8.35000,-11
8.35833,-11
8.36667,-11
8.37500,-11
8.38333,-11
8.39167,-12
8.40000,-12
8.40833,-12
8.41667,-12
8.42500,-12
8.43333,-11
8.44167,-11
8.45000,-11
8.45833,-11
8.46667,-11
8.47500,-11
8.48333,-11
8.49167,-11
8.50000,-11
8.50833,-11
8.51667,-11
8.52500,-11
8.53333,-11
8.54167,-11
8.55000,-11
8.55833,-11
8.56667,-11
8.57500,-11
8.58333,-12
8.59167,-12
8.60000,-12
8.60833,-12
8.61667,-12
8.62500,-12
8.63333,-12
8.64167,-12
8.65000,-12
8.65833,-12
8.66667,-11
8.67500,-11
8.68333,-11
8.69167,-11
8.70000,-11
8.70833,-11
8.71667,-11
8.72500,-11
8.73333,-11
8.74167,-12
8.75000,-12
8.75833,-12
8.76667,-12
8.77500,-12
8.78333,-12
8.79167,-12
8.80000,-11
8.80833,-11
8.81667,-12
8.82500,-12
8.83333,-12
8.84167,-12
8.85000,-12
8.85833,-12
8.86667,-12
8.87500,-12
8.88333,-12
8.89167,-12
8.90000,-12
8.90833,-11
8.91667,-11
8.92500,-11
8.93333,-11
8.94167,-12
8.95000,-12
8.95833,-12
8.96667,-12
8.97500,-12
8.98333,-12
8.99167,-12
9.00000,-12
9.00833,-12
9.01667,-12
9.02500,-12
9.03333,-12
9.04167,-12
9.05000,-12
9.05833,-12
9.06667,-12
9.07500,-12
9.08333,-12
9.09167,-12
9.10000,-12
9.10833,-12
9.11667,-12
9.12500,-12
9.13333,-12
9.14167,-12
9.15000,-12
9.15833,-12
9.16667,-12
9.17500,-12
9.18333,-12
9.19167,-12
9.20000,-12
9.20833,-12
9.21667,-12
9.22500,-12
9.23333,-12
9.24167,-12
9.25000,-12
9.25833,-12
9.26667,-12
9.27500,-11
9.28333,-11
9.29167,-11
9.30000,-11
9.30833,-11
9.31667,-11
9.32500,-11
9.33333,-11
9.34167,-11
9.35000,-12
9.35833,-12
9.36667,-12
9.37500,-12
9.38333,-12
9.39167,-12
9.40000,-12
9.40833,-12
9.41667,-12
9.42500,-12
9.43333,-12
9.44167,-12
9.45000,-12
9.45833,-12
9.46667,-12
9.47500,-12
9.48333,-12
9.49167,-12
9.50000,-12
9.50833,-12
9.51667,-12
9.52500,-12
9.53333,-11
9.54167,-11
9.55000,-11
9.55833,-11
9.56667,-11
9.57500,-11
9.58333,-11
9.59167,-12
9.60000,-12
9.60833,-12
9.61667,-12
9.62500,-12
9.63333,-12
9.64167,-12
9.65000,-12
9.65833,-12
9.66667,-12
9.67500,-12
9.68333,-12
9.69167,-12
9.70000,-12
9.70833,-12
9.71667,-12
9.72500,-12
9.73333,-12
9.74167,-12
9.75000,-12
9.75833,-12
9.76667,-12
9.77500,-12
9.78333,-12
9.79167,-12
9.80000,-12
9.80833,-12
9.81667,-13
9.82500,-13
9.83333,-13
9.84167,-13
9.85000,-13
9.85833,-13
9.86667,-12
9.87500,-12
9.88333,-12
9.89167,-12
9.90000,-13
9.90833,-13
9.91667,-13
9.92500,-13
9.93333,-13
9.94167,-13
9.95000,-13
9.95833,-13
9.96667,-12
9.97500,-12
9.98333,-12
9.99167,-12
10.00000,-12
10.00833,-12
10.01667,-12
10.02500,-12
10.03333,-12
10.04167,-12
10.05000,-12
10.05833,-12
10.06667,-12
10.07500,-12
10.08333,-12
10.09167,-12
10.10000,-12
10.10833,-12
10.11667,-12
10.12500,-12
10.13333,-12
10.14167,-12
10.15000,-12
10.15833,-11
10.16667,-11
10.17500,-12
10.18333,-12
10.19167,-12
10.20000,-12
10.20833,-12
10.21667,-12
10.22500,-12
10.23333,-12
10.24167,-12
10.25000,-12
10.25833,-11
10.26667,-11
10.27500,-11
10.28333,-11
10.29167,-11
10.30000,-11
10.30833,-11
10.31667,-11
10.32500,-10
10.33333,-10
10.34167,-10
10.35000,-10
10.35833,-10
10.36667,-9
10.37500,-9
10.38333,-9
10.39167,-8
10.40000,-8
10.40833,-8
10.41667,-7
10.42500,-7
10.43333,-7
10.44167,-6
10.45000,-6
10.45833,-6
10.46667,-6
10.47500,-6
10.48333,-7
10.49167,-8
10.50000,-11
10.50833,-14
10.51667,-19
10.52500,-26
10.53333,-35
10.54167,-49
10.55000,-67
10.55833,-92
10.56667,-124
10.57500,-165
10.58333,-219
10.59167,-285
10.60000,-368
10.60833,-468
10.61667,-588
10.62500,-730
10.63333,-895
10.64167,-1083
10.65000,-1294
10.65833,-1527
10.66667,-1778
10.67500,-2044
10.68333,-2319
10.69167,-2597
10.70000,-2869
10.70833,-3124
10.71667,-3353
10.72500,-3542
10.73333,-3680
10.74167,-3754
10.75000,-3748
10.75833,-3651
10.76667,-3449
10.77500,-3129
10.78333,-2681
10.79167,-2092
10.80000,-1354
10.80833,-458
10.81667,603
10.82500,1834
10.83333,3238
10.84167,4819
10.85000,6576
10.85833,8511
10.86667,10620
10.87500,12900
10.88333,15345
10.89167,17950
10.90000,20704
10.90833,23597
10.91667,26616
10.92500,29745
10.93333,32966
10.94167,36258
10.95000,39594
10.95833,42944
10.96667,46274
10.97500,49545
10.98333,52712
10.99167,55727
11.00000,58538
11.00833,61090
11.01667,63331
11.02500,65206
11.03333,66668
11.04167,67678
11.05000,68205
11.05833,68229
11.06667,67748
11.07500,66770
11.08333,65319
11.09167,63433
11.10000,61161
11.10833,58558
11.11667,55685
11.12500,52609
11.13333,49395
11.14167,46103
11.15000,42791
11.15833,39509
11.16667,36302
11.17500,33206
11.18333,30248
11.19167,27450
11.20000,24826
11.20833,22384
11.21667,20127
11.22500,18054
11.23333,16161
11.24167,14441
11.25000,12885
11.25833,11482
11.26667,10223
11.27500,9097
11.28333,8091
11.29167,7195
11.30000,6400
11.30833,5695
11.31667,5071
11.32500,4519
11.33333,4032
11.34167,3602
11.35000,3223
11.35833,2890
11.36667,2596
11.37500,2337
11.38333,2109
11.39167,1908
11.40000,1731
11.40833,1575
11.41667,1437
11.42500,1315
11.43333,1207
11.44167,1111
11.45000,1026
11.45833,949
11.46667,882
11.47500,821
11.48333,766
11.49167,717
11.50000,674
11.50833,634
11.51667,598
11.52500,566
11.53333,536
11.54167,509
11.55000,484
11.55833,461
11.56667,440
11.57500,420
11.58333,402
11.59167,385
11.60000,370
11.60833,355
11.61667,342
11.62500,329
11.63333,316
11.64167,305
11.65000,294
11.65833,284
11.66667,275
11.67500,267
11.68333,258
11.69167,251
11.70000,243
11.70833,237
11.71667,231
11.72500,225
11.73333,219
11.74167,214
11.75000,209
11.75833,204
11.76667,199
11.77500,195
11.78333,191
11.79167,187
11.80000,184
11.80833,181
11.81667,178
11.82500,176
11.83333,173
11.84167,171
11.85000,169
11.85833,166
11.86667,165
11.87500,163
11.88333,161
11.89167,159
11.90000,158
11.90833,156
11.91667,154
11.92500,153
11.93333,152
11.94167,151
11.95000,150
11.95833,149
11.96667,148
11.97500,147
11.98333,146
11.99167,145
12.00000,144
12.00833,143
12.01667,142
12.02500,141
12.03333,140
12.04167,140
12.05000,139
12.05833,138
12.06667,137
12.07500,137
12.08333,136
12.09167,135
12.10000,134
12.10833,133
12.11667,132
12.12500,131
12.13333,131
12.14167,129
12.15000,129
12.15833,128
12.16667,127
12.17500,126
12.18333,125
12.19167,125
12.20000,124
12.20833,123
12.21667,122
12.22500,121
12.23333,119
12.24167,118
12.25000,118
12.25833,117
12.26667,116
12.27500,115
12.28333,115
12.29167,114
12.30000,113
12.30833,113
12.31667,112
12.32500,111
12.33333,111
12.34167,110
12.35000,108
12.35833,108
12.36667,107
12.37500,106
12.38333,106
12.39167,105
12.40000,105
12.40833,105
12.41667,105
12.42500,104
12.43333,103
12.44167,103
12.45000,102
12.45833,101
12.46667,101
12.47500,100
12.48333,99
12.49167,99
12.50000,98
12.50833,97
12.51667,97
12.52500,97
12.53333,97
12.54167,96
12.55000,96
12.55833,95
12.56667,95
12.57500,94
12.58333,93
12.59167,92
12.60000,91
12.60833,91
12.61667,90
12.62500,89
12.63333,88
12.64167,88
12.65000,87
12.65833,87
12.66667,86
12.67500,86
12.68333,85
12.69167,84
12.70000,84
12.70833,84
12.71667,84
12.72500,83
12.73333,83
12.74167,82
12.75000,82
12.75833,81
12.76667,81
12.77500,80
12.78333,80
12.79167,80
12.80000,80
12.80833,80
12.81667,79
12.82500,79
12.83333,79
12.84167,79
12.85000,79
12.85833,79
12.86667,79
12.87500,79
12.88333,78
12.89167,79
12.90000,79
12.90833,79
12.91667,79
12.92500,79
12.93333,79
12.94167,79
12.95000,79
12.95833,79
12.96667,79
12.97500,79
12.98333,79
12.99167,80
13.00000,80
13.00833,80
13.01667,80
13.02500,80
13.03333,80
13.04167,80
13.05000,81
13.05833,81
13.06667,81
13.07500,81
13.08333,81
13.09167,81
13.10000,81
13.10833,80
13.11667,80
13.12500,80
13.13333,80
13.14167,80
13.15000,80
13.15833,80
13.16667,80
13.17500,79
13.18333,79
13.19167,79
13.20000,78
13.20833,77
13.21667,77
13.22500,76
13.23333,76
13.24167,75
13.25000,75
13.25833,75
13.26667,74
13.27500,74
13.28333,74
13.29167,74
13.30000,73
13.30833,72
13.31667,71
13.32500,70
13.33333,69
13.34167,68
13.35000,66
13.35833,65
13.36667,64
13.37500,63
13.38333,62
13.39167,61
13.40000,60
13.40833,59
13.41667,59
13.42500,58
13.43333,57
13.44167,57
13.45000,56
13.45833,55
13.46667,54
13.47500,53
13.48333,52
13.49167,51
13.50000,50
13.50833,49
13.51667,48
13.52500,47
13.53333,47
13.54167,46
13.55000,45
13.55833,44
13.56667,44
13.57500,43
13.58333,42
13.59167,41
13.60000,41
13.60833,40
13.61667,40
13.62500,40
13.63333,40
13.64167,40
13.65000,39
13.65833,39
13.66667,39
13.67500,38
13.68333,38
13.69167,38
13.70000,38
13.70833,37
13.71667,37
13.72500,37
13.73333,37
13.74167,38
13.75000,38
13.75833,38
13.76667,38
13.77500,38
13.78333,38
13.79167,39
13.80000,39
13.80833,39
13.81667,39
13.82500,40
13.83333,40
13.84167,41
13.85000,41
13.85833,41
13.86667,42
13.87500,42
13.88333,42
13.89167,43
13.90000,43
13.90833,44
13.91667,45
13.92500,46
13.93333,46
13.94167,47
13.95000,48
13.95833,49
13.96667,49
13.97500,49
13.98333,50
13.99167,50
14.00000,51
14.00833,51
14.01667,52
14.02500,53
14.03333,54
14.04167,55
14.05000,55
14.05833,56
14.06667,56
14.07500,57
14.08333,58
14.09167,59
14.10000,60
14.10833,62
14.11667,63
14.12500,65
14.13333,66
14.14167,68
14.15000,70
14.15833,72
14.16667,75
14.17500,79
14.18333,83
14.19167,87
14.20000,93
14.20833,100
14.21667,109
14.22500,119
14.23333,131
14.24167,146
14.25000,164
14.25833,185
14.26667,211
14.27500,242
14.28333,279
14.29167,322
14.30000,374
14.30833,435
14.31667,507
14.32500,590
14.33333,687
14.34167,799
14.35000,928
14.35833,1076
14.36667,1243
14.37500,1432
14.38333,1646
14.39167,1884
14.40000,2150
14.40833,2444
14.41667,2769
14.42500,3124
14.43333,3512
14.44167,3934
14.45000,4389
14.45833,4881
14.46667,5408
14.47500,5972
14.48333,6573
14.49167,7211
14.50000,7886
14.50833,8599
14.51667,9348
14.52500,10135
14.53333,10959
14.54167,11819
14.55000,12714
14.55833,13645
14.56667,14611
14.57500,15611
14.58333,16645
14.59167,17711
14.60000,18810
14.60833,19940
14.61667,21102
14.62500,22295
14.63333,23517
14.64167,24769
14.65000,26050
14.65833,27360
14.66667,28697
14.67500,30061
14.68333,31452
14.69167,32870
14.70000,34314
14.70833,35783
14.71667,37277
14.72500,38797
14.73333,40342
14.74167,41911
14.75000,43504
14.75833,45120
14.76667,46761
14.77500,48424
14.78333,50111
14.79167,51821
14.80000,53554
14.80833,55310
14.81667,57088
14.82500,58888
14.83333,60710
14.84167,62555
14.85000,64420
14.85833,66308
14.86667,68216
14.87500,70145
14.88333,72094
14.89167,74064
14.90000,76054
14.90833,78062
14.91667,80089
14.92500,82135
14.93333,84197
14.94167,86276
14.95000,88369
14.95833,90476
14.96667,92595
14.97500,94724
14.98333,96860
14.99167,98999
15.00000,101135
15.00833,103259
15.01667,105363
15.02500,107430
15.03333,109442
15.04167,111371
15.05000,113186
15.05833,114844
15.06667,116299
15.07500,117494
15.08333,118371
15.09167,118867
15.10000,118923
15.10833,118484
15.11667,117503
15.12500,115948
15.13333,113803
15.14167,111071
15.15000,107773
15.15833,103950
15.16667,99661
15.17500,94981
15.18333,89992
15.19167,84786
15.20000,79457
15.20833,74093
15.21667,68781
15.22500,63595
15.23333,58602
15.24167,53855
15.25000,49394
15.25833,45249
15.26667,41437
15.27500,37967
15.28333,34839
15.29167,32048
15.30000,29583
15.30833,27429
15.31667,25569
15.32500,23986
15.33333,22662
15.34167,21579
15.35000,20719
15.35833,20067
15.36667,19608
15.37500,19326
15.38333,19209
15.39167,19244
15.40000,19420
15.40833,19725
15.41667,20149
15.42500,20681
15.43333,21311
15.44167,22028
15.45000,22823
15.45833,23684
15.46667,24601
15.47500,25563
15.48333,26559
15.49167,27577
15.50000,28607
15.50833,29639
15.51667,30659
15.52500,31659
15.53333,32626
15.54167,33550
15.55000,34422
15.55833,35232
15.56667,35973
15.57500,36636
15.58333,37215
15.59167,37705
15.60000,38099
15.60833,38396
15.61667,38592
15.62500,38685
15.63333,38675
15.64167,38563
15.65000,38351
15.65833,38039
15.66667,37633
15.67500,37137
15.68333,36554
15.69167,35891
15.70000,35154
15.70833,34348
15.71667,33482
15.72500,32560
15.73333,31592
15.74167,30584
15.75000,29542
15.75833,28474
15.76667,27388
15.77500,26288
15.78333,25182
15.79167,24076
15.80000,22974
15.80833,21881
15.81667,20804
15.82500,19744
15.83333,18708
15.84167,17696
15.85000,16714
15.85833,15762
15.86667,14843
15.87500,13958
15.88333,13109
15.89167,12296
15.90000,11520
15.90833,10782
15.91667,10080
15.92500,9415
15.93333,8787
15.94167,8194
15.95000,7637
15.95833,7113
15.96667,6622
15.97500,6162
15.98333,5732
15.99167,5331
16.00000,4957
16.00833,4610
16.01667,4287
16.02500,3988
16.03333,3711
16.04167,3455
16.05000,3219
16.05833,3001
16.06667,2799
16.07500,2614
16.08333,2443
16.09167,2286
16.10000,2141
16.10833,2008
16.11667,1886
16.12500,1774
16.13333,1671
16.14167,1577
16.15000,1490
16.15833,1411
16.16667,1338
16.17500,1271
16.18333,1209
16.19167,1152
16.20000,1100
16.20833,1052
16.21667,1008
16.22500,968
16.23333,931
16.24167,897
16.25000,865
16.25833,836
16.26667,808
16.27500,782
16.28333,758
16.29167,736
16.30000,716
16.30833,697
16.31667,680
16.32500,663
16.33333,648
16.34167,633
16.35000,619
16.35833,607
16.36667,595
16.37500,583
16.38333,573
16.39167,562
16.40000,553
16.40833,543
16.41667,535
16.42500,526
16.43333,518
16.44167,511
16.45000,503
16.45833,496
16.46667,489
16.47500,483
16.48333,477
16.49167,471
16.50000,465
16.50833,460
16.51667,455
16.52500,450
16.53333,445
16.54167,440
16.55000,435
16.55833,431
16.56667,427
16.57500,423
16.58333,418
16.59167,415
16.60000,411
16.60833,407
16.61667,403
16.62500,400
16.63333,396
16.64167,393
16.65000,389
16.65833,386
16.66667,383
16.67500,380
16.68333,377
16.69167,373
16.70000,370
16.70833,367
16.71667,364
16.72500,361
16.73333,358
16.74167,356
16.75000,353
16.75833,350
16.76667,348
16.77500,345
16.78333,342
16.79167,339
16.80000,336
16.80833,334
16.81667,331
16.82500,329
16.83333,327
16.84167,325
16.85000,322
16.85833,320
16.86667,317
16.87500,315
16.88333,313
16.89167,311
16.90000,308
16.90833,306
16.91667,304
16.92500,302
16.93333,300
16.94167,298
16.95000,296
16.95833,294
16.96667,292
16.97500,289
16.98333,287
16.99167,285
17.00000,284
17.00833,282
17.01667,280
17.02500,278
17.03333,276
17.04167,274
17.05000,272
17.05833,270
17.06667,268
17.07500,266
17.08333,265
17.09167,263
17.10000,261
17.10833,260
17.11667,258
17.12500,256
17.13333,255
17.14167,253
17.15000,251
17.15833,250
17.16667,248
17.17500,246
17.18333,244
17.19167,243
17.20000,241
17.20833,239
17.21667,238
17.22500,236
17.23333,234
17.24167,233
17.25000,231
17.25833,230
17.26667,228
17.27500,227
17.28333,226
17.29167,224
17.30000,223
17.30833,221
17.31667,220
17.32500,218
17.33333,217
17.34167,216
17.35000,214
17.35833,213
17.36667,211
17.37500,210
17.38333,208
17.39167,207
17.40000,205
17.40833,204
17.41667,203
17.42500,201
17.43333,200
17.44167,199
17.45000,198
17.45833,196
17.46667,195
17.47500,194
17.48333,193
17.49167,192
17.50000,191
17.50833,189
17.51667,188
17.52500,186
17.53333,185
17.54167,183
17.55000,182
17.55833,181
17.56667,180
17.57500,178
17.58333,177
17.59167,177
17.60000,176
17.60833,175
17.61667,174
17.62500,172
17.63333,171
17.64167,170
17.65000,170
17.65833,169
17.66667,168
17.67500,167
17.68333,166
17.69167,165
17.70000,164
17.70833,163
17.71667,162
17.72500,160
17.73333,159
17.74167,158
17.75000,157
17.75833,156
17.76667,156
17.77500,155
17.78333,154
17.79167,153
17.80000,152
17.80833,151
17.81667,150
17.82500,148
17.83333,147
17.84167,146
17.85000,145
17.85833,145
17.86667,144
17.87500,143
17.88333,142
17.89167,142
17.90000,141
17.90833,140
17.91667,139
17.92500,138
17.93333,137
17.94167,137
17.95000,136
17.95833,136
17.96667,135
17.97500,134
17.98333,134
17.99167,133
18.00000,132
18.00833,131
18.01667,130
18.02500,128
18.03333,127
18.04167,127
18.05000,126
18.05833,125
18.06667,125
18.07500,124
18.08333,124
18.09167,123
18.10000,122
18.10833,122
18.11667,121
18.12500,120
18.13333,119
18.14167,118
18.15000,118
18.15833,117
18.16667,116
18.17500,115
18.18333,115
18.19167,114
18.20000,113
18.20833,112
18.21667,112
18.22500,111
18.23333,111
18.24167,110
18.25000,109
18.25833,108
18.26667,107
18.27500,106
18.28333,106
18.29167,105
18.30000,104
18.30833,104
18.31667,103
18.32500,103
18.33333,102
18.34167,102
18.35000,101
18.35833,100
18.36667,100
18.37500,99
18.38333,99
18.39167,98
18.40000,98
18.40833,97
18.41667,97
18.42500,96
18.43333,95
18.44167,94
18.45000,94
18.45833,94
18.46667,93
18.47500,92
18.48333,92
18.49167,91
18.50000,91
18.50833,90
18.51667,89
18.52500,88
18.53333,88
18.54167,88
18.55000,88
18.55833,87
18.56667,87
18.57500,86
18.58333,86
18.59167,86
18.60000,86
18.60833,86
18.61667,86
18.62500,86
18.63333,86
18.64167,86
18.65000,86
18.65833,86
18.66667,86
18.67500,87
18.68333,87
18.69167,88
18.70000,88
18.70833,89
18.71667,89
18.72500,90
18.73333,91
18.74167,92
18.75000,93
18.75833,94
18.76667,95
18.77500,97
18.78333,98
18.79167,100
18.80000,101
18.80833,102
18.81667,104
18.82500,106
18.83333,107
18.84167,109
18.85000,111
18.85833,113
18.86667,115
18.87500,116
18.88333,118
18.89167,119
18.90000,120
18.90833,121
18.91667,122
18.92500,123
18.93333,124
18.94167,125
18.95000,126
18.95833,126
18.96667,126
18.97500,126
18.98333,126
18.99167,126
19.00000,126
19.00833,125
19.01667,124
19.02500,123
19.03333,121
19.04167,120
19.05000,119
19.05833,118
19.06667,116
19.07500,114
19.08333,112
19.09167,110
19.10000,109
19.10833,107
19.11667,104
19.12500,102
19.13333,100
19.14167,97
19.15000,95
19.15833,93
19.16667,90
19.17500,88
19.18333,86
19.19167,84
19.20000,82
19.20833,80
19.21667,78
19.22500,76
19.23333,75
19.24167,73
19.25000,71
19.25833,70
19.26667,68
19.27500,67
19.28333,65
19.29167,64
19.30000,63
19.30833,62
19.31667,61
19.32500,60
19.33333,58
19.34167,57
19.35000,56
19.35833,55
19.36667,54
19.37500,53
19.38333,53
19.39167,52
19.40000,52
19.40833,51
19.41667,50
19.42500,50
19.43333,49
19.44167,49
19.45000,48
19.45833,48
19.46667,47
19.47500,47
19.48333,46
19.49167,45
19.50000,44
19.50833,44
19.51667,43
19.52500,43
19.53333,43
19.54167,42
19.55000,42
19.55833,41
19.56667,41
19.57500,41
19.58333,41
19.59167,41
19.60000,41
19.60833,40
19.61667,40
19.62500,40
19.63333,39
19.64167,39
19.65000,38
19.65833,38
19.66667,37
19.67500,37
19.68333,36
19.69167,36
19.70000,36
19.70833,36
19.71667,35
19.72500,35
19.73333,35
19.74167,34
19.75000,34
19.75833,33
19.76667,33
19.77500,33
19.78333,33
19.79167,33
19.80000,32
19.80833,32
19.81667,32
19.82500,31
19.83333,31
19.84167,30
19.85000,30
19.85833,30
19.86667,30
19.87500,30
19.88333,30
19.89167,29
19.90000,29
19.90833,28
19.91667,28
19.92500,28
19.93333,28
19.94167,28
19.95000,28
19.95833,28
19.96667,28
19.97500,28
19.98333,27
19.99167,27
20.00000,27
20.00833,27
20.01667,27
20.02500,26
20.03333,26
20.04167,25
20.05000,25
20.05833,24
20.06667,24
20.07500,24
20.08333,24
20.09167,24
20.10000,24
20.10833,23
20.11667,23
20.12500,23
20.13333,23
20.14167,23
20.15000,23
20.15833,23
20.16667,23
20.17500,23
20.18333,23
20.19167,22
20.20000,22
20.20833,22
20.21667,21
20.22500,21
20.23333,20
20.24167,20
20.25000,20
20.25833,20
20.26667,20
20.27500,20
20.28333,20
20.29167,20
20.30000,20
20.30833,19
20.31667,19
20.32500,19
20.33333,18
20.34167,18
20.35000,17
20.35833,17
20.36667,17
20.37500,17
20.38333,17
20.39167,17
20.40000,17
20.40833,17
20.41667,17
20.42500,17
20.43333,17
20.44167,16
20.45000,16
20.45833,16
20.46667,16
20.47500,15
20.48333,15
20.49167,15
20.50000,15
20.50833,15
20.51667,15
20.52500,15
20.53333,15
20.54167,14
20.55000,14
20.55833,14
20.56667,14
20.57500,14
20.58333,14
20.59167,14
20.60000,13
20.60833,13
20.61667,13
20.62500,13
20.63333,12
20.64167,12
20.65000,12
20.65833,11
20.66667,11
20.67500,11
20.68333,12
20.69167,11
20.70000,11
20.70833,11
20.71667,11
20.72500,11
20.73333,11
20.74167,11
20.75000,11
20.75833,11
20.76667,11
20.77500,11
20.78333,10
20.79167,10
20.80000,9
20.80833,9
20.81667,8
20.82500,8
20.83333,8
20.84167,8
20.85000,8
20.85833,8
20.86667,8
20.87500,8
20.88333,7
20.89167,7
20.90000,7
20.90833,7
20.91667,7
20.92500,8
20.93333,7
20.94167,7
20.95000,6
20.95833,6
20.96667,6
20.97500,6
20.98333,5
20.99167,5
21.00000,4
21.00833,4
21.01667,4
21.02500,4
21.03333,4
21.04167,4
21.05000,5
21.05833,5
21.06667,5
21.07500,5
21.08333,5
21.09167,5
21.10000,5
21.10833,5
21.11667,5
21.12500,4
21.13333,4
21.14167,4
21.15000,4
21.15833,4
21.16667,4
21.17500,4
21.18333,4
21.19167,4
21.20000,3
21.20833,3
21.21667,3
21.22500,3
21.23333,3
21.24167,2
21.25000,2
21.25833,2
21.26667,2
21.27500,3
21.28333,3
21.29167,3
21.30000,2
21.30833,2
21.31667,2
21.32500,2
21.33333,2
21.34167,2
21.35000,2
21.35833,2
21.36667,2
21.37500,1
21.38333,2
21.39167,2
21.40000,1
21.40833,1
21.41667,1
21.42500,1
21.43333,1
21.44167,1
21.45000,1
21.45833,1
21.46667,1
21.47500,1
21.48333,1
21.49167,1
21.50000,1
21.50833,1
21.51667,1
21.52500,1
21.53333,1
21.54167,1
21.55000,1
21.55833,1
21.56667,1
21.57500,1
21.58333,1
21.59167,1
21.60000,2
21.60833,2
21.61667,2
21.62500,2
21.63333,1
21.64167,1
21.65000,1
21.65833,1
21.66667,1
21.67500,1
21.68333,1
21.69167,1
21.70000,1
21.70833,2
21.71667,2
21.72500,1
21.73333,1
21.74167,1
21.75000,1
21.75833,2
21.76667,2
21.77500,2
21.78333,2
21.79167,3
21.80000,3
21.80833,3
21.81667,3
21.82500,3
21.83333,2
21.84167,2
21.85000,2
21.85833,2
21.86667,1
21.87500,1
21.88333,1
21.89167,1
21.90000,2
21.90833,2
21.91667,2
21.92500,3
21.93333,3
21.94167,2
21.95000,2
21.95833,2
21.96667,2
21.97500,2
21.98333,2
21.99167,2
22.00000,2
22.00833,2
22.01667,2
22.02500,2
22.03333,2
22.04167,2
22.05000,1
22.05833,1
22.06667,1
22.07500,1
22.08333,1
22.09167,0
22.10000,0
22.10833,0
22.11667,0
22.12500,0
22.13333,0
22.14167,0
22.15000,-0
22.15833,-0
22.16667,-0
22.17500,-1
22.18333,-1
22.19167,-2
22.20000,-2
22.20833,-2
22.21667,-3
22.22500,-3
22.23333,-3
22.24167,-3
22.25000,-3
22.25833,-4
22.26667,-4
22.27500,-4
22.28333,-4
22.29167,-4
22.30000,-4
22.30833,-4
22.31667,-4
22.32500,-4
22.33333,-4
22.34167,-4
22.35000,-5
22.35833,-5
22.36667,-5
22.37500,-5
22.38333,-5
22.39167,-5
22.40000,-5
22.40833,-5
22.41667,-5
22.42500,-5
22.43333,-5
22.44167,-5
22.45000,-5
22.45833,-6
22.46667,-6
22.47500,-6
22.48333,-6
22.49167,-6
22.50000,-6
22.50833,-6
22.51667,-7
22.52500,-7
22.53333,-7
22.54167,-7
22.55000,-7
22.55833,-7
22.56667,-7
22.57500,-7
22.58333,-7
22.59167,-7
22.60000,-7
22.60833,-7
22.61667,-6
22.62500,-6
22.63333,-6
22.64167,-7
22.65000,-7
22.65833,-7
22.66667,-7
22.67500,-7
22.68333,-7
22.69167,-7
22.70000,-7
22.70833,-7
22.71667,-7
22.72500,-7
22.73333,-7
22.74167,-6
22.75000,-6
22.75833,-6
22.76667,-6
22.77500,-6
22.78333,-6
22.79167,-6
22.80000,-6
22.80833,-6
22.81667,-7
22.82500,-7
22.83333,-7
22.84167,-7
22.85000,-7
22.85833,-6
22.86667,-6
22.87500,-5
22.88333,-4
22.89167,-4
22.90000,-3
22.90833,-3
22.91667,-2
22.92500,-1
22.93333,-1
22.94167,-0
22.95000,0
22.95833,0
22.96667,1
22.97500,1
22.98333,2
22.99167,2
23.00000,3
23.00833,3
23.01667,4
23.02500,4
23.03333,5
23.04167,6
23.05000,7
23.05833,8
23.06667,9
23.07500,9
23.08333,10
23.09167,10
23.10000,11
23.10833,11
23.11667,11
23.12500,12
23.13333,13
23.14167,13
23.15000,14
23.15833,14
23.16667,15
23.17500,16
23.18333,16
23.19167,16
23.20000,17
23.20833,17
23.21667,17
23.22500,17
23.23333,16
23.24167,16
23.25000,16
23.25833,16
23.26667,15
23.27500,15
23.28333,15
23.29167,14
23.30000,14
23.30833,14
23.31667,14
23.32500,13
23.33333,13
23.34167,12
23.35000,12
23.35833,11
23.36667,11
23.37500,10
23.38333,10
23.39167,8
23.40000,7
23.40833,6
23.41667,5
23.42500,5
23.43333,4
23.44167,3
23.45000,2
23.45833,1
23.46667,0
23.47500,-0
23.48333,-1
23.49167,-1
23.50000,-2
23.50833,-2
23.51667,-2
23.52500,-3
23.53333,-4
23.54167,-4
23.55000,-5
23.55833,-5
23.56667,-5
23.57500,-6
23.58333,-6
23.59167,-7
23.60000,-7
23.60833,-7
23.61667,-7
23.62500,-7
23.63333,-7
23.64167,-8
23.65000,-8
23.65833,-9
23.66667,-9
23.67500,-9
23.68333,-9
23.69167,-9
23.70000,-9
23.70833,-9
23.71667,-10
23.72500,-10
23.73333,-10
23.74167,-10
23.75000,-10
23.75833,-10
23.76667,-10
23.77500,-10
23.78333,-10
23.79167,-10
23.80000,-10
23.80833,-10
23.81667,-10
23.82500,-10
23.83333,-10
23.84167,-10
23.85000,-11
23.85833,-11
23.86667,-12
23.87500,-12
23.88333,-12
23.89167,-12
23.90000,-12
23.90833,-12
23.91667,-12
23.92500,-12
23.93333,-11
23.94167,-11
23.95000,-11
23.95833,-11
23.96667,-11
23.97500,-11
23.98333,-11
23.99167,-11
24.00000,-11
24.00833,-11
24.01667,-11
24.02500,-11
24.03333,-12
24.04167,-12
24.05000,-12
24.05833,-13
24.06667,-13
24.07500,-13
24.08333,-13
24.09167,-13
24.10000,-13
24.10833,-13
24.11667,-13
24.12500,-13
24.13333,-13
24.14167,-13
24.15000,-13
24.15833,-13
24.16667,-13
24.17500,-13
24.18333,-13
24.19167,-13
24.20000,-13
24.20833,-13
24.21667,-13
24.22500,-13
24.23333,-12
24.24167,-12
24.25000,-13
24.25833,-13
24.26667,-13
24.27500,-13
24.28333,-13
24.29167,-13
24.30000,-13
24.30833,-13
24.31667,-13
24.32500,-12
24.33333,-12
24.34167,-12
24.35000,-12
24.35833,-12
24.36667,-12
24.37500,-12
24.38333,-12
24.39167,-12
24.40000,-12
24.40833,-11
24.41667,-11
24.42500,-11
24.43333,-11
24.44167,-10
24.45000,-10
24.45833,-10
24.46667,-9
24.47500,-9
24.48333,-9
24.49167,-9
24.50000,-9
24.50833,-9
24.51667,-8
24.52500,-8
24.53333,-7
24.54167,-6
24.55000,-6
24.55833,-5
24.56667,-3
24.57500,-2
24.58333,-1
24.59167,0
24.60000,2
24.60833,3
24.61667,5
24.62500,7
24.63333,9
24.64167,11
24.65000,13
24.65833,16
24.66667,19
24.67500,22
24.68333,25
24.69167,28
24.70000,32
24.70833,36
24.71667,39
24.72500,44
24.73333,48
24.74167,53
24.75000,58
24.75833,62
24.76667,68
24.77500,73
24.78333,79
24.79167,85
24.80000,91
24.80833,97
24.81667,104
24.82500,110
24.83333,117
24.84167,123
24.85000,131
24.85833,138
24.86667,145
24.87500,152
24.88333,159
24.89167,166
24.90000,172
24.90833,179
24.91667,185
24.92500,191
24.93333,197
24.94167,203
24.95000,208
24.95833,213
24.96667,218
24.97500,222
24.98333,226
24.99167,230
25.00000,233
25.00833,236
25.01667,238
25.02500,240
25.03333,241
25.04167,242
25.05000,242
25.05833,241
25.06667,240
25.07500,239
25.08333,237
25.09167,235
25.10000,232
25.10833,229
25.11667,226
25.12500,222
25.13333,218
25.14167,214
25.15000,209
25.15833,204
25.16667,199
25.17500,193
25.18333,188
25.19167,182
25.20000,176
25.20833,170
25.21667,163
25.22500,157
25.23333,150
25.24167,144
25.25000,137
25.25833,131
25.26667,125
25.27500,118
25.28333,112
25.29167,106
25.30000,100
25.30833,95
25.31667,90
25.32500,84
25.33333,79
25.34167,74
25.35000,69
25.35833,64
25.36667,59
25.37500,54
25.38333,50
25.39167,46
25.40000,43
25.40833,39
25.41667,35
25.42500,32
25.43333,29
25.44167,26
25.45000,23
25.45833,20
25.46667,18
25.47500,16
25.48333,14
25.49167,12
25.50000,10
25.50833,8
25.51667,6
25.52500,5
25.53333,4
25.54167,2
25.55000,1
25.55833,0
25.56667,-1
25.57500,-2
25.58333,-3
25.59167,-4
25.60000,-5
25.60833,-6
25.61667,-6
25.62500,-7
25.63333,-8
25.64167,-8
25.65000,-9
25.65833,-9
25.66667,-9
25.67500,-9
25.68333,-9
25.69167,-10
25.70000,-10
25.70833,-10
25.71667,-10
25.72500,-11
25.73333,-11
25.74167,-11
25.75000,-11
25.75833,-12
25.76667,-12
25.77500,-11
25.78333,-11
25.79167,-11
25.80000,-11
25.80833,-11
25.81667,-11
25.82500,-11
25.83333,-11
25.84167,-12
25.85000,-12
25.85833,-12
25.86667,-12
25.87500,-12
25.88333,-12
25.89167,-12
25.90000,-12
25.90833,-11
25.91667,-11
25.92500,-12
25.93333,-12
25.94167,-12
25.95000,-12
25.95833,-13
25.96667,-13
25.97500,-13
25.98333,-13
25.99167,-12
26.00000,-12
26.00833,-12
26.01667,-12
26.02500,-12
26.03333,-11
26.04167,-11
26.05000,-11
26.05833,-12
26.06667,-12
26.07500,-11
26.08333,-11
26.09167,-11
26.10000,-11
26.10833,-11
26.11667,-12
26.12500,-12
26.13333,-12
26.14167,-12
26.15000,-12
26.15833,-12
26.16667,-12
26.17500,-12
26.18333,-13
26.19167,-12
26.20000,-12
26.20833,-12
26.21667,-12
26.22500,-12
26.23333,-11
26.24167,-11
26.25000,-11
26.25833,-11
26.26667,-11
26.27500,-11
26.28333,-11
26.29167,-11
26.30000,-11
26.30833,-11
26.31667,-11
26.32500,-12
26.33333,-12
26.34167,-12
26.35000,-12
26.35833,-12
26.36667,-12
26.37500,-12
26.38333,-12
26.39167,-12
26.40000,-12
26.40833,-12
26.41667,-11
26.42500,-11
26.43333,-11
26.44167,-11
26.45000,-11
26.45833,-11
26.46667,-11
26.47500,-11
26.48333,-11
26.49167,-11
26.50000,-11
26.50833,-10
26.51667,-10
26.52500,-11
26.53333,-11
26.54167,-11
26.55000,-11
26.55833,-11
26.56667,-11
26.57500,-12
26.58333,-12
26.59167,-11
26.60000,-11
26.60833,-11
26.61667,-11
26.62500,-12
26.63333,-12
26.64167,-11
26.65000,-11
26.65833,-11
26.66667,-11
26.67500,-11
26.68333,-12
26.69167,-12
26.70000,-12
26.70833,-11
26.71667,-11
26.72500,-10
26.73333,-10
26.74167,-10
26.75000,-10
26.75833,-11
26.76667,-11
26.77500,-11
26.78333,-11
26.79167,-11
26.80000,-11
26.80833,-11
26.81667,-11
26.82500,-11
26.83333,-11
26.84167,-11
26.85000,-11
26.85833,-12
26.86667,-12
26.87500,-12
26.88333,-11
26.89167,-11
26.90000,-11
26.90833,-11
26.91667,-11
26.92500,-11
26.93333,-11
26.94167,-11
26.95000,-11
26.95833,-11
26.96667,-11
26.97500,-11
26.98333,-12
26.99167,-11
27.00000,-11
27.00833,-11
27.01667,-11
27.02500,-11
27.03333,-11
27.04167,-11
27.05000,-11
27.05833,-11
27.06667,-11
27.07500,-11
27.08333,-11
27.09167,-11
27.10000,-11
27.10833,-11
27.11667,-11
27.12500,-11
27.13333,-11
27.14167,-11
27.15000,-11
27.15833,-10
27.16667,-10
27.17500,-10
27.18333,-10
27.19167,-10
27.20000,-10
27.20833,-10
27.21667,-10
27.22500,-10
27.23333,-10
27.24167,-10
27.25000,-10
27.25833,-10
27.26667,-11
27.27500,-11
27.28333,-11
27.29167,-12
27.30000,-11
27.30833,-11
27.31667,-12
27.32500,-12
27.33333,-11
27.34167,-11
27.35000,-11
27.35833,-11
27.36667,-11
27.37500,-10
27.38333,-10
27.39167,-10
27.40000,-10
27.40833,-10
27.41667,-10
27.42500,-10
27.43333,-10
27.44167,-10
27.45000,-10
27.45833,-10
27.46667,-10
27.47500,-10
27.48333,-9
27.49167,-9
27.50000,-9
27.50833,-10
27.51667,-10
27.52500,-11
27.53333,-10
27.54167,-10
27.55000,-9
27.55833,-9
27.56667,-9
27.57500,-9
27.58333,-9
27.59167,-9
27.60000,-8
27.60833,-8
27.61667,-9
27.62500,-9
27.63333,-9
27.64167,-9
27.65000,-9
27.65833,-9
27.66667,-9
27.67500,-10
27.68333,-10
27.69167,-10
27.70000,-10
27.70833,-10
27.71667,-10
27.72500,-10
27.73333,-10
27.74167,-10
27.75000,-11
27.75833,-11
27.76667,-11
27.77500,-11
27.78333,-11
27.79167,-11
27.80000,-11
27.80833,-12
27.81667,-12
27.82500,-13
27.83333,-13
27.84167,-14
27.85000,-14
27.85833,-15
27.86667,-15
27.87500,-15
27.88333,-16
27.89167,-16
27.90000,-17
27.90833,-17
27.91667,-18
27.92500,-19
27.93333,-19
27.94167,-20
27.95000,-21
27.95833,-22
27.96667,-23
27.97500,-25
27.98333,-26
27.99167,-27
28.00000,-29
28.00833,-30
28.01667,-32
28.02500,-33
28.03333,-35
28.04167,-36
28.05000,-38
28.05833,-40
28.06667,-42
28.07500,-44
28.08333,-46
28.09167,-48
28.10000,-50
28.10833,-52
28.11667,-55
28.12500,-57
28.13333,-60
28.14167,-63
28.15000,-65
28.15833,-68
28.16667,-71
28.17500,-74
28.18333,-77
28.19167,-80
28.20000,-83
28.20833,-87
28.21667,-90
28.22500,-93
28.23333,-96
28.24167,-99
28.25000,-102
28.25833,-106
28.26667,-109
28.27500,-112
28.28333,-115
28.29167,-118
28.30000,-121
28.30833,-124
28.31667,-127
28.32500,-130
28.33333,-133
28.34167,-136
28.35000,-138
28.35833,-141
28.36667,-143
28.37500,-146
28.38333,-148
28.39167,-150
28.40000,-152
28.40833,-153
28.41667,-155
28.42500,-156
28.43333,-157
28.44167,-158
28.45000,-159
28.45833,-160
28.46667,-161
28.47500,-161
28.48333,-162
28.49167,-162
28.50000,-162
28.50833,-161
28.51667,-160
28.52500,-160
28.53333,-159
28.54167,-158
28.55000,-157
28.55833,-156
28.56667,-154
28.57500,-153
28.58333,-152
28.59167,-150
28.60000,-149
28.60833,-147
28.61667,-145
28.62500,-143
28.63333,-140
28.64167,-138
28.65000,-135
28.65833,-133
28.66667,-130
28.67500,-127
28.68333,-125
28.69167,-123
28.70000,-120
28.70833,-117
28.71667,-114
28.72500,-111
28.73333,-109
28.74167,-106
28.75000,-104
28.75833,-101
28.76667,-99
28.77500,-96
28.78333,-93
28.79167,-91
28.80000,-88
28.80833,-85
28.81667,-82
28.82500,-79
28.83333,-77
28.84167,-75
28.85000,-72
28.85833,-70
28.86667,-68
28.87500,-66
28.88333,-64
28.89167,-62
28.90000,-60
28.90833,-59
28.91667,-57
28.92500,-55
28.93333,-53
28.94167,-52
28.95000,-50
28.95833,-48
28.96667,-47
28.97500,-45
28.98333,-44
28.99167,-42
29.00000,-41
29.00833,-40
29.01667,-39
29.02500,-38
29.03333,-38
29.04167,-37
29.05000,-36
29.05833,-35
29.06667,-34
29.07500,-33
29.08333,-33
29.09167,-32
29.10000,-31
29.10833,-30
29.11667,-30
29.12500,-29
29.13333,-29
29.14167,-28
29.15000,-28
29.15833,-27
29.16667,-26
29.17500,-26
29.18333,-25
29.19167,-24
29.20000,-24
29.20833,-24
29.21667,-23
29.22500,-23
29.23333,-23
29.24167,-23
29.25000,-22
29.25833,-22
29.26667,-22
29.27500,-22
29.28333,-21
29.29167,-21
29.30000,-21
29.30833,-21
29.31667,-21
29.32500,-21
29.33333,-21
29.34167,-21
29.35000,-20
29.35833,-20
29.36667,-20
29.37500,-19
29.38333,-20
29.39167,-20
29.40000,-20
29.40833,-20
29.41667,-20
29.42500,-19
29.43333,-19
29.44167,-19
29.45000,-19
29.45833,-19
29.46667,-19
29.47500,-19
29.48333,-19
29.49167,-19
29.50000,-20
29.50833,-20
29.51667,-20
29.52500,-20
29.53333,-20
29.54167,-20
29.55000,-20
29.55833,-21
29.56667,-21
29.57500,-22
29.58333,-22
29.59167,-22
29.60000,-22
29.60833,-22
29.61667,-23
29.62500,-23
29.63333,-23
29.64167,-24
29.65000,-24
29.65833,-24
29.66667,-24
29.67500,-24
29.68333,-24
29.69167,-25
29.70000,-25
29.70833,-26
29.71667,-26
29.72500,-27
29.73333,-28
29.74167,-28
29.75000,-29
29.75833,-30
29.76667,-30
29.77500,-31
29.78333,-31
29.79167,-32
29.80000,-33
29.80833,-33
29.81667,-34
29.82500,-35
29.83333,-35
29.84167,-36
29.85000,-37
29.85833,-38
29.86667,-39
29.87500,-40
29.88333,-42
29.89167,-43
29.90000,-44
29.90833,-45
29.91667,-46
29.92500,-47
29.93333,-48
29.94167,-49
29.95000,-50
29.95833,-51
29.96667,-52
29.97500,-53
29.98333,-54
29.99167,-55
30.00000,-57
30.00833,-58
30.01667,-59
30.02500,-60
30.03333,-61
30.04167,-62
30.05000,-63
30.05833,-64
30.06667,-65
30.07500,-66
30.08333,-67
30.09167,-68
30.10000,-68
30.10833,-69
30.11667,-70
30.12500,-71
30.13333,-71
30.14167,-72
30.15000,-73
30.15833,-73
30.16667,-74
30.17500,-75
30.18333,-75
30.19167,-75
30.20000,-76
30.20833,-76
30.21667,-76
30.22500,-77
30.23333,-77
30.24167,-77
30.25000,-76
30.25833,-76
30.26667,-77
30.27500,-77
30.28333,-77
30.29167,-76
30.30000,-76
30.30833,-75
30.31667,-75
30.32500,-74
30.33333,-73
30.34167,-73
30.35000,-72
30.35833,-72
30.36667,-72
30.37500,-71
30.38333,-71
30.39167,-70
30.40000,-69
30.40833,-68
30.41667,-68
30.42500,-67
30.43333,-66
30.44167,-65
30.45000,-64
30.45833,-63
30.46667,-61
30.47500,-61
30.48333,-60
30.49167,-59
30.50000,-59
30.50833,-58
30.51667,-57
30.52500,-56
30.53333,-55
30.54167,-55
30.55000,-54
30.55833,-53
30.56667,-53
30.57500,-52
30.58333,-51
30.59167,-51
30.60000,-49
30.60833,-49
30.61667,-48
30.62500,-48
30.63333,-47
30.64167,-47
30.65000,-47
30.65833,-46
30.66667,-45
30.67500,-44
30.68333,-44
30.69167,-44
30.70000,-44
30.70833,-44
30.71667,-44
30.72500,-44
30.73333,-43
30.74167,-43
30.75000,-43
30.75833,-43
30.76667,-43
30.77500,-43
30.78333,-43
30.79167,-43
30.80000,-43
30.80833,-44
30.81667,-44
30.82500,-44
30.83333,-45
30.84167,-45
30.85000,-45
30.85833,-45
30.86667,-45
30.87500,-45
30.88333,-45
30.89167,-45
30.90000,-46
30.90833,-46
30.91667,-47
30.92500,-47
30.93333,-48
30.94167,-48
30.95000,-48
30.95833,-48
30.96667,-48
30.97500,-49
30.98333,-49
30.99167,-50
31.00000,-50
31.00833,-51
31.01667,-51
31.02500,-51
31.03333,-51
31.04167,-52
31.05000,-52
31.05833,-52
31.06667,-52
31.07500,-52
31.08333,-52
31.09167,-53
31.10000,-53
31.10833,-53
31.11667,-53
31.12500,-53
31.13333,-53
31.14167,-53
31.15000,-52
31.15833,-52
31.16667,-52
31.17500,-52
31.18333,-52
31.19167,-52
31.20000,-52
31.20833,-52
31.21667,-51
31.22500,-51
31.23333,-50
31.24167,-50
31.25000,-50
31.25833,-49
31.26667,-49
31.27500,-49
31.28333,-48
31.29167,-48
31.30000,-47
31.30833,-46
31.31667,-46
31.32500,-46
31.33333,-46
31.34167,-45
31.35000,-44
31.35833,-44
31.36667,-43
31.37500,-43
31.38333,-42
31.39167,-42
31.40000,-41
31.40833,-40
31.41667,-40
31.42500,-39
31.43333,-38
31.44167,-37
31.45000,-36
31.45833,-36
31.46667,-36
31.47500,-35
31.48333,-35
31.49167,-34
31.50000,-34
31.50833,-33
31.51667,-33
31.52500,-32
31.53333,-31
31.54167,-30
31.55000,-30
31.55833,-29
31.56667,-29
31.57500,-28
31.58333,-27
31.59167,-27
31.60000,-26
31.60833,-26
31.61667,-25
31.62500,-25
31.63333,-25
31.64167,-24
31.65000,-24
31.65833,-24
31.66667,-23
31.67500,-23
31.68333,-22
31.69167,-22
31.70000,-22
31.70833,-21
31.71667,-21
31.72500,-21
31.73333,-21
31.74167,-20
31.75000,-20
31.75833,-20
31.76667,-20
31.77500,-19
31.78333,-20
31.79167,-19
31.80000,-19
31.80833,-19
31.81667,-19
31.82500,-19
31.83333,-18
31.84167,-18
31.85000,-18
31.85833,-18
31.86667,-18
31.87500,-18
31.88333,-18
31.89167,-18
31.90000,-18
31.90833,-19
31.91667,-19
31.92500,-19
31.93333,-19
31.94167,-19
31.95000,-19
31.95833,-19
31.96667,-18
31.97500,-18
31.98333,-19
31.99167,-19
32.00000,-19
32.00833,-19
32.01667,-19
32.02500,-19
32.03333,-19
32.04167,-20
32.05000,-20
32.05833,-20
32.06667,-20
32.07500,-21
32.08333,-21
32.09167,-20
32.10000,-21
32.10833,-21
32.11667,-21
32.12500,-21
32.13333,-21
32.14167,-21
32.15000,-22
32.15833,-22
32.16667,-22
32.17500,-22
32.18333,-22
32.19167,-22
32.20000,-22
32.20833,-23
32.21667,-23
32.22500,-23
32.23333,-23
32.24167,-23
32.25000,-23
32.25833,-23
32.26667,-23
32.27500,-23
32.28333,-23
32.29167,-23
32.30000,-23
32.30833,-23
32.31667,-23
32.32500,-23
32.33333,-23
32.34167,-23
32.35000,-23
32.35833,-24
32.36667,-24
32.37500,-24
32.38333,-24
32.39167,-24
32.40000,-25
32.40833,-25
32.41667,-25
32.42500,-25
32.43333,-24
32.44167,-24
32.45000,-24
32.45833,-24
32.46667,-24
32.47500,-24
32.48333,-24
32.49167,-24
32.50000,-24
32.50833,-24
32.51667,-24
32.52500,-25
32.53333,-25
32.54167,-25
32.55000,-25
32.55833,-25
32.56667,-24
32.57500,-24
32.58333,-24
32.59167,-25
32.60000,-25
32.60833,-25
32.61667,-25
32.62500,-25
32.63333,-25
32.64167,-25
32.65000,-25
32.65833,-25
32.66667,-25
32.67500,-25
32.68333,-25
32.69167,-25
32.70000,-25
32.70833,-24
32.71667,-24
32.72500,-25
32.73333,-25
32.74167,-25
32.75000,-25
32.75833,-25
32.76667,-25
32.77500,-26
32.78333,-26
32.79167,-26
32.80000,-26
32.80833,-26
32.81667,-26
32.82500,-26
32.83333,-26
32.84167,-26
32.85000,-26
32.85833,-26
32.86667,-26
32.87500,-26
32.88333,-26
32.89167,-26
32.90000,-26
32.90833,-25
32.91667,-25
32.92500,-26
32.93333,-26
32.94167,-26
32.95000,-26
32.95833,-26
32.96667,-26
32.97500,-26
32.98333,-26
32.99167,-26
33.00000,-25
33.00833,-25
33.01667,-25
33.02500,-25
33.03333,-25
33.04167,-25
33.05000,-25
33.05833,-26
33.06667,-26
33.07500,-26
33.08333,-25
33.09167,-25
33.10000,-25
33.10833,-25
33.11667,-25
33.12500,-25
33.13333,-25
33.14167,-25
33.15000,-25
33.15833,-25
33.16667,-25
33.17500,-25
33.18333,-25
33.19167,-25
33.20000,-25
33.20833,-25
33.21667,-25
33.22500,-26
33.23333,-26
33.24167,-26
33.25000,-25
33.25833,-25
33.26667,-25
33.27500,-25
33.28333,-26
33.29167,-26
33.30000,-26
33.30833,-26
33.31667,-26
33.32500,-26
33.33333,-25
33.34167,-25
33.35000,-25
33.35833,-25
33.36667,-25
33.37500,-25
33.38333,-25
33.39167,-26
33.40000,-26
33.40833,-26
33.41667,-26
33.42500,-26
33.43333,-26
33.44167,-26
33.45000,-26
33.45833,-26
33.46667,-26
33.47500,-26
33.48333,-26
33.49167,-26
33.50000,-26
33.50833,-26
33.51667,-26
33.52500,-27
33.53333,-27
33.54167,-27
33.55000,-27
33.55833,-27
33.56667,-27
33.57500,-27
33.58333,-27
33.59167,-27
33.60000,-27
33.60833,-27
33.61667,-27
33.62500,-27
33.63333,-26
33.64167,-26
33.65000,-27
33.65833,-27
33.66667,-27
33.67500,-27
33.68333,-27
33.69167,-27
33.70000,-27
33.70833,-27
33.71667,-26
33.72500,-26
33.73333,-26
33.74167,-26
33.75000,-26
33.75833,-26
33.76667,-27
33.77500,-27
33.78333,-27
33.79167,-27
33.80000,-27
33.80833,-27
33.81667,-27
33.82500,-27
33.83333,-27
33.84167,-27
33.85000,-27
33.85833,-27
33.86667,-27
33.87500,-27
33.88333,-27
33.89167,-27
33.90000,-27
33.90833,-27
33.91667,-27
33.92500,-27
33.93333,-27
33.94167,-27
33.95000,-27
33.95833,-27
33.96667,-27
33.97500,-27
33.98333,-27
33.99167,-27
34.00000,-27
34.00833,-28
34.01667,-28
34.02500,-28
34.03333,-28
34.04167,-27
34.05000,-27
34.05833,-27
34.06667,-27
34.07500,-27
34.08333,-27
34.09167,-27
34.10000,-27
34.10833,-27
34.11667,-27
34.12500,-27
34.13333,-28
34.14167,-27
34.15000,-27
34.15833,-27
34.16667,-27
34.17500,-27
34.18333,-27
34.19167,-27
34.20000,-27
34.20833,-27
34.21667,-27
34.22500,-27
34.23333,-28
34.24167,-27
34.25000,-27
34.25833,-27
34.26667,-27
34.27500,-27
34.28333,-27
34.29167,-26
34.30000,-26
34.30833,-26
34.31667,-26
34.32500,-26
34.33333,-27
34.34167,-27
34.35000,-27
34.35833,-27
34.36667,-27
34.37500,-27
34.38333,-27
34.39167,-27
34.40000,-27
34.40833,-27
34.41667,-27
34.42500,-27
34.43333,-27
34.44167,-27
34.45000,-27
34.45833,-28
34.46667,-28
34.47500,-28
34.48333,-28
34.49167,-27
34.50000,-27
34.50833,-27
34.51667,-27
34.52500,-26
34.53333,-26
34.54167,-26
34.55000,-26
34.55833,-27
34.56667,-27
34.57500,-27
34.58333,-27
34.59167,-28
34.60000,-28
34.60833,-28
34.61667,-27
34.62500,-27
34.63333,-27
34.64167,-27
34.65000,-27
34.65833,-26
34.66667,-26
34.67500,-26
34.68333,-26
34.69167,-27
34.70000,-27
34.70833,-27
34.71667,-27
34.72500,-27
34.73333,-27
34.74167,-27
34.75000,-27
34.75833,-27
34.76667,-27
34.77500,-28
34.78333,-27
34.79167,-27
34.80000,-27
34.80833,-27
34.81667,-27
34.82500,-27
34.83333,-27
34.84167,-27
34.85000,-27
34.85833,-28
34.86667,-28
34.87500,-29
34.88333,-28
34.89167,-28
34.90000,-28
34.90833,-27
34.91667,-27
34.92500,-27
34.93333,-27
34.94167,-27
34.95000,-27
34.95833,-27
34.96667,-27
34.97500,-28
34.98333,-28
34.99167,-28
35.00000,-28
35.00833,-28
35.01667,-28
35.02500,-28
35.03333,-28
35.04167,-28
35.05000,-28
35.05833,-28
35.06667,-28
35.07500,-28
35.08333,-28
35.09167,-28
35.10000,-28
35.10833,-28
35.11667,-28
35.12500,-28
35.13333,-28
35.14167,-28
35.15000,-28
35.15833,-28
35.16667,-28
35.17500,-28
35.18333,-28
35.19167,-28
35.20000,-28
35.20833,-28
35.21667,-28
35.22500,-28
35.23333,-28
35.24167,-29
35.25000,-29
35.25833,-29
35.26667,-29
35.27500,-29
35.28333,-29
35.29167,-29
35.30000,-29
35.30833,-29
35.31667,-28
35.32500,-29
35.33333,-29
35.34167,-29
35.35000,-29
35.35833,-29
35.36667,-30
35.37500,-30
35.38333,-30
35.39167,-30
35.40000,-30
35.40833,-30
35.41667,-29
35.42500,-29
35.43333,-29
35.44167,-29
35.45000,-29
35.45833,-29
35.46667,-29
35.47500,-29
35.48333,-29
35.49167,-29
35.50000,-29
35.50833,-30
35.51667,-30
35.52500,-30
35.53333,-30
35.54167,-30
35.55000,-30
35.55833,-30
35.56667,-30
35.57500,-30
35.58333,-30
35.59167,-30
35.60000,-30
35.60833,-30
35.61667,-30
35.62500,-30
35.63333,-30
35.64167,-30
35.65000,-30
35.65833,-29
35.66667,-30
35.67500,-29
35.68333,-29
35.69167,-29
35.70000,-29
35.70833,-29
35.71667,-28
35.72500,-28
35.73333,-29
35.74167,-29
35.75000,-29
35.75833,-29
35.76667,-29
35.77500,-29
35.78333,-29
35.79167,-29
35.80000,-29
35.80833,-30
35.81667,-30
35.82500,-29
35.83333,-29
35.84167,-29
35.85000,-29
35.85833,-29
35.86667,-29
35.87500,-29
35.88333,-29
35.89167,-29
35.90000,-29
35.90833,-29
35.91667,-29
35.92500,-28
35.93333,-28
35.94167,-28
35.95000,-29
35.95833,-29
35.96667,-29
35.97500,-29
35.98333,-29
35.99167,-29
36.00000,-29
36.00833,-28
36.01667,-28
36.02500,-29
36.03333,-29
36.04167,-29
36.05000,-29
36.05833,-29
36.06667,-29
36.07500,-29
36.08333,-29
36.09167,-29
36.10000,-29
36.10833,-29
36.11667,-28
36.12500,-28
36.13333,-28
36.14167,-28
36.15000,-28
36.15833,-28
36.16667,-28
36.17500,-28
36.18333,-29
36.19167,-29
36.20000,-29
36.20833,-30
36.21667,-30
36.22500,-30
36.23333,-30
36.24167,-30
36.25000,-30
36.25833,-30
36.26667,-31
36.27500,-30
36.28333,-31
36.29167,-31
36.30000,-31
36.30833,-31
36.31667,-31
36.32500,-31
36.33333,-31
36.34167,-30
36.35000,-30
36.35833,-30
36.36667,-30
36.37500,-30
36.38333,-30
36.39167,-31
36.40000,-30
36.40833,-30
36.41667,-30
36.42500,-30
36.43333,-30
36.44167,-30
36.45000,-31
36.45833,-31
36.46667,-31
36.47500,-31
36.48333,-31
36.49167,-31
36.50000,-31
36.50833,-31
36.51667,-31
36.52500,-31
36.53333,-31
36.54167,-31
36.55000,-31
36.55833,-31
36.56667,-31
36.57500,-31
36.58333,-31
36.59167,-31
36.60000,-31
36.60833,-31
36.61667,-31
36.62500,-31
36.63333,-31
36.64167,-31
36.65000,-31
36.65833,-30
36.66667,-30
36.67500,-31
36.68333,-31
36.69167,-31
36.70000,-31
36.70833,-31
36.71667,-31
36.72500,-31
36.73333,-31
36.74167,-30
36.75000,-30
36.75833,-30
36.76667,-30
36.77500,-30
36.78333,-30
36.79167,-30
36.80000,-31
36.80833,-31
36.81667,-31
36.82500,-31
36.83333,-31
36.84167,-31
36.85000,-31
36.85833,-31
36.86667,-30
36.87500,-30
36.88333,-30
36.89167,-29
36.90000,-30
36.90833,-30
36.91667,-30
36.92500,-30
36.93333,-30
36.94167,-30
36.95000,-30
36.95833,-30
36.96667,-30
36.97500,-30
36.98333,-30
36.99167,-30
37.00000,-30
37.00833,-30
37.01667,-30
37.02500,-30
37.03333,-30
37.04167,-30
37.05000,-30
37.05833,-30
37.06667,-30
37.07500,-30
37.08333,-30
37.09167,-30
37.10000,-30
37.10833,-30
37.11667,-30
37.12500,-30
37.13333,-30
37.14167,-30
37.15000,-30
37.15833,-30
37.16667,-30
37.17500,-30
37.18333,-30
37.19167,-30
37.20000,-30
37.20833,-30
37.21667,-30
37.22500,-30
37.23333,-30
37.24167,-31
37.25000,-31
37.25833,-31
37.26667,-31
37.27500,-31
37.28333,-31
37.29167,-31
37.30000,-31
37.30833,-30
37.31667,-30
37.32500,-30
37.33333,-31
37.34167,-31
37.35000,-31
37.35833,-31
37.36667,-31
37.37500,-31
37.38333,-31
37.39167,-31
37.40000,-31
37.40833,-31
37.41667,-31
37.42500,-31
37.43333,-31
37.44167,-31
37.45000,-31
37.45833,-31
37.46667,-31
37.47500,-31
37.48333,-31
37.49167,-31
37.50000,-31
37.50833,-31
37.51667,-31
37.52500,-31
37.53333,-31
37.54167,-31
37.55000,-31
37.55833,-31
37.56667,-31
37.57500,-31
37.58333,-31
37.59167,-31
37.60000,-31
37.60833,-31
37.61667,-31
37.62500,-31
37.63333,-31
37.64167,-31
37.65000,-31
37.65833,-31
37.66667,-31
37.67500,-31
37.68333,-32
37.69167,-32
37.70000,-31
37.70833,-31
37.71667,-32
37.72500,-32
37.73333,-32
37.74167,-32
37.75000,-32
37.75833,-32
37.76667,-32
37.77500,-31
37.78333,-31
37.79167,-31
37.80000,-31
37.80833,-31
37.81667,-31
37.82500,-31
37.83333,-32
37.84167,-32
37.85000,-32
37.85833,-32
37.86667,-31
37.87500,-31
37.88333,-31
37.89167,-31
37.90000,-31
37.90833,-31
37.91667,-31
37.92500,-31
37.93333,-31
37.94167,-31
37.95000,-31
37.95833,-31
37.96667,-31
37.97500,-32
37.98333,-32
37.99167,-32
38.00000,-32
38.00833,-31
38.01667,-32
38.02500,-32
38.03333,-32
38.04167,-32
38.05000,-31
38.05833,-31
38.06667,-31
38.07500,-31
38.08333,-32
38.09167,-32
38.10000,-31
38.10833,-31
38.11667,-31
38.12500,-31
38.13333,-31
38.14167,-31
38.15000,-31
38.15833,-31
38.16667,-31
38.17500,-31
38.18333,-31
38.19167,-31
38.20000,-32
38.20833,-32
38.21667,-32
38.22500,-32
38.23333,-32
38.24167,-32
38.25000,-32
38.25833,-32
38.26667,-32
38.27500,-32
38.28333,-32
38.29167,-32
38.30000,-32
38.30833,-32
38.31667,-32
38.32500,-32
38.33333,-32
38.34167,-32
38.35000,-32
38.35833,-32
38.36667,-32
38.37500,-32
38.38333,-32
38.39167,-32
38.40000,-32
38.40833,-33
38.41667,-33
38.42500,-33
38.43333,-33
38.44167,-33
38.45000,-33
38.45833,-33
38.46667,-33
38.47500,-33
38.48333,-33
38.49167,-33
38.50000,-33
38.50833,-33
38.51667,-33
38.52500,-33
38.53333,-33
38.54167,-33
38.55000,-33
38.55833,-33
38.56667,-33
38.57500,-33
38.58333,-33
38.59167,-33
38.60000,-33
38.60833,-33
38.61667,-33
38.62500,-33
38.63333,-33
38.64167,-33
38.65000,-33
38.65833,-34
38.66667,-34
38.67500,-34
38.68333,-34
38.69167,-33
38.70000,-33
38.70833,-34
38.71667,-34
38.72500,-33
38.73333,-33
38.74167,-33
38.75000,-33
38.75833,-33
38.76667,-34
38.77500,-34
38.78333,-34
38.79167,-34
38.80000,-34
38.80833,-34
38.81667,-34
38.82500,-34
38.83333,-34
38.84167,-34
38.85000,-34
38.85833,-35
38.86667,-34
38.87500,-34
38.88333,-33
38.89167,-33
38.90000,-33
38.90833,-33
38.91667,-33
38.92500,-33
38.93333,-33
38.94167,-33
38.95000,-33
38.95833,-34
38.96667,-34
38.97500,-34
38.98333,-34
38.99167,-34
39.00000,-34
39.00833,-34
39.01667,-34
39.02500,-34
39.03333,-34
39.04167,-34
39.05000,-34
39.05833,-34
39.06667,-34
39.07500,-34
39.08333,-34
39.09167,-34
39.10000,-34
39.10833,-34
39.11667,-34
39.12500,-34
39.13333,-34
39.14167,-35
39.15000,-35
39.15833,-35
39.16667,-35
39.17500,-35
39.18333,-35
39.19167,-35
39.20000,-35
39.20833,-34
39.21667,-34
39.22500,-34
39.23333,-34
39.24167,-35
39.25000,-35
39.25833,-35
39.26667,-35
39.27500,-35
39.28333,-35
39.29167,-35
39.30000,-35
39.30833,-35
39.31667,-35
39.32500,-34
39.33333,-34
39.34167,-34
39.35000,-34
39.35833,-35
39.36667,-35
39.37500,-35
39.38333,-35
39.39167,-35
39.40000,-35
39.40833,-35
39.41667,-36
39.42500,-35
39.43333,-35
39.44167,-35
39.45000,-35
39.45833,-35
39.46667,-35
39.47500,-35
39.48333,-35
39.49167,-35
39.50000,-34
39.50833,-34
39.51667,-33
39.52500,-33
39.53333,-33
39.54167,-33
39.55000,-34
39.55833,-34
39.56667,-34
39.57500,-34
39.58333,-34
39.59167,-34
39.60000,-35
39.60833,-35
39.61667,-35
39.62500,-35
39.63333,-35
39.64167,-35
39.65000,-35
39.65833,-35
39.66667,-35
39.67500,-35
39.68333,-35
39.69167,-35
39.70000,-34
39.70833,-34
39.71667,-34
39.72500,-34
39.73333,-35
39.74167,-35
39.75000,-35
39.75833,-35
39.76667,-35
39.77500,-36
39.78333,-36
39.79167,-35
39.80000,-35
39.80833,-35
39.81667,-35
39.82500,-35
39.83333,-35
39.84167,-35
39.85000,-35
39.85833,-35
39.86667,-35
39.87500,-35
39.88333,-35
39.89167,-35
39.90000,-35
39.90833,-35
39.91667,-35
39.92500,-35
39.93333,-35
39.94167,-35
39.95000,-35
39.95833,-35
39.96667,-35
39.97500,-35
39.98333,-35
39.99167,-34
40.00000,-34

