[Header]
Application Name,LabSolutions
Version,5.97 SP1
Data File Name,C:\Users\cremerlab\Desktop\griffin\2021-03-31_NCM3722_NCglucose_turnover\2021-03-31_NCM3722_turnover_batch_3312021_002_009.lcd
Output Date,4/1/2021
Output Time,1:16:39 AM

[File Information]
Type,Data File
Generated,4/1/2021 12:36:21 AM
Generated by,System Administrator
Modified,4/1/2021 1:16:39 AM
Modified by,System Administrator

[Sample Information]
Operator Name,System Administrator
Acquired,4/1/2021 12:36:39 AM
Sample Type,1:Standard
Level,2
Sample Name,2021-03-31_NCM3722_NCglucose_replicate_02_timepoint_002
Sample ID,002
ISTD Amount1,1
ISTD Amount2,1
ISTD Amount3,1
ISTD Amount4,1
ISTD Amount5,1
ISTD Amount6,1
ISTD Amount7,1
ISTD Amount8,1
ISTD Amount9,1
ISTD Amount10,1
ISTD Amount11,1
ISTD Amount12,1
ISTD Amount13,1
ISTD Amount14,1
ISTD Amount15,1
ISTD Amount16,1
ISTD Amount17,1
ISTD Amount18,1
ISTD Amount19,1
ISTD Amount20,1
ISTD Amount21,1
ISTD Amount22,1
ISTD Amount23,1
ISTD Amount24,1
ISTD Amount25,1
ISTD Amount26,1
ISTD Amount27,1
ISTD Amount28,1
ISTD Amount29,1
ISTD Amount30,1
ISTD Amount31,1
ISTD Amount32,1
Sample Amount,1
Dilution Factor,1
Vial#,20
Injection Volume,20

[Original Files]
Data File,C:\Users\cremerlab\Desktop\griffin\2021-03-31_NCM3722_NCglucose_turnover\2021-03-31_NCM3722_turnover_batch_3312021_002_009.lcd
Method File,C:\LabSolutions\Data\Project1\organicacidsetc2.lcm
Batch File,C:\Users\cremerlab\Desktop\griffin\2021-03-31_NCM3722_NCglucose_turnover\2021-03-31_NCM3722_turnover_batch.lcb
Report Format File,c:\LabSolutions\System\DEFAULT.lsr

[File Description]


[Configuration]
Instrument Name,HPLC-PC-Instrument1
Instrument #,1
Line #,1
# of Detectors,2
Detector ID,Detector A,Detector B
Detector Name,Detector A,Detector B
# of Channels,1,1

[Peak Table(Detector A)]
# of Peaks,0

[Peak Table(Detector B)]
# of Peaks,4
Peak#,R.Time,I.Time,F.Time,Area,Height,A/H,Conc.,Mark,ID#,Name,k',Plate #,Plate Ht.,Tailing,Resolution,Sep.Factor,Area Ratio,Height Ratio,Conc. %,Norm Conc.
1,11.056,10.750,12.425,1226867,71121,17.250,0.000,   ,,,0.000,10723,13.988,1.258,0.000,0.000,0,0,0.000,0.000
2,15.100,14.092,15.383,3175963,119346,26.611,0.000,   ,,,0.366,6999,21.432,0.000,7.039,0.000,0,0,0.000,0.000
3,15.632,15.383,18.542,988006,39735,24.865,0.000, V ,,,0.414,7974,18.812,0.000,0.748,1.131,0,0,0.000,0.000
4,25.048,24.633,25.600,4031,150,26.925,0.000,   ,,,1.266,19048,7.875,1.128,13.205,3.058,0,0,0.000,0.000

[LC Chromatogram(Detector B-Ch1)]
Interval(msec),500
# of Points,4801
Start Time(min),0.000
End Time(min),40.000
Intensity Units,mV
Intensity Multiplier,0.001
R.Time (min),Intensity
0.00000,0
0.00833,0
0.01667,0
0.02500,-0
0.03333,-0
0.04167,-0
0.05000,-0
0.05833,-0
0.06667,-1
0.07500,-1
0.08333,-0
0.09167,-0
0.10000,-0
0.10833,0
0.11667,0
0.12500,0
0.13333,0
0.14167,0
0.15000,1
0.15833,1
0.16667,1
0.17500,0
0.18333,0
0.19167,-0
0.20000,-1
0.20833,-1
0.21667,-1
0.22500,-0
0.23333,-0
0.24167,0
0.25000,0
0.25833,0
0.26667,0
0.27500,0
0.28333,1
0.29167,1
0.30000,1
0.30833,1
0.31667,1
0.32500,2
0.33333,2
0.34167,2
0.35000,1
0.35833,1
0.36667,1
0.37500,1
0.38333,1
0.39167,0
0.40000,1
0.40833,1
0.41667,0
0.42500,0
0.43333,0
0.44167,1
0.45000,1
0.45833,1
0.46667,1
0.47500,2
0.48333,2
0.49167,2
0.50000,2
0.50833,2
0.51667,2
0.52500,2
0.53333,2
0.54167,2
0.55000,2
0.55833,2
0.56667,2
0.57500,2
0.58333,2
0.59167,3
0.60000,3
0.60833,3
0.61667,2
0.62500,2
0.63333,2
0.64167,2
0.65000,2
0.65833,2
0.66667,2
0.67500,2
0.68333,3
0.69167,3
0.70000,3
0.70833,3
0.71667,3
0.72500,3
0.73333,3
0.74167,3
0.75000,3
0.75833,3
0.76667,3
0.77500,3
0.78333,3
0.79167,3
0.80000,3
0.80833,3
0.81667,3
0.82500,3
0.83333,3
0.84167,3
0.85000,3
0.85833,3
0.86667,3
0.87500,3
0.88333,3
0.89167,3
0.90000,3
0.90833,3
0.91667,3
0.92500,3
0.93333,3
0.94167,3
0.95000,4
0.95833,4
0.96667,4
0.97500,4
0.98333,4
0.99167,4
1.00000,5
1.00833,5
1.01667,5
1.02500,5
1.03333,4
1.04167,4
1.05000,4
1.05833,4
1.06667,4
1.07500,4
1.08333,3
1.09167,4
1.10000,4
1.10833,4
1.11667,4
1.12500,4
1.13333,4
1.14167,4
1.15000,5
1.15833,5
1.16667,5
1.17500,5
1.18333,6
1.19167,6
1.20000,6
1.20833,6
1.21667,6
1.22500,5
1.23333,5
1.24167,5
1.25000,5
1.25833,5
1.26667,5
1.27500,5
1.28333,5
1.29167,6
1.30000,6
1.30833,6
1.31667,6
1.32500,6
1.33333,6
1.34167,6
1.35000,6
1.35833,6
1.36667,6
1.37500,6
1.38333,6
1.39167,6
1.40000,6
1.40833,6
1.41667,6
1.42500,6
1.43333,5
1.44167,5
1.45000,5
1.45833,5
1.46667,5
1.47500,5
1.48333,6
1.49167,6
1.50000,6
1.50833,6
1.51667,6
1.52500,6
1.53333,6
1.54167,6
1.55000,6
1.55833,6
1.56667,6
1.57500,6
1.58333,6
1.59167,6
1.60000,6
1.60833,6
1.61667,7
1.62500,7
1.63333,7
1.64167,7
1.65000,7
1.65833,7
1.66667,7
1.67500,7
1.68333,8
1.69167,8
1.70000,8
1.70833,8
1.71667,8
1.72500,8
1.73333,9
1.74167,9
1.75000,9
1.75833,9
1.76667,9
1.77500,9
1.78333,9
1.79167,10
1.80000,10
1.80833,10
1.81667,10
1.82500,10
1.83333,10
1.84167,10
1.85000,10
1.85833,10
1.86667,10
1.87500,10
1.88333,10
1.89167,10
1.90000,10
1.90833,10
1.91667,11
1.92500,11
1.93333,11
1.94167,11
1.95000,11
1.95833,10
1.96667,10
1.97500,10
1.98333,10
1.99167,10
2.00000,10
2.00833,10
2.01667,11
2.02500,11
2.03333,11
2.04167,11
2.05000,11
2.05833,11
2.06667,11
2.07500,12
2.08333,12
2.09167,12
2.10000,12
2.10833,12
2.11667,12
2.12500,12
2.13333,12
2.14167,12
2.15000,12
2.15833,13
2.16667,13
2.17500,13
2.18333,13
2.19167,12
2.20000,12
2.20833,12
2.21667,12
2.22500,12
2.23333,12
2.24167,12
2.25000,11
2.25833,11
2.26667,11
2.27500,11
2.28333,12
2.29167,12
2.30000,12
2.30833,12
2.31667,11
2.32500,11
2.33333,11
2.34167,11
2.35000,11
2.35833,12
2.36667,12
2.37500,12
2.38333,12
2.39167,12
2.40000,12
2.40833,12
2.41667,12
2.42500,12
2.43333,11
2.44167,11
2.45000,11
2.45833,11
2.46667,11
2.47500,11
2.48333,11
2.49167,11
2.50000,10
2.50833,10
2.51667,10
2.52500,11
2.53333,11
2.54167,11
2.55000,11
2.55833,11
2.56667,11
2.57500,11
2.58333,11
2.59167,11
2.60000,11
2.60833,11
2.61667,11
2.62500,11
2.63333,11
2.64167,11
2.65000,11
2.65833,11
2.66667,11
2.67500,11
2.68333,10
2.69167,10
2.70000,10
2.70833,10
2.71667,10
2.72500,10
2.73333,10
2.74167,10
2.75000,10
2.75833,10
2.76667,10
2.77500,10
2.78333,10
2.79167,10
2.80000,10
2.80833,10
2.81667,10
2.82500,10
2.83333,10
2.84167,10
2.85000,9
2.85833,9
2.86667,9
2.87500,9
2.88333,9
2.89167,9
2.90000,9
2.90833,9
2.91667,9
2.92500,9
2.93333,9
2.94167,9
2.95000,9
2.95833,9
2.96667,9
2.97500,9
2.98333,9
2.99167,10
3.00000,9
3.00833,9
3.01667,9
3.02500,9
3.03333,9
3.04167,10
3.05000,10
3.05833,9
3.06667,9
3.07500,9
3.08333,9
3.09167,9
3.10000,10
3.10833,10
3.11667,10
3.12500,10
3.13333,10
3.14167,10
3.15000,11
3.15833,11
3.16667,10
3.17500,10
3.18333,10
3.19167,10
3.20000,10
3.20833,10
3.21667,10
3.22500,10
3.23333,10
3.24167,10
3.25000,10
3.25833,10
3.26667,10
3.27500,10
3.28333,10
3.29167,11
3.30000,11
3.30833,11
3.31667,11
3.32500,11
3.33333,11
3.34167,11
3.35000,11
3.35833,11
3.36667,11
3.37500,12
3.38333,12
3.39167,12
3.40000,12
3.40833,12
3.41667,12
3.42500,12
3.43333,12
3.44167,12
3.45000,12
3.45833,12
3.46667,12
3.47500,12
3.48333,12
3.49167,12
3.50000,13
3.50833,13
3.51667,13
3.52500,13
3.53333,13
3.54167,13
3.55000,13
3.55833,13
3.56667,13
3.57500,13
3.58333,13
3.59167,13
3.60000,13
3.60833,14
3.61667,14
3.62500,14
3.63333,14
3.64167,14
3.65000,14
3.65833,14
3.66667,14
3.67500,14
3.68333,14
3.69167,14
3.70000,14
3.70833,14
3.71667,15
3.72500,15
3.73333,15
3.74167,15
3.75000,15
3.75833,15
3.76667,15
3.77500,15
3.78333,15
3.79167,15
3.80000,15
3.80833,15
3.81667,16
3.82500,16
3.83333,16
3.84167,17
3.85000,17
3.85833,17
3.86667,17
3.87500,17
3.88333,17
3.89167,17
3.90000,17
3.90833,17
3.91667,17
3.92500,17
3.93333,17
3.94167,17
3.95000,17
3.95833,17
3.96667,17
3.97500,16
3.98333,16
3.99167,17
4.00000,17
4.00833,17
4.01667,18
4.02500,18
4.03333,18
4.04167,18
4.05000,18
4.05833,18
4.06667,18
4.07500,18
4.08333,18
4.09167,18
4.10000,18
4.10833,18
4.11667,19
4.12500,19
4.13333,19
4.14167,19
4.15000,19
4.15833,19
4.16667,19
4.17500,19
4.18333,19
4.19167,19
4.20000,20
4.20833,20
4.21667,20
4.22500,19
4.23333,19
4.24167,18
4.25000,18
4.25833,18
4.26667,19
4.27500,19
4.28333,19
4.29167,19
4.30000,19
4.30833,18
4.31667,18
4.32500,18
4.33333,18
4.34167,19
4.35000,19
4.35833,19
4.36667,19
4.37500,19
4.38333,19
4.39167,19
4.40000,19
4.40833,19
4.41667,19
4.42500,19
4.43333,19
4.44167,19
4.45000,19
4.45833,19
4.46667,19
4.47500,19
4.48333,19
4.49167,19
4.50000,19
4.50833,19
4.51667,19
4.52500,19
4.53333,18
4.54167,18
4.55000,18
4.55833,18
4.56667,18
4.57500,18
4.58333,18
4.59167,18
4.60000,18
4.60833,18
4.61667,18
4.62500,18
4.63333,18
4.64167,18
4.65000,18
4.65833,17
4.66667,17
4.67500,17
4.68333,17
4.69167,17
4.70000,17
4.70833,17
4.71667,17
4.72500,18
4.73333,18
4.74167,18
4.75000,18
4.75833,18
4.76667,17
4.77500,17
4.78333,17
4.79167,17
4.80000,17
4.80833,17
4.81667,17
4.82500,17
4.83333,18
4.84167,17
4.85000,17
4.85833,17
4.86667,17
4.87500,17
4.88333,17
4.89167,17
4.90000,18
4.90833,18
4.91667,18
4.92500,18
4.93333,18
4.94167,18
4.95000,18
4.95833,18
4.96667,18
4.97500,18
4.98333,18
4.99167,18
5.00000,18
5.00833,18
5.01667,18
5.02500,18
5.03333,18
5.04167,18
5.05000,19
5.05833,19
5.06667,19
5.07500,19
5.08333,18
5.09167,18
5.10000,18
5.10833,18
5.11667,18
5.12500,19
5.13333,19
5.14167,19
5.15000,19
5.15833,20
5.16667,20
5.17500,20
5.18333,20
5.19167,20
5.20000,20
5.20833,20
5.21667,19
5.22500,19
5.23333,19
5.24167,19
5.25000,20
5.25833,20
5.26667,20
5.27500,20
5.28333,20
5.29167,20
5.30000,19
5.30833,19
5.31667,19
5.32500,19
5.33333,19
5.34167,19
5.35000,18
5.35833,19
5.36667,19
5.37500,19
5.38333,18
5.39167,18
5.40000,18
5.40833,19
5.41667,19
5.42500,19
5.43333,19
5.44167,19
5.45000,19
5.45833,19
5.46667,19
5.47500,19
5.48333,19
5.49167,19
5.50000,19
5.50833,20
5.51667,20
5.52500,20
5.53333,20
5.54167,20
5.55000,20
5.55833,21
5.56667,21
5.57500,21
5.58333,21
5.59167,21
5.60000,21
5.60833,21
5.61667,21
5.62500,21
5.63333,21
5.64167,21
5.65000,21
5.65833,21
5.66667,21
5.67500,21
5.68333,21
5.69167,21
5.70000,21
5.70833,21
5.71667,21
5.72500,21
5.73333,21
5.74167,21
5.75000,21
5.75833,21
5.76667,20
5.77500,20
5.78333,20
5.79167,21
5.80000,21
5.80833,20
5.81667,20
5.82500,20
5.83333,20
5.84167,20
5.85000,21
5.85833,21
5.86667,21
5.87500,22
5.88333,22
5.89167,22
5.90000,22
5.90833,22
5.91667,21
5.92500,22
5.93333,22
5.94167,21
5.95000,21
5.95833,21
5.96667,21
5.97500,21
5.98333,21
5.99167,21
6.00000,21
6.00833,21
6.01667,21
6.02500,21
6.03333,21
6.04167,21
6.05000,22
6.05833,22
6.06667,22
6.07500,22
6.08333,22
6.09167,22
6.10000,22
6.10833,22
6.11667,22
6.12500,22
6.13333,22
6.14167,22
6.15000,22
6.15833,22
6.16667,22
6.17500,22
6.18333,22
6.19167,22
6.20000,23
6.20833,23
6.21667,23
6.22500,23
6.23333,23
6.24167,22
6.25000,23
6.25833,23
6.26667,23
6.27500,23
6.28333,23
6.29167,24
6.30000,24
6.30833,24
6.31667,24
6.32500,23
6.33333,23
6.34167,23
6.35000,24
6.35833,24
6.36667,23
6.37500,23
6.38333,23
6.39167,23
6.40000,23
6.40833,23
6.41667,23
6.42500,23
6.43333,23
6.44167,23
6.45000,23
6.45833,23
6.46667,23
6.47500,23
6.48333,23
6.49167,23
6.50000,23
6.50833,24
6.51667,24
6.52500,24
6.53333,25
6.54167,25
6.55000,25
6.55833,25
6.56667,24
6.57500,24
6.58333,24
6.59167,24
6.60000,24
6.60833,24
6.61667,24
6.62500,24
6.63333,24
6.64167,24
6.65000,24
6.65833,24
6.66667,24
6.67500,24
6.68333,25
6.69167,25
6.70000,25
6.70833,25
6.71667,25
6.72500,25
6.73333,25
6.74167,26
6.75000,26
6.75833,26
6.76667,26
6.77500,25
6.78333,25
6.79167,25
6.80000,25
6.80833,25
6.81667,25
6.82500,25
6.83333,25
6.84167,26
6.85000,26
6.85833,25
6.86667,25
6.87500,25
6.88333,26
6.89167,26
6.90000,26
6.90833,26
6.91667,26
6.92500,26
6.93333,27
6.94167,27
6.95000,27
6.95833,26
6.96667,26
6.97500,27
6.98333,27
6.99167,27
7.00000,27
7.00833,27
7.01667,27
7.02500,27
7.03333,27
7.04167,27
7.05000,27
7.05833,27
7.06667,27
7.07500,27
7.08333,27
7.09167,26
7.10000,26
7.10833,26
7.11667,26
7.12500,26
7.13333,26
7.14167,26
7.15000,26
7.15833,27
7.16667,27
7.17500,28
7.18333,28
7.19167,28
7.20000,27
7.20833,27
7.21667,27
7.22500,27
7.23333,27
7.24167,27
7.25000,27
7.25833,28
7.26667,28
7.27500,28
7.28333,28
7.29167,28
7.30000,28
7.30833,28
7.31667,28
7.32500,28
7.33333,28
7.34167,28
7.35000,28
7.35833,28
7.36667,28
7.37500,28
7.38333,28
7.39167,28
7.40000,28
7.40833,28
7.41667,28
7.42500,28
7.43333,28
7.44167,28
7.45000,28
7.45833,28
7.46667,28
7.47500,28
7.48333,28
7.49167,28
7.50000,28
7.50833,28
7.51667,28
7.52500,29
7.53333,29
7.54167,29
7.55000,29
7.55833,29
7.56667,29
7.57500,29
7.58333,29
7.59167,29
7.60000,29
7.60833,30
7.61667,30
7.62500,29
7.63333,29
7.64167,29
7.65000,29
7.65833,29
7.66667,29
7.67500,29
7.68333,29
7.69167,29
7.70000,30
7.70833,30
7.71667,30
7.72500,30
7.73333,29
7.74167,29
7.75000,29
7.75833,29
7.76667,29
7.77500,29
7.78333,29
7.79167,29
7.80000,29
7.80833,29
7.81667,29
7.82500,29
7.83333,29
7.84167,30
7.85000,30
7.85833,30
7.86667,30
7.87500,30
7.88333,30
7.89167,30
7.90000,29
7.90833,29
7.91667,29
7.92500,29
7.93333,30
7.94167,30
7.95000,30
7.95833,30
7.96667,30
7.97500,30
7.98333,30
7.99167,31
8.00000,31
8.00833,31
8.01667,30
8.02500,30
8.03333,30
8.04167,30
8.05000,30
8.05833,30
8.06667,30
8.07500,30
8.08333,30
8.09167,31
8.10000,31
8.10833,31
8.11667,31
8.12500,31
8.13333,31
8.14167,31
8.15000,31
8.15833,31
8.16667,31
8.17500,31
8.18333,30
8.19167,30
8.20000,31
8.20833,31
8.21667,31
8.22500,31
8.23333,31
8.24167,30
8.25000,30
8.25833,30
8.26667,30
8.27500,30
8.28333,30
8.29167,30
8.30000,30
8.30833,30
8.31667,31
8.32500,31
8.33333,31
8.34167,31
8.35000,31
8.35833,31
8.36667,31
8.37500,31
8.38333,31
8.39167,31
8.40000,31
8.40833,32
8.41667,32
8.42500,32
8.43333,32
8.44167,32
8.45000,32
8.45833,32
8.46667,32
8.47500,32
8.48333,33
8.49167,33
8.50000,33
8.50833,33
8.51667,33
8.52500,33
8.53333,33
8.54167,33
8.55000,32
8.55833,32
8.56667,32
8.57500,32
8.58333,32
8.59167,32
8.60000,32
8.60833,32
8.61667,33
8.62500,33
8.63333,33
8.64167,33
8.65000,33
8.65833,32
8.66667,32
8.67500,33
8.68333,33
8.69167,33
8.70000,33
8.70833,33
8.71667,33
8.72500,33
8.73333,32
8.74167,32
8.75000,32
8.75833,33
8.76667,33
8.77500,33
8.78333,33
8.79167,33
8.80000,33
8.80833,33
8.81667,33
8.82500,33
8.83333,33
8.84167,33
8.85000,33
8.85833,33
8.86667,34
8.87500,34
8.88333,33
8.89167,34
8.90000,34
8.90833,34
8.91667,34
8.92500,34
8.93333,34
8.94167,34
8.95000,34
8.95833,35
8.96667,35
8.97500,34
8.98333,34
8.99167,34
9.00000,34
9.00833,34
9.01667,34
9.02500,34
9.03333,34
9.04167,34
9.05000,34
9.05833,34
9.06667,34
9.07500,34
9.08333,34
9.09167,34
9.10000,33
9.10833,33
9.11667,33
9.12500,33
9.13333,34
9.14167,34
9.15000,35
9.15833,35
9.16667,35
9.17500,35
9.18333,35
9.19167,35
9.20000,35
9.20833,35
9.21667,35
9.22500,35
9.23333,36
9.24167,36
9.25000,36
9.25833,36
9.26667,36
9.27500,36
9.28333,36
9.29167,36
9.30000,36
9.30833,36
9.31667,35
9.32500,36
9.33333,36
9.34167,36
9.35000,36
9.35833,35
9.36667,35
9.37500,35
9.38333,35
9.39167,35
9.40000,35
9.40833,35
9.41667,35
9.42500,36
9.43333,36
9.44167,36
9.45000,36
9.45833,36
9.46667,36
9.47500,36
9.48333,36
9.49167,36
9.50000,36
9.50833,36
9.51667,36
9.52500,36
9.53333,36
9.54167,36
9.55000,36
9.55833,37
9.56667,37
9.57500,37
9.58333,37
9.59167,37
9.60000,37
9.60833,37
9.61667,37
9.62500,38
9.63333,38
9.64167,38
9.65000,38
9.65833,37
9.66667,37
9.67500,37
9.68333,37
9.69167,37
9.70000,37
9.70833,37
9.71667,37
9.72500,37
9.73333,37
9.74167,37
9.75000,37
9.75833,37
9.76667,37
9.77500,36
9.78333,36
9.79167,36
9.80000,37
9.80833,37
9.81667,37
9.82500,37
9.83333,37
9.84167,38
9.85000,38
9.85833,38
9.86667,38
9.87500,38
9.88333,38
9.89167,38
9.90000,38
9.90833,37
9.91667,37
9.92500,37
9.93333,37
9.94167,37
9.95000,37
9.95833,37
9.96667,37
9.97500,38
9.98333,38
9.99167,38
10.00000,38
10.00833,38
10.01667,38
10.02500,38
10.03333,39
10.04167,39
10.05000,39
10.05833,40
10.06667,40
10.07500,40
10.08333,40
10.09167,40
10.10000,40
10.10833,41
10.11667,41
10.12500,40
10.13333,40
10.14167,40
10.15000,40
10.15833,40
10.16667,40
10.17500,40
10.18333,40
10.19167,40
10.20000,40
10.20833,41
10.21667,41
10.22500,41
10.23333,41
10.24167,41
10.25000,41
10.25833,41
10.26667,41
10.27500,41
10.28333,41
10.29167,41
10.30000,41
10.30833,42
10.31667,42
10.32500,43
10.33333,43
10.34167,43
10.35000,43
10.35833,44
10.36667,44
10.37500,44
10.38333,44
10.39167,44
10.40000,45
10.40833,45
10.41667,45
10.42500,45
10.43333,46
10.44167,46
10.45000,46
10.45833,47
10.46667,47
10.47500,47
10.48333,46
10.49167,45
10.50000,43
10.50833,40
10.51667,36
10.52500,30
10.53333,20
10.54167,8
10.55000,-9
10.55833,-33
10.56667,-63
10.57500,-103
10.58333,-154
10.59167,-217
10.60000,-296
10.60833,-393
10.61667,-509
10.62500,-647
10.63333,-807
10.64167,-990
10.65000,-1196
10.65833,-1424
10.66667,-1672
10.67500,-1935
10.68333,-2209
10.69167,-2486
10.70000,-2759
10.70833,-3019
10.71667,-3253
10.72500,-3452
10.73333,-3602
10.74167,-3689
10.75000,-3701
10.75833,-3624
10.76667,-3445
10.77500,-3151
10.78333,-2730
10.79167,-2172
10.80000,-1467
10.80833,-605
10.81667,419
10.82500,1613
10.83333,2980
10.84167,4522
10.85000,6242
10.85833,8138
10.86667,10210
10.87500,12453
10.88333,14863
10.89167,17433
10.90000,20155
10.90833,23018
10.91667,26010
10.92500,29115
10.93333,32316
10.94167,35592
10.95000,38917
10.95833,42262
10.96667,45593
10.97500,48872
10.98333,52055
10.99167,55096
11.00000,57942
11.00833,60540
11.01667,62835
11.02500,64774
11.03333,66310
11.04167,67400
11.05000,68012
11.05833,68126
11.06667,67736
11.07500,66849
11.08333,65486
11.09167,63681
11.10000,61482
11.10833,58942
11.11667,56124
11.12500,53091
11.13333,49909
11.14167,46638
11.15000,43338
11.15833,40060
11.16667,36849
11.17500,33742
11.18333,30768
11.19167,27950
11.20000,25303
11.20833,22836
11.21667,20552
11.22500,18452
11.23333,16532
11.24167,14785
11.25000,13203
11.25833,11776
11.26667,10494
11.27500,9346
11.28333,8321
11.29167,7407
11.30000,6595
11.30833,5875
11.31667,5237
11.32500,4673
11.33333,4175
11.34167,3735
11.35000,3348
11.35833,3006
11.36667,2706
11.37500,2441
11.38333,2208
11.39167,2002
11.40000,1821
11.40833,1661
11.41667,1520
11.42500,1395
11.43333,1284
11.44167,1186
11.45000,1099
11.45833,1022
11.46667,953
11.47500,891
11.48333,836
11.49167,787
11.50000,742
11.50833,702
11.51667,665
11.52500,632
11.53333,602
11.54167,575
11.55000,550
11.55833,527
11.56667,505
11.57500,485
11.58333,467
11.59167,450
11.60000,435
11.60833,420
11.61667,407
11.62500,394
11.63333,382
11.64167,371
11.65000,361
11.65833,351
11.66667,342
11.67500,333
11.68333,325
11.69167,318
11.70000,311
11.70833,304
11.71667,298
11.72500,292
11.73333,286
11.74167,281
11.75000,276
11.75833,271
11.76667,266
11.77500,262
11.78333,258
11.79167,255
11.80000,252
11.80833,249
11.81667,246
11.82500,243
11.83333,240
11.84167,237
11.85000,234
11.85833,232
11.86667,230
11.87500,228
11.88333,226
11.89167,225
11.90000,223
11.90833,221
11.91667,220
11.92500,218
11.93333,217
11.94167,216
11.95000,215
11.95833,214
11.96667,213
11.97500,211
11.98333,210
11.99167,209
12.00000,208
12.00833,207
12.01667,207
12.02500,206
12.03333,205
12.04167,204
12.05000,203
12.05833,202
12.06667,201
12.07500,200
12.08333,199
12.09167,197
12.10000,196
12.10833,195
12.11667,194
12.12500,194
12.13333,193
12.14167,193
12.15000,192
12.15833,191
12.16667,190
12.17500,189
12.18333,188
12.19167,187
12.20000,186
12.20833,185
12.21667,184
12.22500,183
12.23333,182
12.24167,181
12.25000,180
12.25833,179
12.26667,178
12.27500,178
12.28333,177
12.29167,176
12.30000,175
12.30833,175
12.31667,174
12.32500,173
12.33333,173
12.34167,172
12.35000,171
12.35833,171
12.36667,170
12.37500,169
12.38333,169
12.39167,168
12.40000,168
12.40833,167
12.41667,167
12.42500,166
12.43333,166
12.44167,166
12.45000,165
12.45833,165
12.46667,164
12.47500,164
12.48333,163
12.49167,162
12.50000,161
12.50833,161
12.51667,160
12.52500,160
12.53333,159
12.54167,159
12.55000,158
12.55833,158
12.56667,157
12.57500,157
12.58333,156
12.59167,156
12.60000,155
12.60833,154
12.61667,154
12.62500,153
12.63333,152
12.64167,152
12.65000,151
12.65833,151
12.66667,150
12.67500,150
12.68333,150
12.69167,150
12.70000,149
12.70833,148
12.71667,148
12.72500,147
12.73333,147
12.74167,146
12.75000,146
12.75833,145
12.76667,145
12.77500,144
12.78333,144
12.79167,144
12.80000,144
12.80833,143
12.81667,143
12.82500,143
12.83333,143
12.84167,143
12.85000,143
12.85833,143
12.86667,143
12.87500,143
12.88333,143
12.89167,143
12.90000,143
12.90833,143
12.91667,143
12.92500,143
12.93333,144
12.94167,144
12.95000,144
12.95833,144
12.96667,144
12.97500,145
12.98333,145
12.99167,145
13.00000,145
13.00833,145
13.01667,145
13.02500,145
13.03333,145
13.04167,145
13.05000,145
13.05833,145
13.06667,146
13.07500,146
13.08333,146
13.09167,146
13.10000,146
13.10833,146
13.11667,145
13.12500,145
13.13333,145
13.14167,144
13.15000,145
13.15833,145
13.16667,145
13.17500,145
13.18333,144
13.19167,144
13.20000,144
13.20833,144
13.21667,144
13.22500,143
13.23333,143
13.24167,142
13.25000,142
13.25833,141
13.26667,141
13.27500,140
13.28333,140
13.29167,139
13.30000,139
13.30833,138
13.31667,137
13.32500,136
13.33333,135
13.34167,135
13.35000,134
13.35833,133
13.36667,132
13.37500,131
13.38333,130
13.39167,129
13.40000,128
13.40833,126
13.41667,126
13.42500,125
13.43333,124
13.44167,123
13.45000,122
13.45833,121
13.46667,121
13.47500,120
13.48333,119
13.49167,118
13.50000,117
13.50833,116
13.51667,116
13.52500,115
13.53333,114
13.54167,113
13.55000,113
13.55833,112
13.56667,111
13.57500,110
13.58333,110
13.59167,109
13.60000,109
13.60833,109
13.61667,108
13.62500,108
13.63333,108
13.64167,107
13.65000,107
13.65833,107
13.66667,107
13.67500,107
13.68333,106
13.69167,106
13.70000,106
13.70833,106
13.71667,107
13.72500,107
13.73333,107
13.74167,107
13.75000,108
13.75833,108
13.76667,108
13.77500,108
13.78333,108
13.79167,108
13.80000,108
13.80833,109
13.81667,109
13.82500,110
13.83333,110
13.84167,110
13.85000,111
13.85833,111
13.86667,112
13.87500,113
13.88333,114
13.89167,114
13.90000,114
13.90833,115
13.91667,115
13.92500,116
13.93333,116
13.94167,117
13.95000,118
13.95833,118
13.96667,119
13.97500,119
13.98333,120
13.99167,120
14.00000,121
14.00833,121
14.01667,122
14.02500,123
14.03333,123
14.04167,124
14.05000,125
14.05833,126
14.06667,127
14.07500,127
14.08333,128
14.09167,129
14.10000,130
14.10833,131
14.11667,132
14.12500,134
14.13333,135
14.14167,138
14.15000,140
14.15833,143
14.16667,145
14.17500,148
14.18333,152
14.19167,157
14.20000,163
14.20833,170
14.21667,178
14.22500,187
14.23333,199
14.24167,212
14.25000,229
14.25833,249
14.26667,273
14.27500,302
14.28333,337
14.29167,379
14.30000,428
14.30833,487
14.31667,555
14.32500,635
14.33333,728
14.34167,836
14.35000,960
14.35833,1101
14.36667,1263
14.37500,1446
14.38333,1652
14.39167,1882
14.40000,2139
14.40833,2425
14.41667,2739
14.42500,3085
14.43333,3463
14.44167,3874
14.45000,4319
14.45833,4800
14.46667,5316
14.47500,5869
14.48333,6459
14.49167,7085
14.50000,7748
14.50833,8449
14.51667,9187
14.52500,9962
14.53333,10774
14.54167,11622
14.55000,12507
14.55833,13427
14.56667,14381
14.57500,15370
14.58333,16393
14.59167,17450
14.60000,18539
14.60833,19660
14.61667,20813
14.62500,21997
14.63333,23211
14.64167,24455
14.65000,25728
14.65833,27029
14.66667,28359
14.67500,29715
14.68333,31099
14.69167,32510
14.70000,33947
14.70833,35410
14.71667,36898
14.72500,38412
14.73333,39950
14.74167,41513
14.75000,43099
14.75833,44710
14.76667,46345
14.77500,48003
14.78333,49685
14.79167,51390
14.80000,53117
14.80833,54868
14.81667,56641
14.82500,58437
14.83333,60254
14.84167,62094
14.85000,63955
14.85833,65837
14.86667,67741
14.87500,69666
14.88333,71611
14.89167,73577
14.90000,75563
14.90833,77568
14.91667,79593
14.92500,81635
14.93333,83696
14.94167,85773
14.95000,87865
14.95833,89972
14.96667,92092
14.97500,94222
14.98333,96360
14.99167,98504
15.00000,100649
15.00833,102786
15.01667,104908
15.02500,107001
15.03333,109049
15.04167,111027
15.05000,112906
15.05833,114649
15.06667,116208
15.07500,117532
15.08333,118562
15.09167,119234
15.10000,119486
15.10833,119260
15.11667,118503
15.12500,117176
15.13333,115256
15.14167,112737
15.15000,109634
15.15833,105982
15.16667,101833
15.17500,97257
15.18333,92336
15.19167,87159
15.20000,81821
15.20833,76414
15.21667,71027
15.22500,65741
15.23333,60626
15.24167,55739
15.25000,51127
15.25833,46823
15.26667,42850
15.27500,39220
15.28333,35936
15.29167,32995
15.30000,30387
15.30833,28100
15.31667,26117
15.32500,24423
15.33333,22998
15.34167,21826
15.35000,20888
15.35833,20168
15.36667,19650
15.37500,19320
15.38333,19165
15.39167,19171
15.40000,19327
15.40833,19620
15.41667,20040
15.42500,20576
15.43333,21217
15.44167,21952
15.45000,22770
15.45833,23662
15.46667,24616
15.47500,25621
15.48333,26665
15.49167,27736
15.50000,28822
15.50833,29914
15.51667,30997
15.52500,32062
15.53333,33096
15.54167,34089
15.55000,35031
15.55833,35910
15.56667,36720
15.57500,37451
15.58333,38095
15.59167,38648
15.60000,39102
15.60833,39456
15.61667,39704
15.62500,39846
15.63333,39881
15.64167,39808
15.65000,39630
15.65833,39348
15.66667,38966
15.67500,38487
15.68333,37918
15.69167,37262
15.70000,36528
15.70833,35720
15.71667,34846
15.72500,33914
15.73333,32930
15.74167,31903
15.75000,30838
15.75833,29745
15.76667,28629
15.77500,27499
15.78333,26359
15.79167,25216
15.80000,24078
15.80833,22947
15.81667,21831
15.82500,20733
15.83333,19658
15.84167,18607
15.85000,17585
15.85833,16595
15.86667,15637
15.87500,14715
15.88333,13829
15.89167,12981
15.90000,12170
15.90833,11399
15.91667,10665
15.92500,9970
15.93333,9313
15.94167,8692
15.95000,8107
15.95833,7557
15.96667,7042
15.97500,6558
15.98333,6107
15.99167,5685
16.00000,5292
16.00833,4926
16.01667,4587
16.02500,4273
16.03333,3981
16.04167,3711
16.05000,3462
16.05833,3231
16.06667,3019
16.07500,2823
16.08333,2643
16.09167,2477
16.10000,2323
16.10833,2183
16.11667,2053
16.12500,1935
16.13333,1825
16.14167,1725
16.15000,1633
16.15833,1549
16.16667,1472
16.17500,1401
16.18333,1335
16.19167,1275
16.20000,1220
16.20833,1169
16.21667,1123
16.22500,1080
16.23333,1040
16.24167,1003
16.25000,969
16.25833,938
16.26667,909
16.27500,882
16.28333,857
16.29167,834
16.30000,813
16.30833,793
16.31667,774
16.32500,757
16.33333,741
16.34167,726
16.35000,712
16.35833,698
16.36667,686
16.37500,674
16.38333,662
16.39167,651
16.40000,641
16.40833,631
16.41667,622
16.42500,613
16.43333,605
16.44167,597
16.45000,590
16.45833,583
16.46667,576
16.47500,569
16.48333,562
16.49167,556
16.50000,551
16.50833,545
16.51667,540
16.52500,535
16.53333,530
16.54167,526
16.55000,521
16.55833,516
16.56667,512
16.57500,507
16.58333,503
16.59167,498
16.60000,495
16.60833,491
16.61667,487
16.62500,484
16.63333,480
16.64167,477
16.65000,473
16.65833,470
16.66667,467
16.67500,463
16.68333,460
16.69167,457
16.70000,454
16.70833,451
16.71667,448
16.72500,445
16.73333,442
16.74167,439
16.75000,436
16.75833,434
16.76667,431
16.77500,428
16.78333,426
16.79167,424
16.80000,421
16.80833,419
16.81667,417
16.82500,414
16.83333,412
16.84167,409
16.85000,407
16.85833,405
16.86667,403
16.87500,401
16.88333,399
16.89167,396
16.90000,394
16.90833,392
16.91667,390
16.92500,388
16.93333,386
16.94167,384
16.95000,381
16.95833,379
16.96667,377
16.97500,375
16.98333,373
16.99167,371
17.00000,369
17.00833,367
17.01667,366
17.02500,364
17.03333,362
17.04167,360
17.05000,358
17.05833,356
17.06667,355
17.07500,353
17.08333,351
17.09167,349
17.10000,348
17.10833,346
17.11667,344
17.12500,342
17.13333,341
17.14167,339
17.15000,337
17.15833,336
17.16667,334
17.17500,332
17.18333,330
17.19167,328
17.20000,327
17.20833,325
17.21667,324
17.22500,323
17.23333,321
17.24167,320
17.25000,319
17.25833,317
17.26667,316
17.27500,315
17.28333,314
17.29167,312
17.30000,311
17.30833,310
17.31667,308
17.32500,307
17.33333,306
17.34167,304
17.35000,303
17.35833,302
17.36667,301
17.37500,300
17.38333,298
17.39167,297
17.40000,295
17.40833,293
17.41667,292
17.42500,290
17.43333,289
17.44167,288
17.45000,286
17.45833,285
17.46667,284
17.47500,282
17.48333,281
17.49167,280
17.50000,279
17.50833,278
17.51667,277
17.52500,275
17.53333,274
17.54167,273
17.55000,272
17.55833,271
17.56667,270
17.57500,269
17.58333,268
17.59167,267
17.60000,266
17.60833,265
17.61667,264
17.62500,262
17.63333,261
17.64167,260
17.65000,259
17.65833,258
17.66667,257
17.67500,256
17.68333,255
17.69167,254
17.70000,253
17.70833,252
17.71667,251
17.72500,250
17.73333,249
17.74167,248
17.75000,247
17.75833,246
17.76667,245
17.77500,244
17.78333,243
17.79167,242
17.80000,242
17.80833,241
17.81667,240
17.82500,239
17.83333,238
17.84167,237
17.85000,236
17.85833,235
17.86667,234
17.87500,233
17.88333,233
17.89167,232
17.90000,231
17.90833,230
17.91667,229
17.92500,229
17.93333,228
17.94167,227
17.95000,226
17.95833,225
17.96667,224
17.97500,223
17.98333,222
17.99167,222
18.00000,221
18.00833,220
18.01667,219
18.02500,218
18.03333,218
18.04167,216
18.05000,215
18.05833,215
18.06667,214
18.07500,213
18.08333,213
18.09167,212
18.10000,211
18.10833,210
18.11667,210
18.12500,209
18.13333,208
18.14167,207
18.15000,206
18.15833,205
18.16667,205
18.17500,204
18.18333,204
18.19167,203
18.20000,202
18.20833,201
18.21667,200
18.22500,200
18.23333,199
18.24167,199
18.25000,198
18.25833,197
18.26667,197
18.27500,196
18.28333,196
18.29167,195
18.30000,195
18.30833,194
18.31667,194
18.32500,193
18.33333,192
18.34167,191
18.35000,190
18.35833,190
18.36667,189
18.37500,189
18.38333,188
18.39167,187
18.40000,186
18.40833,185
18.41667,185
18.42500,185
18.43333,184
18.44167,184
18.45000,183
18.45833,183
18.46667,182
18.47500,182
18.48333,181
18.49167,181
18.50000,180
18.50833,179
18.51667,179
18.52500,178
18.53333,178
18.54167,178
18.55000,177
18.55833,177
18.56667,177
18.57500,176
18.58333,176
18.59167,176
18.60000,175
18.60833,175
18.61667,175
18.62500,175
18.63333,174
18.64167,174
18.65000,174
18.65833,174
18.66667,174
18.67500,174
18.68333,175
18.69167,176
18.70000,176
18.70833,177
18.71667,177
18.72500,178
18.73333,179
18.74167,180
18.75000,181
18.75833,182
18.76667,183
18.77500,184
18.78333,186
18.79167,187
18.80000,188
18.80833,189
18.81667,190
18.82500,192
18.83333,193
18.84167,195
18.85000,197
18.85833,199
18.86667,200
18.87500,201
18.88333,203
18.89167,204
18.90000,206
18.90833,207
18.91667,209
18.92500,210
18.93333,211
18.94167,212
18.95000,212
18.95833,213
18.96667,213
18.97500,213
18.98333,213
18.99167,213
19.00000,213
19.00833,212
19.01667,211
19.02500,210
19.03333,209
19.04167,208
19.05000,207
19.05833,205
19.06667,204
19.07500,203
19.08333,201
19.09167,199
19.10000,197
19.10833,195
19.11667,193
19.12500,190
19.13333,188
19.14167,186
19.15000,184
19.15833,182
19.16667,180
19.17500,178
19.18333,176
19.19167,174
19.20000,172
19.20833,170
19.21667,168
19.22500,167
19.23333,165
19.24167,164
19.25000,162
19.25833,161
19.26667,159
19.27500,157
19.28333,156
19.29167,154
19.30000,153
19.30833,152
19.31667,151
19.32500,150
19.33333,149
19.34167,148
19.35000,147
19.35833,146
19.36667,144
19.37500,144
19.38333,143
19.39167,142
19.40000,141
19.40833,141
19.41667,140
19.42500,140
19.43333,139
19.44167,139
19.45000,138
19.45833,138
19.46667,137
19.47500,137
19.48333,136
19.49167,136
19.50000,136
19.50833,135
19.51667,135
19.52500,134
19.53333,134
19.54167,134
19.55000,134
19.55833,133
19.56667,133
19.57500,133
19.58333,132
19.59167,132
19.60000,131
19.60833,131
19.61667,130
19.62500,130
19.63333,130
19.64167,130
19.65000,129
19.65833,129
19.66667,129
19.67500,129
19.68333,128
19.69167,127
19.70000,127
19.70833,126
19.71667,126
19.72500,126
19.73333,126
19.74167,126
19.75000,126
19.75833,126
19.76667,126
19.77500,126
19.78333,126
19.79167,125
19.80000,125
19.80833,125
19.81667,124
19.82500,124
19.83333,124
19.84167,124
19.85000,124
19.85833,123
19.86667,123
19.87500,123
19.88333,123
19.89167,123
19.90000,122
19.90833,122
19.91667,122
19.92500,122
19.93333,121
19.94167,121
19.95000,121
19.95833,121
19.96667,121
19.97500,121
19.98333,120
19.99167,120
20.00000,119
20.00833,119
20.01667,119
20.02500,119
20.03333,119
20.04167,119
20.05000,119
20.05833,119
20.06667,119
20.07500,119
20.08333,119
20.09167,118
20.10000,118
20.10833,118
20.11667,117
20.12500,117
20.13333,117
20.14167,117
20.15000,117
20.15833,116
20.16667,116
20.17500,116
20.18333,116
20.19167,116
20.20000,116
20.20833,116
20.21667,116
20.22500,116
20.23333,116
20.24167,116
20.25000,116
20.25833,116
20.26667,116
20.27500,116
20.28333,116
20.29167,116
20.30000,116
20.30833,115
20.31667,115
20.32500,115
20.33333,115
20.34167,115
20.35000,115
20.35833,115
20.36667,114
20.37500,114
20.38333,114
20.39167,113
20.40000,113
20.40833,113
20.41667,113
20.42500,113
20.43333,113
20.44167,113
20.45000,113
20.45833,113
20.46667,113
20.47500,112
20.48333,112
20.49167,112
20.50000,112
20.50833,112
20.51667,112
20.52500,112
20.53333,112
20.54167,112
20.55000,111
20.55833,111
20.56667,111
20.57500,111
20.58333,110
20.59167,110
20.60000,110
20.60833,110
20.61667,110
20.62500,111
20.63333,111
20.64167,111
20.65000,111
20.65833,111
20.66667,110
20.67500,110
20.68333,110
20.69167,110
20.70000,110
20.70833,109
20.71667,109
20.72500,109
20.73333,108
20.74167,108
20.75000,108
20.75833,108
20.76667,108
20.77500,108
20.78333,108
20.79167,108
20.80000,108
20.80833,108
20.81667,108
20.82500,107
20.83333,107
20.84167,108
20.85000,108
20.85833,108
20.86667,108
20.87500,108
20.88333,108
20.89167,107
20.90000,107
20.90833,106
20.91667,106
20.92500,106
20.93333,106
20.94167,106
20.95000,106
20.95833,106
20.96667,106
20.97500,106
20.98333,106
20.99167,106
21.00000,106
21.00833,106
21.01667,106
21.02500,105
21.03333,105
21.04167,105
21.05000,105
21.05833,105
21.06667,106
21.07500,105
21.08333,105
21.09167,105
21.10000,104
21.10833,104
21.11667,104
21.12500,103
21.13333,103
21.14167,104
21.15000,104
21.15833,104
21.16667,104
21.17500,104
21.18333,104
21.19167,104
21.20000,103
21.20833,103
21.21667,103
21.22500,103
21.23333,103
21.24167,103
21.25000,103
21.25833,103
21.26667,103
21.27500,103
21.28333,103
21.29167,103
21.30000,103
21.30833,103
21.31667,103
21.32500,103
21.33333,103
21.34167,103
21.35000,103
21.35833,103
21.36667,103
21.37500,103
21.38333,103
21.39167,103
21.40000,103
21.40833,103
21.41667,103
21.42500,103
21.43333,103
21.44167,103
21.45000,103
21.45833,103
21.46667,103
21.47500,103
21.48333,103
21.49167,103
21.50000,103
21.50833,103
21.51667,102
21.52500,102
21.53333,103
21.54167,103
21.55000,103
21.55833,103
21.56667,103
21.57500,103
21.58333,102
21.59167,103
21.60000,103
21.60833,103
21.61667,103
21.62500,103
21.63333,103
21.64167,103
21.65000,103
21.65833,103
21.66667,103
21.67500,103
21.68333,103
21.69167,104
21.70000,103
21.70833,103
21.71667,103
21.72500,104
21.73333,104
21.74167,104
21.75000,103
21.75833,103
21.76667,103
21.77500,103
21.78333,103
21.79167,103
21.80000,103
21.80833,103
21.81667,103
21.82500,104
21.83333,104
21.84167,104
21.85000,105
21.85833,105
21.86667,105
21.87500,105
21.88333,105
21.89167,105
21.90000,105
21.90833,105
21.91667,104
21.92500,104
21.93333,104
21.94167,104
21.95000,105
21.95833,105
21.96667,105
21.97500,105
21.98333,105
21.99167,105
22.00000,105
22.00833,105
22.01667,105
22.02500,105
22.03333,105
22.04167,104
22.05000,104
22.05833,104
22.06667,103
22.07500,103
22.08333,103
22.09167,103
22.10000,103
22.10833,103
22.11667,103
22.12500,104
22.13333,103
22.14167,103
22.15000,103
22.15833,103
22.16667,104
22.17500,104
22.18333,104
22.19167,104
22.20000,103
22.20833,103
22.21667,103
22.22500,103
22.23333,102
22.24167,102
22.25000,102
22.25833,101
22.26667,101
22.27500,101
22.28333,101
22.29167,101
22.30000,101
22.30833,101
22.31667,101
22.32500,101
22.33333,101
22.34167,101
22.35000,101
22.35833,100
22.36667,100
22.37500,100
22.38333,100
22.39167,100
22.40000,100
22.40833,100
22.41667,100
22.42500,100
22.43333,100
22.44167,101
22.45000,101
22.45833,101
22.46667,101
22.47500,101
22.48333,100
22.49167,100
22.50000,100
22.50833,100
22.51667,100
22.52500,100
22.53333,100
22.54167,100
22.55000,100
22.55833,100
22.56667,100
22.57500,100
22.58333,100
22.59167,100
22.60000,100
22.60833,100
22.61667,101
22.62500,101
22.63333,101
22.64167,101
22.65000,101
22.65833,100
22.66667,100
22.67500,100
22.68333,100
22.69167,100
22.70000,99
22.70833,99
22.71667,99
22.72500,99
22.73333,99
22.74167,99
22.75000,99
22.75833,99
22.76667,99
22.77500,100
22.78333,100
22.79167,100
22.80000,100
22.80833,100
22.81667,100
22.82500,100
22.83333,100
22.84167,101
22.85000,101
22.85833,101
22.86667,102
22.87500,103
22.88333,103
22.89167,103
22.90000,104
22.90833,104
22.91667,104
22.92500,105
22.93333,105
22.94167,106
22.95000,106
22.95833,107
22.96667,107
22.97500,107
22.98333,108
22.99167,109
23.00000,110
23.00833,111
23.01667,112
23.02500,112
23.03333,113
23.04167,114
23.05000,115
23.05833,116
23.06667,116
23.07500,116
23.08333,117
23.09167,118
23.10000,119
23.10833,120
23.11667,120
23.12500,121
23.13333,122
23.14167,123
23.15000,123
23.15833,124
23.16667,124
23.17500,124
23.18333,124
23.19167,124
23.20000,125
23.20833,125
23.21667,126
23.22500,125
23.23333,125
23.24167,125
23.25000,125
23.25833,125
23.26667,124
23.27500,124
23.28333,124
23.29167,124
23.30000,123
23.30833,123
23.31667,122
23.32500,122
23.33333,121
23.34167,121
23.35000,120
23.35833,120
23.36667,120
23.37500,119
23.38333,118
23.39167,118
23.40000,117
23.40833,116
23.41667,116
23.42500,115
23.43333,114
23.44167,113
23.45000,113
23.45833,112
23.46667,111
23.47500,111
23.48333,110
23.49167,109
23.50000,108
23.50833,108
23.51667,107
23.52500,107
23.53333,106
23.54167,105
23.55000,105
23.55833,104
23.56667,104
23.57500,103
23.58333,103
23.59167,103
23.60000,103
23.60833,103
23.61667,103
23.62500,102
23.63333,102
23.64167,102
23.65000,101
23.65833,100
23.66667,100
23.67500,99
23.68333,99
23.69167,99
23.70000,99
23.70833,99
23.71667,99
23.72500,99
23.73333,99
23.74167,99
23.75000,99
23.75833,99
23.76667,99
23.77500,99
23.78333,99
23.79167,99
23.80000,99
23.80833,99
23.81667,99
23.82500,99
23.83333,99
23.84167,99
23.85000,99
23.85833,99
23.86667,99
23.87500,99
23.88333,99
23.89167,99
23.90000,99
23.90833,99
23.91667,99
23.92500,99
23.93333,99
23.94167,99
23.95000,99
23.95833,99
23.96667,99
23.97500,99
23.98333,99
23.99167,99
24.00000,100
24.00833,99
24.01667,99
24.02500,99
24.03333,99
24.04167,99
24.05000,99
24.05833,99
24.06667,99
24.07500,99
24.08333,98
24.09167,98
24.10000,98
24.10833,98
24.11667,98
24.12500,98
24.13333,98
24.14167,98
24.15000,98
24.15833,98
24.16667,97
24.17500,97
24.18333,97
24.19167,97
24.20000,98
24.20833,98
24.21667,98
24.22500,98
24.23333,98
24.24167,98
24.25000,99
24.25833,99
24.26667,99
24.27500,99
24.28333,99
24.29167,99
24.30000,99
24.30833,99
24.31667,99
24.32500,99
24.33333,99
24.34167,99
24.35000,98
24.35833,98
24.36667,98
24.37500,98
24.38333,99
24.39167,99
24.40000,99
24.40833,100
24.41667,100
24.42500,100
24.43333,101
24.44167,101
24.45000,101
24.45833,101
24.46667,101
24.47500,101
24.48333,102
24.49167,102
24.50000,102
24.50833,102
24.51667,103
24.52500,103
24.53333,103
24.54167,104
24.55000,104
24.55833,105
24.56667,106
24.57500,106
24.58333,107
24.59167,108
24.60000,109
24.60833,111
24.61667,112
24.62500,113
24.63333,115
24.64167,116
24.65000,117
24.65833,118
24.66667,120
24.67500,122
24.68333,124
24.69167,126
24.70000,128
24.70833,131
24.71667,133
24.72500,136
24.73333,139
24.74167,142
24.75000,145
24.75833,148
24.76667,152
24.77500,156
24.78333,159
24.79167,163
24.80000,167
24.80833,171
24.81667,175
24.82500,179
24.83333,184
24.84167,188
24.85000,193
24.85833,197
24.86667,202
24.87500,206
24.88333,211
24.89167,215
24.90000,219
24.90833,222
24.91667,226
24.92500,230
24.93333,234
24.94167,238
24.95000,241
24.95833,244
24.96667,247
24.97500,249
24.98333,252
24.99167,254
25.00000,256
25.00833,258
25.01667,259
25.02500,260
25.03333,261
25.04167,262
25.05000,262
25.05833,262
25.06667,261
25.07500,260
25.08333,259
25.09167,257
25.10000,256
25.10833,254
25.11667,252
25.12500,250
25.13333,247
25.14167,244
25.15000,241
25.15833,237
25.16667,234
25.17500,231
25.18333,228
25.19167,224
25.20000,221
25.20833,217
25.21667,213
25.22500,210
25.23333,205
25.24167,201
25.25000,197
25.25833,193
25.26667,189
25.27500,185
25.28333,182
25.29167,178
25.30000,174
25.30833,171
25.31667,167
25.32500,164
25.33333,161
25.34167,158
25.35000,155
25.35833,152
25.36667,149
25.37500,146
25.38333,143
25.39167,141
25.40000,138
25.40833,135
25.41667,133
25.42500,131
25.43333,129
25.44167,128
25.45000,126
25.45833,125
25.46667,124
25.47500,122
25.48333,121
25.49167,119
25.50000,118
25.50833,118
25.51667,117
25.52500,116
25.53333,115
25.54167,114
25.55000,113
25.55833,113
25.56667,112
25.57500,111
25.58333,110
25.59167,109
25.60000,109
25.60833,109
25.61667,109
25.62500,109
25.63333,109
25.64167,108
25.65000,108
25.65833,107
25.66667,107
25.67500,106
25.68333,106
25.69167,106
25.70000,106
25.70833,106
25.71667,107
25.72500,107
25.73333,106
25.74167,106
25.75000,106
25.75833,106
25.76667,106
25.77500,106
25.78333,106
25.79167,106
25.80000,105
25.80833,106
25.81667,106
25.82500,106
25.83333,106
25.84167,106
25.85000,106
25.85833,106
25.86667,106
25.87500,105
25.88333,105
25.89167,106
25.90000,106
25.90833,106
25.91667,106
25.92500,106
25.93333,106
25.94167,105
25.95000,105
25.95833,106
25.96667,106
25.97500,106
25.98333,106
25.99167,106
26.00000,106
26.00833,106
26.01667,106
26.02500,105
26.03333,105
26.04167,105
26.05000,105
26.05833,105
26.06667,106
26.07500,106
26.08333,106
26.09167,106
26.10000,106
26.10833,106
26.11667,106
26.12500,106
26.13333,106
26.14167,106
26.15000,106
26.15833,107
26.16667,107
26.17500,107
26.18333,107
26.19167,107
26.20000,107
26.20833,107
26.21667,107
26.22500,107
26.23333,106
26.24167,106
26.25000,107
26.25833,107
26.26667,107
26.27500,108
26.28333,108
26.29167,107
26.30000,107
26.30833,107
26.31667,107
26.32500,107
26.33333,106
26.34167,107
26.35000,107
26.35833,107
26.36667,107
26.37500,107
26.38333,107
26.39167,107
26.40000,107
26.40833,107
26.41667,107
26.42500,107
26.43333,107
26.44167,107
26.45000,107
26.45833,107
26.46667,107
26.47500,108
26.48333,108
26.49167,108
26.50000,107
26.50833,107
26.51667,107
26.52500,107
26.53333,107
26.54167,107
26.55000,108
26.55833,108
26.56667,108
26.57500,108
26.58333,108
26.59167,108
26.60000,108
26.60833,108
26.61667,108
26.62500,109
26.63333,109
26.64167,109
26.65000,109
26.65833,109
26.66667,109
26.67500,109
26.68333,109
26.69167,108
26.70000,109
26.70833,109
26.71667,109
26.72500,109
26.73333,109
26.74167,109
26.75000,109
26.75833,110
26.76667,110
26.77500,110
26.78333,109
26.79167,109
26.80000,109
26.80833,109
26.81667,109
26.82500,109
26.83333,110
26.84167,110
26.85000,110
26.85833,111
26.86667,111
26.87500,111
26.88333,111
26.89167,110
26.90000,110
26.90833,110
26.91667,110
26.92500,110
26.93333,110
26.94167,110
26.95000,110
26.95833,110
26.96667,110
26.97500,110
26.98333,110
26.99167,110
27.00000,109
27.00833,109
27.01667,109
27.02500,109
27.03333,110
27.04167,110
27.05000,110
27.05833,110
27.06667,111
27.07500,111
27.08333,111
27.09167,111
27.10000,112
27.10833,112
27.11667,111
27.12500,112
27.13333,112
27.14167,113
27.15000,113
27.15833,113
27.16667,113
27.17500,113
27.18333,113
27.19167,113
27.20000,113
27.20833,113
27.21667,113
27.22500,112
27.23333,112
27.24167,112
27.25000,112
27.25833,113
27.26667,113
27.27500,113
27.28333,114
27.29167,114
27.30000,114
27.30833,114
27.31667,114
27.32500,114
27.33333,114
27.34167,115
27.35000,115
27.35833,115
27.36667,115
27.37500,115
27.38333,115
27.39167,114
27.40000,114
27.40833,114
27.41667,114
27.42500,114
27.43333,115
27.44167,115
27.45000,115
27.45833,115
27.46667,115
27.47500,115
27.48333,115
27.49167,115
27.50000,115
27.50833,115
27.51667,115
27.52500,116
27.53333,116
27.54167,117
27.55000,117
27.55833,117
27.56667,117
27.57500,116
27.58333,116
27.59167,116
27.60000,116
27.60833,116
27.61667,117
27.62500,116
27.63333,117
27.64167,117
27.65000,117
27.65833,117
27.66667,117
27.67500,116
27.68333,116
27.69167,116
27.70000,116
27.70833,116
27.71667,116
27.72500,116
27.73333,116
27.74167,115
27.75000,115
27.75833,115
27.76667,115
27.77500,114
27.78333,115
27.79167,115
27.80000,114
27.80833,114
27.81667,114
27.82500,114
27.83333,113
27.84167,113
27.85000,112
27.85833,111
27.86667,111
27.87500,110
27.88333,110
27.89167,110
27.90000,109
27.90833,109
27.91667,108
27.92500,107
27.93333,106
27.94167,105
27.95000,104
27.95833,103
27.96667,102
27.97500,101
27.98333,100
27.99167,98
28.00000,97
28.00833,95
28.01667,94
28.02500,92
28.03333,90
28.04167,88
28.05000,86
28.05833,85
28.06667,83
28.07500,80
28.08333,78
28.09167,76
28.10000,74
28.10833,71
28.11667,69
28.12500,66
28.13333,63
28.14167,60
28.15000,57
28.15833,54
28.16667,51
28.17500,49
28.18333,46
28.19167,43
28.20000,40
28.20833,37
28.21667,33
28.22500,30
28.23333,27
28.24167,23
28.25000,20
28.25833,16
28.26667,13
28.27500,10
28.28333,6
28.29167,3
28.30000,-0
28.30833,-3
28.31667,-6
28.32500,-9
28.33333,-12
28.34167,-14
28.35000,-16
28.35833,-19
28.36667,-21
28.37500,-23
28.38333,-25
28.39167,-27
28.40000,-29
28.40833,-30
28.41667,-32
28.42500,-33
28.43333,-34
28.44167,-35
28.45000,-35
28.45833,-36
28.46667,-36
28.47500,-36
28.48333,-36
28.49167,-36
28.50000,-35
28.50833,-35
28.51667,-34
28.52500,-33
28.53333,-32
28.54167,-31
28.55000,-30
28.55833,-29
28.56667,-27
28.57500,-26
28.58333,-24
28.59167,-22
28.60000,-20
28.60833,-18
28.61667,-16
28.62500,-13
28.63333,-11
28.64167,-9
28.65000,-6
28.65833,-4
28.66667,-1
28.67500,2
28.68333,5
28.69167,8
28.70000,11
28.70833,14
28.71667,17
28.72500,20
28.73333,23
28.74167,25
28.75000,28
28.75833,31
28.76667,34
28.77500,37
28.78333,40
28.79167,42
28.80000,45
28.80833,47
28.81667,50
28.82500,52
28.83333,54
28.84167,56
28.85000,59
28.85833,61
28.86667,63
28.87500,66
28.88333,68
28.89167,70
28.90000,72
28.90833,74
28.91667,76
28.92500,78
28.93333,79
28.94167,80
28.95000,82
28.95833,83
28.96667,85
28.97500,86
28.98333,88
28.99167,89
29.00000,90
29.00833,91
29.01667,92
29.02500,93
29.03333,94
29.04167,95
29.05000,96
29.05833,97
29.06667,98
29.07500,99
29.08333,100
29.09167,101
29.10000,101
29.10833,102
29.11667,103
29.12500,104
29.13333,104
29.14167,105
29.15000,105
29.15833,105
29.16667,106
29.17500,106
29.18333,107
29.19167,107
29.20000,108
29.20833,108
29.21667,108
29.22500,108
29.23333,109
29.24167,109
29.25000,109
29.25833,109
29.26667,109
29.27500,110
29.28333,110
29.29167,110
29.30000,110
29.30833,110
29.31667,110
29.32500,110
29.33333,110
29.34167,111
29.35000,111
29.35833,111
29.36667,112
29.37500,113
29.38333,113
29.39167,113
29.40000,113
29.40833,113
29.41667,112
29.42500,113
29.43333,113
29.44167,113
29.45000,113
29.45833,113
29.46667,113
29.47500,112
29.48333,112
29.49167,111
29.50000,111
29.50833,111
29.51667,112
29.52500,112
29.53333,112
29.54167,112
29.55000,111
29.55833,111
29.56667,111
29.57500,111
29.58333,111
29.59167,111
29.60000,110
29.60833,110
29.61667,110
29.62500,110
29.63333,110
29.64167,110
29.65000,110
29.65833,109
29.66667,109
29.67500,108
29.68333,107
29.69167,107
29.70000,106
29.70833,106
29.71667,106
29.72500,106
29.73333,105
29.74167,105
29.75000,104
29.75833,104
29.76667,103
29.77500,102
29.78333,101
29.79167,101
29.80000,100
29.80833,100
29.81667,99
29.82500,98
29.83333,97
29.84167,96
29.85000,95
29.85833,94
29.86667,93
29.87500,92
29.88333,91
29.89167,90
29.90000,89
29.90833,88
29.91667,87
29.92500,86
29.93333,85
29.94167,84
29.95000,83
29.95833,82
29.96667,81
29.97500,80
29.98333,79
29.99167,78
30.00000,77
30.00833,76
30.01667,74
30.02500,73
30.03333,71
30.04167,70
30.05000,69
30.05833,68
30.06667,67
30.07500,66
30.08333,65
30.09167,64
30.10000,64
30.10833,63
30.11667,63
30.12500,62
30.13333,61
30.14167,61
30.15000,60
30.15833,60
30.16667,60
30.17500,59
30.18333,59
30.19167,59
30.20000,59
30.20833,59
30.21667,59
30.22500,59
30.23333,59
30.24167,59
30.25000,59
30.25833,59
30.26667,59
30.27500,59
30.28333,60
30.29167,60
30.30000,60
30.30833,60
30.31667,60
30.32500,61
30.33333,61
30.34167,62
30.35000,63
30.35833,64
30.36667,64
30.37500,65
30.38333,66
30.39167,67
30.40000,67
30.40833,68
30.41667,69
30.42500,70
30.43333,71
30.44167,72
30.45000,73
30.45833,74
30.46667,75
30.47500,76
30.48333,76
30.49167,78
30.50000,79
30.50833,80
30.51667,81
30.52500,82
30.53333,82
30.54167,83
30.55000,85
30.55833,86
30.56667,87
30.57500,88
30.58333,88
30.59167,89
30.60000,89
30.60833,90
30.61667,91
30.62500,92
30.63333,93
30.64167,94
30.65000,94
30.65833,95
30.66667,95
30.67500,95
30.68333,96
30.69167,96
30.70000,96
30.70833,97
30.71667,97
30.72500,98
30.73333,98
30.74167,98
30.75000,98
30.75833,99
30.76667,99
30.77500,99
30.78333,100
30.79167,100
30.80000,100
30.80833,100
30.81667,100
30.82500,100
30.83333,100
30.84167,100
30.85000,100
30.85833,100
30.86667,100
30.87500,100
30.88333,99
30.89167,99
30.90000,99
30.90833,99
30.91667,99
30.92500,99
30.93333,99
30.94167,99
30.95000,99
30.95833,99
30.96667,99
30.97500,99
30.98333,99
30.99167,99
31.00000,98
31.00833,98
31.01667,98
31.02500,98
31.03333,98
31.04167,98
31.05000,98
31.05833,98
31.06667,98
31.07500,98
31.08333,98
31.09167,98
31.10000,98
31.10833,98
31.11667,98
31.12500,98
31.13333,98
31.14167,98
31.15000,98
31.15833,98
31.16667,98
31.17500,98
31.18333,98
31.19167,98
31.20000,98
31.20833,98
31.21667,99
31.22500,99
31.23333,100
31.24167,101
31.25000,101
31.25833,102
31.26667,102
31.27500,102
31.28333,102
31.29167,103
31.30000,103
31.30833,104
31.31667,104
31.32500,105
31.33333,105
31.34167,106
31.35000,106
31.35833,106
31.36667,107
31.37500,107
31.38333,108
31.39167,108
31.40000,109
31.40833,109
31.41667,110
31.42500,111
31.43333,111
31.44167,111
31.45000,112
31.45833,112
31.46667,112
31.47500,113
31.48333,114
31.49167,114
31.50000,115
31.50833,116
31.51667,116
31.52500,117
31.53333,117
31.54167,117
31.55000,118
31.55833,118
31.56667,118
31.57500,119
31.58333,119
31.59167,120
31.60000,120
31.60833,121
31.61667,121
31.62500,121
31.63333,121
31.64167,121
31.65000,121
31.65833,122
31.66667,122
31.67500,122
31.68333,122
31.69167,123
31.70000,123
31.70833,124
31.71667,125
31.72500,125
31.73333,125
31.74167,125
31.75000,124
31.75833,125
31.76667,125
31.77500,125
31.78333,125
31.79167,125
31.80000,125
31.80833,125
31.81667,125
31.82500,125
31.83333,125
31.84167,126
31.85000,126
31.85833,125
31.86667,126
31.87500,126
31.88333,126
31.89167,127
31.90000,126
31.90833,126
31.91667,126
31.92500,126
31.93333,126
31.94167,126
31.95000,125
31.95833,125
31.96667,125
31.97500,125
31.98333,125
31.99167,125
32.00000,125
32.00833,125
32.01667,125
32.02500,125
32.03333,124
32.04167,124
32.05000,124
32.05833,124
32.06667,124
32.07500,124
32.08333,124
32.09167,124
32.10000,123
32.10833,123
32.11667,123
32.12500,123
32.13333,123
32.14167,123
32.15000,123
32.15833,123
32.16667,123
32.17500,123
32.18333,123
32.19167,123
32.20000,123
32.20833,123
32.21667,123
32.22500,123
32.23333,122
32.24167,122
32.25000,122
32.25833,122
32.26667,123
32.27500,123
32.28333,123
32.29167,123
32.30000,123
32.30833,123
32.31667,123
32.32500,123
32.33333,123
32.34167,123
32.35000,123
32.35833,123
32.36667,123
32.37500,123
32.38333,123
32.39167,123
32.40000,123
32.40833,123
32.41667,122
32.42500,123
32.43333,122
32.44167,122
32.45000,122
32.45833,122
32.46667,122
32.47500,122
32.48333,122
32.49167,122
32.50000,122
32.50833,123
32.51667,123
32.52500,123
32.53333,123
32.54167,123
32.55000,123
32.55833,124
32.56667,124
32.57500,123
32.58333,123
32.59167,122
32.60000,122
32.60833,122
32.61667,122
32.62500,122
32.63333,122
32.64167,123
32.65000,123
32.65833,123
32.66667,123
32.67500,123
32.68333,124
32.69167,123
32.70000,123
32.70833,123
32.71667,123
32.72500,123
32.73333,123
32.74167,123
32.75000,123
32.75833,123
32.76667,123
32.77500,123
32.78333,123
32.79167,123
32.80000,124
32.80833,124
32.81667,124
32.82500,124
32.83333,124
32.84167,124
32.85000,123
32.85833,123
32.86667,123
32.87500,122
32.88333,123
32.89167,123
32.90000,123
32.90833,123
32.91667,123
32.92500,123
32.93333,123
32.94167,123
32.95000,123
32.95833,123
32.96667,123
32.97500,123
32.98333,123
32.99167,123
33.00000,124
33.00833,124
33.01667,124
33.02500,124
33.03333,125
33.04167,124
33.05000,125
33.05833,125
33.06667,125
33.07500,125
33.08333,125
33.09167,125
33.10000,125
33.10833,125
33.11667,125
33.12500,125
33.13333,125
33.14167,125
33.15000,125
33.15833,125
33.16667,125
33.17500,125
33.18333,125
33.19167,125
33.20000,125
33.20833,125
33.21667,125
33.22500,125
33.23333,125
33.24167,125
33.25000,125
33.25833,125
33.26667,125
33.27500,125
33.28333,124
33.29167,125
33.30000,124
33.30833,124
33.31667,124
33.32500,124
33.33333,124
33.34167,124
33.35000,124
33.35833,124
33.36667,124
33.37500,124
33.38333,124
33.39167,125
33.40000,125
33.40833,125
33.41667,125
33.42500,125
33.43333,125
33.44167,125
33.45000,125
33.45833,125
33.46667,125
33.47500,125
33.48333,125
33.49167,125
33.50000,124
33.50833,124
33.51667,124
33.52500,124
33.53333,124
33.54167,125
33.55000,125
33.55833,125
33.56667,126
33.57500,126
33.58333,125
33.59167,125
33.60000,124
33.60833,124
33.61667,125
33.62500,125
33.63333,125
33.64167,125
33.65000,124
33.65833,125
33.66667,125
33.67500,125
33.68333,125
33.69167,125
33.70000,125
33.70833,125
33.71667,125
33.72500,125
33.73333,125
33.74167,125
33.75000,125
33.75833,126
33.76667,126
33.77500,126
33.78333,126
33.79167,126
33.80000,126
33.80833,126
33.81667,125
33.82500,125
33.83333,125
33.84167,125
33.85000,125
33.85833,126
33.86667,126
33.87500,126
33.88333,126
33.89167,126
33.90000,126
33.90833,126
33.91667,126
33.92500,126
33.93333,126
33.94167,126
33.95000,126
33.95833,126
33.96667,126
33.97500,127
33.98333,127
33.99167,127
34.00000,127
34.00833,126
34.01667,126
34.02500,126
34.03333,126
34.04167,126
34.05000,126
34.05833,126
34.06667,126
34.07500,127
34.08333,127
34.09167,127
34.10000,127
34.10833,127
34.11667,127
34.12500,127
34.13333,127
34.14167,127
34.15000,126
34.15833,126
34.16667,126
34.17500,126
34.18333,126
34.19167,126
34.20000,126
34.20833,126
34.21667,126
34.22500,126
34.23333,126
34.24167,126
34.25000,126
34.25833,127
34.26667,127
34.27500,127
34.28333,127
34.29167,127
34.30000,127
34.30833,127
34.31667,127
34.32500,127
34.33333,127
34.34167,128
34.35000,128
34.35833,128
34.36667,128
34.37500,128
34.38333,128
34.39167,128
34.40000,128
34.40833,128
34.41667,128
34.42500,128
34.43333,128
34.44167,128
34.45000,128
34.45833,128
34.46667,128
34.47500,127
34.48333,127
34.49167,127
34.50000,128
34.50833,128
34.51667,128
34.52500,129
34.53333,129
34.54167,128
34.55000,128
34.55833,128
34.56667,129
34.57500,129
34.58333,129
34.59167,129
34.60000,128
34.60833,128
34.61667,129
34.62500,129
34.63333,129
34.64167,130
34.65000,130
34.65833,130
34.66667,130
34.67500,130
34.68333,130
34.69167,130
34.70000,130
34.70833,130
34.71667,130
34.72500,129
34.73333,129
34.74167,129
34.75000,129
34.75833,129
34.76667,129
34.77500,129
34.78333,129
34.79167,129
34.80000,129
34.80833,129
34.81667,129
34.82500,129
34.83333,129
34.84167,128
34.85000,129
34.85833,129
34.86667,129
34.87500,129
34.88333,129
34.89167,129
34.90000,128
34.90833,128
34.91667,128
34.92500,128
34.93333,129
34.94167,129
34.95000,130
34.95833,130
34.96667,130
34.97500,130
34.98333,130
34.99167,130
35.00000,130
35.00833,130
35.01667,130
35.02500,130
35.03333,130
35.04167,129
35.05000,129
35.05833,129
35.06667,129
35.07500,129
35.08333,130
35.09167,130
35.10000,130
35.10833,130
35.11667,130
35.12500,130
35.13333,130
35.14167,130
35.15000,130
35.15833,130
35.16667,130
35.17500,130
35.18333,130
35.19167,130
35.20000,130
35.20833,130
35.21667,130
35.22500,130
35.23333,130
35.24167,130
35.25000,131
35.25833,131
35.26667,131
35.27500,130
35.28333,131
35.29167,131
35.30000,131
35.30833,131
35.31667,131
35.32500,131
35.33333,131
35.34167,131
35.35000,131
35.35833,131
35.36667,131
35.37500,131
35.38333,131
35.39167,131
35.40000,131
35.40833,131
35.41667,131
35.42500,131
35.43333,131
35.44167,131
35.45000,131
35.45833,131
35.46667,131
35.47500,131
35.48333,132
35.49167,132
35.50000,132
35.50833,132
35.51667,132
35.52500,132
35.53333,132
35.54167,133
35.55000,133
35.55833,133
35.56667,132
35.57500,132
35.58333,132
35.59167,133
35.60000,133
35.60833,132
35.61667,132
35.62500,133
35.63333,133
35.64167,133
35.65000,132
35.65833,132
35.66667,132
35.67500,132
35.68333,132
35.69167,132
35.70000,133
35.70833,132
35.71667,132
35.72500,132
35.73333,132
35.74167,133
35.75000,133
35.75833,133
35.76667,133
35.77500,133
35.78333,132
35.79167,133
35.80000,133
35.80833,133
35.81667,133
35.82500,133
35.83333,133
35.84167,133
35.85000,133
35.85833,133
35.86667,133
35.87500,133
35.88333,133
35.89167,133
35.90000,133
35.90833,133
35.91667,133
35.92500,133
35.93333,133
35.94167,133
35.95000,133
35.95833,133
35.96667,133
35.97500,133
35.98333,133
35.99167,133
36.00000,133
36.00833,133
36.01667,133
36.02500,133
36.03333,133
36.04167,133
36.05000,134
36.05833,134
36.06667,134
36.07500,134
36.08333,135
36.09167,135
36.10000,135
36.10833,135
36.11667,134
36.12500,134
36.13333,134
36.14167,134
36.15000,134
36.15833,134
36.16667,135
36.17500,135
36.18333,135
36.19167,134
36.20000,134
36.20833,134
36.21667,134
36.22500,134
36.23333,134
36.24167,134
36.25000,134
36.25833,134
36.26667,134
36.27500,134
36.28333,134
36.29167,134
36.30000,134
36.30833,134
36.31667,134
36.32500,134
36.33333,134
36.34167,134
36.35000,134
36.35833,134
36.36667,134
36.37500,134
36.38333,134
36.39167,134
36.40000,134
36.40833,134
36.41667,134
36.42500,135
36.43333,135
36.44167,134
36.45000,134
36.45833,134
36.46667,134
36.47500,135
36.48333,134
36.49167,134
36.50000,134
36.50833,134
36.51667,134
36.52500,134
36.53333,134
36.54167,135
36.55000,135
36.55833,135
36.56667,135
36.57500,134
36.58333,134
36.59167,135
36.60000,135
36.60833,135
36.61667,135
36.62500,135
36.63333,135
36.64167,135
36.65000,135
36.65833,135
36.66667,135
36.67500,135
36.68333,135
36.69167,135
36.70000,135
36.70833,136
36.71667,135
36.72500,135
36.73333,135
36.74167,135
36.75000,135
36.75833,135
36.76667,135
36.77500,136
36.78333,136
36.79167,136
36.80000,136
36.80833,136
36.81667,136
36.82500,137
36.83333,137
36.84167,137
36.85000,137
36.85833,137
36.86667,137
36.87500,137
36.88333,137
36.89167,137
36.90000,137
36.90833,137
36.91667,137
36.92500,137
36.93333,137
36.94167,137
36.95000,137
36.95833,137
36.96667,137
36.97500,137
36.98333,137
36.99167,137
37.00000,138
37.00833,138
37.01667,138
37.02500,138
37.03333,138
37.04167,138
37.05000,138
37.05833,138
37.06667,137
37.07500,137
37.08333,138
37.09167,138
37.10000,139
37.10833,139
37.11667,138
37.12500,138
37.13333,138
37.14167,138
37.15000,138
37.15833,138
37.16667,138
37.17500,138
37.18333,138
37.19167,137
37.20000,137
37.20833,137
37.21667,137
37.22500,137
37.23333,137
37.24167,138
37.25000,138
37.25833,138
37.26667,138
37.27500,138
37.28333,138
37.29167,139
37.30000,138
37.30833,138
37.31667,138
37.32500,138
37.33333,138
37.34167,138
37.35000,138
37.35833,138
37.36667,138
37.37500,138
37.38333,138
37.39167,138
37.40000,139
37.40833,139
37.41667,139
37.42500,138
37.43333,138
37.44167,138
37.45000,138
37.45833,138
37.46667,138
37.47500,138
37.48333,138
37.49167,138
37.50000,138
37.50833,138
37.51667,138
37.52500,138
37.53333,138
37.54167,138
37.55000,138
37.55833,138
37.56667,138
37.57500,139
37.58333,139
37.59167,139
37.60000,139
37.60833,139
37.61667,139
37.62500,138
37.63333,138
37.64167,138
37.65000,138
37.65833,138
37.66667,139
37.67500,139
37.68333,139
37.69167,139
37.70000,138
37.70833,138
37.71667,138
37.72500,138
37.73333,138
37.74167,138
37.75000,139
37.75833,139
37.76667,139
37.77500,140
37.78333,140
37.79167,140
37.80000,140
37.80833,140
37.81667,140
37.82500,140
37.83333,140
37.84167,140
37.85000,140
37.85833,140
37.86667,140
37.87500,140
37.88333,140
37.89167,140
37.90000,140
37.90833,140
37.91667,139
37.92500,139
37.93333,140
37.94167,140
37.95000,139
37.95833,140
37.96667,140
37.97500,140
37.98333,140
37.99167,140
38.00000,140
38.00833,140
38.01667,140
38.02500,140
38.03333,140
38.04167,140
38.05000,140
38.05833,140
38.06667,140
38.07500,140
38.08333,140
38.09167,140
38.10000,140
38.10833,140
38.11667,140
38.12500,140
38.13333,141
38.14167,141
38.15000,141
38.15833,141
38.16667,141
38.17500,141
38.18333,141
38.19167,141
38.20000,141
38.20833,141
38.21667,141
38.22500,141
38.23333,141
38.24167,141
38.25000,141
38.25833,141
38.26667,142
38.27500,142
38.28333,142
38.29167,142
38.30000,142
38.30833,142
38.31667,142
38.32500,142
38.33333,142
38.34167,142
38.35000,142
38.35833,142
38.36667,142
38.37500,142
38.38333,142
38.39167,142
38.40000,141
38.40833,141
38.41667,142
38.42500,142
38.43333,142
38.44167,143
38.45000,143
38.45833,143
38.46667,143
38.47500,142
38.48333,142
38.49167,142
38.50000,142
38.50833,143
38.51667,143
38.52500,142
38.53333,142
38.54167,142
38.55000,142
38.55833,143
38.56667,143
38.57500,143
38.58333,142
38.59167,142
38.60000,143
38.60833,143
38.61667,143
38.62500,143
38.63333,143
38.64167,143
38.65000,143
38.65833,143
38.66667,143
38.67500,143
38.68333,143
38.69167,143
38.70000,143
38.70833,143
38.71667,143
38.72500,143
38.73333,143
38.74167,143
38.75000,143
38.75833,143
38.76667,144
38.77500,144
38.78333,144
38.79167,144
38.80000,144
38.80833,144
38.81667,144
38.82500,143
38.83333,143
38.84167,143
38.85000,143
38.85833,143
38.86667,143
38.87500,143
38.88333,143
38.89167,143
38.90000,143
38.90833,143
38.91667,143
38.92500,143
38.93333,143
38.94167,144
38.95000,144
38.95833,144
38.96667,144
38.97500,144
38.98333,144
38.99167,144
39.00000,144
39.00833,144
39.01667,144
39.02500,143
39.03333,143
39.04167,143
39.05000,143
39.05833,144
39.06667,144
39.07500,144
39.08333,144
39.09167,144
39.10000,144
39.10833,144
39.11667,143
39.12500,143
39.13333,143
39.14167,144
39.15000,144
39.15833,144
39.16667,144
39.17500,144
39.18333,144
39.19167,144
39.20000,144
39.20833,144
39.21667,144
39.22500,144
39.23333,144
39.24167,144
39.25000,143
39.25833,144
39.26667,144
39.27500,144
39.28333,144
39.29167,145
39.30000,145
39.30833,145
39.31667,145
39.32500,145
39.33333,145
39.34167,144
39.35000,144
39.35833,144
39.36667,144
39.37500,145
39.38333,145
39.39167,145
39.40000,145
39.40833,145
39.41667,145
39.42500,145
39.43333,145
39.44167,145
39.45000,145
39.45833,145
39.46667,145
39.47500,145
39.48333,145
39.49167,145
39.50000,145
39.50833,146
39.51667,146
39.52500,146
39.53333,146
39.54167,147
39.55000,147
39.55833,146
39.56667,146
39.57500,146
39.58333,146
39.59167,146
39.60000,146
39.60833,146
39.61667,146
39.62500,147
39.63333,147
39.64167,147
39.65000,146
39.65833,146
39.66667,146
39.67500,146
39.68333,146
39.69167,146
39.70000,146
39.70833,146
39.71667,146
39.72500,146
39.73333,146
39.74167,146
39.75000,146
39.75833,146
39.76667,146
39.77500,146
39.78333,146
39.79167,146
39.80000,146
39.80833,145
39.81667,145
39.82500,145
39.83333,146
39.84167,146
39.85000,146
39.85833,146
39.86667,146
39.87500,147
39.88333,147
39.89167,147
39.90000,147
39.90833,146
39.91667,146
39.92500,147
39.93333,147
39.94167,146
39.95000,146
39.95833,146
39.96667,147
39.97500,147
39.98333,147
39.99167,147
40.00000,147

