[Header]
Application Name,LabSolutions
Version,5.97 SP1
Data File Name,C:\Users\cremerlab\Desktop\griffin\2021-03-31_NCM3722_NCglucose_turnover\2021-03-31_NCM3722_turnover_batch_3312021_007_007.lcd
Output Date,3/31/2021
Output Time,11:15:22 PM

[File Information]
Type,Data File
Generated,3/31/2021 10:35:02 PM
Generated by,System Administrator
Modified,3/31/2021 11:15:22 PM
Modified by,System Administrator

[Sample Information]
Operator Name,System Administrator
Acquired,3/31/2021 10:35:21 PM
Sample Type,1:Standard
Level,7
Sample Name,2021-03-31_NCM3722_NCglucose_replicate_01_timepoint_007
Sample ID,007
ISTD Amount1,1
ISTD Amount2,1
ISTD Amount3,1
ISTD Amount4,1
ISTD Amount5,1
ISTD Amount6,1
ISTD Amount7,1
ISTD Amount8,1
ISTD Amount9,1
ISTD Amount10,1
ISTD Amount11,1
ISTD Amount12,1
ISTD Amount13,1
ISTD Amount14,1
ISTD Amount15,1
ISTD Amount16,1
ISTD Amount17,1
ISTD Amount18,1
ISTD Amount19,1
ISTD Amount20,1
ISTD Amount21,1
ISTD Amount22,1
ISTD Amount23,1
ISTD Amount24,1
ISTD Amount25,1
ISTD Amount26,1
ISTD Amount27,1
ISTD Amount28,1
ISTD Amount29,1
ISTD Amount30,1
ISTD Amount31,1
ISTD Amount32,1
Sample Amount,1
Dilution Factor,1
Vial#,16
Injection Volume,20

[Original Files]
Data File,C:\Users\cremerlab\Desktop\griffin\2021-03-31_NCM3722_NCglucose_turnover\2021-03-31_NCM3722_turnover_batch_3312021_007_007.lcd
Method File,C:\LabSolutions\Data\Project1\organicacidsetc2.lcm
Batch File,C:\Users\cremerlab\Desktop\griffin\2021-03-31_NCM3722_NCglucose_turnover\2021-03-31_NCM3722_turnover_batch.lcb
Report Format File,c:\LabSolutions\System\DEFAULT.lsr

[File Description]


[Configuration]
Instrument Name,HPLC-PC-Instrument1
Instrument #,1
Line #,1
# of Detectors,2
Detector ID,Detector A,Detector B
Detector Name,Detector A,Detector B
# of Channels,1,1

[Peak Table(Detector A)]
# of Peaks,0

[Peak Table(Detector B)]
# of Peaks,4
Peak#,R.Time,I.Time,F.Time,Area,Height,A/H,Conc.,Mark,ID#,Name,k',Plate #,Plate Ht.,Tailing,Resolution,Sep.Factor,Area Ratio,Height Ratio,Conc. %,Norm Conc.
1,11.056,10.750,12.433,1232086,71415,17.253,23.107,   ,,,0.000,10722,13.990,1.256,0.000,0.000,0,0,0.000,0.000
2,15.099,14.092,15.392,3183990,119288,26.692,59.714,   ,,,0.366,6996,21.442,0.000,7.036,0.000,0,0,0.000,0.000
3,15.630,15.392,18.475,905573,36585,24.753,16.983, V ,,,0.414,7716,19.440,0.000,0.741,1.131,0,0,0.000,0.000
4,25.053,24.542,25.708,10458,369,28.339,0.196,   ,,,1.266,17447,8.597,1.063,12.817,3.060,0,0,0.000,0.000

[LC Chromatogram(Detector B-Ch1)]
Interval(msec),500
# of Points,4801
Start Time(min),0.000
End Time(min),40.000
Intensity Units,mV
Intensity Multiplier,0.001
R.Time (min),Intensity
0.00000,-0
0.00833,-0
0.01667,0
0.02500,1
0.03333,1
0.04167,1
0.05000,1
0.05833,0
0.06667,0
0.07500,-0
0.08333,-0
0.09167,0
0.10000,0
0.10833,0
0.11667,0
0.12500,0
0.13333,0
0.14167,0
0.15000,-0
0.15833,-1
0.16667,-1
0.17500,-1
0.18333,-1
0.19167,-0
0.20000,-0
0.20833,0
0.21667,0
0.22500,0
0.23333,1
0.24167,1
0.25000,1
0.25833,1
0.26667,1
0.27500,1
0.28333,1
0.29167,1
0.30000,1
0.30833,1
0.31667,1
0.32500,1
0.33333,1
0.34167,1
0.35000,1
0.35833,1
0.36667,1
0.37500,2
0.38333,1
0.39167,1
0.40000,1
0.40833,0
0.41667,0
0.42500,0
0.43333,0
0.44167,0
0.45000,1
0.45833,1
0.46667,1
0.47500,1
0.48333,2
0.49167,2
0.50000,1
0.50833,1
0.51667,1
0.52500,1
0.53333,1
0.54167,1
0.55000,1
0.55833,1
0.56667,2
0.57500,2
0.58333,2
0.59167,2
0.60000,2
0.60833,1
0.61667,1
0.62500,2
0.63333,2
0.64167,2
0.65000,2
0.65833,1
0.66667,1
0.67500,0
0.68333,-0
0.69167,-0
0.70000,-0
0.70833,-0
0.71667,-0
0.72500,-0
0.73333,0
0.74167,0
0.75000,0
0.75833,1
0.76667,1
0.77500,1
0.78333,1
0.79167,1
0.80000,1
0.80833,0
0.81667,-0
0.82500,-0
0.83333,-0
0.84167,0
0.85000,1
0.85833,1
0.86667,1
0.87500,1
0.88333,1
0.89167,1
0.90000,1
0.90833,1
0.91667,1
0.92500,1
0.93333,1
0.94167,1
0.95000,1
0.95833,1
0.96667,1
0.97500,1
0.98333,1
0.99167,1
1.00000,1
1.00833,1
1.01667,1
1.02500,1
1.03333,1
1.04167,2
1.05000,2
1.05833,2
1.06667,1
1.07500,1
1.08333,1
1.09167,1
1.10000,1
1.10833,1
1.11667,1
1.12500,1
1.13333,1
1.14167,1
1.15000,1
1.15833,1
1.16667,1
1.17500,1
1.18333,1
1.19167,1
1.20000,2
1.20833,2
1.21667,2
1.22500,1
1.23333,1
1.24167,1
1.25000,1
1.25833,1
1.26667,1
1.27500,1
1.28333,1
1.29167,1
1.30000,1
1.30833,1
1.31667,1
1.32500,1
1.33333,2
1.34167,2
1.35000,2
1.35833,2
1.36667,2
1.37500,2
1.38333,1
1.39167,1
1.40000,1
1.40833,1
1.41667,1
1.42500,1
1.43333,1
1.44167,1
1.45000,1
1.45833,1
1.46667,2
1.47500,2
1.48333,2
1.49167,2
1.50000,2
1.50833,2
1.51667,3
1.52500,3
1.53333,3
1.54167,3
1.55000,3
1.55833,3
1.56667,3
1.57500,2
1.58333,2
1.59167,2
1.60000,2
1.60833,2
1.61667,2
1.62500,2
1.63333,3
1.64167,3
1.65000,2
1.65833,2
1.66667,2
1.67500,2
1.68333,2
1.69167,3
1.70000,3
1.70833,3
1.71667,3
1.72500,3
1.73333,3
1.74167,3
1.75000,3
1.75833,3
1.76667,3
1.77500,3
1.78333,3
1.79167,3
1.80000,3
1.80833,3
1.81667,3
1.82500,3
1.83333,4
1.84167,4
1.85000,4
1.85833,4
1.86667,4
1.87500,4
1.88333,4
1.89167,4
1.90000,4
1.90833,4
1.91667,4
1.92500,4
1.93333,4
1.94167,4
1.95000,4
1.95833,4
1.96667,4
1.97500,4
1.98333,4
1.99167,4
2.00000,4
2.00833,5
2.01667,5
2.02500,5
2.03333,5
2.04167,5
2.05000,5
2.05833,5
2.06667,5
2.07500,5
2.08333,5
2.09167,5
2.10000,5
2.10833,6
2.11667,6
2.12500,5
2.13333,5
2.14167,5
2.15000,5
2.15833,5
2.16667,5
2.17500,6
2.18333,6
2.19167,6
2.20000,6
2.20833,6
2.21667,6
2.22500,6
2.23333,7
2.24167,6
2.25000,7
2.25833,7
2.26667,7
2.27500,7
2.28333,7
2.29167,7
2.30000,7
2.30833,7
2.31667,6
2.32500,5
2.33333,5
2.34167,5
2.35000,5
2.35833,4
2.36667,4
2.37500,4
2.38333,4
2.39167,4
2.40000,4
2.40833,4
2.41667,4
2.42500,4
2.43333,4
2.44167,4
2.45000,4
2.45833,4
2.46667,4
2.47500,4
2.48333,4
2.49167,4
2.50000,4
2.50833,4
2.51667,4
2.52500,4
2.53333,4
2.54167,4
2.55000,4
2.55833,4
2.56667,4
2.57500,4
2.58333,4
2.59167,4
2.60000,4
2.60833,5
2.61667,4
2.62500,4
2.63333,4
2.64167,4
2.65000,3
2.65833,3
2.66667,3
2.67500,3
2.68333,3
2.69167,3
2.70000,4
2.70833,4
2.71667,4
2.72500,3
2.73333,3
2.74167,3
2.75000,3
2.75833,3
2.76667,3
2.77500,3
2.78333,2
2.79167,2
2.80000,2
2.80833,2
2.81667,2
2.82500,2
2.83333,2
2.84167,2
2.85000,2
2.85833,3
2.86667,3
2.87500,3
2.88333,3
2.89167,3
2.90000,3
2.90833,3
2.91667,3
2.92500,2
2.93333,2
2.94167,2
2.95000,2
2.95833,2
2.96667,2
2.97500,2
2.98333,2
2.99167,2
3.00000,2
3.00833,2
3.01667,2
3.02500,2
3.03333,2
3.04167,2
3.05000,2
3.05833,2
3.06667,2
3.07500,1
3.08333,1
3.09167,1
3.10000,1
3.10833,1
3.11667,1
3.12500,1
3.13333,1
3.14167,1
3.15000,2
3.15833,2
3.16667,2
3.17500,2
3.18333,1
3.19167,1
3.20000,1
3.20833,1
3.21667,1
3.22500,1
3.23333,1
3.24167,1
3.25000,1
3.25833,1
3.26667,1
3.27500,1
3.28333,1
3.29167,1
3.30000,1
3.30833,1
3.31667,1
3.32500,1
3.33333,2
3.34167,1
3.35000,1
3.35833,1
3.36667,1
3.37500,1
3.38333,1
3.39167,1
3.40000,1
3.40833,2
3.41667,2
3.42500,2
3.43333,3
3.44167,2
3.45000,2
3.45833,2
3.46667,2
3.47500,2
3.48333,2
3.49167,2
3.50000,2
3.50833,2
3.51667,3
3.52500,3
3.53333,2
3.54167,2
3.55000,2
3.55833,2
3.56667,2
3.57500,2
3.58333,2
3.59167,2
3.60000,2
3.60833,2
3.61667,2
3.62500,2
3.63333,2
3.64167,2
3.65000,2
3.65833,3
3.66667,3
3.67500,3
3.68333,3
3.69167,3
3.70000,3
3.70833,3
3.71667,3
3.72500,2
3.73333,2
3.74167,2
3.75000,2
3.75833,3
3.76667,3
3.77500,3
3.78333,4
3.79167,4
3.80000,4
3.80833,4
3.81667,4
3.82500,4
3.83333,3
3.84167,3
3.85000,3
3.85833,3
3.86667,3
3.87500,3
3.88333,3
3.89167,4
3.90000,4
3.90833,4
3.91667,4
3.92500,4
3.93333,4
3.94167,4
3.95000,4
3.95833,4
3.96667,4
3.97500,4
3.98333,4
3.99167,5
4.00000,5
4.00833,5
4.01667,5
4.02500,5
4.03333,4
4.04167,4
4.05000,5
4.05833,5
4.06667,5
4.07500,5
4.08333,5
4.09167,5
4.10000,5
4.10833,5
4.11667,4
4.12500,4
4.13333,4
4.14167,4
4.15000,4
4.15833,4
4.16667,5
4.17500,5
4.18333,5
4.19167,5
4.20000,5
4.20833,5
4.21667,5
4.22500,5
4.23333,5
4.24167,5
4.25000,5
4.25833,5
4.26667,4
4.27500,4
4.28333,4
4.29167,4
4.30000,4
4.30833,4
4.31667,4
4.32500,4
4.33333,4
4.34167,4
4.35000,4
4.35833,4
4.36667,4
4.37500,4
4.38333,4
4.39167,4
4.40000,4
4.40833,4
4.41667,4
4.42500,4
4.43333,4
4.44167,4
4.45000,4
4.45833,4
4.46667,4
4.47500,4
4.48333,4
4.49167,4
4.50000,4
4.50833,3
4.51667,3
4.52500,3
4.53333,3
4.54167,3
4.55000,3
4.55833,3
4.56667,3
4.57500,3
4.58333,3
4.59167,3
4.60000,3
4.60833,3
4.61667,3
4.62500,3
4.63333,3
4.64167,3
4.65000,3
4.65833,3
4.66667,3
4.67500,3
4.68333,3
4.69167,3
4.70000,3
4.70833,2
4.71667,2
4.72500,2
4.73333,2
4.74167,2
4.75000,2
4.75833,2
4.76667,2
4.77500,2
4.78333,2
4.79167,2
4.80000,2
4.80833,2
4.81667,2
4.82500,2
4.83333,1
4.84167,1
4.85000,1
4.85833,1
4.86667,1
4.87500,1
4.88333,1
4.89167,1
4.90000,2
4.90833,2
4.91667,2
4.92500,2
4.93333,2
4.94167,2
4.95000,2
4.95833,2
4.96667,2
4.97500,2
4.98333,2
4.99167,1
5.00000,2
5.00833,2
5.01667,2
5.02500,2
5.03333,2
5.04167,1
5.05000,1
5.05833,1
5.06667,1
5.07500,1
5.08333,1
5.09167,2
5.10000,2
5.10833,1
5.11667,1
5.12500,1
5.13333,1
5.14167,1
5.15000,2
5.15833,2
5.16667,1
5.17500,1
5.18333,1
5.19167,1
5.20000,1
5.20833,1
5.21667,1
5.22500,1
5.23333,1
5.24167,1
5.25000,1
5.25833,1
5.26667,1
5.27500,1
5.28333,1
5.29167,1
5.30000,1
5.30833,1
5.31667,1
5.32500,1
5.33333,2
5.34167,2
5.35000,2
5.35833,2
5.36667,2
5.37500,2
5.38333,2
5.39167,2
5.40000,1
5.40833,1
5.41667,1
5.42500,1
5.43333,1
5.44167,1
5.45000,1
5.45833,1
5.46667,1
5.47500,1
5.48333,2
5.49167,2
5.50000,2
5.50833,2
5.51667,1
5.52500,2
5.53333,1
5.54167,1
5.55000,1
5.55833,0
5.56667,0
5.57500,0
5.58333,1
5.59167,1
5.60000,1
5.60833,1
5.61667,1
5.62500,0
5.63333,0
5.64167,0
5.65000,0
5.65833,1
5.66667,1
5.67500,1
5.68333,1
5.69167,1
5.70000,2
5.70833,2
5.71667,2
5.72500,2
5.73333,2
5.74167,2
5.75000,2
5.75833,1
5.76667,1
5.77500,1
5.78333,1
5.79167,1
5.80000,1
5.80833,1
5.81667,1
5.82500,1
5.83333,1
5.84167,1
5.85000,1
5.85833,1
5.86667,1
5.87500,1
5.88333,1
5.89167,1
5.90000,1
5.90833,1
5.91667,1
5.92500,1
5.93333,1
5.94167,1
5.95000,2
5.95833,1
5.96667,1
5.97500,1
5.98333,1
5.99167,1
6.00000,1
6.00833,2
6.01667,2
6.02500,2
6.03333,2
6.04167,2
6.05000,1
6.05833,1
6.06667,1
6.07500,0
6.08333,0
6.09167,0
6.10000,0
6.10833,1
6.11667,1
6.12500,1
6.13333,1
6.14167,1
6.15000,1
6.15833,1
6.16667,1
6.17500,1
6.18333,1
6.19167,1
6.20000,0
6.20833,0
6.21667,0
6.22500,0
6.23333,0
6.24167,0
6.25000,1
6.25833,1
6.26667,1
6.27500,1
6.28333,1
6.29167,1
6.30000,1
6.30833,1
6.31667,1
6.32500,1
6.33333,0
6.34167,0
6.35000,0
6.35833,0
6.36667,1
6.37500,1
6.38333,2
6.39167,2
6.40000,2
6.40833,2
6.41667,2
6.42500,2
6.43333,2
6.44167,2
6.45000,1
6.45833,1
6.46667,1
6.47500,1
6.48333,2
6.49167,2
6.50000,2
6.50833,2
6.51667,1
6.52500,1
6.53333,1
6.54167,1
6.55000,0
6.55833,1
6.56667,1
6.57500,1
6.58333,1
6.59167,0
6.60000,0
6.60833,-0
6.61667,-0
6.62500,-0
6.63333,-0
6.64167,-0
6.65000,-0
6.65833,0
6.66667,0
6.67500,0
6.68333,0
6.69167,0
6.70000,0
6.70833,0
6.71667,0
6.72500,0
6.73333,0
6.74167,0
6.75000,1
6.75833,1
6.76667,1
6.77500,1
6.78333,1
6.79167,0
6.80000,0
6.80833,1
6.81667,1
6.82500,1
6.83333,1
6.84167,1
6.85000,1
6.85833,1
6.86667,0
6.87500,-0
6.88333,-0
6.89167,-0
6.90000,-0
6.90833,-0
6.91667,-0
6.92500,-1
6.93333,-0
6.94167,-0
6.95000,-0
6.95833,0
6.96667,0
6.97500,1
6.98333,1
6.99167,1
7.00000,1
7.00833,1
7.01667,0
7.02500,-0
7.03333,-0
7.04167,-0
7.05000,-0
7.05833,0
7.06667,0
7.07500,0
7.08333,-0
7.09167,-0
7.10000,-0
7.10833,-0
7.11667,-0
7.12500,-0
7.13333,-0
7.14167,0
7.15000,-0
7.15833,-0
7.16667,-0
7.17500,-1
7.18333,-0
7.19167,-0
7.20000,0
7.20833,0
7.21667,-0
7.22500,-0
7.23333,-0
7.24167,-0
7.25000,-0
7.25833,-1
7.26667,-1
7.27500,-1
7.28333,-1
7.29167,-1
7.30000,-0
7.30833,0
7.31667,0
7.32500,1
7.33333,0
7.34167,0
7.35000,-0
7.35833,-1
7.36667,-1
7.37500,-1
7.38333,-1
7.39167,-1
7.40000,-1
7.40833,-1
7.41667,-1
7.42500,-1
7.43333,-1
7.44167,-1
7.45000,-1
7.45833,-1
7.46667,-1
7.47500,-1
7.48333,-1
7.49167,-0
7.50000,-0
7.50833,-1
7.51667,-1
7.52500,-1
7.53333,-1
7.54167,-1
7.55000,-0
7.55833,-1
7.56667,-1
7.57500,-1
7.58333,-1
7.59167,-1
7.60000,-2
7.60833,-2
7.61667,-2
7.62500,-1
7.63333,-1
7.64167,-1
7.65000,-1
7.65833,-1
7.66667,-0
7.67500,0
7.68333,0
7.69167,0
7.70000,-0
7.70833,-0
7.71667,-0
7.72500,-0
7.73333,-0
7.74167,-0
7.75000,-0
7.75833,-1
7.76667,-0
7.77500,-0
7.78333,-0
7.79167,-0
7.80000,-0
7.80833,-0
7.81667,-0
7.82500,-0
7.83333,0
7.84167,0
7.85000,-0
7.85833,-0
7.86667,-1
7.87500,-1
7.88333,-1
7.89167,-0
7.90000,-0
7.90833,-1
7.91667,-1
7.92500,-1
7.93333,-1
7.94167,-1
7.95000,-1
7.95833,-1
7.96667,-0
7.97500,-0
7.98333,0
7.99167,0
8.00000,0
8.00833,0
8.01667,0
8.02500,0
8.03333,-0
8.04167,-0
8.05000,-0
8.05833,-0
8.06667,-0
8.07500,-0
8.08333,-0
8.09167,-0
8.10000,-0
8.10833,-1
8.11667,-1
8.12500,-1
8.13333,-1
8.14167,-1
8.15000,-1
8.15833,-1
8.16667,-1
8.17500,-1
8.18333,-1
8.19167,-1
8.20000,-1
8.20833,-1
8.21667,-1
8.22500,-1
8.23333,-1
8.24167,-0
8.25000,-0
8.25833,-0
8.26667,-0
8.27500,-0
8.28333,0
8.29167,0
8.30000,0
8.30833,0
8.31667,0
8.32500,-0
8.33333,-0
8.34167,-0
8.35000,-1
8.35833,-1
8.36667,-1
8.37500,-1
8.38333,-1
8.39167,-1
8.40000,-1
8.40833,-1
8.41667,-0
8.42500,-0
8.43333,0
8.44167,0
8.45000,0
8.45833,0
8.46667,0
8.47500,0
8.48333,0
8.49167,0
8.50000,-0
8.50833,-0
8.51667,-0
8.52500,-0
8.53333,-0
8.54167,-0
8.55000,-0
8.55833,-1
8.56667,-1
8.57500,-0
8.58333,0
8.59167,0
8.60000,0
8.60833,0
8.61667,0
8.62500,0
8.63333,-0
8.64167,-0
8.65000,-0
8.65833,-1
8.66667,-1
8.67500,-1
8.68333,-1
8.69167,-1
8.70000,-1
8.70833,-1
8.71667,-1
8.72500,-1
8.73333,-1
8.74167,-2
8.75000,-2
8.75833,-2
8.76667,-2
8.77500,-2
8.78333,-2
8.79167,-2
8.80000,-2
8.80833,-1
8.81667,-1
8.82500,-1
8.83333,-1
8.84167,-1
8.85000,-1
8.85833,-0
8.86667,-0
8.87500,-1
8.88333,-1
8.89167,-1
8.90000,-2
8.90833,-2
8.91667,-2
8.92500,-2
8.93333,-2
8.94167,-2
8.95000,-2
8.95833,-2
8.96667,-2
8.97500,-1
8.98333,-1
8.99167,-0
9.00000,-0
9.00833,-0
9.01667,-1
9.02500,-1
9.03333,-1
9.04167,-1
9.05000,-1
9.05833,-1
9.06667,-1
9.07500,-1
9.08333,-1
9.09167,-1
9.10000,-1
9.10833,-1
9.11667,-1
9.12500,-1
9.13333,-1
9.14167,-1
9.15000,-1
9.15833,-1
9.16667,-2
9.17500,-2
9.18333,-3
9.19167,-3
9.20000,-3
9.20833,-3
9.21667,-3
9.22500,-3
9.23333,-3
9.24167,-2
9.25000,-3
9.25833,-2
9.26667,-2
9.27500,-2
9.28333,-2
9.29167,-2
9.30000,-2
9.30833,-2
9.31667,-2
9.32500,-2
9.33333,-2
9.34167,-1
9.35000,-1
9.35833,-1
9.36667,-1
9.37500,-1
9.38333,-1
9.39167,-1
9.40000,-1
9.40833,-1
9.41667,-1
9.42500,-1
9.43333,-1
9.44167,-2
9.45000,-2
9.45833,-2
9.46667,-2
9.47500,-2
9.48333,-2
9.49167,-2
9.50000,-2
9.50833,-1
9.51667,-1
9.52500,-1
9.53333,-1
9.54167,-1
9.55000,-1
9.55833,-1
9.56667,-1
9.57500,-1
9.58333,-1
9.59167,-1
9.60000,-1
9.60833,-1
9.61667,-1
9.62500,-1
9.63333,-1
9.64167,-1
9.65000,-1
9.65833,-1
9.66667,-1
9.67500,-1
9.68333,-1
9.69167,-1
9.70000,-1
9.70833,-1
9.71667,-1
9.72500,-1
9.73333,-1
9.74167,-2
9.75000,-2
9.75833,-2
9.76667,-2
9.77500,-1
9.78333,-1
9.79167,-1
9.80000,-2
9.80833,-2
9.81667,-2
9.82500,-3
9.83333,-2
9.84167,-2
9.85000,-2
9.85833,-2
9.86667,-2
9.87500,-1
9.88333,-1
9.89167,-1
9.90000,-1
9.90833,-1
9.91667,-1
9.92500,-1
9.93333,-1
9.94167,-1
9.95000,-2
9.95833,-2
9.96667,-2
9.97500,-2
9.98333,-2
9.99167,-2
10.00000,-1
10.00833,-1
10.01667,-1
10.02500,-1
10.03333,-1
10.04167,-1
10.05000,-1
10.05833,-1
10.06667,-1
10.07500,-1
10.08333,-1
10.09167,-0
10.10000,-0
10.10833,-0
10.11667,-1
10.12500,-1
10.13333,-1
10.14167,-1
10.15000,-1
10.15833,-1
10.16667,-1
10.17500,-1
10.18333,-1
10.19167,-1
10.20000,-1
10.20833,-0
10.21667,-0
10.22500,-0
10.23333,-0
10.24167,-0
10.25000,-0
10.25833,-0
10.26667,-1
10.27500,-1
10.28333,-1
10.29167,-1
10.30000,-1
10.30833,-1
10.31667,-1
10.32500,-0
10.33333,1
10.34167,1
10.35000,2
10.35833,2
10.36667,3
10.37500,3
10.38333,3
10.39167,3
10.40000,3
10.40833,3
10.41667,4
10.42500,4
10.43333,4
10.44167,5
10.45000,4
10.45833,4
10.46667,4
10.47500,4
10.48333,3
10.49167,3
10.50000,1
10.50833,-2
10.51667,-6
10.52500,-13
10.53333,-22
10.54167,-34
10.55000,-51
10.55833,-74
10.56667,-104
10.57500,-144
10.58333,-195
10.59167,-259
10.60000,-338
10.60833,-434
10.61667,-550
10.62500,-688
10.63333,-848
10.64167,-1031
10.65000,-1236
10.65833,-1464
10.66667,-1711
10.67500,-1974
10.68333,-2246
10.69167,-2523
10.70000,-2795
10.70833,-3054
10.71667,-3288
10.72500,-3485
10.73333,-3633
10.74167,-3720
10.75000,-3731
10.75833,-3654
10.76667,-3474
10.77500,-3180
10.78333,-2759
10.79167,-2200
10.80000,-1494
10.80833,-631
10.81667,395
10.82500,1589
10.83333,2957
10.84167,4500
10.85000,6221
10.85833,8119
10.86667,10192
10.87500,12436
10.88333,14848
10.89167,17420
10.90000,20144
10.90833,23009
10.91667,26004
10.92500,29113
10.93333,32319
10.94167,35600
10.95000,38932
10.95833,42286
10.96667,45628
10.97500,48920
10.98333,52118
10.99167,55175
11.00000,58040
11.00833,60658
11.01667,62975
11.02500,64938
11.03333,66498
11.04167,67612
11.05000,68247
11.05833,68383
11.06667,68012
11.07500,67141
11.08333,65790
11.09167,63994
11.10000,61799
11.10833,59259
11.11667,56437
11.12500,53396
11.13333,50202
11.14167,46917
11.15000,43601
11.15833,40304
11.16667,37074
11.17500,33946
11.18333,30952
11.19167,28114
11.20000,25447
11.20833,22961
11.21667,20660
11.22500,18544
11.23333,16609
11.24167,14848
11.25000,13253
11.25833,11816
11.26667,10524
11.27500,9367
11.28333,8333
11.29167,7413
11.30000,6595
11.30833,5870
11.31667,5227
11.32500,4659
11.33333,4158
11.34167,3715
11.35000,3325
11.35833,2981
11.36667,2679
11.37500,2412
11.38333,2177
11.39167,1970
11.40000,1787
11.40833,1627
11.41667,1485
11.42500,1359
11.43333,1248
11.44167,1149
11.45000,1061
11.45833,983
11.46667,914
11.47500,852
11.48333,796
11.49167,746
11.50000,701
11.50833,661
11.51667,624
11.52500,590
11.53333,559
11.54167,531
11.55000,506
11.55833,482
11.56667,460
11.57500,440
11.58333,422
11.59167,405
11.60000,389
11.60833,374
11.61667,360
11.62500,347
11.63333,335
11.64167,324
11.65000,313
11.65833,303
11.66667,294
11.67500,286
11.68333,277
11.69167,269
11.70000,262
11.70833,254
11.71667,248
11.72500,241
11.73333,235
11.74167,230
11.75000,225
11.75833,220
11.76667,216
11.77500,212
11.78333,209
11.79167,205
11.80000,202
11.80833,199
11.81667,196
11.82500,193
11.83333,190
11.84167,188
11.85000,186
11.85833,183
11.86667,181
11.87500,179
11.88333,177
11.89167,175
11.90000,173
11.90833,171
11.91667,170
11.92500,169
11.93333,167
11.94167,166
11.95000,165
11.95833,164
11.96667,163
11.97500,162
11.98333,161
11.99167,159
12.00000,158
12.00833,157
12.01667,156
12.02500,155
12.03333,154
12.04167,153
12.05000,152
12.05833,151
12.06667,150
12.07500,149
12.08333,148
12.09167,147
12.10000,146
12.10833,145
12.11667,144
12.12500,143
12.13333,142
12.14167,141
12.15000,141
12.15833,140
12.16667,139
12.17500,138
12.18333,137
12.19167,136
12.20000,135
12.20833,134
12.21667,133
12.22500,132
12.23333,131
12.24167,130
12.25000,130
12.25833,129
12.26667,128
12.27500,127
12.28333,126
12.29167,125
12.30000,124
12.30833,123
12.31667,122
12.32500,122
12.33333,121
12.34167,120
12.35000,119
12.35833,118
12.36667,118
12.37500,117
12.38333,117
12.39167,116
12.40000,115
12.40833,114
12.41667,113
12.42500,113
12.43333,113
12.44167,113
12.45000,112
12.45833,112
12.46667,111
12.47500,110
12.48333,110
12.49167,109
12.50000,109
12.50833,108
12.51667,108
12.52500,107
12.53333,107
12.54167,106
12.55000,105
12.55833,105
12.56667,104
12.57500,104
12.58333,103
12.59167,103
12.60000,102
12.60833,101
12.61667,101
12.62500,101
12.63333,100
12.64167,100
12.65000,99
12.65833,98
12.66667,97
12.67500,97
12.68333,96
12.69167,95
12.70000,95
12.70833,94
12.71667,93
12.72500,93
12.73333,92
12.74167,91
12.75000,91
12.75833,91
12.76667,90
12.77500,90
12.78333,90
12.79167,90
12.80000,89
12.80833,89
12.81667,89
12.82500,89
12.83333,90
12.84167,90
12.85000,89
12.85833,89
12.86667,89
12.87500,89
12.88333,89
12.89167,89
12.90000,89
12.90833,89
12.91667,89
12.92500,89
12.93333,89
12.94167,90
12.95000,89
12.95833,89
12.96667,89
12.97500,90
12.98333,90
12.99167,90
13.00000,90
13.00833,90
13.01667,90
13.02500,91
13.03333,91
13.04167,91
13.05000,92
13.05833,92
13.06667,92
13.07500,92
13.08333,91
13.09167,91
13.10000,91
13.10833,91
13.11667,91
13.12500,91
13.13333,91
13.14167,91
13.15000,90
13.15833,90
13.16667,90
13.17500,90
13.18333,90
13.19167,90
13.20000,89
13.20833,89
13.21667,88
13.22500,88
13.23333,87
13.24167,87
13.25000,86
13.25833,86
13.26667,85
13.27500,84
13.28333,84
13.29167,83
13.30000,82
13.30833,82
13.31667,81
13.32500,80
13.33333,79
13.34167,78
13.35000,78
13.35833,77
13.36667,76
13.37500,75
13.38333,74
13.39167,73
13.40000,72
13.40833,71
13.41667,70
13.42500,68
13.43333,68
13.44167,67
13.45000,66
13.45833,65
13.46667,64
13.47500,62
13.48333,61
13.49167,60
13.50000,59
13.50833,59
13.51667,58
13.52500,57
13.53333,56
13.54167,55
13.55000,55
13.55833,54
13.56667,53
13.57500,53
13.58333,52
13.59167,52
13.60000,52
13.60833,52
13.61667,51
13.62500,51
13.63333,51
13.64167,51
13.65000,51
13.65833,50
13.66667,50
13.67500,50
13.68333,49
13.69167,49
13.70000,49
13.70833,49
13.71667,49
13.72500,49
13.73333,49
13.74167,49
13.75000,49
13.75833,49
13.76667,49
13.77500,50
13.78333,50
13.79167,50
13.80000,50
13.80833,50
13.81667,50
13.82500,50
13.83333,50
13.84167,50
13.85000,51
13.85833,51
13.86667,52
13.87500,52
13.88333,53
13.89167,53
13.90000,54
13.90833,54
13.91667,55
13.92500,56
13.93333,56
13.94167,57
13.95000,57
13.95833,58
13.96667,59
13.97500,59
13.98333,60
13.99167,61
14.00000,61
14.00833,62
14.01667,63
14.02500,64
14.03333,65
14.04167,65
14.05000,66
14.05833,66
14.06667,67
14.07500,68
14.08333,69
14.09167,70
14.10000,71
14.10833,72
14.11667,74
14.12500,75
14.13333,77
14.14167,79
14.15000,81
14.15833,83
14.16667,86
14.17500,90
14.18333,94
14.19167,98
14.20000,104
14.20833,111
14.21667,119
14.22500,129
14.23333,141
14.24167,155
14.25000,172
14.25833,193
14.26667,218
14.27500,247
14.28333,282
14.29167,325
14.30000,375
14.30833,434
14.31667,504
14.32500,585
14.33333,680
14.34167,789
14.35000,916
14.35833,1060
14.36667,1224
14.37500,1409
14.38333,1618
14.39167,1851
14.40000,2111
14.40833,2400
14.41667,2718
14.42500,3067
14.43333,3449
14.44167,3863
14.45000,4313
14.45833,4798
14.46667,5318
14.47500,5875
14.48333,6469
14.49167,7100
14.50000,7768
14.50833,8474
14.51667,9216
14.52500,9996
14.53333,10812
14.54167,11665
14.55000,12553
14.55833,13476
14.56667,14435
14.57500,15428
14.58333,16455
14.59167,17516
14.60000,18608
14.60833,19733
14.61667,20889
14.62500,22075
14.63333,23292
14.64167,24538
14.65000,25814
14.65833,27118
14.66667,28451
14.67500,29811
14.68333,31198
14.69167,32612
14.70000,34051
14.70833,35517
14.71667,37007
14.72500,38523
14.73333,40064
14.74167,41629
14.75000,43219
14.75833,44833
14.76667,46470
14.77500,48131
14.78333,49816
14.79167,51523
14.80000,53254
14.80833,55007
14.81667,56783
14.82500,58581
14.83333,60400
14.84167,62242
14.85000,64106
14.85833,65992
14.86667,67898
14.87500,69825
14.88333,71773
14.89167,73742
14.90000,75730
14.90833,77738
14.91667,79765
14.92500,81809
14.93333,83871
14.94167,85950
14.95000,88044
14.95833,90153
14.96667,92273
14.97500,94405
14.98333,96543
14.99167,98686
15.00000,100829
15.00833,102963
15.01667,105081
15.02500,107168
15.03333,109207
15.04167,111172
15.05000,113034
15.05833,114753
15.06667,116283
15.07500,117570
15.08333,118555
15.09167,119175
15.10000,119367
15.10833,119073
15.11667,118244
15.12500,116842
15.13333,114847
15.14167,112255
15.15000,109083
15.15833,105368
15.16667,101167
15.17500,96548
15.18333,91596
15.19167,86401
15.20000,81055
15.20833,75653
15.21667,70280
15.22500,65017
15.23333,59930
15.24167,55078
15.25000,50505
15.25833,46241
15.26667,42308
15.27500,38715
15.28333,35466
15.29167,32556
15.30000,29973
15.30833,27706
15.31667,25738
15.32500,24050
15.33333,22625
15.34167,21444
15.35000,20491
15.35833,19747
15.36667,19198
15.37500,18829
15.38333,18626
15.39167,18576
15.40000,18668
15.40833,18891
15.41667,19232
15.42500,19684
15.43333,20233
15.44167,20871
15.45000,21587
15.45833,22372
15.46667,23215
15.47500,24104
15.48333,25030
15.49167,25982
15.50000,26949
15.50833,27920
15.51667,28884
15.52500,29831
15.53333,30750
15.54167,31631
15.55000,32466
15.55833,33245
15.56667,33959
15.57500,34603
15.58333,35168
15.59167,35649
15.60000,36042
15.60833,36343
15.61667,36548
15.62500,36657
15.63333,36668
15.64167,36582
15.65000,36400
15.65833,36125
15.66667,35759
15.67500,35306
15.68333,34770
15.69167,34157
15.70000,33473
15.70833,32722
15.71667,31912
15.72500,31049
15.73333,30140
15.74167,29191
15.75000,28210
15.75833,27203
15.76667,26176
15.77500,25135
15.78333,24088
15.79167,23039
15.80000,21994
15.80833,20957
15.81667,19933
15.82500,18925
15.83333,17938
15.84167,16975
15.85000,16039
15.85833,15131
15.86667,14254
15.87500,13410
15.88333,12600
15.89167,11824
15.90000,11083
15.90833,10376
15.91667,9705
15.92500,9068
15.93333,8467
15.94167,7899
15.95000,7364
15.95833,6862
15.96667,6391
15.97500,5949
15.98333,5537
15.99167,5153
16.00000,4794
16.00833,4461
16.01667,4152
16.02500,3865
16.03333,3599
16.04167,3353
16.05000,3125
16.05833,2915
16.06667,2721
16.07500,2543
16.08333,2378
16.09167,2227
16.10000,2088
16.10833,1959
16.11667,1842
16.12500,1734
16.13333,1635
16.14167,1544
16.15000,1460
16.15833,1384
16.16667,1313
16.17500,1248
16.18333,1188
16.19167,1134
16.20000,1084
16.20833,1038
16.21667,995
16.22500,956
16.23333,919
16.24167,886
16.25000,855
16.25833,827
16.26667,801
16.27500,776
16.28333,753
16.29167,732
16.30000,713
16.30833,694
16.31667,677
16.32500,662
16.33333,647
16.34167,633
16.35000,620
16.35833,607
16.36667,596
16.37500,585
16.38333,574
16.39167,565
16.40000,555
16.40833,546
16.41667,538
16.42500,529
16.43333,521
16.44167,514
16.45000,506
16.45833,500
16.46667,493
16.47500,487
16.48333,481
16.49167,475
16.50000,470
16.50833,465
16.51667,460
16.52500,455
16.53333,450
16.54167,446
16.55000,441
16.55833,436
16.56667,432
16.57500,428
16.58333,424
16.59167,420
16.60000,416
16.60833,413
16.61667,409
16.62500,406
16.63333,402
16.64167,399
16.65000,395
16.65833,392
16.66667,389
16.67500,385
16.68333,382
16.69167,379
16.70000,377
16.70833,374
16.71667,372
16.72500,369
16.73333,366
16.74167,363
16.75000,360
16.75833,357
16.76667,355
16.77500,352
16.78333,350
16.79167,347
16.80000,345
16.80833,342
16.81667,340
16.82500,338
16.83333,336
16.84167,333
16.85000,331
16.85833,328
16.86667,326
16.87500,324
16.88333,322
16.89167,319
16.90000,317
16.90833,315
16.91667,313
16.92500,311
16.93333,309
16.94167,307
16.95000,305
16.95833,303
16.96667,301
16.97500,299
16.98333,297
16.99167,295
17.00000,293
17.00833,291
17.01667,290
17.02500,288
17.03333,286
17.04167,285
17.05000,283
17.05833,281
17.06667,279
17.07500,277
17.08333,276
17.09167,274
17.10000,273
17.10833,271
17.11667,269
17.12500,267
17.13333,266
17.14167,264
17.15000,263
17.15833,261
17.16667,260
17.17500,259
17.18333,257
17.19167,255
17.20000,253
17.20833,252
17.21667,250
17.22500,248
17.23333,247
17.24167,245
17.25000,244
17.25833,242
17.26667,241
17.27500,239
17.28333,238
17.29167,236
17.30000,235
17.30833,234
17.31667,232
17.32500,230
17.33333,229
17.34167,227
17.35000,226
17.35833,225
17.36667,223
17.37500,222
17.38333,221
17.39167,219
17.40000,218
17.40833,217
17.41667,216
17.42500,215
17.43333,213
17.44167,212
17.45000,210
17.45833,209
17.46667,208
17.47500,206
17.48333,205
17.49167,204
17.50000,203
17.50833,202
17.51667,201
17.52500,200
17.53333,199
17.54167,197
17.55000,196
17.55833,194
17.56667,193
17.57500,192
17.58333,191
17.59167,189
17.60000,189
17.60833,188
17.61667,187
17.62500,186
17.63333,184
17.64167,183
17.65000,182
17.65833,180
17.66667,179
17.67500,179
17.68333,178
17.69167,177
17.70000,176
17.70833,176
17.71667,175
17.72500,174
17.73333,173
17.74167,171
17.75000,170
17.75833,169
17.76667,168
17.77500,167
17.78333,166
17.79167,165
17.80000,163
17.80833,162
17.81667,162
17.82500,161
17.83333,160
17.84167,160
17.85000,159
17.85833,158
17.86667,157
17.87500,156
17.88333,155
17.89167,154
17.90000,154
17.90833,153
17.91667,152
17.92500,152
17.93333,151
17.94167,150
17.95000,149
17.95833,148
17.96667,148
17.97500,147
17.98333,146
17.99167,145
18.00000,145
18.00833,144
18.01667,143
18.02500,142
18.03333,142
18.04167,141
18.05000,141
18.05833,140
18.06667,139
18.07500,138
18.08333,138
18.09167,137
18.10000,136
18.10833,135
18.11667,135
18.12500,134
18.13333,133
18.14167,132
18.15000,132
18.15833,131
18.16667,130
18.17500,129
18.18333,128
18.19167,128
18.20000,127
18.20833,126
18.21667,126
18.22500,125
18.23333,124
18.24167,123
18.25000,123
18.25833,122
18.26667,121
18.27500,121
18.28333,120
18.29167,119
18.30000,119
18.30833,118
18.31667,117
18.32500,117
18.33333,116
18.34167,116
18.35000,115
18.35833,115
18.36667,114
18.37500,113
18.38333,113
18.39167,112
18.40000,111
18.40833,111
18.41667,111
18.42500,110
18.43333,109
18.44167,108
18.45000,107
18.45833,107
18.46667,107
18.47500,106
18.48333,106
18.49167,106
18.50000,105
18.50833,105
18.51667,105
18.52500,104
18.53333,104
18.54167,103
18.55000,102
18.55833,102
18.56667,101
18.57500,101
18.58333,101
18.59167,100
18.60000,100
18.60833,100
18.61667,99
18.62500,99
18.63333,99
18.64167,99
18.65000,99
18.65833,99
18.66667,100
18.67500,100
18.68333,101
18.69167,101
18.70000,102
18.70833,102
18.71667,103
18.72500,104
18.73333,105
18.74167,106
18.75000,107
18.75833,108
18.76667,109
18.77500,110
18.78333,111
18.79167,113
18.80000,115
18.80833,116
18.81667,118
18.82500,119
18.83333,121
18.84167,123
18.85000,125
18.85833,126
18.86667,128
18.87500,130
18.88333,131
18.89167,133
18.90000,134
18.90833,136
18.91667,137
18.92500,138
18.93333,139
18.94167,140
18.95000,140
18.95833,140
18.96667,140
18.97500,140
18.98333,140
18.99167,140
19.00000,140
19.00833,139
19.01667,138
19.02500,138
19.03333,136
19.04167,135
19.05000,134
19.05833,133
19.06667,131
19.07500,129
19.08333,127
19.09167,125
19.10000,123
19.10833,121
19.11667,118
19.12500,116
19.13333,114
19.14167,112
19.15000,110
19.15833,107
19.16667,105
19.17500,103
19.18333,101
19.19167,99
19.20000,97
19.20833,95
19.21667,93
19.22500,91
19.23333,89
19.24167,87
19.25000,86
19.25833,85
19.26667,83
19.27500,82
19.28333,81
19.29167,79
19.30000,78
19.30833,76
19.31667,75
19.32500,74
19.33333,73
19.34167,72
19.35000,71
19.35833,70
19.36667,69
19.37500,69
19.38333,68
19.39167,66
19.40000,65
19.40833,64
19.41667,64
19.42500,63
19.43333,63
19.44167,63
19.45000,62
19.45833,62
19.46667,61
19.47500,60
19.48333,60
19.49167,60
19.50000,59
19.50833,59
19.51667,59
19.52500,58
19.53333,58
19.54167,58
19.55000,57
19.55833,57
19.56667,57
19.57500,57
19.58333,56
19.59167,56
19.60000,56
19.60833,56
19.61667,55
19.62500,54
19.63333,54
19.64167,54
19.65000,53
19.65833,53
19.66667,53
19.67500,52
19.68333,51
19.69167,51
19.70000,51
19.70833,50
19.71667,51
19.72500,51
19.73333,51
19.74167,50
19.75000,50
19.75833,49
19.76667,49
19.77500,49
19.78333,48
19.79167,48
19.80000,48
19.80833,48
19.81667,47
19.82500,47
19.83333,47
19.84167,46
19.85000,46
19.85833,46
19.86667,46
19.87500,45
19.88333,45
19.89167,45
19.90000,45
19.90833,45
19.91667,45
19.92500,44
19.93333,44
19.94167,44
19.95000,44
19.95833,43
19.96667,43
19.97500,43
19.98333,42
19.99167,42
20.00000,42
20.00833,42
20.01667,42
20.02500,41
20.03333,41
20.04167,41
20.05000,40
20.05833,40
20.06667,40
20.07500,40
20.08333,40
20.09167,39
20.10000,39
20.10833,39
20.11667,38
20.12500,38
20.13333,37
20.14167,37
20.15000,37
20.15833,37
20.16667,37
20.17500,37
20.18333,37
20.19167,37
20.20000,36
20.20833,36
20.21667,37
20.22500,37
20.23333,37
20.24167,37
20.25000,36
20.25833,36
20.26667,36
20.27500,35
20.28333,35
20.29167,35
20.30000,35
20.30833,34
20.31667,34
20.32500,33
20.33333,33
20.34167,33
20.35000,32
20.35833,32
20.36667,33
20.37500,33
20.38333,33
20.39167,33
20.40000,32
20.40833,32
20.41667,32
20.42500,32
20.43333,32
20.44167,32
20.45000,32
20.45833,32
20.46667,31
20.47500,31
20.48333,31
20.49167,31
20.50000,30
20.50833,30
20.51667,30
20.52500,30
20.53333,30
20.54167,30
20.55000,30
20.55833,29
20.56667,29
20.57500,30
20.58333,30
20.59167,30
20.60000,29
20.60833,29
20.61667,29
20.62500,29
20.63333,28
20.64167,28
20.65000,28
20.65833,28
20.66667,28
20.67500,28
20.68333,27
20.69167,27
20.70000,27
20.70833,27
20.71667,27
20.72500,27
20.73333,27
20.74167,27
20.75000,26
20.75833,26
20.76667,26
20.77500,26
20.78333,26
20.79167,26
20.80000,26
20.80833,26
20.81667,25
20.82500,25
20.83333,25
20.84167,25
20.85000,24
20.85833,24
20.86667,24
20.87500,24
20.88333,24
20.89167,24
20.90000,24
20.90833,24
20.91667,24
20.92500,24
20.93333,24
20.94167,24
20.95000,24
20.95833,23
20.96667,23
20.97500,23
20.98333,23
20.99167,23
21.00000,23
21.00833,23
21.01667,23
21.02500,23
21.03333,22
21.04167,22
21.05000,21
21.05833,21
21.06667,21
21.07500,21
21.08333,21
21.09167,21
21.10000,21
21.10833,21
21.11667,21
21.12500,21
21.13333,21
21.14167,21
21.15000,21
21.15833,21
21.16667,21
21.17500,21
21.18333,21
21.19167,21
21.20000,21
21.20833,21
21.21667,21
21.22500,22
21.23333,21
21.24167,21
21.25000,22
21.25833,22
21.26667,22
21.27500,22
21.28333,22
21.29167,22
21.30000,23
21.30833,23
21.31667,23
21.32500,23
21.33333,23
21.34167,23
21.35000,24
21.35833,24
21.36667,24
21.37500,24
21.38333,25
21.39167,25
21.40000,26
21.40833,26
21.41667,26
21.42500,26
21.43333,26
21.44167,26
21.45000,26
21.45833,26
21.46667,26
21.47500,27
21.48333,27
21.49167,27
21.50000,27
21.50833,27
21.51667,27
21.52500,27
21.53333,27
21.54167,27
21.55000,27
21.55833,27
21.56667,27
21.57500,27
21.58333,27
21.59167,28
21.60000,27
21.60833,27
21.61667,27
21.62500,26
21.63333,26
21.64167,26
21.65000,25
21.65833,25
21.66667,25
21.67500,25
21.68333,25
21.69167,25
21.70000,25
21.70833,25
21.71667,25
21.72500,25
21.73333,25
21.74167,24
21.75000,24
21.75833,24
21.76667,24
21.77500,24
21.78333,24
21.79167,24
21.80000,24
21.80833,24
21.81667,24
21.82500,24
21.83333,24
21.84167,23
21.85000,23
21.85833,23
21.86667,23
21.87500,23
21.88333,23
21.89167,23
21.90000,23
21.90833,23
21.91667,23
21.92500,23
21.93333,23
21.94167,23
21.95000,23
21.95833,23
21.96667,23
21.97500,23
21.98333,23
21.99167,23
22.00000,23
22.00833,22
22.01667,22
22.02500,21
22.03333,21
22.04167,21
22.05000,21
22.05833,20
22.06667,21
22.07500,21
22.08333,20
22.09167,20
22.10000,19
22.10833,19
22.11667,19
22.12500,18
22.13333,18
22.14167,17
22.15000,17
22.15833,17
22.16667,17
22.17500,17
22.18333,16
22.19167,16
22.20000,16
22.20833,15
22.21667,15
22.22500,15
22.23333,14
22.24167,14
22.25000,14
22.25833,14
22.26667,14
22.27500,14
22.28333,14
22.29167,14
22.30000,14
22.30833,14
22.31667,14
22.32500,14
22.33333,13
22.34167,13
22.35000,12
22.35833,12
22.36667,11
22.37500,11
22.38333,10
22.39167,10
22.40000,10
22.40833,10
22.41667,10
22.42500,10
22.43333,10
22.44167,10
22.45000,10
22.45833,10
22.46667,10
22.47500,10
22.48333,9
22.49167,9
22.50000,9
22.50833,9
22.51667,9
22.52500,10
22.53333,9
22.54167,9
22.55000,8
22.55833,8
22.56667,8
22.57500,8
22.58333,8
22.59167,8
22.60000,8
22.60833,8
22.61667,8
22.62500,8
22.63333,8
22.64167,8
22.65000,8
22.65833,8
22.66667,9
22.67500,9
22.68333,9
22.69167,9
22.70000,9
22.70833,9
22.71667,9
22.72500,9
22.73333,9
22.74167,9
22.75000,9
22.75833,9
22.76667,9
22.77500,9
22.78333,9
22.79167,9
22.80000,9
22.80833,9
22.81667,10
22.82500,10
22.83333,10
22.84167,10
22.85000,10
22.85833,11
22.86667,11
22.87500,12
22.88333,12
22.89167,12
22.90000,12
22.90833,12
22.91667,12
22.92500,13
22.93333,14
22.94167,15
22.95000,15
22.95833,16
22.96667,17
22.97500,18
22.98333,19
22.99167,19
23.00000,20
23.00833,21
23.01667,22
23.02500,23
23.03333,23
23.04167,23
23.05000,24
23.05833,25
23.06667,25
23.07500,26
23.08333,27
23.09167,27
23.10000,28
23.10833,29
23.11667,30
23.12500,31
23.13333,32
23.14167,32
23.15000,33
23.15833,34
23.16667,34
23.17500,34
23.18333,35
23.19167,35
23.20000,35
23.20833,36
23.21667,36
23.22500,36
23.23333,36
23.24167,36
23.25000,35
23.25833,34
23.26667,34
23.27500,33
23.28333,33
23.29167,32
23.30000,32
23.30833,31
23.31667,31
23.32500,31
23.33333,30
23.34167,29
23.35000,29
23.35833,28
23.36667,27
23.37500,27
23.38333,25
23.39167,24
23.40000,23
23.40833,22
23.41667,22
23.42500,21
23.43333,21
23.44167,20
23.45000,19
23.45833,18
23.46667,17
23.47500,16
23.48333,16
23.49167,15
23.50000,14
23.50833,14
23.51667,13
23.52500,13
23.53333,12
23.54167,11
23.55000,11
23.55833,10
23.56667,9
23.57500,9
23.58333,8
23.59167,8
23.60000,8
23.60833,8
23.61667,7
23.62500,7
23.63333,6
23.64167,6
23.65000,6
23.65833,6
23.66667,5
23.67500,5
23.68333,5
23.69167,5
23.70000,5
23.70833,5
23.71667,5
23.72500,5
23.73333,4
23.74167,4
23.75000,3
23.75833,3
23.76667,3
23.77500,3
23.78333,3
23.79167,3
23.80000,2
23.80833,2
23.81667,2
23.82500,2
23.83333,3
23.84167,3
23.85000,3
23.85833,3
23.86667,3
23.87500,3
23.88333,3
23.89167,3
23.90000,2
23.90833,2
23.91667,2
23.92500,2
23.93333,3
23.94167,3
23.95000,3
23.95833,2
23.96667,2
23.97500,2
23.98333,2
23.99167,2
24.00000,2
24.00833,1
24.01667,1
24.02500,1
24.03333,2
24.04167,2
24.05000,2
24.05833,2
24.06667,1
24.07500,2
24.08333,2
24.09167,2
24.10000,2
24.10833,2
24.11667,2
24.12500,2
24.13333,2
24.14167,2
24.15000,2
24.15833,2
24.16667,2
24.17500,1
24.18333,1
24.19167,1
24.20000,1
24.20833,1
24.21667,1
24.22500,1
24.23333,2
24.24167,2
24.25000,2
24.25833,2
24.26667,2
24.27500,2
24.28333,2
24.29167,1
24.30000,1
24.30833,1
24.31667,1
24.32500,1
24.33333,2
24.34167,2
24.35000,2
24.35833,2
24.36667,2
24.37500,2
24.38333,2
24.39167,3
24.40000,3
24.40833,3
24.41667,3
24.42500,4
24.43333,4
24.44167,4
24.45000,5
24.45833,5
24.46667,5
24.47500,5
24.48333,6
24.49167,7
24.50000,7
24.50833,8
24.51667,8
24.52500,9
24.53333,10
24.54167,12
24.55000,13
24.55833,15
24.56667,16
24.57500,18
24.58333,19
24.59167,21
24.60000,23
24.60833,25
24.61667,28
24.62500,30
24.63333,33
24.64167,37
24.65000,40
24.65833,44
24.66667,48
24.67500,52
24.68333,57
24.69167,62
24.70000,67
24.70833,73
24.71667,79
24.72500,85
24.73333,91
24.74167,98
24.75000,106
24.75833,113
24.76667,121
24.77500,129
24.78333,138
24.79167,147
24.80000,156
24.80833,165
24.81667,175
24.82500,186
24.83333,196
24.84167,206
24.85000,216
24.85833,226
24.86667,236
24.87500,247
24.88333,257
24.89167,267
24.90000,278
24.90833,288
24.91667,297
24.92500,306
24.93333,315
24.94167,323
24.95000,331
24.95833,338
24.96667,344
24.97500,351
24.98333,356
24.99167,361
25.00000,366
25.00833,369
25.01667,372
25.02500,375
25.03333,377
25.04167,378
25.05000,378
25.05833,378
25.06667,378
25.07500,376
25.08333,373
25.09167,370
25.10000,366
25.10833,362
25.11667,357
25.12500,351
25.13333,345
25.14167,338
25.15000,331
25.15833,323
25.16667,315
25.17500,307
25.18333,299
25.19167,290
25.20000,282
25.20833,273
25.21667,263
25.22500,254
25.23333,245
25.24167,235
25.25000,225
25.25833,216
25.26667,207
25.27500,197
25.28333,188
25.29167,180
25.30000,171
25.30833,162
25.31667,154
25.32500,145
25.33333,137
25.34167,130
25.35000,123
25.35833,116
25.36667,109
25.37500,103
25.38333,96
25.39167,91
25.40000,85
25.40833,79
25.41667,74
25.42500,70
25.43333,65
25.44167,61
25.45000,57
25.45833,53
25.46667,49
25.47500,45
25.48333,42
25.49167,39
25.50000,36
25.50833,33
25.51667,31
25.52500,29
25.53333,27
25.54167,25
25.55000,23
25.55833,21
25.56667,19
25.57500,18
25.58333,17
25.59167,16
25.60000,15
25.60833,14
25.61667,13
25.62500,12
25.63333,12
25.64167,11
25.65000,10
25.65833,9
25.66667,9
25.67500,8
25.68333,8
25.69167,7
25.70000,7
25.70833,6
25.71667,6
25.72500,6
25.73333,6
25.74167,6
25.75000,5
25.75833,5
25.76667,5
25.77500,5
25.78333,5
25.79167,5
25.80000,5
25.80833,4
25.81667,4
25.82500,4
25.83333,4
25.84167,4
25.85000,5
25.85833,5
25.86667,4
25.87500,4
25.88333,4
25.89167,4
25.90000,3
25.90833,3
25.91667,3
25.92500,3
25.93333,3
25.94167,3
25.95000,3
25.95833,3
25.96667,3
25.97500,3
25.98333,3
25.99167,3
26.00000,3
26.00833,3
26.01667,3
26.02500,3
26.03333,3
26.04167,3
26.05000,4
26.05833,4
26.06667,4
26.07500,4
26.08333,3
26.09167,3
26.10000,3
26.10833,3
26.11667,3
26.12500,3
26.13333,3
26.14167,3
26.15000,3
26.15833,3
26.16667,3
26.17500,3
26.18333,3
26.19167,3
26.20000,3
26.20833,3
26.21667,3
26.22500,3
26.23333,3
26.24167,3
26.25000,3
26.25833,3
26.26667,2
26.27500,2
26.28333,3
26.29167,3
26.30000,3
26.30833,3
26.31667,2
26.32500,2
26.33333,2
26.34167,2
26.35000,2
26.35833,2
26.36667,2
26.37500,2
26.38333,2
26.39167,2
26.40000,2
26.40833,2
26.41667,2
26.42500,2
26.43333,2
26.44167,2
26.45000,2
26.45833,2
26.46667,2
26.47500,2
26.48333,2
26.49167,2
26.50000,2
26.50833,2
26.51667,2
26.52500,2
26.53333,2
26.54167,2
26.55000,2
26.55833,2
26.56667,2
26.57500,3
26.58333,3
26.59167,3
26.60000,3
26.60833,3
26.61667,3
26.62500,2
26.63333,2
26.64167,2
26.65000,2
26.65833,2
26.66667,2
26.67500,3
26.68333,3
26.69167,3
26.70000,3
26.70833,2
26.71667,2
26.72500,2
26.73333,2
26.74167,2
26.75000,2
26.75833,3
26.76667,3
26.77500,3
26.78333,3
26.79167,3
26.80000,3
26.80833,3
26.81667,3
26.82500,4
26.83333,4
26.84167,4
26.85000,3
26.85833,3
26.86667,3
26.87500,3
26.88333,3
26.89167,3
26.90000,3
26.90833,4
26.91667,4
26.92500,4
26.93333,3
26.94167,3
26.95000,3
26.95833,3
26.96667,3
26.97500,3
26.98333,3
26.99167,3
27.00000,3
27.00833,3
27.01667,3
27.02500,4
27.03333,4
27.04167,4
27.05000,4
27.05833,4
27.06667,4
27.07500,4
27.08333,4
27.09167,4
27.10000,4
27.10833,4
27.11667,4
27.12500,4
27.13333,4
27.14167,4
27.15000,4
27.15833,4
27.16667,4
27.17500,4
27.18333,4
27.19167,4
27.20000,4
27.20833,5
27.21667,5
27.22500,5
27.23333,4
27.24167,4
27.25000,4
27.25833,5
27.26667,4
27.27500,4
27.28333,4
27.29167,4
27.30000,4
27.30833,4
27.31667,4
27.32500,4
27.33333,4
27.34167,4
27.35000,5
27.35833,5
27.36667,5
27.37500,5
27.38333,4
27.39167,5
27.40000,5
27.40833,5
27.41667,6
27.42500,6
27.43333,6
27.44167,6
27.45000,6
27.45833,6
27.46667,6
27.47500,6
27.48333,6
27.49167,6
27.50000,6
27.50833,6
27.51667,6
27.52500,6
27.53333,6
27.54167,6
27.55000,6
27.55833,6
27.56667,6
27.57500,6
27.58333,6
27.59167,6
27.60000,6
27.60833,6
27.61667,6
27.62500,6
27.63333,6
27.64167,6
27.65000,7
27.65833,7
27.66667,7
27.67500,7
27.68333,7
27.69167,7
27.70000,7
27.70833,7
27.71667,6
27.72500,6
27.73333,6
27.74167,5
27.75000,5
27.75833,4
27.76667,4
27.77500,4
27.78333,3
27.79167,3
27.80000,3
27.80833,3
27.81667,3
27.82500,3
27.83333,2
27.84167,2
27.85000,1
27.85833,1
27.86667,0
27.87500,-0
27.88333,-1
27.89167,-1
27.90000,-1
27.90833,-2
27.91667,-2
27.92500,-3
27.93333,-3
27.94167,-4
27.95000,-5
27.95833,-6
27.96667,-7
27.97500,-8
27.98333,-9
27.99167,-10
28.00000,-12
28.00833,-13
28.01667,-15
28.02500,-17
28.03333,-18
28.04167,-20
28.05000,-21
28.05833,-23
28.06667,-26
28.07500,-28
28.08333,-30
28.09167,-32
28.10000,-35
28.10833,-37
28.11667,-39
28.12500,-41
28.13333,-44
28.14167,-47
28.15000,-49
28.15833,-52
28.16667,-55
28.17500,-58
28.18333,-61
28.19167,-64
28.20000,-67
28.20833,-70
28.21667,-73
28.22500,-75
28.23333,-78
28.24167,-82
28.25000,-85
28.25833,-88
28.26667,-91
28.27500,-94
28.28333,-97
28.29167,-100
28.30000,-103
28.30833,-106
28.31667,-109
28.32500,-112
28.33333,-115
28.34167,-118
28.35000,-120
28.35833,-122
28.36667,-124
28.37500,-126
28.38333,-128
28.39167,-130
28.40000,-132
28.40833,-134
28.41667,-135
28.42500,-137
28.43333,-138
28.44167,-139
28.45000,-140
28.45833,-140
28.46667,-141
28.47500,-141
28.48333,-141
28.49167,-141
28.50000,-141
28.50833,-141
28.51667,-140
28.52500,-140
28.53333,-139
28.54167,-138
28.55000,-137
28.55833,-136
28.56667,-134
28.57500,-132
28.58333,-130
28.59167,-128
28.60000,-126
28.60833,-123
28.61667,-121
28.62500,-118
28.63333,-116
28.64167,-114
28.65000,-112
28.65833,-109
28.66667,-107
28.67500,-105
28.68333,-103
28.69167,-100
28.70000,-98
28.70833,-95
28.71667,-92
28.72500,-89
28.73333,-87
28.74167,-84
28.75000,-81
28.75833,-79
28.76667,-76
28.77500,-73
28.78333,-71
28.79167,-68
28.80000,-66
28.80833,-64
28.81667,-61
28.82500,-59
28.83333,-56
28.84167,-54
28.85000,-52
28.85833,-50
28.86667,-47
28.87500,-45
28.88333,-43
28.89167,-41
28.90000,-39
28.90833,-38
28.91667,-36
28.92500,-34
28.93333,-32
28.94167,-31
28.95000,-29
28.95833,-28
28.96667,-27
28.97500,-26
28.98333,-25
28.99167,-24
29.00000,-22
29.00833,-21
29.01667,-20
29.02500,-19
29.03333,-18
29.04167,-17
29.05000,-16
29.05833,-15
29.06667,-14
29.07500,-14
29.08333,-13
29.09167,-13
29.10000,-12
29.10833,-11
29.11667,-11
29.12500,-11
29.13333,-10
29.14167,-10
29.15000,-9
29.15833,-9
29.16667,-9
29.17500,-8
29.18333,-8
29.19167,-8
29.20000,-7
29.20833,-7
29.21667,-7
29.22500,-6
29.23333,-6
29.24167,-6
29.25000,-5
29.25833,-5
29.26667,-4
29.27500,-4
29.28333,-4
29.29167,-4
29.30000,-4
29.30833,-4
29.31667,-4
29.32500,-4
29.33333,-4
29.34167,-4
29.35000,-4
29.35833,-4
29.36667,-3
29.37500,-3
29.38333,-3
29.39167,-2
29.40000,-2
29.40833,-2
29.41667,-3
29.42500,-3
29.43333,-3
29.44167,-3
29.45000,-3
29.45833,-3
29.46667,-3
29.47500,-3
29.48333,-3
29.49167,-3
29.50000,-3
29.50833,-4
29.51667,-4
29.52500,-4
29.53333,-4
29.54167,-4
29.55000,-4
29.55833,-4
29.56667,-4
29.57500,-4
29.58333,-4
29.59167,-5
29.60000,-5
29.60833,-5
29.61667,-5
29.62500,-6
29.63333,-6
29.64167,-6
29.65000,-7
29.65833,-7
29.66667,-8
29.67500,-8
29.68333,-9
29.69167,-9
29.70000,-10
29.70833,-10
29.71667,-11
29.72500,-11
29.73333,-12
29.74167,-13
29.75000,-13
29.75833,-14
29.76667,-15
29.77500,-15
29.78333,-16
29.79167,-16
29.80000,-17
29.80833,-17
29.81667,-18
29.82500,-19
29.83333,-20
29.84167,-21
29.85000,-22
29.85833,-22
29.86667,-23
29.87500,-24
29.88333,-25
29.89167,-26
29.90000,-27
29.90833,-29
29.91667,-30
29.92500,-31
29.93333,-32
29.94167,-32
29.95000,-33
29.95833,-34
29.96667,-35
29.97500,-37
29.98333,-38
29.99167,-39
30.00000,-40
30.00833,-41
30.01667,-42
30.02500,-43
30.03333,-44
30.04167,-45
30.05000,-46
30.05833,-47
30.06667,-48
30.07500,-49
30.08333,-50
30.09167,-50
30.10000,-51
30.10833,-52
30.11667,-53
30.12500,-53
30.13333,-54
30.14167,-55
30.15000,-55
30.15833,-56
30.16667,-56
30.17500,-57
30.18333,-58
30.19167,-58
30.20000,-58
30.20833,-59
30.21667,-59
30.22500,-59
30.23333,-60
30.24167,-59
30.25000,-59
30.25833,-59
30.26667,-59
30.27500,-59
30.28333,-58
30.29167,-58
30.30000,-58
30.30833,-57
30.31667,-57
30.32500,-56
30.33333,-55
30.34167,-55
30.35000,-54
30.35833,-54
30.36667,-53
30.37500,-53
30.38333,-52
30.39167,-51
30.40000,-50
30.40833,-50
30.41667,-49
30.42500,-48
30.43333,-47
30.44167,-46
30.45000,-45
30.45833,-45
30.46667,-44
30.47500,-43
30.48333,-42
30.49167,-41
30.50000,-40
30.50833,-39
30.51667,-38
30.52500,-37
30.53333,-37
30.54167,-36
30.55000,-36
30.55833,-35
30.56667,-34
30.57500,-34
30.58333,-33
30.59167,-32
30.60000,-32
30.60833,-31
30.61667,-31
30.62500,-30
30.63333,-30
30.64167,-30
30.65000,-30
30.65833,-30
30.66667,-29
30.67500,-29
30.68333,-28
30.69167,-28
30.70000,-28
30.70833,-27
30.71667,-27
30.72500,-27
30.73333,-27
30.74167,-27
30.75000,-27
30.75833,-27
30.76667,-27
30.77500,-28
30.78333,-28
30.79167,-28
30.80000,-29
30.80833,-29
30.81667,-29
30.82500,-29
30.83333,-30
30.84167,-30
30.85000,-31
30.85833,-31
30.86667,-32
30.87500,-32
30.88333,-33
30.89167,-34
30.90000,-34
30.90833,-35
30.91667,-35
30.92500,-35
30.93333,-36
30.94167,-36
30.95000,-37
30.95833,-37
30.96667,-38
30.97500,-38
30.98333,-38
30.99167,-39
31.00000,-40
31.00833,-40
31.01667,-40
31.02500,-41
31.03333,-41
31.04167,-41
31.05000,-41
31.05833,-42
31.06667,-42
31.07500,-42
31.08333,-42
31.09167,-42
31.10000,-42
31.10833,-42
31.11667,-42
31.12500,-42
31.13333,-42
31.14167,-42
31.15000,-42
31.15833,-42
31.16667,-42
31.17500,-42
31.18333,-42
31.19167,-42
31.20000,-41
31.20833,-41
31.21667,-41
31.22500,-40
31.23333,-40
31.24167,-39
31.25000,-39
31.25833,-38
31.26667,-37
31.27500,-36
31.28333,-35
31.29167,-35
31.30000,-34
31.30833,-34
31.31667,-34
31.32500,-33
31.33333,-33
31.34167,-32
31.35000,-31
31.35833,-31
31.36667,-30
31.37500,-29
31.38333,-28
31.39167,-28
31.40000,-27
31.40833,-26
31.41667,-25
31.42500,-24
31.43333,-24
31.44167,-22
31.45000,-21
31.45833,-20
31.46667,-20
31.47500,-19
31.48333,-18
31.49167,-17
31.50000,-17
31.50833,-16
31.51667,-15
31.52500,-15
31.53333,-14
31.54167,-14
31.55000,-13
31.55833,-12
31.56667,-12
31.57500,-11
31.58333,-10
31.59167,-9
31.60000,-9
31.60833,-8
31.61667,-8
31.62500,-7
31.63333,-7
31.64167,-6
31.65000,-6
31.65833,-5
31.66667,-5
31.67500,-4
31.68333,-4
31.69167,-4
31.70000,-3
31.70833,-3
31.71667,-3
31.72500,-2
31.73333,-2
31.74167,-2
31.75000,-1
31.75833,-1
31.76667,-0
31.77500,-0
31.78333,0
31.79167,1
31.80000,1
31.80833,1
31.81667,1
31.82500,1
31.83333,1
31.84167,0
31.85000,0
31.85833,-0
31.86667,-0
31.87500,-1
31.88333,-0
31.89167,-0
31.90000,-0
31.90833,-0
31.91667,0
31.92500,-0
31.93333,-0
31.94167,-0
31.95000,-0
31.95833,-0
31.96667,-0
31.97500,-0
31.98333,-1
31.99167,-1
32.00000,-1
32.00833,-2
32.01667,-2
32.02500,-2
32.03333,-2
32.04167,-2
32.05000,-1
32.05833,-1
32.06667,-1
32.07500,-2
32.08333,-2
32.09167,-2
32.10000,-2
32.10833,-3
32.11667,-3
32.12500,-3
32.13333,-3
32.14167,-3
32.15000,-3
32.15833,-3
32.16667,-4
32.17500,-4
32.18333,-4
32.19167,-4
32.20000,-4
32.20833,-5
32.21667,-5
32.22500,-5
32.23333,-5
32.24167,-5
32.25000,-5
32.25833,-5
32.26667,-5
32.27500,-5
32.28333,-5
32.29167,-5
32.30000,-5
32.30833,-5
32.31667,-4
32.32500,-5
32.33333,-5
32.34167,-5
32.35000,-5
32.35833,-5
32.36667,-6
32.37500,-6
32.38333,-6
32.39167,-6
32.40000,-6
32.40833,-6
32.41667,-6
32.42500,-6
32.43333,-7
32.44167,-6
32.45000,-6
32.45833,-6
32.46667,-6
32.47500,-6
32.48333,-6
32.49167,-5
32.50000,-5
32.50833,-5
32.51667,-5
32.52500,-5
32.53333,-5
32.54167,-5
32.55000,-6
32.55833,-6
32.56667,-6
32.57500,-6
32.58333,-6
32.59167,-6
32.60000,-6
32.60833,-6
32.61667,-6
32.62500,-6
32.63333,-6
32.64167,-6
32.65000,-6
32.65833,-6
32.66667,-5
32.67500,-5
32.68333,-5
32.69167,-5
32.70000,-6
32.70833,-6
32.71667,-6
32.72500,-6
32.73333,-5
32.74167,-5
32.75000,-6
32.75833,-6
32.76667,-5
32.77500,-5
32.78333,-6
32.79167,-6
32.80000,-6
32.80833,-6
32.81667,-6
32.82500,-6
32.83333,-6
32.84167,-6
32.85000,-6
32.85833,-6
32.86667,-6
32.87500,-6
32.88333,-6
32.89167,-6
32.90000,-6
32.90833,-6
32.91667,-6
32.92500,-6
32.93333,-6
32.94167,-7
32.95000,-6
32.95833,-6
32.96667,-6
32.97500,-6
32.98333,-6
32.99167,-5
33.00000,-5
33.00833,-5
33.01667,-5
33.02500,-5
33.03333,-5
33.04167,-5
33.05000,-6
33.05833,-6
33.06667,-6
33.07500,-6
33.08333,-6
33.09167,-6
33.10000,-6
33.10833,-6
33.11667,-6
33.12500,-6
33.13333,-6
33.14167,-6
33.15000,-5
33.15833,-5
33.16667,-5
33.17500,-5
33.18333,-5
33.19167,-5
33.20000,-5
33.20833,-5
33.21667,-5
33.22500,-5
33.23333,-5
33.24167,-5
33.25000,-6
33.25833,-6
33.26667,-5
33.27500,-5
33.28333,-5
33.29167,-5
33.30000,-5
33.30833,-5
33.31667,-5
33.32500,-5
33.33333,-5
33.34167,-5
33.35000,-5
33.35833,-5
33.36667,-5
33.37500,-5
33.38333,-5
33.39167,-5
33.40000,-6
33.40833,-6
33.41667,-6
33.42500,-6
33.43333,-6
33.44167,-6
33.45000,-6
33.45833,-6
33.46667,-6
33.47500,-7
33.48333,-7
33.49167,-7
33.50000,-7
33.50833,-7
33.51667,-7
33.52500,-7
33.53333,-7
33.54167,-7
33.55000,-7
33.55833,-8
33.56667,-7
33.57500,-7
33.58333,-7
33.59167,-7
33.60000,-7
33.60833,-7
33.61667,-7
33.62500,-7
33.63333,-7
33.64167,-7
33.65000,-7
33.65833,-7
33.66667,-7
33.67500,-7
33.68333,-7
33.69167,-7
33.70000,-7
33.70833,-7
33.71667,-8
33.72500,-8
33.73333,-8
33.74167,-8
33.75000,-8
33.75833,-9
33.76667,-9
33.77500,-8
33.78333,-8
33.79167,-8
33.80000,-8
33.80833,-8
33.81667,-8
33.82500,-8
33.83333,-8
33.84167,-8
33.85000,-8
33.85833,-8
33.86667,-9
33.87500,-9
33.88333,-8
33.89167,-8
33.90000,-8
33.90833,-9
33.91667,-9
33.92500,-9
33.93333,-9
33.94167,-9
33.95000,-9
33.95833,-9
33.96667,-9
33.97500,-9
33.98333,-8
33.99167,-9
34.00000,-8
34.00833,-8
34.01667,-8
34.02500,-8
34.03333,-8
34.04167,-8
34.05000,-9
34.05833,-9
34.06667,-9
34.07500,-9
34.08333,-9
34.09167,-9
34.10000,-9
34.10833,-9
34.11667,-9
34.12500,-9
34.13333,-9
34.14167,-9
34.15000,-9
34.15833,-9
34.16667,-9
34.17500,-9
34.18333,-9
34.19167,-9
34.20000,-9
34.20833,-9
34.21667,-9
34.22500,-9
34.23333,-9
34.24167,-9
34.25000,-10
34.25833,-10
34.26667,-10
34.27500,-10
34.28333,-10
34.29167,-10
34.30000,-10
34.30833,-10
34.31667,-9
34.32500,-9
34.33333,-9
34.34167,-9
34.35000,-9
34.35833,-9
34.36667,-10
34.37500,-10
34.38333,-10
34.39167,-10
34.40000,-10
34.40833,-10
34.41667,-9
34.42500,-9
34.43333,-9
34.44167,-10
34.45000,-10
34.45833,-10
34.46667,-10
34.47500,-11
34.48333,-11
34.49167,-11
34.50000,-11
34.50833,-11
34.51667,-10
34.52500,-10
34.53333,-10
34.54167,-10
34.55000,-10
34.55833,-10
34.56667,-10
34.57500,-10
34.58333,-10
34.59167,-10
34.60000,-10
34.60833,-10
34.61667,-10
34.62500,-10
34.63333,-10
34.64167,-10
34.65000,-10
34.65833,-10
34.66667,-10
34.67500,-10
34.68333,-10
34.69167,-10
34.70000,-10
34.70833,-10
34.71667,-10
34.72500,-10
34.73333,-9
34.74167,-9
34.75000,-9
34.75833,-9
34.76667,-9
34.77500,-10
34.78333,-10
34.79167,-10
34.80000,-10
34.80833,-10
34.81667,-10
34.82500,-10
34.83333,-11
34.84167,-11
34.85000,-11
34.85833,-11
34.86667,-11
34.87500,-11
34.88333,-12
34.89167,-12
34.90000,-12
34.90833,-12
34.91667,-12
34.92500,-12
34.93333,-11
34.94167,-11
34.95000,-11
34.95833,-12
34.96667,-12
34.97500,-11
34.98333,-11
34.99167,-11
35.00000,-11
35.00833,-11
35.01667,-11
35.02500,-11
35.03333,-11
35.04167,-11
35.05000,-11
35.05833,-11
35.06667,-12
35.07500,-12
35.08333,-12
35.09167,-12
35.10000,-11
35.10833,-11
35.11667,-12
35.12500,-12
35.13333,-12
35.14167,-12
35.15000,-12
35.15833,-11
35.16667,-11
35.17500,-11
35.18333,-11
35.19167,-11
35.20000,-12
35.20833,-12
35.21667,-12
35.22500,-12
35.23333,-12
35.24167,-12
35.25000,-12
35.25833,-12
35.26667,-12
35.27500,-12
35.28333,-12
35.29167,-12
35.30000,-12
35.30833,-11
35.31667,-12
35.32500,-12
35.33333,-12
35.34167,-12
35.35000,-13
35.35833,-13
35.36667,-13
35.37500,-13
35.38333,-13
35.39167,-13
35.40000,-13
35.40833,-12
35.41667,-12
35.42500,-12
35.43333,-12
35.44167,-12
35.45000,-12
35.45833,-12
35.46667,-12
35.47500,-12
35.48333,-12
35.49167,-11
35.50000,-11
35.50833,-11
35.51667,-11
35.52500,-11
35.53333,-11
35.54167,-11
35.55000,-11
35.55833,-10
35.56667,-11
35.57500,-11
35.58333,-11
35.59167,-11
35.60000,-12
35.60833,-12
35.61667,-11
35.62500,-11
35.63333,-11
35.64167,-12
35.65000,-12
35.65833,-12
35.66667,-12
35.67500,-12
35.68333,-12
35.69167,-12
35.70000,-11
35.70833,-11
35.71667,-11
35.72500,-11
35.73333,-11
35.74167,-11
35.75000,-11
35.75833,-11
35.76667,-11
35.77500,-11
35.78333,-11
35.79167,-11
35.80000,-11
35.80833,-11
35.81667,-11
35.82500,-11
35.83333,-11
35.84167,-11
35.85000,-11
35.85833,-11
35.86667,-11
35.87500,-11
35.88333,-11
35.89167,-11
35.90000,-11
35.90833,-11
35.91667,-11
35.92500,-11
35.93333,-11
35.94167,-11
35.95000,-11
35.95833,-11
35.96667,-11
35.97500,-11
35.98333,-11
35.99167,-11
36.00000,-11
36.00833,-11
36.01667,-11
36.02500,-11
36.03333,-11
36.04167,-11
36.05000,-11
36.05833,-11
36.06667,-11
36.07500,-11
36.08333,-11
36.09167,-11
36.10000,-11
36.10833,-11
36.11667,-11
36.12500,-11
36.13333,-11
36.14167,-12
36.15000,-12
36.15833,-12
36.16667,-12
36.17500,-12
36.18333,-12
36.19167,-12
36.20000,-12
36.20833,-11
36.21667,-11
36.22500,-11
36.23333,-11
36.24167,-11
36.25000,-11
36.25833,-12
36.26667,-12
36.27500,-12
36.28333,-12
36.29167,-12
36.30000,-13
36.30833,-13
36.31667,-14
36.32500,-14
36.33333,-14
36.34167,-14
36.35000,-14
36.35833,-14
36.36667,-14
36.37500,-14
36.38333,-14
36.39167,-14
36.40000,-14
36.40833,-14
36.41667,-13
36.42500,-13
36.43333,-13
36.44167,-14
36.45000,-13
36.45833,-13
36.46667,-13
36.47500,-13
36.48333,-13
36.49167,-13
36.50000,-13
36.50833,-13
36.51667,-13
36.52500,-13
36.53333,-14
36.54167,-14
36.55000,-14
36.55833,-14
36.56667,-13
36.57500,-13
36.58333,-13
36.59167,-13
36.60000,-13
36.60833,-13
36.61667,-13
36.62500,-13
36.63333,-13
36.64167,-12
36.65000,-13
36.65833,-13
36.66667,-13
36.67500,-13
36.68333,-13
36.69167,-13
36.70000,-13
36.70833,-13
36.71667,-13
36.72500,-13
36.73333,-13
36.74167,-13
36.75000,-13
36.75833,-12
36.76667,-12
36.77500,-12
36.78333,-12
36.79167,-13
36.80000,-13
36.80833,-13
36.81667,-13
36.82500,-13
36.83333,-13
36.84167,-13
36.85000,-12
36.85833,-12
36.86667,-11
36.87500,-11
36.88333,-11
36.89167,-11
36.90000,-12
36.90833,-12
36.91667,-12
36.92500,-12
36.93333,-12
36.94167,-12
36.95000,-12
36.95833,-12
36.96667,-12
36.97500,-12
36.98333,-13
36.99167,-13
37.00000,-13
37.00833,-13
37.01667,-13
37.02500,-13
37.03333,-12
37.04167,-13
37.05000,-13
37.05833,-12
37.06667,-12
37.07500,-13
37.08333,-13
37.09167,-13
37.10000,-13
37.10833,-13
37.11667,-12
37.12500,-12
37.13333,-12
37.14167,-12
37.15000,-12
37.15833,-11
37.16667,-11
37.17500,-11
37.18333,-12
37.19167,-12
37.20000,-12
37.20833,-13
37.21667,-13
37.22500,-12
37.23333,-12
37.24167,-13
37.25000,-13
37.25833,-13
37.26667,-13
37.27500,-13
37.28333,-13
37.29167,-13
37.30000,-13
37.30833,-13
37.31667,-13
37.32500,-13
37.33333,-13
37.34167,-13
37.35000,-13
37.35833,-14
37.36667,-14
37.37500,-14
37.38333,-14
37.39167,-14
37.40000,-15
37.40833,-15
37.41667,-15
37.42500,-15
37.43333,-15
37.44167,-14
37.45000,-15
37.45833,-15
37.46667,-15
37.47500,-15
37.48333,-15
37.49167,-14
37.50000,-14
37.50833,-15
37.51667,-15
37.52500,-15
37.53333,-15
37.54167,-14
37.55000,-14
37.55833,-14
37.56667,-14
37.57500,-14
37.58333,-14
37.59167,-14
37.60000,-14
37.60833,-14
37.61667,-14
37.62500,-14
37.63333,-14
37.64167,-14
37.65000,-14
37.65833,-14
37.66667,-14
37.67500,-14
37.68333,-14
37.69167,-14
37.70000,-14
37.70833,-14
37.71667,-14
37.72500,-14
37.73333,-14
37.74167,-14
37.75000,-14
37.75833,-14
37.76667,-14
37.77500,-14
37.78333,-13
37.79167,-13
37.80000,-13
37.80833,-13
37.81667,-13
37.82500,-13
37.83333,-14
37.84167,-14
37.85000,-14
37.85833,-13
37.86667,-13
37.87500,-13
37.88333,-13
37.89167,-13
37.90000,-13
37.90833,-13
37.91667,-13
37.92500,-13
37.93333,-13
37.94167,-13
37.95000,-13
37.95833,-13
37.96667,-13
37.97500,-14
37.98333,-14
37.99167,-14
38.00000,-14
38.00833,-14
38.01667,-14
38.02500,-14
38.03333,-15
38.04167,-14
38.05000,-14
38.05833,-14
38.06667,-14
38.07500,-14
38.08333,-14
38.09167,-14
38.10000,-14
38.10833,-14
38.11667,-14
38.12500,-13
38.13333,-13
38.14167,-13
38.15000,-13
38.15833,-13
38.16667,-13
38.17500,-13
38.18333,-13
38.19167,-13
38.20000,-13
38.20833,-13
38.21667,-13
38.22500,-13
38.23333,-13
38.24167,-13
38.25000,-13
38.25833,-13
38.26667,-13
38.27500,-13
38.28333,-13
38.29167,-13
38.30000,-14
38.30833,-14
38.31667,-14
38.32500,-14
38.33333,-14
38.34167,-14
38.35000,-14
38.35833,-14
38.36667,-14
38.37500,-14
38.38333,-14
38.39167,-14
38.40000,-14
38.40833,-14
38.41667,-14
38.42500,-14
38.43333,-14
38.44167,-14
38.45000,-14
38.45833,-14
38.46667,-14
38.47500,-13
38.48333,-14
38.49167,-14
38.50000,-13
38.50833,-13
38.51667,-13
38.52500,-13
38.53333,-14
38.54167,-14
38.55000,-14
38.55833,-14
38.56667,-14
38.57500,-14
38.58333,-14
38.59167,-14
38.60000,-14
38.60833,-14
38.61667,-14
38.62500,-14
38.63333,-14
38.64167,-14
38.65000,-13
38.65833,-13
38.66667,-13
38.67500,-13
38.68333,-13
38.69167,-13
38.70000,-13
38.70833,-13
38.71667,-13
38.72500,-13
38.73333,-14
38.74167,-14
38.75000,-14
38.75833,-14
38.76667,-14
38.77500,-14
38.78333,-14
38.79167,-14
38.80000,-14
38.80833,-14
38.81667,-14
38.82500,-14
38.83333,-15
38.84167,-14
38.85000,-14
38.85833,-14
38.86667,-14
38.87500,-14
38.88333,-14
38.89167,-14
38.90000,-14
38.90833,-14
38.91667,-14
38.92500,-14
38.93333,-14
38.94167,-14
38.95000,-14
38.95833,-14
38.96667,-14
38.97500,-14
38.98333,-14
38.99167,-14
39.00000,-14
39.00833,-15
39.01667,-15
39.02500,-15
39.03333,-14
39.04167,-14
39.05000,-14
39.05833,-14
39.06667,-14
39.07500,-14
39.08333,-14
39.09167,-14
39.10000,-15
39.10833,-15
39.11667,-15
39.12500,-15
39.13333,-15
39.14167,-15
39.15000,-15
39.15833,-15
39.16667,-15
39.17500,-15
39.18333,-15
39.19167,-15
39.20000,-15
39.20833,-15
39.21667,-15
39.22500,-15
39.23333,-15
39.24167,-15
39.25000,-15
39.25833,-15
39.26667,-15
39.27500,-15
39.28333,-15
39.29167,-15
39.30000,-15
39.30833,-15
39.31667,-15
39.32500,-15
39.33333,-15
39.34167,-15
39.35000,-15
39.35833,-14
39.36667,-14
39.37500,-14
39.38333,-14
39.39167,-15
39.40000,-15
39.40833,-15
39.41667,-15
39.42500,-15
39.43333,-15
39.44167,-16
39.45000,-16
39.45833,-16
39.46667,-16
39.47500,-15
39.48333,-15
39.49167,-15
39.50000,-15
39.50833,-15
39.51667,-15
39.52500,-16
39.53333,-15
39.54167,-16
39.55000,-16
39.55833,-16
39.56667,-16
39.57500,-16
39.58333,-16
39.59167,-15
39.60000,-15
39.60833,-15
39.61667,-15
39.62500,-16
39.63333,-16
39.64167,-16
39.65000,-16
39.65833,-17
39.66667,-17
39.67500,-17
39.68333,-17
39.69167,-17
39.70000,-17
39.70833,-17
39.71667,-17
39.72500,-17
39.73333,-17
39.74167,-17
39.75000,-17
39.75833,-17
39.76667,-16
39.77500,-16
39.78333,-16
39.79167,-17
39.80000,-17
39.80833,-17
39.81667,-17
39.82500,-17
39.83333,-17
39.84167,-17
39.85000,-17
39.85833,-17
39.86667,-17
39.87500,-16
39.88333,-16
39.89167,-16
39.90000,-16
39.90833,-16
39.91667,-16
39.92500,-16
39.93333,-16
39.94167,-17
39.95000,-17
39.95833,-17
39.96667,-17
39.97500,-17
39.98333,-17
39.99167,-17
40.00000,-17

