[Header]
Application Name,LabSolutions
Version,5.97 SP1
Data File Name,C:\Users\cremerlab\Desktop\griffin\2021-03-31_NCM3722_NCglucose_turnover\2021-03-31_NCM3722_turnover_batch_3312021_003_010.lcd
Output Date,4/1/2021
Output Time,1:56:59 AM

[File Information]
Type,Data File
Generated,4/1/2021 1:16:40 AM
Generated by,System Administrator
Modified,4/1/2021 1:56:59 AM
Modified by,System Administrator

[Sample Information]
Operator Name,System Administrator
Acquired,4/1/2021 1:16:59 AM
Sample Type,1:Standard
Level,3
Sample Name,2021-03-31_NCM3722_NCglucose_replicate_02_timepoint_003
Sample ID,003
ISTD Amount1,1
ISTD Amount2,1
ISTD Amount3,1
ISTD Amount4,1
ISTD Amount5,1
ISTD Amount6,1
ISTD Amount7,1
ISTD Amount8,1
ISTD Amount9,1
ISTD Amount10,1
ISTD Amount11,1
ISTD Amount12,1
ISTD Amount13,1
ISTD Amount14,1
ISTD Amount15,1
ISTD Amount16,1
ISTD Amount17,1
ISTD Amount18,1
ISTD Amount19,1
ISTD Amount20,1
ISTD Amount21,1
ISTD Amount22,1
ISTD Amount23,1
ISTD Amount24,1
ISTD Amount25,1
ISTD Amount26,1
ISTD Amount27,1
ISTD Amount28,1
ISTD Amount29,1
ISTD Amount30,1
ISTD Amount31,1
ISTD Amount32,1
Sample Amount,1
Dilution Factor,1
Vial#,21
Injection Volume,20

[Original Files]
Data File,C:\Users\cremerlab\Desktop\griffin\2021-03-31_NCM3722_NCglucose_turnover\2021-03-31_NCM3722_turnover_batch_3312021_003_010.lcd
Method File,C:\LabSolutions\Data\Project1\organicacidsetc2.lcm
Batch File,C:\Users\cremerlab\Desktop\griffin\2021-03-31_NCM3722_NCglucose_turnover\2021-03-31_NCM3722_turnover_batch.lcb
Report Format File,c:\LabSolutions\System\DEFAULT.lsr

[File Description]


[Configuration]
Instrument Name,HPLC-PC-Instrument1
Instrument #,1
Line #,1
# of Detectors,2
Detector ID,Detector A,Detector B
Detector Name,Detector A,Detector B
# of Channels,1,1

[Peak Table(Detector A)]
# of Peaks,0

[Peak Table(Detector B)]
# of Peaks,4
Peak#,R.Time,I.Time,F.Time,Area,Height,A/H,Conc.,Mark,ID#,Name,k',Plate #,Plate Ht.,Tailing,Resolution,Sep.Factor,Area Ratio,Height Ratio,Conc. %,Norm Conc.
1,11.056,10.750,12.742,1262548,70996,17.783,0.000,   ,,,0.000,10643,14.093,1.291,0.000,0.000,0,0,0.000,0.000
2,15.101,14.092,15.392,3181094,119168,26.694,0.000,   ,,,0.366,6977,21.499,0.000,7.023,0.000,0,0,0.000,0.000
3,15.634,15.392,18.442,965105,39067,24.704,0.000, V ,,,0.414,7912,18.959,0.000,0.746,1.132,0,0,0.000,0.000
4,25.052,24.608,25.650,5290,193,27.428,0.000,   ,,,1.266,18379,8.161,1.100,13.061,3.058,0,0,0.000,0.000

[LC Chromatogram(Detector B-Ch1)]
Interval(msec),500
# of Points,4801
Start Time(min),0.000
End Time(min),40.000
Intensity Units,mV
Intensity Multiplier,0.001
R.Time (min),Intensity
0.00000,1
0.00833,1
0.01667,-0
0.02500,-0
0.03333,-0
0.04167,-0
0.05000,-0
0.05833,-0
0.06667,-0
0.07500,-0
0.08333,-0
0.09167,-0
0.10000,-0
0.10833,-0
0.11667,0
0.12500,0
0.13333,0
0.14167,1
0.15000,1
0.15833,1
0.16667,1
0.17500,1
0.18333,1
0.19167,1
0.20000,1
0.20833,1
0.21667,1
0.22500,1
0.23333,1
0.24167,1
0.25000,1
0.25833,1
0.26667,2
0.27500,2
0.28333,1
0.29167,1
0.30000,1
0.30833,1
0.31667,1
0.32500,1
0.33333,1
0.34167,1
0.35000,0
0.35833,0
0.36667,0
0.37500,0
0.38333,1
0.39167,1
0.40000,1
0.40833,0
0.41667,1
0.42500,1
0.43333,1
0.44167,1
0.45000,2
0.45833,2
0.46667,2
0.47500,1
0.48333,1
0.49167,1
0.50000,1
0.50833,1
0.51667,2
0.52500,2
0.53333,2
0.54167,2
0.55000,2
0.55833,2
0.56667,2
0.57500,2
0.58333,2
0.59167,2
0.60000,3
0.60833,3
0.61667,3
0.62500,3
0.63333,3
0.64167,2
0.65000,2
0.65833,1
0.66667,1
0.67500,1
0.68333,1
0.69167,1
0.70000,1
0.70833,1
0.71667,1
0.72500,1
0.73333,2
0.74167,2
0.75000,2
0.75833,2
0.76667,3
0.77500,2
0.78333,2
0.79167,2
0.80000,2
0.80833,2
0.81667,2
0.82500,2
0.83333,2
0.84167,2
0.85000,2
0.85833,3
0.86667,3
0.87500,3
0.88333,3
0.89167,2
0.90000,2
0.90833,2
0.91667,2
0.92500,1
0.93333,2
0.94167,2
0.95000,2
0.95833,2
0.96667,2
0.97500,2
0.98333,2
0.99167,3
1.00000,3
1.00833,3
1.01667,4
1.02500,4
1.03333,4
1.04167,4
1.05000,4
1.05833,4
1.06667,3
1.07500,3
1.08333,3
1.09167,3
1.10000,3
1.10833,3
1.11667,3
1.12500,4
1.13333,4
1.14167,4
1.15000,4
1.15833,4
1.16667,4
1.17500,4
1.18333,4
1.19167,4
1.20000,5
1.20833,5
1.21667,5
1.22500,5
1.23333,6
1.24167,6
1.25000,5
1.25833,5
1.26667,5
1.27500,5
1.28333,5
1.29167,5
1.30000,5
1.30833,5
1.31667,4
1.32500,4
1.33333,4
1.34167,4
1.35000,4
1.35833,4
1.36667,5
1.37500,5
1.38333,5
1.39167,5
1.40000,5
1.40833,5
1.41667,5
1.42500,5
1.43333,5
1.44167,5
1.45000,5
1.45833,5
1.46667,5
1.47500,5
1.48333,5
1.49167,5
1.50000,5
1.50833,5
1.51667,5
1.52500,5
1.53333,5
1.54167,5
1.55000,5
1.55833,6
1.56667,6
1.57500,6
1.58333,6
1.59167,6
1.60000,6
1.60833,6
1.61667,6
1.62500,6
1.63333,6
1.64167,6
1.65000,6
1.65833,6
1.66667,6
1.67500,7
1.68333,7
1.69167,7
1.70000,8
1.70833,8
1.71667,9
1.72500,9
1.73333,9
1.74167,9
1.75000,9
1.75833,9
1.76667,9
1.77500,9
1.78333,9
1.79167,9
1.80000,9
1.80833,8
1.81667,8
1.82500,8
1.83333,8
1.84167,8
1.85000,9
1.85833,9
1.86667,9
1.87500,9
1.88333,9
1.89167,9
1.90000,9
1.90833,9
1.91667,9
1.92500,9
1.93333,10
1.94167,10
1.95000,10
1.95833,10
1.96667,10
1.97500,10
1.98333,10
1.99167,10
2.00000,10
2.00833,10
2.01667,11
2.02500,11
2.03333,11
2.04167,11
2.05000,12
2.05833,12
2.06667,12
2.07500,11
2.08333,11
2.09167,11
2.10000,11
2.10833,11
2.11667,11
2.12500,11
2.13333,11
2.14167,11
2.15000,11
2.15833,11
2.16667,11
2.17500,11
2.18333,11
2.19167,11
2.20000,11
2.20833,11
2.21667,11
2.22500,11
2.23333,11
2.24167,11
2.25000,10
2.25833,11
2.26667,11
2.27500,11
2.28333,11
2.29167,11
2.30000,11
2.30833,11
2.31667,11
2.32500,11
2.33333,10
2.34167,10
2.35000,10
2.35833,10
2.36667,10
2.37500,10
2.38333,10
2.39167,10
2.40000,11
2.40833,11
2.41667,11
2.42500,11
2.43333,10
2.44167,10
2.45000,10
2.45833,10
2.46667,10
2.47500,10
2.48333,10
2.49167,10
2.50000,10
2.50833,10
2.51667,9
2.52500,9
2.53333,9
2.54167,9
2.55000,9
2.55833,9
2.56667,9
2.57500,8
2.58333,8
2.59167,8
2.60000,9
2.60833,9
2.61667,9
2.62500,9
2.63333,9
2.64167,9
2.65000,9
2.65833,9
2.66667,9
2.67500,9
2.68333,9
2.69167,8
2.70000,8
2.70833,8
2.71667,8
2.72500,8
2.73333,8
2.74167,8
2.75000,8
2.75833,8
2.76667,8
2.77500,8
2.78333,8
2.79167,8
2.80000,8
2.80833,8
2.81667,8
2.82500,8
2.83333,8
2.84167,9
2.85000,9
2.85833,8
2.86667,8
2.87500,8
2.88333,8
2.89167,9
2.90000,9
2.90833,9
2.91667,9
2.92500,10
2.93333,10
2.94167,10
2.95000,10
2.95833,9
2.96667,9
2.97500,9
2.98333,9
2.99167,9
3.00000,9
3.00833,9
3.01667,9
3.02500,9
3.03333,9
3.04167,9
3.05000,9
3.05833,9
3.06667,9
3.07500,8
3.08333,8
3.09167,8
3.10000,8
3.10833,8
3.11667,8
3.12500,8
3.13333,8
3.14167,8
3.15000,9
3.15833,9
3.16667,9
3.17500,9
3.18333,9
3.19167,9
3.20000,8
3.20833,8
3.21667,8
3.22500,8
3.23333,8
3.24167,8
3.25000,8
3.25833,8
3.26667,8
3.27500,9
3.28333,9
3.29167,8
3.30000,8
3.30833,8
3.31667,9
3.32500,9
3.33333,9
3.34167,9
3.35000,9
3.35833,9
3.36667,9
3.37500,9
3.38333,9
3.39167,9
3.40000,9
3.40833,9
3.41667,9
3.42500,10
3.43333,10
3.44167,10
3.45000,10
3.45833,11
3.46667,11
3.47500,10
3.48333,10
3.49167,11
3.50000,11
3.50833,11
3.51667,11
3.52500,11
3.53333,11
3.54167,11
3.55000,11
3.55833,11
3.56667,11
3.57500,11
3.58333,11
3.59167,11
3.60000,11
3.60833,11
3.61667,11
3.62500,10
3.63333,10
3.64167,10
3.65000,10
3.65833,10
3.66667,11
3.67500,11
3.68333,12
3.69167,12
3.70000,12
3.70833,12
3.71667,12
3.72500,12
3.73333,12
3.74167,12
3.75000,12
3.75833,12
3.76667,12
3.77500,12
3.78333,12
3.79167,12
3.80000,12
3.80833,12
3.81667,12
3.82500,12
3.83333,12
3.84167,13
3.85000,13
3.85833,14
3.86667,14
3.87500,15
3.88333,15
3.89167,15
3.90000,15
3.90833,15
3.91667,15
3.92500,14
3.93333,14
3.94167,14
3.95000,14
3.95833,15
3.96667,15
3.97500,15
3.98333,15
3.99167,15
4.00000,15
4.00833,15
4.01667,15
4.02500,15
4.03333,15
4.04167,15
4.05000,15
4.05833,15
4.06667,15
4.07500,15
4.08333,15
4.09167,15
4.10000,16
4.10833,16
4.11667,16
4.12500,16
4.13333,16
4.14167,16
4.15000,16
4.15833,16
4.16667,16
4.17500,17
4.18333,17
4.19167,17
4.20000,17
4.20833,16
4.21667,16
4.22500,16
4.23333,16
4.24167,16
4.25000,16
4.25833,17
4.26667,17
4.27500,17
4.28333,17
4.29167,16
4.30000,16
4.30833,16
4.31667,16
4.32500,16
4.33333,16
4.34167,16
4.35000,16
4.35833,15
4.36667,15
4.37500,16
4.38333,16
4.39167,16
4.40000,16
4.40833,16
4.41667,16
4.42500,17
4.43333,16
4.44167,16
4.45000,16
4.45833,16
4.46667,16
4.47500,16
4.48333,16
4.49167,16
4.50000,15
4.50833,15
4.51667,15
4.52500,15
4.53333,15
4.54167,15
4.55000,15
4.55833,15
4.56667,15
4.57500,15
4.58333,15
4.59167,15
4.60000,15
4.60833,15
4.61667,15
4.62500,15
4.63333,14
4.64167,14
4.65000,14
4.65833,13
4.66667,14
4.67500,14
4.68333,14
4.69167,14
4.70000,14
4.70833,14
4.71667,14
4.72500,14
4.73333,14
4.74167,14
4.75000,14
4.75833,14
4.76667,15
4.77500,15
4.78333,15
4.79167,14
4.80000,14
4.80833,14
4.81667,14
4.82500,14
4.83333,14
4.84167,14
4.85000,14
4.85833,14
4.86667,14
4.87500,14
4.88333,14
4.89167,14
4.90000,14
4.90833,14
4.91667,14
4.92500,14
4.93333,14
4.94167,14
4.95000,14
4.95833,14
4.96667,14
4.97500,14
4.98333,15
4.99167,15
5.00000,15
5.00833,15
5.01667,15
5.02500,15
5.03333,15
5.04167,15
5.05000,15
5.05833,15
5.06667,15
5.07500,15
5.08333,14
5.09167,15
5.10000,15
5.10833,14
5.11667,14
5.12500,15
5.13333,15
5.14167,15
5.15000,15
5.15833,15
5.16667,15
5.17500,15
5.18333,15
5.19167,15
5.20000,15
5.20833,15
5.21667,14
5.22500,14
5.23333,14
5.24167,13
5.25000,14
5.25833,14
5.26667,14
5.27500,14
5.28333,14
5.29167,14
5.30000,15
5.30833,14
5.31667,14
5.32500,15
5.33333,14
5.34167,14
5.35000,15
5.35833,15
5.36667,15
5.37500,15
5.38333,15
5.39167,15
5.40000,15
5.40833,15
5.41667,15
5.42500,15
5.43333,15
5.44167,15
5.45000,15
5.45833,15
5.46667,15
5.47500,15
5.48333,16
5.49167,16
5.50000,16
5.50833,15
5.51667,15
5.52500,15
5.53333,16
5.54167,16
5.55000,16
5.55833,16
5.56667,16
5.57500,16
5.58333,16
5.59167,16
5.60000,16
5.60833,16
5.61667,16
5.62500,16
5.63333,16
5.64167,16
5.65000,16
5.65833,16
5.66667,16
5.67500,16
5.68333,15
5.69167,16
5.70000,16
5.70833,16
5.71667,16
5.72500,16
5.73333,15
5.74167,15
5.75000,15
5.75833,15
5.76667,15
5.77500,15
5.78333,15
5.79167,15
5.80000,15
5.80833,15
5.81667,16
5.82500,16
5.83333,16
5.84167,17
5.85000,17
5.85833,17
5.86667,17
5.87500,17
5.88333,17
5.89167,16
5.90000,16
5.90833,16
5.91667,16
5.92500,16
5.93333,16
5.94167,16
5.95000,16
5.95833,16
5.96667,16
5.97500,15
5.98333,15
5.99167,16
6.00000,16
6.00833,16
6.01667,16
6.02500,16
6.03333,16
6.04167,16
6.05000,16
6.05833,16
6.06667,16
6.07500,16
6.08333,16
6.09167,16
6.10000,16
6.10833,16
6.11667,16
6.12500,16
6.13333,16
6.14167,16
6.15000,17
6.15833,17
6.16667,17
6.17500,18
6.18333,18
6.19167,18
6.20000,18
6.20833,18
6.21667,18
6.22500,17
6.23333,17
6.24167,17
6.25000,17
6.25833,17
6.26667,17
6.27500,17
6.28333,17
6.29167,18
6.30000,17
6.30833,17
6.31667,17
6.32500,18
6.33333,18
6.34167,18
6.35000,18
6.35833,18
6.36667,18
6.37500,18
6.38333,18
6.39167,18
6.40000,18
6.40833,18
6.41667,18
6.42500,18
6.43333,18
6.44167,18
6.45000,18
6.45833,18
6.46667,18
6.47500,18
6.48333,18
6.49167,18
6.50000,18
6.50833,18
6.51667,18
6.52500,18
6.53333,18
6.54167,18
6.55000,18
6.55833,18
6.56667,19
6.57500,19
6.58333,19
6.59167,19
6.60000,19
6.60833,19
6.61667,19
6.62500,19
6.63333,19
6.64167,19
6.65000,19
6.65833,19
6.66667,19
6.67500,18
6.68333,18
6.69167,18
6.70000,19
6.70833,19
6.71667,19
6.72500,19
6.73333,19
6.74167,19
6.75000,19
6.75833,19
6.76667,19
6.77500,19
6.78333,19
6.79167,19
6.80000,19
6.80833,19
6.81667,19
6.82500,19
6.83333,19
6.84167,20
6.85000,20
6.85833,20
6.86667,19
6.87500,20
6.88333,19
6.89167,19
6.90000,19
6.90833,19
6.91667,19
6.92500,19
6.93333,20
6.94167,20
6.95000,20
6.95833,20
6.96667,20
6.97500,20
6.98333,20
6.99167,20
7.00000,20
7.00833,20
7.01667,20
7.02500,20
7.03333,20
7.04167,20
7.05000,20
7.05833,20
7.06667,20
7.07500,20
7.08333,20
7.09167,20
7.10000,20
7.10833,20
7.11667,21
7.12500,21
7.13333,21
7.14167,21
7.15000,21
7.15833,21
7.16667,21
7.17500,21
7.18333,20
7.19167,20
7.20000,20
7.20833,20
7.21667,20
7.22500,20
7.23333,20
7.24167,21
7.25000,21
7.25833,21
7.26667,21
7.27500,21
7.28333,21
7.29167,21
7.30000,22
7.30833,22
7.31667,21
7.32500,21
7.33333,21
7.34167,20
7.35000,20
7.35833,20
7.36667,20
7.37500,20
7.38333,20
7.39167,20
7.40000,20
7.40833,20
7.41667,20
7.42500,21
7.43333,21
7.44167,21
7.45000,21
7.45833,21
7.46667,21
7.47500,21
7.48333,21
7.49167,21
7.50000,21
7.50833,21
7.51667,22
7.52500,22
7.53333,22
7.54167,22
7.55000,22
7.55833,22
7.56667,22
7.57500,22
7.58333,22
7.59167,22
7.60000,22
7.60833,22
7.61667,21
7.62500,21
7.63333,21
7.64167,21
7.65000,22
7.65833,22
7.66667,22
7.67500,22
7.68333,22
7.69167,22
7.70000,22
7.70833,22
7.71667,22
7.72500,22
7.73333,22
7.74167,22
7.75000,22
7.75833,22
7.76667,21
7.77500,22
7.78333,22
7.79167,22
7.80000,22
7.80833,22
7.81667,22
7.82500,22
7.83333,22
7.84167,23
7.85000,23
7.85833,23
7.86667,23
7.87500,23
7.88333,23
7.89167,23
7.90000,23
7.90833,23
7.91667,23
7.92500,23
7.93333,23
7.94167,23
7.95000,23
7.95833,24
7.96667,24
7.97500,24
7.98333,24
7.99167,24
8.00000,24
8.00833,24
8.01667,23
8.02500,23
8.03333,23
8.04167,23
8.05000,23
8.05833,23
8.06667,23
8.07500,23
8.08333,23
8.09167,23
8.10000,23
8.10833,23
8.11667,23
8.12500,23
8.13333,23
8.14167,22
8.15000,23
8.15833,23
8.16667,23
8.17500,23
8.18333,23
8.19167,23
8.20000,23
8.20833,23
8.21667,23
8.22500,23
8.23333,23
8.24167,23
8.25000,23
8.25833,23
8.26667,23
8.27500,24
8.28333,23
8.29167,24
8.30000,24
8.30833,24
8.31667,25
8.32500,25
8.33333,25
8.34167,24
8.35000,24
8.35833,24
8.36667,25
8.37500,25
8.38333,25
8.39167,25
8.40000,25
8.40833,25
8.41667,24
8.42500,24
8.43333,24
8.44167,24
8.45000,25
8.45833,25
8.46667,25
8.47500,25
8.48333,24
8.49167,24
8.50000,24
8.50833,25
8.51667,25
8.52500,25
8.53333,25
8.54167,25
8.55000,25
8.55833,25
8.56667,26
8.57500,26
8.58333,25
8.59167,25
8.60000,25
8.60833,25
8.61667,25
8.62500,25
8.63333,25
8.64167,25
8.65000,25
8.65833,26
8.66667,26
8.67500,26
8.68333,27
8.69167,27
8.70000,26
8.70833,26
8.71667,26
8.72500,26
8.73333,26
8.74167,26
8.75000,26
8.75833,26
8.76667,26
8.77500,26
8.78333,26
8.79167,26
8.80000,25
8.80833,25
8.81667,25
8.82500,26
8.83333,26
8.84167,26
8.85000,26
8.85833,26
8.86667,26
8.87500,26
8.88333,26
8.89167,26
8.90000,26
8.90833,26
8.91667,26
8.92500,26
8.93333,27
8.94167,27
8.95000,27
8.95833,27
8.96667,27
8.97500,27
8.98333,27
8.99167,27
9.00000,27
9.00833,27
9.01667,27
9.02500,27
9.03333,28
9.04167,28
9.05000,28
9.05833,28
9.06667,28
9.07500,27
9.08333,27
9.09167,27
9.10000,27
9.10833,27
9.11667,27
9.12500,28
9.13333,27
9.14167,27
9.15000,27
9.15833,27
9.16667,27
9.17500,28
9.18333,28
9.19167,28
9.20000,28
9.20833,28
9.21667,27
9.22500,27
9.23333,27
9.24167,28
9.25000,28
9.25833,28
9.26667,28
9.27500,28
9.28333,28
9.29167,28
9.30000,28
9.30833,28
9.31667,28
9.32500,27
9.33333,27
9.34167,27
9.35000,27
9.35833,27
9.36667,27
9.37500,27
9.38333,27
9.39167,28
9.40000,27
9.40833,28
9.41667,28
9.42500,27
9.43333,27
9.44167,27
9.45000,27
9.45833,28
9.46667,28
9.47500,28
9.48333,29
9.49167,29
9.50000,29
9.50833,29
9.51667,29
9.52500,29
9.53333,29
9.54167,28
9.55000,28
9.55833,28
9.56667,28
9.57500,28
9.58333,28
9.59167,28
9.60000,29
9.60833,29
9.61667,29
9.62500,29
9.63333,29
9.64167,29
9.65000,29
9.65833,29
9.66667,28
9.67500,28
9.68333,28
9.69167,28
9.70000,28
9.70833,28
9.71667,28
9.72500,28
9.73333,29
9.74167,29
9.75000,29
9.75833,29
9.76667,29
9.77500,29
9.78333,29
9.79167,29
9.80000,29
9.80833,29
9.81667,29
9.82500,29
9.83333,29
9.84167,29
9.85000,29
9.85833,30
9.86667,30
9.87500,30
9.88333,29
9.89167,29
9.90000,29
9.90833,29
9.91667,29
9.92500,29
9.93333,29
9.94167,29
9.95000,29
9.95833,29
9.96667,29
9.97500,30
9.98333,30
9.99167,30
10.00000,29
10.00833,29
10.01667,29
10.02500,30
10.03333,30
10.04167,30
10.05000,30
10.05833,31
10.06667,31
10.07500,31
10.08333,31
10.09167,31
10.10000,31
10.10833,31
10.11667,31
10.12500,31
10.13333,31
10.14167,31
10.15000,31
10.15833,31
10.16667,31
10.17500,31
10.18333,31
10.19167,31
10.20000,31
10.20833,31
10.21667,31
10.22500,32
10.23333,32
10.24167,32
10.25000,33
10.25833,33
10.26667,33
10.27500,33
10.28333,33
10.29167,33
10.30000,33
10.30833,33
10.31667,33
10.32500,34
10.33333,34
10.34167,34
10.35000,34
10.35833,34
10.36667,34
10.37500,34
10.38333,35
10.39167,35
10.40000,35
10.40833,35
10.41667,35
10.42500,36
10.43333,36
10.44167,36
10.45000,36
10.45833,37
10.46667,37
10.47500,36
10.48333,36
10.49167,35
10.50000,33
10.50833,30
10.51667,26
10.52500,19
10.53333,10
10.54167,-3
10.55000,-20
10.55833,-43
10.56667,-74
10.57500,-113
10.58333,-164
10.59167,-228
10.60000,-308
10.60833,-404
10.61667,-521
10.62500,-658
10.63333,-818
10.64167,-1001
10.65000,-1207
10.65833,-1434
10.66667,-1680
10.67500,-1942
10.68333,-2214
10.69167,-2490
10.70000,-2761
10.70833,-3018
10.71667,-3250
10.72500,-3446
10.73333,-3594
10.74167,-3679
10.75000,-3689
10.75833,-3611
10.76667,-3431
10.77500,-3136
10.78333,-2716
10.79167,-2158
10.80000,-1454
10.80833,-595
10.81667,427
10.82500,1616
10.83333,2978
10.84167,4514
10.85000,6227
10.85833,8115
10.86667,10176
10.87500,12408
10.88333,14806
10.89167,17362
10.90000,20069
10.90833,22916
10.91667,25892
10.92500,28980
10.93333,32163
10.94167,35420
10.95000,38726
10.95833,42053
10.96667,45367
10.97500,48629
10.98333,51798
10.99167,54826
11.00000,57663
11.00833,60254
11.01667,62546
11.02500,64487
11.03333,66030
11.04167,67131
11.05000,67760
11.05833,67895
11.06667,67530
11.07500,66671
11.08333,65339
11.09167,63568
11.10000,61403
11.10833,58898
11.11667,56113
11.12500,53111
11.13333,49957
11.14167,46711
11.15000,43432
11.15833,40171
11.16667,36973
11.17500,33876
11.18333,30908
11.19167,28094
11.20000,25447
11.20833,22979
11.21667,20692
11.22500,18587
11.23333,16661
11.24167,14908
11.25000,13318
11.25833,11883
11.26667,10592
11.27500,9435
11.28333,8401
11.29167,7479
11.30000,6660
11.30833,5932
11.31667,5288
11.32500,4717
11.33333,4214
11.34167,3769
11.35000,3377
11.35833,3031
11.36667,2727
11.37500,2459
11.38333,2223
11.39167,2015
11.40000,1831
11.40833,1669
11.41667,1526
11.42500,1399
11.43333,1287
11.44167,1188
11.45000,1100
11.45833,1021
11.46667,951
11.47500,889
11.48333,833
11.49167,782
11.50000,737
11.50833,697
11.51667,660
11.52500,626
11.53333,596
11.54167,568
11.55000,542
11.55833,519
11.56667,498
11.57500,478
11.58333,459
11.59167,442
11.60000,426
11.60833,411
11.61667,398
11.62500,385
11.63333,374
11.64167,363
11.65000,352
11.65833,342
11.66667,333
11.67500,324
11.68333,316
11.69167,308
11.70000,301
11.70833,295
11.71667,288
11.72500,282
11.73333,277
11.74167,271
11.75000,266
11.75833,261
11.76667,257
11.77500,252
11.78333,248
11.79167,244
11.80000,241
11.80833,238
11.81667,235
11.82500,232
11.83333,229
11.84167,227
11.85000,225
11.85833,223
11.86667,221
11.87500,219
11.88333,217
11.89167,215
11.90000,214
11.90833,212
11.91667,210
11.92500,209
11.93333,208
11.94167,207
11.95000,205
11.95833,204
11.96667,203
11.97500,202
11.98333,201
11.99167,200
12.00000,199
12.00833,198
12.01667,197
12.02500,195
12.03333,194
12.04167,192
12.05000,191
12.05833,190
12.06667,190
12.07500,189
12.08333,188
12.09167,187
12.10000,186
12.10833,185
12.11667,184
12.12500,183
12.13333,182
12.14167,181
12.15000,180
12.15833,179
12.16667,178
12.17500,177
12.18333,176
12.19167,175
12.20000,174
12.20833,173
12.21667,172
12.22500,171
12.23333,170
12.24167,170
12.25000,169
12.25833,168
12.26667,168
12.27500,167
12.28333,166
12.29167,166
12.30000,165
12.30833,164
12.31667,163
12.32500,162
12.33333,161
12.34167,160
12.35000,160
12.35833,159
12.36667,158
12.37500,157
12.38333,157
12.39167,156
12.40000,156
12.40833,155
12.41667,155
12.42500,154
12.43333,154
12.44167,154
12.45000,153
12.45833,152
12.46667,152
12.47500,152
12.48333,151
12.49167,150
12.50000,150
12.50833,149
12.51667,148
12.52500,148
12.53333,147
12.54167,147
12.55000,146
12.55833,146
12.56667,145
12.57500,145
12.58333,144
12.59167,144
12.60000,143
12.60833,142
12.61667,142
12.62500,141
12.63333,141
12.64167,140
12.65000,140
12.65833,139
12.66667,139
12.67500,138
12.68333,138
12.69167,137
12.70000,136
12.70833,136
12.71667,135
12.72500,134
12.73333,134
12.74167,134
12.75000,134
12.75833,134
12.76667,134
12.77500,134
12.78333,133
12.79167,133
12.80000,133
12.80833,132
12.81667,132
12.82500,131
12.83333,131
12.84167,131
12.85000,131
12.85833,131
12.86667,131
12.87500,132
12.88333,132
12.89167,132
12.90000,132
12.90833,131
12.91667,131
12.92500,132
12.93333,132
12.94167,132
12.95000,132
12.95833,133
12.96667,133
12.97500,133
12.98333,133
12.99167,133
13.00000,133
13.00833,133
13.01667,133
13.02500,133
13.03333,133
13.04167,133
13.05000,133
13.05833,133
13.06667,133
13.07500,133
13.08333,133
13.09167,133
13.10000,133
13.10833,132
13.11667,132
13.12500,132
13.13333,133
13.14167,133
13.15000,133
13.15833,132
13.16667,132
13.17500,132
13.18333,132
13.19167,132
13.20000,132
13.20833,131
13.21667,131
13.22500,131
13.23333,131
13.24167,130
13.25000,130
13.25833,129
13.26667,129
13.27500,128
13.28333,127
13.29167,126
13.30000,126
13.30833,125
13.31667,124
13.32500,123
13.33333,122
13.34167,121
13.35000,121
13.35833,119
13.36667,119
13.37500,118
13.38333,117
13.39167,116
13.40000,115
13.40833,115
13.41667,114
13.42500,113
13.43333,112
13.44167,111
13.45000,110
13.45833,109
13.46667,108
13.47500,107
13.48333,106
13.49167,105
13.50000,105
13.50833,104
13.51667,104
13.52500,103
13.53333,103
13.54167,102
13.55000,101
13.55833,100
13.56667,99
13.57500,99
13.58333,99
13.59167,98
13.60000,98
13.60833,97
13.61667,97
13.62500,97
13.63333,96
13.64167,96
13.65000,96
13.65833,95
13.66667,95
13.67500,95
13.68333,95
13.69167,95
13.70000,95
13.70833,95
13.71667,95
13.72500,95
13.73333,95
13.74167,96
13.75000,96
13.75833,96
13.76667,96
13.77500,96
13.78333,96
13.79167,96
13.80000,97
13.80833,97
13.81667,97
13.82500,97
13.83333,98
13.84167,98
13.85000,99
13.85833,99
13.86667,100
13.87500,101
13.88333,101
13.89167,101
13.90000,102
13.90833,103
13.91667,103
13.92500,104
13.93333,104
13.94167,105
13.95000,106
13.95833,106
13.96667,107
13.97500,108
13.98333,108
13.99167,109
14.00000,110
14.00833,110
14.01667,111
14.02500,111
14.03333,112
14.04167,113
14.05000,114
14.05833,114
14.06667,115
14.07500,116
14.08333,117
14.09167,118
14.10000,119
14.10833,120
14.11667,121
14.12500,123
14.13333,124
14.14167,127
14.15000,129
14.15833,131
14.16667,134
14.17500,137
14.18333,141
14.19167,145
14.20000,150
14.20833,157
14.21667,165
14.22500,174
14.23333,186
14.24167,199
14.25000,216
14.25833,235
14.26667,259
14.27500,287
14.28333,322
14.29167,362
14.30000,411
14.30833,468
14.31667,535
14.32500,614
14.33333,705
14.34167,812
14.35000,934
14.35833,1074
14.36667,1234
14.37500,1414
14.38333,1618
14.39167,1846
14.40000,2101
14.40833,2383
14.41667,2694
14.42500,3036
14.43333,3410
14.44167,3818
14.45000,4259
14.45833,4736
14.46667,5248
14.47500,5797
14.48333,6382
14.49167,7004
14.50000,7663
14.50833,8360
14.51667,9094
14.52500,9864
14.53333,10672
14.54167,11516
14.55000,12395
14.55833,13310
14.56667,14261
14.57500,15245
14.58333,16264
14.59167,17316
14.60000,18401
14.60833,19518
14.61667,20666
14.62500,21845
14.63333,23054
14.64167,24293
14.65000,25561
14.65833,26857
14.66667,28182
14.67500,29534
14.68333,30913
14.69167,32320
14.70000,33752
14.70833,35211
14.71667,36694
14.72500,38203
14.73333,39736
14.74167,41294
14.75000,42877
14.75833,44483
14.76667,46113
14.77500,47766
14.78333,49443
14.79167,51143
14.80000,52866
14.80833,54611
14.81667,56378
14.82500,58168
14.83333,59980
14.84167,61814
14.85000,63670
14.85833,65547
14.86667,67446
14.87500,69365
14.88333,71305
14.89167,73265
14.90000,75245
14.90833,77244
14.91667,79262
14.92500,81299
14.93333,83353
14.94167,85424
14.95000,87510
14.95833,89611
14.96667,91725
14.97500,93850
14.98333,95983
14.99167,98122
15.00000,100261
15.00833,102394
15.01667,104513
15.02500,106605
15.03333,108654
15.04167,110636
15.05000,112524
15.05833,114279
15.06667,115859
15.07500,117210
15.08333,118275
15.09167,118992
15.10000,119298
15.10833,119134
15.11667,118447
15.12500,117196
15.13333,115356
15.14167,112918
15.15000,109895
15.15833,106319
15.16667,102239
15.17500,97725
15.18333,92855
15.19167,87718
15.20000,82408
15.20833,77016
15.21667,71633
15.22500,66340
15.23333,61207
15.24167,56294
15.25000,51650
15.25833,47308
15.26667,43294
15.27500,39619
15.28333,36290
15.29167,33302
15.30000,30648
15.30833,28315
15.31667,26287
15.32500,24548
15.33333,23080
15.34167,21865
15.35000,20886
15.35833,20126
15.36667,19569
15.37500,19201
15.38333,19007
15.39167,18974
15.40000,19091
15.40833,19347
15.41667,19730
15.42500,20229
15.43333,20833
15.44167,21532
15.45000,22316
15.45833,23174
15.46667,24094
15.47500,25067
15.48333,26080
15.49167,27123
15.50000,28183
15.50833,29249
15.51667,30310
15.52500,31355
15.53333,32372
15.54167,33351
15.55000,34282
15.55833,35155
15.56667,35960
15.57500,36691
15.58333,37338
15.59167,37897
15.60000,38361
15.60833,38726
15.61667,38990
15.62500,39149
15.63333,39204
15.64167,39153
15.65000,38999
15.65833,38742
15.66667,38388
15.67500,37938
15.68333,37398
15.69167,36773
15.70000,36069
15.70833,35292
15.71667,34449
15.72500,33547
15.73333,32593
15.74167,31594
15.75000,30558
15.75833,29491
15.76667,28402
15.77500,27295
15.78333,26179
15.79167,25059
15.80000,23940
15.80833,22829
15.81667,21730
15.82500,20648
15.83333,19586
15.84167,18549
15.85000,17539
15.85833,16559
15.86667,15611
15.87500,14697
15.88333,13819
15.89167,12977
15.90000,12172
15.90833,11405
15.91667,10675
15.92500,9983
15.93333,9327
15.94167,8708
15.95000,8124
15.95833,7575
15.96667,7059
15.97500,6576
15.98333,6124
15.99167,5701
16.00000,5308
16.00833,4942
16.01667,4601
16.02500,4285
16.03333,3992
16.04167,3720
16.05000,3469
16.05833,3237
16.06667,3023
16.07500,2826
16.08333,2645
16.09167,2477
16.10000,2323
16.10833,2181
16.11667,2051
16.12500,1931
16.13333,1821
16.14167,1720
16.15000,1627
16.15833,1542
16.16667,1465
16.17500,1393
16.18333,1327
16.19167,1266
16.20000,1210
16.20833,1159
16.21667,1112
16.22500,1068
16.23333,1028
16.24167,991
16.25000,957
16.25833,925
16.26667,896
16.27500,869
16.28333,844
16.29167,821
16.30000,799
16.30833,779
16.31667,760
16.32500,743
16.33333,727
16.34167,712
16.35000,697
16.35833,684
16.36667,671
16.37500,659
16.38333,648
16.39167,637
16.40000,627
16.40833,617
16.41667,608
16.42500,599
16.43333,591
16.44167,583
16.45000,576
16.45833,569
16.46667,562
16.47500,555
16.48333,548
16.49167,542
16.50000,536
16.50833,530
16.51667,525
16.52500,520
16.53333,515
16.54167,510
16.55000,505
16.55833,501
16.56667,496
16.57500,492
16.58333,488
16.59167,484
16.60000,480
16.60833,477
16.61667,474
16.62500,470
16.63333,467
16.64167,463
16.65000,459
16.65833,456
16.66667,453
16.67500,450
16.68333,447
16.69167,444
16.70000,440
16.70833,437
16.71667,434
16.72500,431
16.73333,428
16.74167,425
16.75000,423
16.75833,420
16.76667,417
16.77500,414
16.78333,412
16.79167,409
16.80000,407
16.80833,405
16.81667,402
16.82500,400
16.83333,397
16.84167,395
16.85000,393
16.85833,391
16.86667,388
16.87500,386
16.88333,384
16.89167,382
16.90000,379
16.90833,377
16.91667,375
16.92500,373
16.93333,371
16.94167,369
16.95000,366
16.95833,364
16.96667,362
16.97500,360
16.98333,358
16.99167,356
17.00000,355
17.00833,353
17.01667,352
17.02500,350
17.03333,347
17.04167,345
17.05000,343
17.05833,341
17.06667,339
17.07500,338
17.08333,336
17.09167,334
17.10000,333
17.10833,331
17.11667,329
17.12500,327
17.13333,325
17.14167,324
17.15000,322
17.15833,320
17.16667,319
17.17500,317
17.18333,316
17.19167,314
17.20000,313
17.20833,311
17.21667,310
17.22500,309
17.23333,308
17.24167,306
17.25000,304
17.25833,303
17.26667,301
17.27500,299
17.28333,298
17.29167,297
17.30000,295
17.30833,294
17.31667,293
17.32500,291
17.33333,290
17.34167,288
17.35000,287
17.35833,286
17.36667,284
17.37500,283
17.38333,282
17.39167,281
17.40000,279
17.40833,278
17.41667,276
17.42500,274
17.43333,273
17.44167,272
17.45000,271
17.45833,270
17.46667,269
17.47500,268
17.48333,267
17.49167,265
17.50000,264
17.50833,263
17.51667,262
17.52500,261
17.53333,260
17.54167,259
17.55000,257
17.55833,256
17.56667,255
17.57500,254
17.58333,253
17.59167,252
17.60000,250
17.60833,249
17.61667,248
17.62500,247
17.63333,246
17.64167,245
17.65000,244
17.65833,242
17.66667,241
17.67500,240
17.68333,238
17.69167,237
17.70000,236
17.70833,236
17.71667,235
17.72500,234
17.73333,233
17.74167,232
17.75000,231
17.75833,231
17.76667,230
17.77500,229
17.78333,228
17.79167,227
17.80000,226
17.80833,225
17.81667,224
17.82500,223
17.83333,222
17.84167,222
17.85000,221
17.85833,220
17.86667,220
17.87500,219
17.88333,218
17.89167,217
17.90000,217
17.90833,216
17.91667,215
17.92500,214
17.93333,213
17.94167,212
17.95000,212
17.95833,211
17.96667,210
17.97500,209
17.98333,209
17.99167,208
18.00000,207
18.00833,206
18.01667,206
18.02500,205
18.03333,204
18.04167,203
18.05000,202
18.05833,201
18.06667,200
18.07500,199
18.08333,199
18.09167,198
18.10000,198
18.10833,197
18.11667,197
18.12500,196
18.13333,195
18.14167,194
18.15000,194
18.15833,193
18.16667,192
18.17500,191
18.18333,190
18.19167,190
18.20000,189
18.20833,189
18.21667,188
18.22500,188
18.23333,187
18.24167,186
18.25000,185
18.25833,185
18.26667,184
18.27500,184
18.28333,183
18.29167,183
18.30000,182
18.30833,181
18.31667,180
18.32500,180
18.33333,179
18.34167,179
18.35000,178
18.35833,177
18.36667,176
18.37500,176
18.38333,175
18.39167,174
18.40000,173
18.40833,173
18.41667,172
18.42500,172
18.43333,171
18.44167,171
18.45000,171
18.45833,171
18.46667,170
18.47500,169
18.48333,168
18.49167,168
18.50000,167
18.50833,166
18.51667,166
18.52500,165
18.53333,165
18.54167,165
18.55000,165
18.55833,164
18.56667,164
18.57500,164
18.58333,163
18.59167,163
18.60000,163
18.60833,163
18.61667,163
18.62500,163
18.63333,163
18.64167,163
18.65000,163
18.65833,163
18.66667,163
18.67500,163
18.68333,163
18.69167,164
18.70000,164
18.70833,165
18.71667,165
18.72500,166
18.73333,167
18.74167,168
18.75000,168
18.75833,169
18.76667,171
18.77500,172
18.78333,173
18.79167,174
18.80000,176
18.80833,177
18.81667,179
18.82500,181
18.83333,182
18.84167,184
18.85000,185
18.85833,187
18.86667,189
18.87500,191
18.88333,193
18.89167,194
18.90000,195
18.90833,196
18.91667,197
18.92500,199
18.93333,200
18.94167,201
18.95000,201
18.95833,202
18.96667,202
18.97500,202
18.98333,202
18.99167,202
19.00000,201
19.00833,201
19.01667,201
19.02500,200
19.03333,199
19.04167,198
19.05000,197
19.05833,195
19.06667,194
19.07500,192
19.08333,191
19.09167,189
19.10000,187
19.10833,185
19.11667,182
19.12500,181
19.13333,179
19.14167,177
19.15000,174
19.15833,173
19.16667,171
19.17500,168
19.18333,166
19.19167,164
19.20000,162
19.20833,160
19.21667,158
19.22500,157
19.23333,155
19.24167,153
19.25000,152
19.25833,150
19.26667,148
19.27500,147
19.28333,145
19.29167,144
19.30000,142
19.30833,141
19.31667,140
19.32500,139
19.33333,138
19.34167,137
19.35000,136
19.35833,135
19.36667,135
19.37500,134
19.38333,133
19.39167,132
19.40000,131
19.40833,130
19.41667,130
19.42500,129
19.43333,129
19.44167,128
19.45000,128
19.45833,127
19.46667,127
19.47500,126
19.48333,125
19.49167,125
19.50000,124
19.50833,124
19.51667,123
19.52500,123
19.53333,122
19.54167,122
19.55000,122
19.55833,122
19.56667,122
19.57500,122
19.58333,121
19.59167,121
19.60000,121
19.60833,121
19.61667,120
19.62500,120
19.63333,119
19.64167,119
19.65000,119
19.65833,118
19.66667,118
19.67500,118
19.68333,117
19.69167,117
19.70000,117
19.70833,117
19.71667,117
19.72500,117
19.73333,116
19.74167,116
19.75000,116
19.75833,116
19.76667,116
19.77500,115
19.78333,115
19.79167,115
19.80000,114
19.80833,114
19.81667,114
19.82500,113
19.83333,113
19.84167,113
19.85000,113
19.85833,113
19.86667,113
19.87500,113
19.88333,112
19.89167,112
19.90000,111
19.90833,111
19.91667,111
19.92500,111
19.93333,111
19.94167,111
19.95000,111
19.95833,110
19.96667,110
19.97500,110
19.98333,110
19.99167,110
20.00000,110
20.00833,109
20.01667,109
20.02500,109
20.03333,109
20.04167,108
20.05000,108
20.05833,108
20.06667,107
20.07500,107
20.08333,107
20.09167,107
20.10000,106
20.10833,106
20.11667,106
20.12500,106
20.13333,105
20.14167,105
20.15000,105
20.15833,105
20.16667,105
20.17500,105
20.18333,105
20.19167,105
20.20000,105
20.20833,105
20.21667,105
20.22500,104
20.23333,104
20.24167,104
20.25000,103
20.25833,103
20.26667,103
20.27500,103
20.28333,102
20.29167,102
20.30000,102
20.30833,102
20.31667,102
20.32500,102
20.33333,102
20.34167,102
20.35000,102
20.35833,103
20.36667,103
20.37500,102
20.38333,102
20.39167,101
20.40000,101
20.40833,101
20.41667,101
20.42500,100
20.43333,100
20.44167,100
20.45000,100
20.45833,100
20.46667,100
20.47500,100
20.48333,100
20.49167,100
20.50000,100
20.50833,99
20.51667,99
20.52500,99
20.53333,99
20.54167,98
20.55000,98
20.55833,98
20.56667,98
20.57500,98
20.58333,98
20.59167,97
20.60000,97
20.60833,98
20.61667,98
20.62500,98
20.63333,98
20.64167,98
20.65000,98
20.65833,98
20.66667,97
20.67500,97
20.68333,97
20.69167,97
20.70000,97
20.70833,96
20.71667,96
20.72500,96
20.73333,96
20.74167,95
20.75000,95
20.75833,95
20.76667,95
20.77500,95
20.78333,95
20.79167,95
20.80000,95
20.80833,95
20.81667,94
20.82500,94
20.83333,94
20.84167,94
20.85000,94
20.85833,94
20.86667,94
20.87500,93
20.88333,93
20.89167,93
20.90000,92
20.90833,92
20.91667,92
20.92500,92
20.93333,92
20.94167,92
20.95000,92
20.95833,92
20.96667,92
20.97500,92
20.98333,92
20.99167,92
21.00000,93
21.00833,93
21.01667,93
21.02500,93
21.03333,92
21.04167,92
21.05000,92
21.05833,92
21.06667,92
21.07500,92
21.08333,92
21.09167,91
21.10000,91
21.10833,91
21.11667,91
21.12500,91
21.13333,91
21.14167,91
21.15000,91
21.15833,91
21.16667,91
21.17500,91
21.18333,91
21.19167,91
21.20000,91
21.20833,90
21.21667,90
21.22500,90
21.23333,90
21.24167,91
21.25000,90
21.25833,90
21.26667,90
21.27500,89
21.28333,89
21.29167,89
21.30000,89
21.30833,89
21.31667,89
21.32500,89
21.33333,89
21.34167,89
21.35000,89
21.35833,89
21.36667,89
21.37500,89
21.38333,89
21.39167,88
21.40000,89
21.40833,89
21.41667,89
21.42500,89
21.43333,89
21.44167,89
21.45000,89
21.45833,89
21.46667,89
21.47500,89
21.48333,89
21.49167,89
21.50000,89
21.50833,89
21.51667,89
21.52500,89
21.53333,89
21.54167,89
21.55000,89
21.55833,89
21.56667,89
21.57500,89
21.58333,89
21.59167,89
21.60000,89
21.60833,89
21.61667,89
21.62500,89
21.63333,89
21.64167,89
21.65000,89
21.65833,89
21.66667,88
21.67500,88
21.68333,88
21.69167,88
21.70000,89
21.70833,89
21.71667,89
21.72500,89
21.73333,90
21.74167,90
21.75000,90
21.75833,90
21.76667,90
21.77500,90
21.78333,90
21.79167,90
21.80000,90
21.80833,90
21.81667,90
21.82500,90
21.83333,90
21.84167,90
21.85000,90
21.85833,90
21.86667,90
21.87500,90
21.88333,90
21.89167,90
21.90000,90
21.90833,91
21.91667,90
21.92500,90
21.93333,90
21.94167,90
21.95000,90
21.95833,90
21.96667,90
21.97500,90
21.98333,90
21.99167,90
22.00000,91
22.00833,91
22.01667,91
22.02500,91
22.03333,90
22.04167,90
22.05000,90
22.05833,90
22.06667,90
22.07500,90
22.08333,90
22.09167,90
22.10000,90
22.10833,90
22.11667,90
22.12500,89
22.13333,89
22.14167,89
22.15000,89
22.15833,88
22.16667,88
22.17500,88
22.18333,87
22.19167,87
22.20000,87
22.20833,87
22.21667,87
22.22500,87
22.23333,87
22.24167,87
22.25000,87
22.25833,87
22.26667,87
22.27500,87
22.28333,88
22.29167,87
22.30000,87
22.30833,87
22.31667,87
22.32500,87
22.33333,86
22.34167,86
22.35000,86
22.35833,85
22.36667,85
22.37500,85
22.38333,85
22.39167,85
22.40000,85
22.40833,86
22.41667,86
22.42500,86
22.43333,86
22.44167,86
22.45000,86
22.45833,86
22.46667,86
22.47500,86
22.48333,86
22.49167,86
22.50000,86
22.50833,86
22.51667,86
22.52500,85
22.53333,86
22.54167,86
22.55000,86
22.55833,86
22.56667,86
22.57500,86
22.58333,86
22.59167,86
22.60000,86
22.60833,85
22.61667,85
22.62500,85
22.63333,85
22.64167,86
22.65000,86
22.65833,86
22.66667,86
22.67500,86
22.68333,86
22.69167,86
22.70000,86
22.70833,86
22.71667,86
22.72500,86
22.73333,85
22.74167,86
22.75000,86
22.75833,86
22.76667,86
22.77500,86
22.78333,86
22.79167,86
22.80000,86
22.80833,87
22.81667,87
22.82500,87
22.83333,87
22.84167,87
22.85000,87
22.85833,87
22.86667,88
22.87500,88
22.88333,88
22.89167,88
22.90000,88
22.90833,89
22.91667,90
22.92500,90
22.93333,91
22.94167,92
22.95000,92
22.95833,93
22.96667,94
22.97500,94
22.98333,95
22.99167,95
23.00000,96
23.00833,97
23.01667,97
23.02500,98
23.03333,99
23.04167,99
23.05000,100
23.05833,101
23.06667,101
23.07500,102
23.08333,103
23.09167,104
23.10000,104
23.10833,104
23.11667,105
23.12500,105
23.13333,106
23.14167,106
23.15000,106
23.15833,107
23.16667,108
23.17500,109
23.18333,110
23.19167,110
23.20000,110
23.20833,110
23.21667,110
23.22500,110
23.23333,110
23.24167,110
23.25000,110
23.25833,110
23.26667,109
23.27500,109
23.28333,109
23.29167,108
23.30000,108
23.30833,107
23.31667,107
23.32500,106
23.33333,106
23.34167,106
23.35000,106
23.35833,105
23.36667,104
23.37500,103
23.38333,103
23.39167,102
23.40000,102
23.40833,101
23.41667,100
23.42500,99
23.43333,99
23.44167,98
23.45000,98
23.45833,98
23.46667,97
23.47500,97
23.48333,96
23.49167,95
23.50000,94
23.50833,93
23.51667,93
23.52500,92
23.53333,91
23.54167,91
23.55000,91
23.55833,91
23.56667,90
23.57500,90
23.58333,90
23.59167,89
23.60000,88
23.60833,88
23.61667,88
23.62500,88
23.63333,87
23.64167,87
23.65000,87
23.65833,87
23.66667,86
23.67500,86
23.68333,86
23.69167,86
23.70000,86
23.70833,86
23.71667,86
23.72500,86
23.73333,86
23.74167,86
23.75000,86
23.75833,86
23.76667,86
23.77500,85
23.78333,85
23.79167,85
23.80000,85
23.80833,86
23.81667,85
23.82500,85
23.83333,85
23.84167,85
23.85000,85
23.85833,85
23.86667,85
23.87500,85
23.88333,85
23.89167,85
23.90000,86
23.90833,86
23.91667,86
23.92500,86
23.93333,86
23.94167,86
23.95000,85
23.95833,86
23.96667,86
23.97500,86
23.98333,85
23.99167,85
24.00000,85
24.00833,85
24.01667,85
24.02500,85
24.03333,85
24.04167,85
24.05000,85
24.05833,85
24.06667,85
24.07500,85
24.08333,85
24.09167,85
24.10000,85
24.10833,85
24.11667,85
24.12500,85
24.13333,85
24.14167,85
24.15000,86
24.15833,86
24.16667,86
24.17500,87
24.18333,87
24.19167,86
24.20000,86
24.20833,86
24.21667,85
24.22500,85
24.23333,85
24.24167,85
24.25000,85
24.25833,85
24.26667,85
24.27500,86
24.28333,86
24.29167,86
24.30000,86
24.30833,86
24.31667,86
24.32500,86
24.33333,86
24.34167,85
24.35000,85
24.35833,86
24.36667,86
24.37500,86
24.38333,86
24.39167,87
24.40000,87
24.40833,88
24.41667,88
24.42500,88
24.43333,89
24.44167,89
24.45000,89
24.45833,89
24.46667,89
24.47500,89
24.48333,90
24.49167,90
24.50000,90
24.50833,91
24.51667,91
24.52500,91
24.53333,92
24.54167,93
24.55000,94
24.55833,94
24.56667,95
24.57500,97
24.58333,98
24.59167,99
24.60000,100
24.60833,101
24.61667,102
24.62500,104
24.63333,105
24.64167,107
24.65000,108
24.65833,110
24.66667,112
24.67500,115
24.68333,117
24.69167,120
24.70000,123
24.70833,126
24.71667,130
24.72500,133
24.73333,137
24.74167,141
24.75000,144
24.75833,149
24.76667,153
24.77500,158
24.78333,163
24.79167,167
24.80000,172
24.80833,177
24.81667,182
24.82500,188
24.83333,193
24.84167,199
24.85000,204
24.85833,210
24.86667,215
24.87500,221
24.88333,226
24.89167,232
24.90000,236
24.90833,241
24.91667,246
24.92500,251
24.93333,256
24.94167,260
24.95000,264
24.95833,268
24.96667,272
24.97500,275
24.98333,278
24.99167,281
25.00000,283
25.00833,285
25.01667,287
25.02500,289
25.03333,290
25.04167,291
25.05000,291
25.05833,291
25.06667,291
25.07500,290
25.08333,288
25.09167,287
25.10000,284
25.10833,282
25.11667,279
25.12500,277
25.13333,273
25.14167,269
25.15000,265
25.15833,261
25.16667,257
25.17500,253
25.18333,248
25.19167,243
25.20000,238
25.20833,233
25.21667,228
25.22500,222
25.23333,217
25.24167,212
25.25000,208
25.25833,203
25.26667,198
25.27500,194
25.28333,189
25.29167,184
25.30000,180
25.30833,175
25.31667,171
25.32500,167
25.33333,162
25.34167,159
25.35000,155
25.35833,151
25.36667,148
25.37500,144
25.38333,141
25.39167,138
25.40000,135
25.40833,132
25.41667,129
25.42500,126
25.43333,124
25.44167,121
25.45000,119
25.45833,117
25.46667,115
25.47500,113
25.48333,112
25.49167,110
25.50000,109
25.50833,108
25.51667,107
25.52500,105
25.53333,104
25.54167,103
25.55000,102
25.55833,101
25.56667,100
25.57500,100
25.58333,99
25.59167,98
25.60000,98
25.60833,97
25.61667,96
25.62500,96
25.63333,95
25.64167,95
25.65000,95
25.65833,94
25.66667,94
25.67500,94
25.68333,94
25.69167,94
25.70000,95
25.70833,95
25.71667,94
25.72500,94
25.73333,94
25.74167,94
25.75000,94
25.75833,94
25.76667,94
25.77500,94
25.78333,94
25.79167,94
25.80000,93
25.80833,93
25.81667,93
25.82500,94
25.83333,94
25.84167,94
25.85000,94
25.85833,93
25.86667,93
25.87500,93
25.88333,93
25.89167,93
25.90000,94
25.90833,94
25.91667,94
25.92500,94
25.93333,95
25.94167,95
25.95000,94
25.95833,94
25.96667,94
25.97500,94
25.98333,94
25.99167,94
26.00000,94
26.00833,93
26.01667,93
26.02500,93
26.03333,93
26.04167,93
26.05000,94
26.05833,94
26.06667,94
26.07500,94
26.08333,94
26.09167,93
26.10000,93
26.10833,93
26.11667,93
26.12500,93
26.13333,93
26.14167,93
26.15000,94
26.15833,94
26.16667,94
26.17500,95
26.18333,95
26.19167,95
26.20000,95
26.20833,95
26.21667,95
26.22500,95
26.23333,95
26.24167,95
26.25000,95
26.25833,95
26.26667,95
26.27500,95
26.28333,94
26.29167,94
26.30000,94
26.30833,94
26.31667,94
26.32500,94
26.33333,94
26.34167,94
26.35000,94
26.35833,94
26.36667,95
26.37500,95
26.38333,95
26.39167,95
26.40000,95
26.40833,94
26.41667,95
26.42500,95
26.43333,95
26.44167,95
26.45000,96
26.45833,96
26.46667,96
26.47500,96
26.48333,96
26.49167,96
26.50000,96
26.50833,96
26.51667,96
26.52500,96
26.53333,96
26.54167,95
26.55000,95
26.55833,95
26.56667,95
26.57500,95
26.58333,95
26.59167,95
26.60000,95
26.60833,95
26.61667,95
26.62500,96
26.63333,96
26.64167,96
26.65000,96
26.65833,96
26.66667,96
26.67500,96
26.68333,96
26.69167,96
26.70000,97
26.70833,97
26.71667,97
26.72500,97
26.73333,97
26.74167,97
26.75000,97
26.75833,97
26.76667,97
26.77500,97
26.78333,97
26.79167,97
26.80000,97
26.80833,97
26.81667,97
26.82500,97
26.83333,97
26.84167,98
26.85000,98
26.85833,98
26.86667,98
26.87500,98
26.88333,98
26.89167,98
26.90000,98
26.90833,98
26.91667,98
26.92500,98
26.93333,98
26.94167,98
26.95000,98
26.95833,98
26.96667,98
26.97500,98
26.98333,98
26.99167,98
27.00000,98
27.00833,98
27.01667,97
27.02500,98
27.03333,98
27.04167,98
27.05000,99
27.05833,99
27.06667,99
27.07500,99
27.08333,99
27.09167,100
27.10000,100
27.10833,100
27.11667,100
27.12500,100
27.13333,100
27.14167,100
27.15000,100
27.15833,100
27.16667,100
27.17500,100
27.18333,99
27.19167,99
27.20000,99
27.20833,99
27.21667,100
27.22500,100
27.23333,100
27.24167,100
27.25000,100
27.25833,101
27.26667,101
27.27500,101
27.28333,101
27.29167,101
27.30000,101
27.30833,102
27.31667,102
27.32500,102
27.33333,102
27.34167,102
27.35000,102
27.35833,102
27.36667,102
27.37500,102
27.38333,102
27.39167,102
27.40000,102
27.40833,102
27.41667,102
27.42500,102
27.43333,102
27.44167,102
27.45000,103
27.45833,103
27.46667,103
27.47500,103
27.48333,103
27.49167,103
27.50000,103
27.50833,103
27.51667,103
27.52500,103
27.53333,103
27.54167,103
27.55000,103
27.55833,102
27.56667,102
27.57500,102
27.58333,102
27.59167,102
27.60000,103
27.60833,103
27.61667,103
27.62500,103
27.63333,103
27.64167,103
27.65000,102
27.65833,103
27.66667,103
27.67500,103
27.68333,103
27.69167,103
27.70000,103
27.70833,103
27.71667,103
27.72500,103
27.73333,103
27.74167,103
27.75000,102
27.75833,102
27.76667,102
27.77500,102
27.78333,101
27.79167,101
27.80000,101
27.80833,100
27.81667,100
27.82500,100
27.83333,99
27.84167,99
27.85000,99
27.85833,99
27.86667,98
27.87500,98
27.88333,97
27.89167,97
27.90000,96
27.90833,95
27.91667,94
27.92500,93
27.93333,92
27.94167,91
27.95000,91
27.95833,90
27.96667,89
27.97500,88
27.98333,87
27.99167,86
28.00000,84
28.00833,83
28.01667,81
28.02500,80
28.03333,78
28.04167,75
28.05000,74
28.05833,71
28.06667,69
28.07500,67
28.08333,65
28.09167,63
28.10000,60
28.10833,58
28.11667,55
28.12500,53
28.13333,50
28.14167,47
28.15000,44
28.15833,41
28.16667,38
28.17500,35
28.18333,32
28.19167,29
28.20000,26
28.20833,23
28.21667,20
28.22500,17
28.23333,14
28.24167,10
28.25000,7
28.25833,4
28.26667,1
28.27500,-2
28.28333,-5
28.29167,-9
28.30000,-12
28.30833,-15
28.31667,-18
28.32500,-21
28.33333,-24
28.34167,-26
28.35000,-28
28.35833,-30
28.36667,-33
28.37500,-35
28.38333,-37
28.39167,-39
28.40000,-40
28.40833,-42
28.41667,-43
28.42500,-44
28.43333,-45
28.44167,-46
28.45000,-47
28.45833,-48
28.46667,-48
28.47500,-49
28.48333,-49
28.49167,-48
28.50000,-48
28.50833,-47
28.51667,-46
28.52500,-45
28.53333,-44
28.54167,-44
28.55000,-42
28.55833,-41
28.56667,-39
28.57500,-37
28.58333,-34
28.59167,-32
28.60000,-30
28.60833,-28
28.61667,-26
28.62500,-23
28.63333,-21
28.64167,-19
28.65000,-16
28.65833,-14
28.66667,-11
28.67500,-8
28.68333,-6
28.69167,-3
28.70000,-0
28.70833,3
28.71667,6
28.72500,8
28.73333,11
28.74167,14
28.75000,17
28.75833,20
28.76667,23
28.77500,26
28.78333,28
28.79167,30
28.80000,33
28.80833,35
28.81667,37
28.82500,40
28.83333,42
28.84167,44
28.85000,47
28.85833,49
28.86667,52
28.87500,54
28.88333,56
28.89167,57
28.90000,59
28.90833,61
28.91667,63
28.92500,64
28.93333,66
28.94167,67
28.95000,69
28.95833,70
28.96667,72
28.97500,73
28.98333,75
28.99167,76
29.00000,78
29.00833,79
29.01667,80
29.02500,81
29.03333,82
29.04167,82
29.05000,83
29.05833,84
29.06667,85
29.07500,86
29.08333,87
29.09167,88
29.10000,89
29.10833,89
29.11667,90
29.12500,91
29.13333,91
29.14167,92
29.15000,93
29.15833,93
29.16667,93
29.17500,94
29.18333,95
29.19167,95
29.20000,95
29.20833,96
29.21667,96
29.22500,97
29.23333,97
29.24167,97
29.25000,97
29.25833,97
29.26667,97
29.27500,97
29.28333,97
29.29167,97
29.30000,97
29.30833,97
29.31667,98
29.32500,98
29.33333,99
29.34167,99
29.35000,99
29.35833,100
29.36667,100
29.37500,100
29.38333,99
29.39167,99
29.40000,99
29.40833,100
29.41667,100
29.42500,100
29.43333,100
29.44167,100
29.45000,99
29.45833,99
29.46667,99
29.47500,99
29.48333,99
29.49167,99
29.50000,99
29.50833,99
29.51667,100
29.52500,99
29.53333,99
29.54167,99
29.55000,99
29.55833,99
29.56667,99
29.57500,99
29.58333,99
29.59167,98
29.60000,98
29.60833,98
29.61667,98
29.62500,98
29.63333,97
29.64167,97
29.65000,96
29.65833,96
29.66667,95
29.67500,95
29.68333,95
29.69167,95
29.70000,94
29.70833,94
29.71667,93
29.72500,93
29.73333,93
29.74167,92
29.75000,91
29.75833,90
29.76667,89
29.77500,88
29.78333,88
29.79167,87
29.80000,86
29.80833,86
29.81667,85
29.82500,84
29.83333,83
29.84167,82
29.85000,81
29.85833,80
29.86667,79
29.87500,78
29.88333,78
29.89167,77
29.90000,76
29.90833,75
29.91667,74
29.92500,73
29.93333,72
29.94167,70
29.95000,69
29.95833,68
29.96667,67
29.97500,66
29.98333,65
29.99167,64
30.00000,63
30.00833,62
30.01667,61
30.02500,59
30.03333,58
30.04167,57
30.05000,56
30.05833,55
30.06667,54
30.07500,54
30.08333,53
30.09167,51
30.10000,50
30.10833,50
30.11667,50
30.12500,50
30.13333,49
30.14167,48
30.15000,48
30.15833,47
30.16667,47
30.17500,47
30.18333,46
30.19167,46
30.20000,46
30.20833,46
30.21667,46
30.22500,45
30.23333,45
30.24167,45
30.25000,45
30.25833,45
30.26667,45
30.27500,45
30.28333,46
30.29167,47
30.30000,47
30.30833,48
30.31667,48
30.32500,49
30.33333,50
30.34167,50
30.35000,51
30.35833,51
30.36667,52
30.37500,53
30.38333,53
30.39167,54
30.40000,55
30.40833,55
30.41667,56
30.42500,57
30.43333,59
30.44167,60
30.45000,60
30.45833,61
30.46667,62
30.47500,63
30.48333,64
30.49167,65
30.50000,66
30.50833,67
30.51667,68
30.52500,68
30.53333,69
30.54167,70
30.55000,71
30.55833,72
30.56667,73
30.57500,74
30.58333,75
30.59167,76
30.60000,77
30.60833,77
30.61667,78
30.62500,79
30.63333,80
30.64167,80
30.65000,81
30.65833,81
30.66667,82
30.67500,82
30.68333,82
30.69167,82
30.70000,83
30.70833,83
30.71667,83
30.72500,84
30.73333,84
30.74167,84
30.75000,84
30.75833,84
30.76667,84
30.77500,85
30.78333,86
30.79167,86
30.80000,86
30.80833,86
30.81667,86
30.82500,86
30.83333,86
30.84167,86
30.85000,86
30.85833,86
30.86667,86
30.87500,85
30.88333,85
30.89167,84
30.90000,84
30.90833,84
30.91667,84
30.92500,84
30.93333,83
30.94167,83
30.95000,83
30.95833,82
30.96667,82
30.97500,82
30.98333,82
30.99167,82
31.00000,82
31.00833,82
31.01667,82
31.02500,82
31.03333,82
31.04167,82
31.05000,82
31.05833,82
31.06667,82
31.07500,82
31.08333,82
31.09167,82
31.10000,82
31.10833,82
31.11667,82
31.12500,82
31.13333,82
31.14167,82
31.15000,82
31.15833,83
31.16667,83
31.17500,83
31.18333,83
31.19167,84
31.20000,84
31.20833,84
31.21667,85
31.22500,85
31.23333,85
31.24167,85
31.25000,86
31.25833,86
31.26667,86
31.27500,86
31.28333,87
31.29167,87
31.30000,88
31.30833,88
31.31667,89
31.32500,89
31.33333,90
31.34167,90
31.35000,91
31.35833,91
31.36667,92
31.37500,93
31.38333,93
31.39167,94
31.40000,94
31.40833,94
31.41667,94
31.42500,94
31.43333,94
31.44167,95
31.45000,96
31.45833,97
31.46667,97
31.47500,98
31.48333,99
31.49167,99
31.50000,100
31.50833,100
31.51667,101
31.52500,102
31.53333,102
31.54167,103
31.55000,103
31.55833,104
31.56667,105
31.57500,105
31.58333,105
31.59167,106
31.60000,106
31.60833,106
31.61667,106
31.62500,106
31.63333,107
31.64167,107
31.65000,107
31.65833,107
31.66667,108
31.67500,109
31.68333,109
31.69167,109
31.70000,109
31.70833,110
31.71667,110
31.72500,110
31.73333,110
31.74167,110
31.75000,110
31.75833,110
31.76667,110
31.77500,110
31.78333,110
31.79167,110
31.80000,110
31.80833,111
31.81667,111
31.82500,111
31.83333,112
31.84167,111
31.85000,111
31.85833,111
31.86667,111
31.87500,111
31.88333,111
31.89167,112
31.90000,112
31.90833,112
31.91667,112
31.92500,112
31.93333,111
31.94167,111
31.95000,111
31.95833,111
31.96667,110
31.97500,110
31.98333,109
31.99167,109
32.00000,109
32.00833,109
32.01667,109
32.02500,109
32.03333,109
32.04167,109
32.05000,109
32.05833,109
32.06667,109
32.07500,109
32.08333,109
32.09167,110
32.10000,109
32.10833,109
32.11667,109
32.12500,109
32.13333,109
32.14167,109
32.15000,109
32.15833,108
32.16667,108
32.17500,109
32.18333,109
32.19167,109
32.20000,110
32.20833,110
32.21667,109
32.22500,109
32.23333,109
32.24167,109
32.25000,108
32.25833,108
32.26667,108
32.27500,108
32.28333,108
32.29167,108
32.30000,108
32.30833,108
32.31667,108
32.32500,108
32.33333,108
32.34167,109
32.35000,109
32.35833,109
32.36667,108
32.37500,108
32.38333,108
32.39167,108
32.40000,108
32.40833,107
32.41667,107
32.42500,107
32.43333,107
32.44167,108
32.45000,108
32.45833,108
32.46667,108
32.47500,108
32.48333,108
32.49167,107
32.50000,107
32.50833,108
32.51667,108
32.52500,108
32.53333,108
32.54167,108
32.55000,108
32.55833,108
32.56667,108
32.57500,108
32.58333,107
32.59167,107
32.60000,107
32.60833,107
32.61667,107
32.62500,107
32.63333,107
32.64167,108
32.65000,108
32.65833,108
32.66667,109
32.67500,108
32.68333,108
32.69167,108
32.70000,108
32.70833,108
32.71667,108
32.72500,108
32.73333,108
32.74167,108
32.75000,108
32.75833,108
32.76667,109
32.77500,109
32.78333,109
32.79167,109
32.80000,109
32.80833,109
32.81667,109
32.82500,109
32.83333,109
32.84167,109
32.85000,108
32.85833,109
32.86667,109
32.87500,109
32.88333,109
32.89167,109
32.90000,109
32.90833,109
32.91667,108
32.92500,108
32.93333,108
32.94167,109
32.95000,109
32.95833,109
32.96667,109
32.97500,109
32.98333,109
32.99167,109
33.00000,110
33.00833,110
33.01667,110
33.02500,110
33.03333,109
33.04167,109
33.05000,109
33.05833,109
33.06667,109
33.07500,109
33.08333,109
33.09167,109
33.10000,109
33.10833,110
33.11667,110
33.12500,110
33.13333,110
33.14167,110
33.15000,111
33.15833,111
33.16667,111
33.17500,111
33.18333,111
33.19167,111
33.20000,111
33.20833,111
33.21667,111
33.22500,111
33.23333,110
33.24167,110
33.25000,110
33.25833,110
33.26667,111
33.27500,111
33.28333,111
33.29167,110
33.30000,110
33.30833,110
33.31667,110
33.32500,110
33.33333,110
33.34167,110
33.35000,110
33.35833,110
33.36667,110
33.37500,110
33.38333,110
33.39167,110
33.40000,110
33.40833,110
33.41667,110
33.42500,110
33.43333,110
33.44167,110
33.45000,110
33.45833,109
33.46667,109
33.47500,109
33.48333,109
33.49167,110
33.50000,110
33.50833,111
33.51667,111
33.52500,111
33.53333,111
33.54167,111
33.55000,111
33.55833,111
33.56667,111
33.57500,110
33.58333,110
33.59167,111
33.60000,111
33.60833,111
33.61667,111
33.62500,111
33.63333,111
33.64167,110
33.65000,110
33.65833,110
33.66667,110
33.67500,111
33.68333,111
33.69167,111
33.70000,110
33.70833,110
33.71667,110
33.72500,110
33.73333,110
33.74167,111
33.75000,111
33.75833,111
33.76667,111
33.77500,112
33.78333,111
33.79167,111
33.80000,111
33.80833,111
33.81667,111
33.82500,111
33.83333,111
33.84167,111
33.85000,111
33.85833,110
33.86667,110
33.87500,110
33.88333,110
33.89167,110
33.90000,110
33.90833,110
33.91667,110
33.92500,110
33.93333,110
33.94167,110
33.95000,110
33.95833,110
33.96667,110
33.97500,110
33.98333,110
33.99167,110
34.00000,110
34.00833,110
34.01667,110
34.02500,110
34.03333,110
34.04167,110
34.05000,110
34.05833,110
34.06667,110
34.07500,110
34.08333,111
34.09167,111
34.10000,111
34.10833,111
34.11667,111
34.12500,111
34.13333,111
34.14167,111
34.15000,111
34.15833,110
34.16667,110
34.17500,111
34.18333,111
34.19167,110
34.20000,110
34.20833,110
34.21667,110
34.22500,110
34.23333,110
34.24167,110
34.25000,110
34.25833,111
34.26667,111
34.27500,110
34.28333,110
34.29167,110
34.30000,110
34.30833,110
34.31667,111
34.32500,110
34.33333,110
34.34167,110
34.35000,110
34.35833,110
34.36667,110
34.37500,110
34.38333,109
34.39167,109
34.40000,110
34.40833,110
34.41667,110
34.42500,110
34.43333,110
34.44167,110
34.45000,110
34.45833,111
34.46667,111
34.47500,111
34.48333,111
34.49167,111
34.50000,111
34.50833,111
34.51667,111
34.52500,111
34.53333,111
34.54167,111
34.55000,112
34.55833,111
34.56667,111
34.57500,111
34.58333,110
34.59167,110
34.60000,111
34.60833,111
34.61667,111
34.62500,111
34.63333,111
34.64167,111
34.65000,111
34.65833,111
34.66667,112
34.67500,112
34.68333,112
34.69167,112
34.70000,112
34.70833,112
34.71667,111
34.72500,111
34.73333,111
34.74167,111
34.75000,111
34.75833,111
34.76667,111
34.77500,112
34.78333,112
34.79167,113
34.80000,113
34.80833,113
34.81667,113
34.82500,113
34.83333,113
34.84167,113
34.85000,113
34.85833,112
34.86667,112
34.87500,112
34.88333,112
34.89167,112
34.90000,112
34.90833,112
34.91667,112
34.92500,112
34.93333,112
34.94167,112
34.95000,112
34.95833,112
34.96667,112
34.97500,112
34.98333,112
34.99167,112
35.00000,113
35.00833,113
35.01667,113
35.02500,113
35.03333,113
35.04167,113
35.05000,113
35.05833,112
35.06667,112
35.07500,112
35.08333,112
35.09167,112
35.10000,112
35.10833,112
35.11667,112
35.12500,112
35.13333,113
35.14167,113
35.15000,113
35.15833,113
35.16667,114
35.17500,114
35.18333,114
35.19167,113
35.20000,113
35.20833,113
35.21667,113
35.22500,113
35.23333,114
35.24167,114
35.25000,114
35.25833,114
35.26667,113
35.27500,113
35.28333,113
35.29167,113
35.30000,113
35.30833,113
35.31667,113
35.32500,113
35.33333,113
35.34167,114
35.35000,113
35.35833,113
35.36667,113
35.37500,114
35.38333,114
35.39167,114
35.40000,114
35.40833,114
35.41667,115
35.42500,114
35.43333,114
35.44167,115
35.45000,115
35.45833,115
35.46667,115
35.47500,115
35.48333,115
35.49167,115
35.50000,115
35.50833,115
35.51667,115
35.52500,114
35.53333,114
35.54167,114
35.55000,114
35.55833,114
35.56667,114
35.57500,114
35.58333,114
35.59167,114
35.60000,115
35.60833,115
35.61667,115
35.62500,115
35.63333,115
35.64167,116
35.65000,116
35.65833,116
35.66667,115
35.67500,115
35.68333,115
35.69167,115
35.70000,115
35.70833,115
35.71667,115
35.72500,116
35.73333,116
35.74167,115
35.75000,115
35.75833,115
35.76667,115
35.77500,115
35.78333,115
35.79167,115
35.80000,115
35.80833,115
35.81667,115
35.82500,115
35.83333,115
35.84167,115
35.85000,115
35.85833,115
35.86667,115
35.87500,115
35.88333,115
35.89167,115
35.90000,115
35.90833,115
35.91667,115
35.92500,115
35.93333,115
35.94167,115
35.95000,116
35.95833,116
35.96667,116
35.97500,116
35.98333,116
35.99167,116
36.00000,115
36.00833,116
36.01667,116
36.02500,116
36.03333,115
36.04167,115
36.05000,114
36.05833,114
36.06667,114
36.07500,114
36.08333,114
36.09167,115
36.10000,115
36.10833,115
36.11667,115
36.12500,115
36.13333,115
36.14167,115
36.15000,115
36.15833,115
36.16667,115
36.17500,116
36.18333,116
36.19167,116
36.20000,116
36.20833,116
36.21667,116
36.22500,116
36.23333,116
36.24167,115
36.25000,115
36.25833,115
36.26667,115
36.27500,115
36.28333,115
36.29167,115
36.30000,114
36.30833,114
36.31667,114
36.32500,114
36.33333,114
36.34167,115
36.35000,115
36.35833,115
36.36667,115
36.37500,115
36.38333,115
36.39167,115
36.40000,115
36.40833,115
36.41667,115
36.42500,115
36.43333,115
36.44167,115
36.45000,116
36.45833,116
36.46667,116
36.47500,116
36.48333,116
36.49167,116
36.50000,116
36.50833,116
36.51667,116
36.52500,116
36.53333,116
36.54167,116
36.55000,116
36.55833,116
36.56667,116
36.57500,115
36.58333,115
36.59167,115
36.60000,115
36.60833,115
36.61667,115
36.62500,116
36.63333,116
36.64167,116
36.65000,116
36.65833,116
36.66667,116
36.67500,116
36.68333,116
36.69167,116
36.70000,116
36.70833,117
36.71667,117
36.72500,117
36.73333,117
36.74167,117
36.75000,117
36.75833,117
36.76667,116
36.77500,116
36.78333,117
36.79167,117
36.80000,117
36.80833,117
36.81667,117
36.82500,117
36.83333,117
36.84167,117
36.85000,118
36.85833,118
36.86667,118
36.87500,118
36.88333,118
36.89167,118
36.90000,118
36.90833,118
36.91667,118
36.92500,118
36.93333,118
36.94167,118
36.95000,118
36.95833,118
36.96667,118
36.97500,118
36.98333,118
36.99167,118
37.00000,118
37.00833,119
37.01667,119
37.02500,119
37.03333,119
37.04167,119
37.05000,118
37.05833,118
37.06667,118
37.07500,118
37.08333,118
37.09167,118
37.10000,118
37.10833,118
37.11667,118
37.12500,118
37.13333,118
37.14167,118
37.15000,118
37.15833,118
37.16667,118
37.17500,118
37.18333,118
37.19167,119
37.20000,119
37.20833,119
37.21667,119
37.22500,119
37.23333,119
37.24167,119
37.25000,119
37.25833,118
37.26667,118
37.27500,118
37.28333,118
37.29167,118
37.30000,118
37.30833,118
37.31667,118
37.32500,118
37.33333,118
37.34167,118
37.35000,119
37.35833,119
37.36667,119
37.37500,119
37.38333,119
37.39167,119
37.40000,119
37.40833,119
37.41667,120
37.42500,120
37.43333,120
37.44167,120
37.45000,120
37.45833,119
37.46667,119
37.47500,118
37.48333,118
37.49167,118
37.50000,118
37.50833,118
37.51667,119
37.52500,119
37.53333,119
37.54167,120
37.55000,120
37.55833,120
37.56667,120
37.57500,120
37.58333,120
37.59167,119
37.60000,119
37.60833,119
37.61667,119
37.62500,119
37.63333,119
37.64167,119
37.65000,119
37.65833,119
37.66667,119
37.67500,119
37.68333,119
37.69167,119
37.70000,119
37.70833,119
37.71667,119
37.72500,120
37.73333,120
37.74167,120
37.75000,120
37.75833,120
37.76667,120
37.77500,120
37.78333,120
37.79167,121
37.80000,121
37.80833,121
37.81667,121
37.82500,121
37.83333,120
37.84167,120
37.85000,120
37.85833,120
37.86667,120
37.87500,120
37.88333,121
37.89167,121
37.90000,121
37.90833,121
37.91667,121
37.92500,120
37.93333,120
37.94167,121
37.95000,120
37.95833,120
37.96667,120
37.97500,120
37.98333,120
37.99167,120
38.00000,120
38.00833,120
38.01667,121
38.02500,121
38.03333,121
38.04167,121
38.05000,121
38.05833,121
38.06667,120
38.07500,121
38.08333,121
38.09167,121
38.10000,121
38.10833,121
38.11667,121
38.12500,121
38.13333,121
38.14167,121
38.15000,121
38.15833,121
38.16667,121
38.17500,121
38.18333,121
38.19167,121
38.20000,121
38.20833,121
38.21667,121
38.22500,121
38.23333,120
38.24167,120
38.25000,120
38.25833,120
38.26667,121
38.27500,121
38.28333,121
38.29167,121
38.30000,121
38.30833,121
38.31667,121
38.32500,121
38.33333,121
38.34167,121
38.35000,121
38.35833,121
38.36667,121
38.37500,122
38.38333,122
38.39167,122
38.40000,122
38.40833,122
38.41667,122
38.42500,122
38.43333,121
38.44167,121
38.45000,120
38.45833,121
38.46667,121
38.47500,121
38.48333,121
38.49167,121
38.50000,121
38.50833,121
38.51667,121
38.52500,121
38.53333,121
38.54167,121
38.55000,121
38.55833,121
38.56667,121
38.57500,121
38.58333,121
38.59167,121
38.60000,121
38.60833,122
38.61667,122
38.62500,122
38.63333,122
38.64167,122
38.65000,122
38.65833,122
38.66667,122
38.67500,121
38.68333,121
38.69167,122
38.70000,122
38.70833,122
38.71667,121
38.72500,121
38.73333,121
38.74167,121
38.75000,121
38.75833,121
38.76667,121
38.77500,121
38.78333,121
38.79167,121
38.80000,121
38.80833,122
38.81667,122
38.82500,121
38.83333,121
38.84167,121
38.85000,121
38.85833,121
38.86667,122
38.87500,122
38.88333,122
38.89167,121
38.90000,121
38.90833,121
38.91667,122
38.92500,122
38.93333,122
38.94167,122
38.95000,122
38.95833,122
38.96667,122
38.97500,122
38.98333,122
38.99167,122
39.00000,122
39.00833,122
39.01667,122
39.02500,123
39.03333,123
39.04167,122
39.05000,122
39.05833,122
39.06667,122
39.07500,122
39.08333,122
39.09167,122
39.10000,122
39.10833,121
39.11667,121
39.12500,121
39.13333,121
39.14167,121
39.15000,121
39.15833,121
39.16667,121
39.17500,121
39.18333,121
39.19167,121
39.20000,121
39.20833,122
39.21667,122
39.22500,122
39.23333,122
39.24167,122
39.25000,122
39.25833,122
39.26667,123
39.27500,123
39.28333,122
39.29167,122
39.30000,122
39.30833,122
39.31667,122
39.32500,122
39.33333,122
39.34167,122
39.35000,122
39.35833,122
39.36667,122
39.37500,122
39.38333,123
39.39167,123
39.40000,123
39.40833,123
39.41667,123
39.42500,123
39.43333,123
39.44167,123
39.45000,122
39.45833,122
39.46667,122
39.47500,122
39.48333,122
39.49167,122
39.50000,122
39.50833,123
39.51667,123
39.52500,123
39.53333,123
39.54167,123
39.55000,123
39.55833,123
39.56667,122
39.57500,122
39.58333,122
39.59167,122
39.60000,123
39.60833,123
39.61667,123
39.62500,123
39.63333,124
39.64167,124
39.65000,124
39.65833,124
39.66667,124
39.67500,124
39.68333,124
39.69167,124
39.70000,124
39.70833,124
39.71667,124
39.72500,124
39.73333,124
39.74167,124
39.75000,124
39.75833,124
39.76667,124
39.77500,124
39.78333,123
39.79167,123
39.80000,123
39.80833,123
39.81667,123
39.82500,123
39.83333,123
39.84167,123
39.85000,123
39.85833,123
39.86667,123
39.87500,124
39.88333,124
39.89167,124
39.90000,124
39.90833,124
39.91667,123
39.92500,124
39.93333,124
39.94167,124
39.95000,123
39.95833,123
39.96667,124
39.97500,124
39.98333,124
39.99167,124
40.00000,123

