[Header]
Application Name,LabSolutions
Version,5.97 SP1
Data File Name,C:\Users\cremerlab\Desktop\griffin\2021-03-31_NCM3722_NCglucose_turnover\2021-03-31_NCM3722_turnover_batch_3312021_005_019.lcd
Output Date,4/1/2021
Output Time,8:40:38 AM

[File Information]
Type,Data File
Generated,4/1/2021 8:00:19 AM
Generated by,System Administrator
Modified,4/1/2021 8:40:38 AM
Modified by,System Administrator

[Sample Information]
Operator Name,System Administrator
Acquired,4/1/2021 8:00:38 AM
Sample Type,1:Standard
Level,5
Sample Name,2021-03-31_NCM3722_NCglucose_replicate_03_timepoint_005
Sample ID,005
ISTD Amount1,1
ISTD Amount2,1
ISTD Amount3,1
ISTD Amount4,1
ISTD Amount5,1
ISTD Amount6,1
ISTD Amount7,1
ISTD Amount8,1
ISTD Amount9,1
ISTD Amount10,1
ISTD Amount11,1
ISTD Amount12,1
ISTD Amount13,1
ISTD Amount14,1
ISTD Amount15,1
ISTD Amount16,1
ISTD Amount17,1
ISTD Amount18,1
ISTD Amount19,1
ISTD Amount20,1
ISTD Amount21,1
ISTD Amount22,1
ISTD Amount23,1
ISTD Amount24,1
ISTD Amount25,1
ISTD Amount26,1
ISTD Amount27,1
ISTD Amount28,1
ISTD Amount29,1
ISTD Amount30,1
ISTD Amount31,1
ISTD Amount32,1
Sample Amount,1
Dilution Factor,1
Vial#,32
Injection Volume,20

[Original Files]
Data File,C:\Users\cremerlab\Desktop\griffin\2021-03-31_NCM3722_NCglucose_turnover\2021-03-31_NCM3722_turnover_batch_3312021_005_019.lcd
Method File,C:\LabSolutions\Data\Project1\organicacidsetc2.lcm
Batch File,C:\Users\cremerlab\Desktop\griffin\2021-03-31_NCM3722_NCglucose_turnover\2021-03-31_NCM3722_turnover_batch.lcb
Report Format File,c:\LabSolutions\System\DEFAULT.lsr

[File Description]


[Configuration]
Instrument Name,HPLC-PC-Instrument1
Instrument #,1
Line #,1
# of Detectors,2
Detector ID,Detector A,Detector B
Detector Name,Detector A,Detector B
# of Channels,1,1

[Peak Table(Detector A)]
# of Peaks,0

[Peak Table(Detector B)]
# of Peaks,6
Peak#,R.Time,I.Time,F.Time,Area,Height,A/H,Conc.,Mark,ID#,Name,k',Plate #,Plate Ht.,Tailing,Resolution,Sep.Factor,Area Ratio,Height Ratio,Conc. %,Norm Conc.
1,11.038,10.758,12.350,881368,51211,17.211,0.000,   ,,,0.000,11048,13.577,1.411,0.000,0.000,0,0,0.000,0.000
2,15.019,14.108,15.342,2253314,91959,24.503,0.000,   ,,,0.361,8114,18.487,0.000,7.325,0.000,0,0,0.000,0.000
3,15.629,15.342,17.975,634893,26380,24.067,0.000, V ,,,0.416,9770,15.353,0.000,0.938,1.153,0,0,0.000,0.000
4,18.986,18.708,19.483,1532,71,21.483,0.000,   ,,,0.720,17888,8.386,1.259,5.593,1.731,0,0,0.000,0.000
5,25.050,24.600,25.642,5724,210,27.223,0.000,   ,,,1.269,18396,8.154,1.092,9.283,1.763,0,0,0.000,0.000
6,29.569,28.558,30.300,27875,403,69.168,0.000,   ,,,1.679,5567,26.945,0.850,3.889,1.322,0,0,0.000,0.000

[LC Chromatogram(Detector B-Ch1)]
Interval(msec),500
# of Points,4801
Start Time(min),0.000
End Time(min),40.000
Intensity Units,mV
Intensity Multiplier,0.001
R.Time (min),Intensity
0.00000,1
0.00833,1
0.01667,0
0.02500,1
0.03333,0
0.04167,-1
0.05000,-3
0.05833,-4
0.06667,-5
0.07500,-5
0.08333,-5
0.09167,-4
0.10000,-4
0.10833,-3
0.11667,-1
0.12500,-0
0.13333,0
0.14167,1
0.15000,1
0.15833,1
0.16667,2
0.17500,2
0.18333,2
0.19167,3
0.20000,2
0.20833,2
0.21667,2
0.22500,2
0.23333,2
0.24167,3
0.25000,4
0.25833,4
0.26667,5
0.27500,5
0.28333,5
0.29167,6
0.30000,6
0.30833,6
0.31667,5
0.32500,5
0.33333,4
0.34167,4
0.35000,3
0.35833,3
0.36667,3
0.37500,3
0.38333,2
0.39167,3
0.40000,3
0.40833,3
0.41667,3
0.42500,3
0.43333,2
0.44167,2
0.45000,2
0.45833,2
0.46667,2
0.47500,2
0.48333,2
0.49167,2
0.50000,2
0.50833,3
0.51667,3
0.52500,3
0.53333,4
0.54167,5
0.55000,6
0.55833,7
0.56667,8
0.57500,10
0.58333,11
0.59167,13
0.60000,14
0.60833,14
0.61667,14
0.62500,14
0.63333,13
0.64167,11
0.65000,9
0.65833,6
0.66667,3
0.67500,1
0.68333,-2
0.69167,-4
0.70000,-7
0.70833,-9
0.71667,-10
0.72500,-11
0.73333,-12
0.74167,-13
0.75000,-13
0.75833,-13
0.76667,-12
0.77500,-12
0.78333,-11
0.79167,-10
0.80000,-10
0.80833,-9
0.81667,-8
0.82500,-7
0.83333,-6
0.84167,-6
0.85000,-5
0.85833,-4
0.86667,-4
0.87500,-4
0.88333,-3
0.89167,-2
0.90000,-2
0.90833,-1
0.91667,-1
0.92500,-1
0.93333,-0
0.94167,0
0.95000,1
0.95833,1
0.96667,1
0.97500,2
0.98333,2
0.99167,3
1.00000,3
1.00833,3
1.01667,3
1.02500,3
1.03333,3
1.04167,3
1.05000,3
1.05833,3
1.06667,2
1.07500,2
1.08333,2
1.09167,2
1.10000,3
1.10833,3
1.11667,3
1.12500,3
1.13333,3
1.14167,4
1.15000,4
1.15833,4
1.16667,4
1.17500,3
1.18333,3
1.19167,3
1.20000,3
1.20833,3
1.21667,3
1.22500,3
1.23333,3
1.24167,3
1.25000,4
1.25833,4
1.26667,4
1.27500,4
1.28333,3
1.29167,3
1.30000,4
1.30833,4
1.31667,4
1.32500,3
1.33333,3
1.34167,3
1.35000,3
1.35833,3
1.36667,3
1.37500,3
1.38333,3
1.39167,3
1.40000,3
1.40833,3
1.41667,3
1.42500,3
1.43333,3
1.44167,3
1.45000,4
1.45833,4
1.46667,4
1.47500,3
1.48333,3
1.49167,3
1.50000,3
1.50833,3
1.51667,3
1.52500,4
1.53333,4
1.54167,4
1.55000,4
1.55833,4
1.56667,4
1.57500,4
1.58333,4
1.59167,5
1.60000,5
1.60833,5
1.61667,4
1.62500,4
1.63333,4
1.64167,4
1.65000,5
1.65833,5
1.66667,5
1.67500,5
1.68333,5
1.69167,5
1.70000,5
1.70833,5
1.71667,6
1.72500,6
1.73333,6
1.74167,6
1.75000,7
1.75833,7
1.76667,7
1.77500,7
1.78333,7
1.79167,7
1.80000,7
1.80833,7
1.81667,7
1.82500,7
1.83333,7
1.84167,7
1.85000,7
1.85833,8
1.86667,8
1.87500,8
1.88333,8
1.89167,8
1.90000,8
1.90833,8
1.91667,8
1.92500,8
1.93333,8
1.94167,8
1.95000,9
1.95833,9
1.96667,9
1.97500,9
1.98333,9
1.99167,9
2.00000,9
2.00833,9
2.01667,9
2.02500,8
2.03333,8
2.04167,8
2.05000,9
2.05833,9
2.06667,9
2.07500,9
2.08333,9
2.09167,9
2.10000,9
2.10833,9
2.11667,9
2.12500,9
2.13333,9
2.14167,9
2.15000,9
2.15833,9
2.16667,8
2.17500,9
2.18333,9
2.19167,9
2.20000,9
2.20833,9
2.21667,10
2.22500,9
2.23333,10
2.24167,10
2.25000,10
2.25833,10
2.26667,9
2.27500,9
2.28333,9
2.29167,8
2.30000,8
2.30833,8
2.31667,8
2.32500,8
2.33333,9
2.34167,8
2.35000,8
2.35833,8
2.36667,8
2.37500,8
2.38333,8
2.39167,8
2.40000,8
2.40833,7
2.41667,7
2.42500,8
2.43333,8
2.44167,8
2.45000,9
2.45833,9
2.46667,9
2.47500,9
2.48333,9
2.49167,9
2.50000,8
2.50833,8
2.51667,8
2.52500,8
2.53333,8
2.54167,8
2.55000,8
2.55833,8
2.56667,8
2.57500,8
2.58333,8
2.59167,8
2.60000,7
2.60833,7
2.61667,7
2.62500,7
2.63333,7
2.64167,7
2.65000,7
2.65833,7
2.66667,7
2.67500,7
2.68333,7
2.69167,7
2.70000,7
2.70833,6
2.71667,6
2.72500,6
2.73333,7
2.74167,7
2.75000,7
2.75833,7
2.76667,7
2.77500,7
2.78333,7
2.79167,7
2.80000,6
2.80833,6
2.81667,6
2.82500,7
2.83333,7
2.84167,7
2.85000,7
2.85833,7
2.86667,7
2.87500,7
2.88333,7
2.89167,7
2.90000,7
2.90833,7
2.91667,7
2.92500,7
2.93333,7
2.94167,7
2.95000,7
2.95833,7
2.96667,7
2.97500,7
2.98333,7
2.99167,7
3.00000,6
3.00833,6
3.01667,6
3.02500,7
3.03333,7
3.04167,7
3.05000,7
3.05833,7
3.06667,7
3.07500,7
3.08333,7
3.09167,7
3.10000,8
3.10833,7
3.11667,7
3.12500,7
3.13333,6
3.14167,6
3.15000,6
3.15833,6
3.16667,6
3.17500,7
3.18333,7
3.19167,7
3.20000,8
3.20833,8
3.21667,8
3.22500,8
3.23333,8
3.24167,8
3.25000,8
3.25833,8
3.26667,8
3.27500,8
3.28333,8
3.29167,7
3.30000,7
3.30833,7
3.31667,7
3.32500,7
3.33333,7
3.34167,7
3.35000,7
3.35833,7
3.36667,7
3.37500,7
3.38333,7
3.39167,7
3.40000,8
3.40833,8
3.41667,8
3.42500,9
3.43333,9
3.44167,8
3.45000,8
3.45833,8
3.46667,8
3.47500,8
3.48333,8
3.49167,8
3.50000,8
3.50833,8
3.51667,8
3.52500,8
3.53333,9
3.54167,9
3.55000,9
3.55833,9
3.56667,9
3.57500,9
3.58333,9
3.59167,9
3.60000,9
3.60833,9
3.61667,9
3.62500,9
3.63333,9
3.64167,9
3.65000,10
3.65833,10
3.66667,10
3.67500,10
3.68333,10
3.69167,10
3.70000,10
3.70833,9
3.71667,9
3.72500,9
3.73333,9
3.74167,9
3.75000,10
3.75833,10
3.76667,10
3.77500,10
3.78333,9
3.79167,9
3.80000,9
3.80833,9
3.81667,9
3.82500,10
3.83333,10
3.84167,10
3.85000,11
3.85833,11
3.86667,11
3.87500,11
3.88333,11
3.89167,11
3.90000,11
3.90833,11
3.91667,11
3.92500,11
3.93333,11
3.94167,11
3.95000,11
3.95833,12
3.96667,12
3.97500,12
3.98333,12
3.99167,12
4.00000,12
4.00833,12
4.01667,12
4.02500,12
4.03333,13
4.04167,13
4.05000,13
4.05833,13
4.06667,13
4.07500,12
4.08333,13
4.09167,13
4.10000,13
4.10833,13
4.11667,13
4.12500,13
4.13333,13
4.14167,13
4.15000,13
4.15833,12
4.16667,11
4.17500,11
4.18333,12
4.19167,12
4.20000,12
4.20833,12
4.21667,12
4.22500,12
4.23333,12
4.24167,12
4.25000,12
4.25833,12
4.26667,12
4.27500,12
4.28333,12
4.29167,12
4.30000,12
4.30833,12
4.31667,12
4.32500,13
4.33333,12
4.34167,12
4.35000,12
4.35833,11
4.36667,11
4.37500,11
4.38333,10
4.39167,10
4.40000,10
4.40833,9
4.41667,9
4.42500,9
4.43333,9
4.44167,10
4.45000,10
4.45833,10
4.46667,10
4.47500,10
4.48333,10
4.49167,10
4.50000,10
4.50833,10
4.51667,10
4.52500,10
4.53333,10
4.54167,10
4.55000,10
4.55833,10
4.56667,10
4.57500,11
4.58333,11
4.59167,11
4.60000,11
4.60833,11
4.61667,10
4.62500,10
4.63333,10
4.64167,10
4.65000,9
4.65833,9
4.66667,10
4.67500,10
4.68333,10
4.69167,10
4.70000,11
4.70833,11
4.71667,11
4.72500,11
4.73333,10
4.74167,10
4.75000,10
4.75833,10
4.76667,9
4.77500,9
4.78333,9
4.79167,10
4.80000,10
4.80833,10
4.81667,10
4.82500,10
4.83333,10
4.84167,10
4.85000,10
4.85833,10
4.86667,10
4.87500,10
4.88333,9
4.89167,9
4.90000,10
4.90833,10
4.91667,10
4.92500,10
4.93333,10
4.94167,10
4.95000,10
4.95833,10
4.96667,10
4.97500,10
4.98333,9
4.99167,9
5.00000,9
5.00833,9
5.01667,9
5.02500,9
5.03333,9
5.04167,9
5.05000,9
5.05833,9
5.06667,9
5.07500,10
5.08333,10
5.09167,10
5.10000,10
5.10833,10
5.11667,10
5.12500,10
5.13333,10
5.14167,10
5.15000,10
5.15833,10
5.16667,10
5.17500,9
5.18333,9
5.19167,9
5.20000,9
5.20833,9
5.21667,9
5.22500,9
5.23333,9
5.24167,9
5.25000,10
5.25833,10
5.26667,10
5.27500,10
5.28333,10
5.29167,10
5.30000,10
5.30833,10
5.31667,10
5.32500,10
5.33333,10
5.34167,10
5.35000,10
5.35833,10
5.36667,10
5.37500,10
5.38333,10
5.39167,10
5.40000,10
5.40833,10
5.41667,10
5.42500,10
5.43333,10
5.44167,10
5.45000,10
5.45833,11
5.46667,11
5.47500,11
5.48333,11
5.49167,11
5.50000,11
5.50833,11
5.51667,11
5.52500,11
5.53333,11
5.54167,11
5.55000,11
5.55833,11
5.56667,11
5.57500,11
5.58333,11
5.59167,11
5.60000,11
5.60833,11
5.61667,11
5.62500,11
5.63333,11
5.64167,11
5.65000,11
5.65833,12
5.66667,12
5.67500,11
5.68333,11
5.69167,11
5.70000,11
5.70833,11
5.71667,11
5.72500,11
5.73333,11
5.74167,11
5.75000,11
5.75833,11
5.76667,11
5.77500,11
5.78333,11
5.79167,11
5.80000,11
5.80833,11
5.81667,11
5.82500,10
5.83333,10
5.84167,10
5.85000,11
5.85833,11
5.86667,11
5.87500,12
5.88333,12
5.89167,12
5.90000,12
5.90833,12
5.91667,12
5.92500,13
5.93333,13
5.94167,13
5.95000,13
5.95833,13
5.96667,13
5.97500,12
5.98333,12
5.99167,12
6.00000,12
6.00833,12
6.01667,12
6.02500,12
6.03333,12
6.04167,12
6.05000,11
6.05833,11
6.06667,11
6.07500,11
6.08333,12
6.09167,12
6.10000,12
6.10833,12
6.11667,12
6.12500,12
6.13333,12
6.14167,12
6.15000,12
6.15833,12
6.16667,11
6.17500,11
6.18333,11
6.19167,11
6.20000,12
6.20833,12
6.21667,12
6.22500,12
6.23333,12
6.24167,12
6.25000,13
6.25833,13
6.26667,13
6.27500,13
6.28333,13
6.29167,13
6.30000,13
6.30833,13
6.31667,12
6.32500,12
6.33333,12
6.34167,12
6.35000,12
6.35833,12
6.36667,12
6.37500,12
6.38333,12
6.39167,12
6.40000,12
6.40833,12
6.41667,12
6.42500,11
6.43333,11
6.44167,11
6.45000,11
6.45833,11
6.46667,11
6.47500,12
6.48333,12
6.49167,12
6.50000,11
6.50833,11
6.51667,12
6.52500,12
6.53333,12
6.54167,12
6.55000,13
6.55833,13
6.56667,12
6.57500,12
6.58333,12
6.59167,12
6.60000,11
6.60833,11
6.61667,11
6.62500,11
6.63333,11
6.64167,11
6.65000,12
6.65833,12
6.66667,12
6.67500,13
6.68333,13
6.69167,13
6.70000,13
6.70833,12
6.71667,12
6.72500,12
6.73333,12
6.74167,12
6.75000,12
6.75833,13
6.76667,13
6.77500,13
6.78333,13
6.79167,13
6.80000,13
6.80833,13
6.81667,13
6.82500,13
6.83333,13
6.84167,13
6.85000,13
6.85833,13
6.86667,13
6.87500,13
6.88333,13
6.89167,12
6.90000,12
6.90833,12
6.91667,13
6.92500,14
6.93333,14
6.94167,14
6.95000,14
6.95833,14
6.96667,13
6.97500,13
6.98333,13
6.99167,13
7.00000,13
7.00833,13
7.01667,13
7.02500,13
7.03333,13
7.04167,13
7.05000,13
7.05833,12
7.06667,12
7.07500,12
7.08333,13
7.09167,13
7.10000,13
7.10833,13
7.11667,13
7.12500,13
7.13333,14
7.14167,14
7.15000,14
7.15833,14
7.16667,14
7.17500,14
7.18333,14
7.19167,13
7.20000,13
7.20833,13
7.21667,12
7.22500,12
7.23333,12
7.24167,12
7.25000,13
7.25833,13
7.26667,13
7.27500,12
7.28333,12
7.29167,13
7.30000,13
7.30833,13
7.31667,13
7.32500,13
7.33333,14
7.34167,14
7.35000,14
7.35833,14
7.36667,14
7.37500,14
7.38333,14
7.39167,14
7.40000,13
7.40833,13
7.41667,13
7.42500,13
7.43333,13
7.44167,13
7.45000,13
7.45833,13
7.46667,13
7.47500,13
7.48333,13
7.49167,13
7.50000,13
7.50833,13
7.51667,13
7.52500,13
7.53333,14
7.54167,14
7.55000,14
7.55833,14
7.56667,14
7.57500,14
7.58333,14
7.59167,13
7.60000,13
7.60833,13
7.61667,13
7.62500,13
7.63333,13
7.64167,13
7.65000,13
7.65833,14
7.66667,14
7.67500,14
7.68333,14
7.69167,14
7.70000,14
7.70833,14
7.71667,14
7.72500,14
7.73333,14
7.74167,14
7.75000,14
7.75833,14
7.76667,14
7.77500,14
7.78333,14
7.79167,14
7.80000,13
7.80833,13
7.81667,13
7.82500,13
7.83333,14
7.84167,14
7.85000,14
7.85833,14
7.86667,14
7.87500,13
7.88333,13
7.89167,14
7.90000,14
7.90833,13
7.91667,13
7.92500,13
7.93333,14
7.94167,13
7.95000,13
7.95833,13
7.96667,13
7.97500,14
7.98333,14
7.99167,14
8.00000,15
8.00833,14
8.01667,14
8.02500,14
8.03333,14
8.04167,14
8.05000,14
8.05833,14
8.06667,14
8.07500,14
8.08333,15
8.09167,15
8.10000,15
8.10833,15
8.11667,15
8.12500,15
8.13333,15
8.14167,15
8.15000,15
8.15833,15
8.16667,15
8.17500,15
8.18333,15
8.19167,15
8.20000,15
8.20833,14
8.21667,14
8.22500,14
8.23333,14
8.24167,14
8.25000,14
8.25833,14
8.26667,14
8.27500,14
8.28333,15
8.29167,14
8.30000,15
8.30833,15
8.31667,14
8.32500,14
8.33333,14
8.34167,15
8.35000,15
8.35833,15
8.36667,15
8.37500,15
8.38333,15
8.39167,15
8.40000,15
8.40833,14
8.41667,14
8.42500,14
8.43333,13
8.44167,13
8.45000,14
8.45833,14
8.46667,14
8.47500,15
8.48333,15
8.49167,15
8.50000,15
8.50833,15
8.51667,15
8.52500,15
8.53333,15
8.54167,15
8.55000,14
8.55833,15
8.56667,15
8.57500,15
8.58333,15
8.59167,15
8.60000,14
8.60833,14
8.61667,14
8.62500,14
8.63333,14
8.64167,14
8.65000,14
8.65833,14
8.66667,14
8.67500,14
8.68333,14
8.69167,14
8.70000,14
8.70833,14
8.71667,15
8.72500,15
8.73333,15
8.74167,15
8.75000,15
8.75833,15
8.76667,15
8.77500,15
8.78333,16
8.79167,16
8.80000,16
8.80833,16
8.81667,16
8.82500,16
8.83333,16
8.84167,15
8.85000,15
8.85833,15
8.86667,15
8.87500,15
8.88333,15
8.89167,15
8.90000,15
8.90833,15
8.91667,15
8.92500,15
8.93333,15
8.94167,16
8.95000,16
8.95833,16
8.96667,16
8.97500,16
8.98333,15
8.99167,15
9.00000,15
9.00833,15
9.01667,15
9.02500,15
9.03333,15
9.04167,15
9.05000,14
9.05833,14
9.06667,14
9.07500,14
9.08333,14
9.09167,14
9.10000,14
9.10833,14
9.11667,14
9.12500,14
9.13333,15
9.14167,15
9.15000,15
9.15833,15
9.16667,15
9.17500,15
9.18333,15
9.19167,16
9.20000,15
9.20833,15
9.21667,15
9.22500,15
9.23333,16
9.24167,16
9.25000,16
9.25833,15
9.26667,15
9.27500,15
9.28333,16
9.29167,16
9.30000,16
9.30833,16
9.31667,16
9.32500,16
9.33333,16
9.34167,16
9.35000,16
9.35833,16
9.36667,16
9.37500,16
9.38333,16
9.39167,15
9.40000,15
9.40833,15
9.41667,15
9.42500,15
9.43333,15
9.44167,15
9.45000,15
9.45833,15
9.46667,15
9.47500,15
9.48333,15
9.49167,16
9.50000,16
9.50833,15
9.51667,15
9.52500,15
9.53333,15
9.54167,15
9.55000,15
9.55833,15
9.56667,15
9.57500,15
9.58333,16
9.59167,16
9.60000,16
9.60833,16
9.61667,16
9.62500,16
9.63333,15
9.64167,15
9.65000,15
9.65833,16
9.66667,16
9.67500,16
9.68333,16
9.69167,16
9.70000,17
9.70833,17
9.71667,17
9.72500,17
9.73333,17
9.74167,17
9.75000,17
9.75833,17
9.76667,17
9.77500,17
9.78333,17
9.79167,16
9.80000,16
9.80833,17
9.81667,17
9.82500,16
9.83333,16
9.84167,16
9.85000,16
9.85833,16
9.86667,16
9.87500,17
9.88333,17
9.89167,17
9.90000,16
9.90833,16
9.91667,16
9.92500,16
9.93333,16
9.94167,16
9.95000,17
9.95833,17
9.96667,17
9.97500,17
9.98333,17
9.99167,18
10.00000,18
10.00833,18
10.01667,18
10.02500,18
10.03333,17
10.04167,17
10.05000,17
10.05833,17
10.06667,17
10.07500,17
10.08333,17
10.09167,17
10.10000,17
10.10833,17
10.11667,18
10.12500,18
10.13333,18
10.14167,18
10.15000,18
10.15833,18
10.16667,18
10.17500,18
10.18333,18
10.19167,18
10.20000,18
10.20833,18
10.21667,18
10.22500,18
10.23333,17
10.24167,17
10.25000,18
10.25833,18
10.26667,18
10.27500,18
10.28333,18
10.29167,19
10.30000,19
10.30833,19
10.31667,20
10.32500,21
10.33333,21
10.34167,22
10.35000,23
10.35833,24
10.36667,24
10.37500,25
10.38333,26
10.39167,27
10.40000,28
10.40833,28
10.41667,29
10.42500,30
10.43333,31
10.44167,31
10.45000,32
10.45833,32
10.46667,32
10.47500,32
10.48333,32
10.49167,32
10.50000,31
10.50833,30
10.51667,27
10.52500,24
10.53333,20
10.54167,13
10.55000,3
10.55833,-11
10.56667,-30
10.57500,-55
10.58333,-87
10.59167,-128
10.60000,-181
10.60833,-246
10.61667,-326
10.62500,-423
10.63333,-540
10.64167,-676
10.65000,-834
10.65833,-1013
10.66667,-1212
10.67500,-1430
10.68333,-1664
10.69167,-1909
10.70000,-2159
10.70833,-2407
10.71667,-2644
10.72500,-2861
10.73333,-3046
10.74167,-3186
10.75000,-3271
10.75833,-3285
10.76667,-3217
10.77500,-3052
10.78333,-2778
10.79167,-2385
10.80000,-1861
10.80833,-1196
10.81667,-383
10.82500,585
10.83333,1712
10.84167,3002
10.85000,4455
10.85833,6070
10.86667,7843
10.87500,9770
10.88333,11842
10.89167,14048
10.90000,16376
10.90833,18809
10.91667,21329
10.92500,23912
10.93333,26535
10.94167,29167
10.95000,31778
10.95833,34331
10.96667,36790
10.97500,39115
10.98333,41265
10.99167,43201
11.00000,44885
11.00833,46283
11.01667,47364
11.02500,48106
11.03333,48494
11.04167,48521
11.05000,48190
11.05833,47512
11.06667,46508
11.07500,45206
11.08333,43640
11.09167,41848
11.10000,39872
11.10833,37756
11.11667,35541
11.12500,33268
11.13333,30975
11.14167,28695
11.15000,26458
11.15833,24287
11.16667,22204
11.17500,20223
11.18333,18355
11.19167,16607
11.20000,14983
11.20833,13483
11.21667,12105
11.22500,10847
11.23333,9703
11.24167,8668
11.25000,7735
11.25833,6896
11.26667,6145
11.27500,5474
11.28333,4877
11.29167,4346
11.30000,3875
11.30833,3458
11.31667,3090
11.32500,2765
11.33333,2479
11.34167,2226
11.35000,2004
11.35833,1808
11.36667,1636
11.37500,1483
11.38333,1350
11.39167,1232
11.40000,1129
11.40833,1037
11.41667,956
11.42500,884
11.43333,821
11.44167,764
11.45000,714
11.45833,670
11.46667,630
11.47500,593
11.48333,560
11.49167,530
11.50000,503
11.50833,479
11.51667,457
11.52500,436
11.53333,418
11.54167,401
11.55000,385
11.55833,371
11.56667,357
11.57500,345
11.58333,333
11.59167,322
11.60000,312
11.60833,302
11.61667,292
11.62500,283
11.63333,275
11.64167,267
11.65000,260
11.65833,253
11.66667,247
11.67500,240
11.68333,234
11.69167,228
11.70000,223
11.70833,217
11.71667,212
11.72500,207
11.73333,203
11.74167,199
11.75000,195
11.75833,191
11.76667,187
11.77500,184
11.78333,180
11.79167,177
11.80000,174
11.80833,171
11.81667,169
11.82500,166
11.83333,164
11.84167,162
11.85000,160
11.85833,158
11.86667,156
11.87500,154
11.88333,153
11.89167,151
11.90000,149
11.90833,147
11.91667,146
11.92500,144
11.93333,143
11.94167,141
11.95000,140
11.95833,139
11.96667,139
11.97500,138
11.98333,137
11.99167,137
12.00000,135
12.00833,134
12.01667,133
12.02500,132
12.03333,131
12.04167,131
12.05000,130
12.05833,129
12.06667,128
12.07500,127
12.08333,127
12.09167,126
12.10000,125
12.10833,123
12.11667,122
12.12500,121
12.13333,120
12.14167,119
12.15000,118
12.15833,118
12.16667,117
12.17500,116
12.18333,116
12.19167,115
12.20000,114
12.20833,114
12.21667,113
12.22500,113
12.23333,112
12.24167,111
12.25000,110
12.25833,110
12.26667,109
12.27500,109
12.28333,108
12.29167,107
12.30000,107
12.30833,106
12.31667,105
12.32500,105
12.33333,104
12.34167,104
12.35000,104
12.35833,103
12.36667,103
12.37500,103
12.38333,102
12.39167,102
12.40000,102
12.40833,102
12.41667,102
12.42500,102
12.43333,102
12.44167,101
12.45000,101
12.45833,100
12.46667,100
12.47500,99
12.48333,98
12.49167,98
12.50000,98
12.50833,98
12.51667,97
12.52500,97
12.53333,97
12.54167,96
12.55000,96
12.55833,96
12.56667,95
12.57500,95
12.58333,94
12.59167,94
12.60000,93
12.60833,93
12.61667,92
12.62500,92
12.63333,92
12.64167,92
12.65000,91
12.65833,91
12.66667,91
12.67500,90
12.68333,90
12.69167,89
12.70000,89
12.70833,88
12.71667,88
12.72500,88
12.73333,87
12.74167,87
12.75000,87
12.75833,86
12.76667,86
12.77500,85
12.78333,85
12.79167,85
12.80000,85
12.80833,85
12.81667,85
12.82500,85
12.83333,85
12.84167,85
12.85000,85
12.85833,85
12.86667,84
12.87500,84
12.88333,84
12.89167,84
12.90000,84
12.90833,85
12.91667,85
12.92500,86
12.93333,86
12.94167,86
12.95000,86
12.95833,86
12.96667,86
12.97500,86
12.98333,86
12.99167,86
13.00000,86
13.00833,86
13.01667,86
13.02500,86
13.03333,86
13.04167,86
13.05000,86
13.05833,86
13.06667,86
13.07500,86
13.08333,86
13.09167,86
13.10000,86
13.10833,85
13.11667,85
13.12500,85
13.13333,85
13.14167,85
13.15000,85
13.15833,85
13.16667,85
13.17500,85
13.18333,84
13.19167,84
13.20000,84
13.20833,84
13.21667,83
13.22500,83
13.23333,83
13.24167,83
13.25000,83
13.25833,83
13.26667,82
13.27500,82
13.28333,81
13.29167,81
13.30000,81
13.30833,80
13.31667,80
13.32500,79
13.33333,78
13.34167,78
13.35000,77
13.35833,76
13.36667,75
13.37500,74
13.38333,74
13.39167,73
13.40000,72
13.40833,72
13.41667,71
13.42500,70
13.43333,69
13.44167,68
13.45000,67
13.45833,67
13.46667,66
13.47500,66
13.48333,65
13.49167,65
13.50000,64
13.50833,64
13.51667,63
13.52500,63
13.53333,62
13.54167,62
13.55000,61
13.55833,61
13.56667,60
13.57500,60
13.58333,60
13.59167,59
13.60000,59
13.60833,58
13.61667,58
13.62500,57
13.63333,57
13.64167,57
13.65000,57
13.65833,57
13.66667,57
13.67500,57
13.68333,56
13.69167,56
13.70000,56
13.70833,56
13.71667,56
13.72500,57
13.73333,57
13.74167,57
13.75000,56
13.75833,56
13.76667,56
13.77500,56
13.78333,55
13.79167,55
13.80000,55
13.80833,55
13.81667,54
13.82500,55
13.83333,55
13.84167,55
13.85000,54
13.85833,54
13.86667,55
13.87500,55
13.88333,56
13.89167,56
13.90000,57
13.90833,57
13.91667,57
13.92500,57
13.93333,57
13.94167,57
13.95000,57
13.95833,57
13.96667,57
13.97500,57
13.98333,58
13.99167,58
14.00000,58
14.00833,58
14.01667,59
14.02500,59
14.03333,59
14.04167,59
14.05000,59
14.05833,59
14.06667,60
14.07500,60
14.08333,61
14.09167,62
14.10000,63
14.10833,64
14.11667,65
14.12500,66
14.13333,67
14.14167,68
14.15000,70
14.15833,72
14.16667,74
14.17500,77
14.18333,80
14.19167,84
14.20000,88
14.20833,93
14.21667,99
14.22500,107
14.23333,116
14.24167,127
14.25000,141
14.25833,158
14.26667,179
14.27500,203
14.28333,233
14.29167,268
14.30000,310
14.30833,359
14.31667,417
14.32500,485
14.33333,565
14.34167,658
14.35000,765
14.35833,889
14.36667,1030
14.37500,1190
14.38333,1373
14.39167,1578
14.40000,1808
14.40833,2064
14.41667,2348
14.42500,2661
14.43333,3005
14.44167,3381
14.45000,3790
14.45833,4234
14.46667,4712
14.47500,5226
14.48333,5777
14.49167,6363
14.50000,6987
14.50833,7647
14.51667,8344
14.52500,9078
14.53333,9849
14.54167,10655
14.55000,11498
14.55833,12377
14.56667,13291
14.57500,14239
14.58333,15221
14.59167,16237
14.60000,17285
14.60833,18366
14.61667,19477
14.62500,20619
14.63333,21791
14.64167,22992
14.65000,24222
14.65833,25481
14.66667,26767
14.67500,28081
14.68333,29422
14.69167,30788
14.70000,32180
14.70833,33597
14.71667,35039
14.72500,36504
14.73333,37993
14.74167,39506
14.75000,41041
14.75833,42598
14.76667,44177
14.77500,45777
14.78333,47398
14.79167,49040
14.80000,50701
14.80833,52382
14.81667,54082
14.82500,55801
14.83333,57537
14.84167,59289
14.85000,61058
14.85833,62842
14.86667,64640
14.87500,66450
14.88333,68271
14.89167,70101
14.90000,71939
14.90833,73779
14.91667,75619
14.92500,77452
14.93333,79270
14.94167,81064
14.95000,82819
14.95833,84516
14.96667,86132
14.97500,87635
14.98333,88991
14.99167,90158
15.00000,91088
15.00833,91732
15.01667,92041
15.02500,91966
15.03333,91465
15.04167,90506
15.05000,89068
15.05833,87145
15.06667,84747
15.07500,81898
15.08333,78639
15.09167,75023
15.10000,71114
15.10833,66984
15.11667,62706
15.12500,58356
15.13333,54004
15.14167,49715
15.15000,45547
15.15833,41546
15.16667,37750
15.17500,34187
15.18333,30874
15.19167,27820
15.20000,25028
15.20833,22495
15.21667,20212
15.22500,18168
15.23333,16350
15.24167,14741
15.25000,13327
15.25833,12094
15.26667,11027
15.27500,10112
15.28333,9337
15.29167,8690
15.30000,8163
15.30833,7746
15.31667,7433
15.32500,7216
15.33333,7092
15.34167,7055
15.35000,7101
15.35833,7226
15.36667,7428
15.37500,7704
15.38333,8051
15.39167,8466
15.40000,8946
15.40833,9487
15.41667,10087
15.42500,10741
15.43333,11445
15.44167,12194
15.45000,12982
15.45833,13804
15.46667,14654
15.47500,15524
15.48333,16407
15.49167,17295
15.50000,18183
15.50833,19061
15.51667,19921
15.52500,20756
15.53333,21558
15.54167,22320
15.55000,23034
15.55833,23695
15.56667,24295
15.57500,24830
15.58333,25296
15.59167,25688
15.60000,26004
15.60833,26241
15.61667,26397
15.62500,26473
15.63333,26469
15.64167,26386
15.65000,26226
15.65833,25990
15.66667,25683
15.67500,25308
15.68333,24869
15.69167,24372
15.70000,23822
15.70833,23224
15.71667,22583
15.72500,21905
15.73333,21196
15.74167,20461
15.75000,19705
15.75833,18934
15.76667,18153
15.77500,17367
15.78333,16580
15.79167,15797
15.80000,15021
15.80833,14257
15.81667,13506
15.82500,12772
15.83333,12058
15.84167,11365
15.85000,10695
15.85833,10050
15.86667,9431
15.87500,8838
15.88333,8272
15.89167,7733
15.90000,7222
15.90833,6738
15.91667,6281
15.92500,5851
15.93333,5446
15.94167,5066
15.95000,4710
15.95833,4377
15.96667,4067
15.97500,3778
15.98333,3510
15.99167,3260
16.00000,3029
16.00833,2816
16.01667,2618
16.02500,2436
16.03333,2268
16.04167,2114
16.05000,1972
16.05833,1841
16.06667,1720
16.07500,1609
16.08333,1508
16.09167,1414
16.10000,1329
16.10833,1251
16.11667,1179
16.12500,1114
16.13333,1053
16.14167,999
16.15000,948
16.15833,902
16.16667,859
16.17500,821
16.18333,785
16.19167,752
16.20000,722
16.20833,694
16.21667,668
16.22500,645
16.23333,623
16.24167,603
16.25000,585
16.25833,568
16.26667,552
16.27500,537
16.28333,522
16.29167,509
16.30000,497
16.30833,486
16.31667,475
16.32500,465
16.33333,456
16.34167,447
16.35000,439
16.35833,432
16.36667,425
16.37500,418
16.38333,412
16.39167,405
16.40000,400
16.40833,394
16.41667,389
16.42500,384
16.43333,379
16.44167,375
16.45000,370
16.45833,366
16.46667,362
16.47500,358
16.48333,355
16.49167,351
16.50000,348
16.50833,344
16.51667,341
16.52500,338
16.53333,335
16.54167,332
16.55000,329
16.55833,326
16.56667,323
16.57500,321
16.58333,319
16.59167,316
16.60000,314
16.60833,312
16.61667,310
16.62500,308
16.63333,306
16.64167,304
16.65000,302
16.65833,300
16.66667,298
16.67500,296
16.68333,294
16.69167,292
16.70000,290
16.70833,288
16.71667,287
16.72500,285
16.73333,283
16.74167,282
16.75000,280
16.75833,279
16.76667,277
16.77500,276
16.78333,274
16.79167,272
16.80000,271
16.80833,269
16.81667,267
16.82500,266
16.83333,265
16.84167,264
16.85000,262
16.85833,261
16.86667,260
16.87500,258
16.88333,256
16.89167,255
16.90000,253
16.90833,251
16.91667,250
16.92500,248
16.93333,247
16.94167,245
16.95000,244
16.95833,242
16.96667,241
16.97500,240
16.98333,239
16.99167,238
17.00000,237
17.00833,236
17.01667,234
17.02500,233
17.03333,232
17.04167,231
17.05000,230
17.05833,229
17.06667,228
17.07500,227
17.08333,226
17.09167,225
17.10000,223
17.10833,222
17.11667,221
17.12500,220
17.13333,219
17.14167,218
17.15000,216
17.15833,215
17.16667,214
17.17500,213
17.18333,212
17.19167,211
17.20000,210
17.20833,209
17.21667,208
17.22500,207
17.23333,206
17.24167,205
17.25000,204
17.25833,203
17.26667,202
17.27500,201
17.28333,200
17.29167,199
17.30000,198
17.30833,197
17.31667,195
17.32500,194
17.33333,194
17.34167,193
17.35000,192
17.35833,191
17.36667,190
17.37500,189
17.38333,188
17.39167,187
17.40000,186
17.40833,185
17.41667,185
17.42500,184
17.43333,184
17.44167,183
17.45000,182
17.45833,181
17.46667,180
17.47500,179
17.48333,178
17.49167,178
17.50000,177
17.50833,176
17.51667,176
17.52500,175
17.53333,174
17.54167,173
17.55000,172
17.55833,171
17.56667,170
17.57500,169
17.58333,169
17.59167,168
17.60000,168
17.60833,167
17.61667,166
17.62500,166
17.63333,165
17.64167,165
17.65000,164
17.65833,163
17.66667,162
17.67500,161
17.68333,160
17.69167,160
17.70000,159
17.70833,158
17.71667,158
17.72500,157
17.73333,156
17.74167,156
17.75000,155
17.75833,154
17.76667,153
17.77500,152
17.78333,152
17.79167,151
17.80000,151
17.80833,150
17.81667,149
17.82500,148
17.83333,148
17.84167,148
17.85000,147
17.85833,147
17.86667,146
17.87500,146
17.88333,145
17.89167,144
17.90000,143
17.90833,142
17.91667,142
17.92500,141
17.93333,141
17.94167,140
17.95000,140
17.95833,139
17.96667,139
17.97500,138
17.98333,138
17.99167,138
18.00000,137
18.00833,136
18.01667,136
18.02500,136
18.03333,135
18.04167,135
18.05000,134
18.05833,134
18.06667,133
18.07500,133
18.08333,132
18.09167,132
18.10000,132
18.10833,131
18.11667,131
18.12500,130
18.13333,129
18.14167,129
18.15000,128
18.15833,127
18.16667,127
18.17500,126
18.18333,125
18.19167,124
18.20000,124
18.20833,123
18.21667,123
18.22500,122
18.23333,122
18.24167,122
18.25000,122
18.25833,121
18.26667,121
18.27500,120
18.28333,120
18.29167,120
18.30000,119
18.30833,119
18.31667,118
18.32500,118
18.33333,117
18.34167,117
18.35000,116
18.35833,116
18.36667,115
18.37500,115
18.38333,115
18.39167,114
18.40000,114
18.40833,114
18.41667,113
18.42500,113
18.43333,112
18.44167,112
18.45000,111
18.45833,111
18.46667,110
18.47500,110
18.48333,110
18.49167,110
18.50000,110
18.50833,109
18.51667,109
18.52500,108
18.53333,108
18.54167,107
18.55000,107
18.55833,106
18.56667,106
18.57500,106
18.58333,106
18.59167,106
18.60000,105
18.60833,105
18.61667,105
18.62500,105
18.63333,105
18.64167,105
18.65000,106
18.65833,106
18.66667,107
18.67500,108
18.68333,108
18.69167,109
18.70000,110
18.70833,111
18.71667,113
18.72500,114
18.73333,116
18.74167,117
18.75000,119
18.75833,121
18.76667,122
18.77500,124
18.78333,126
18.79167,128
18.80000,130
18.80833,132
18.81667,135
18.82500,137
18.83333,140
18.84167,143
18.85000,145
18.85833,148
18.86667,150
18.87500,153
18.88333,156
18.89167,158
18.90000,161
18.90833,163
18.91667,164
18.92500,166
18.93333,168
18.94167,169
18.95000,170
18.95833,170
18.96667,171
18.97500,171
18.98333,171
18.99167,171
19.00000,171
19.00833,171
19.01667,170
19.02500,169
19.03333,169
19.04167,168
19.05000,167
19.05833,165
19.06667,164
19.07500,162
19.08333,160
19.09167,157
19.10000,155
19.10833,153
19.11667,150
19.12500,147
19.13333,144
19.14167,142
19.15000,139
19.15833,136
19.16667,133
19.17500,130
19.18333,128
19.19167,125
19.20000,123
19.20833,121
19.21667,118
19.22500,116
19.23333,114
19.24167,111
19.25000,109
19.25833,107
19.26667,105
19.27500,103
19.28333,102
19.29167,100
19.30000,98
19.30833,96
19.31667,95
19.32500,94
19.33333,93
19.34167,92
19.35000,91
19.35833,90
19.36667,89
19.37500,88
19.38333,87
19.39167,86
19.40000,85
19.40833,85
19.41667,84
19.42500,83
19.43333,83
19.44167,82
19.45000,82
19.45833,81
19.46667,80
19.47500,80
19.48333,80
19.49167,80
19.50000,79
19.50833,79
19.51667,79
19.52500,78
19.53333,78
19.54167,78
19.55000,78
19.55833,77
19.56667,77
19.57500,77
19.58333,77
19.59167,76
19.60000,76
19.60833,76
19.61667,76
19.62500,76
19.63333,75
19.64167,75
19.65000,75
19.65833,74
19.66667,74
19.67500,74
19.68333,74
19.69167,74
19.70000,74
19.70833,73
19.71667,73
19.72500,73
19.73333,73
19.74167,73
19.75000,73
19.75833,73
19.76667,73
19.77500,73
19.78333,72
19.79167,72
19.80000,72
19.80833,71
19.81667,71
19.82500,71
19.83333,70
19.84167,70
19.85000,70
19.85833,70
19.86667,70
19.87500,69
19.88333,69
19.89167,69
19.90000,69
19.90833,69
19.91667,68
19.92500,68
19.93333,69
19.94167,69
19.95000,69
19.95833,69
19.96667,69
19.97500,69
19.98333,69
19.99167,68
20.00000,68
20.00833,68
20.01667,68
20.02500,67
20.03333,67
20.04167,67
20.05000,67
20.05833,67
20.06667,67
20.07500,67
20.08333,67
20.09167,66
20.10000,66
20.10833,66
20.11667,66
20.12500,66
20.13333,66
20.14167,65
20.15000,65
20.15833,65
20.16667,65
20.17500,65
20.18333,65
20.19167,65
20.20000,65
20.20833,64
20.21667,64
20.22500,64
20.23333,64
20.24167,64
20.25000,64
20.25833,64
20.26667,64
20.27500,63
20.28333,63
20.29167,63
20.30000,63
20.30833,63
20.31667,63
20.32500,63
20.33333,63
20.34167,64
20.35000,63
20.35833,63
20.36667,63
20.37500,63
20.38333,63
20.39167,63
20.40000,63
20.40833,62
20.41667,62
20.42500,62
20.43333,61
20.44167,61
20.45000,61
20.45833,61
20.46667,61
20.47500,61
20.48333,61
20.49167,61
20.50000,61
20.50833,61
20.51667,61
20.52500,61
20.53333,60
20.54167,60
20.55000,60
20.55833,60
20.56667,60
20.57500,60
20.58333,60
20.59167,61
20.60000,61
20.60833,60
20.61667,60
20.62500,60
20.63333,59
20.64167,59
20.65000,59
20.65833,59
20.66667,58
20.67500,58
20.68333,58
20.69167,59
20.70000,59
20.70833,58
20.71667,58
20.72500,58
20.73333,58
20.74167,59
20.75000,59
20.75833,59
20.76667,59
20.77500,59
20.78333,58
20.79167,58
20.80000,58
20.80833,57
20.81667,57
20.82500,57
20.83333,57
20.84167,57
20.85000,57
20.85833,57
20.86667,57
20.87500,57
20.88333,57
20.89167,57
20.90000,56
20.90833,56
20.91667,56
20.92500,55
20.93333,55
20.94167,55
20.95000,55
20.95833,55
20.96667,55
20.97500,55
20.98333,55
20.99167,55
21.00000,55
21.00833,55
21.01667,55
21.02500,54
21.03333,54
21.04167,54
21.05000,54
21.05833,54
21.06667,54
21.07500,54
21.08333,54
21.09167,55
21.10000,55
21.10833,55
21.11667,55
21.12500,55
21.13333,55
21.14167,55
21.15000,55
21.15833,55
21.16667,54
21.17500,54
21.18333,54
21.19167,54
21.20000,54
21.20833,54
21.21667,54
21.22500,53
21.23333,54
21.24167,53
21.25000,53
21.25833,53
21.26667,53
21.27500,53
21.28333,52
21.29167,52
21.30000,52
21.30833,52
21.31667,53
21.32500,53
21.33333,53
21.34167,53
21.35000,53
21.35833,53
21.36667,54
21.37500,54
21.38333,54
21.39167,54
21.40000,54
21.40833,54
21.41667,54
21.42500,54
21.43333,53
21.44167,53
21.45000,52
21.45833,52
21.46667,52
21.47500,52
21.48333,52
21.49167,52
21.50000,53
21.50833,53
21.51667,53
21.52500,53
21.53333,53
21.54167,53
21.55000,53
21.55833,53
21.56667,53
21.57500,53
21.58333,53
21.59167,53
21.60000,54
21.60833,54
21.61667,54
21.62500,54
21.63333,53
21.64167,53
21.65000,54
21.65833,54
21.66667,54
21.67500,54
21.68333,54
21.69167,54
21.70000,54
21.70833,54
21.71667,54
21.72500,55
21.73333,55
21.74167,55
21.75000,55
21.75833,55
21.76667,55
21.77500,56
21.78333,56
21.79167,56
21.80000,56
21.80833,56
21.81667,56
21.82500,56
21.83333,56
21.84167,56
21.85000,56
21.85833,56
21.86667,56
21.87500,55
21.88333,55
21.89167,55
21.90000,55
21.90833,55
21.91667,55
21.92500,55
21.93333,55
21.94167,56
21.95000,56
21.95833,56
21.96667,56
21.97500,56
21.98333,56
21.99167,56
22.00000,56
22.00833,56
22.01667,56
22.02500,56
22.03333,56
22.04167,56
22.05000,56
22.05833,55
22.06667,55
22.07500,54
22.08333,54
22.09167,54
22.10000,54
22.10833,54
22.11667,54
22.12500,54
22.13333,54
22.14167,54
22.15000,54
22.15833,53
22.16667,53
22.17500,53
22.18333,53
22.19167,53
22.20000,53
22.20833,53
22.21667,53
22.22500,53
22.23333,53
22.24167,53
22.25000,53
22.25833,52
22.26667,52
22.27500,51
22.28333,50
22.29167,50
22.30000,50
22.30833,50
22.31667,50
22.32500,50
22.33333,50
22.34167,50
22.35000,50
22.35833,50
22.36667,50
22.37500,51
22.38333,51
22.39167,51
22.40000,50
22.40833,50
22.41667,50
22.42500,50
22.43333,50
22.44167,50
22.45000,50
22.45833,50
22.46667,50
22.47500,50
22.48333,50
22.49167,50
22.50000,50
22.50833,50
22.51667,50
22.52500,50
22.53333,49
22.54167,49
22.55000,49
22.55833,49
22.56667,49
22.57500,49
22.58333,50
22.59167,50
22.60000,50
22.60833,50
22.61667,50
22.62500,50
22.63333,50
22.64167,50
22.65000,50
22.65833,50
22.66667,50
22.67500,50
22.68333,50
22.69167,49
22.70000,49
22.70833,49
22.71667,49
22.72500,49
22.73333,50
22.74167,50
22.75000,50
22.75833,50
22.76667,50
22.77500,50
22.78333,51
22.79167,51
22.80000,52
22.80833,52
22.81667,52
22.82500,51
22.83333,51
22.84167,51
22.85000,51
22.85833,51
22.86667,51
22.87500,51
22.88333,52
22.89167,52
22.90000,52
22.90833,52
22.91667,53
22.92500,53
22.93333,53
22.94167,54
22.95000,54
22.95833,54
22.96667,55
22.97500,55
22.98333,56
22.99167,56
23.00000,57
23.00833,57
23.01667,58
23.02500,58
23.03333,59
23.04167,60
23.05000,61
23.05833,62
23.06667,62
23.07500,63
23.08333,63
23.09167,63
23.10000,64
23.10833,64
23.11667,65
23.12500,65
23.13333,66
23.14167,66
23.15000,67
23.15833,67
23.16667,68
23.17500,68
23.18333,68
23.19167,69
23.20000,69
23.20833,69
23.21667,69
23.22500,69
23.23333,69
23.24167,69
23.25000,70
23.25833,70
23.26667,69
23.27500,69
23.28333,69
23.29167,68
23.30000,68
23.30833,67
23.31667,67
23.32500,66
23.33333,66
23.34167,65
23.35000,64
23.35833,64
23.36667,64
23.37500,64
23.38333,64
23.39167,63
23.40000,63
23.40833,63
23.41667,62
23.42500,62
23.43333,61
23.44167,60
23.45000,59
23.45833,59
23.46667,58
23.47500,57
23.48333,56
23.49167,56
23.50000,55
23.50833,55
23.51667,54
23.52500,54
23.53333,54
23.54167,54
23.55000,53
23.55833,53
23.56667,53
23.57500,53
23.58333,53
23.59167,52
23.60000,52
23.60833,52
23.61667,51
23.62500,51
23.63333,51
23.64167,51
23.65000,50
23.65833,50
23.66667,50
23.67500,50
23.68333,49
23.69167,49
23.70000,49
23.70833,50
23.71667,50
23.72500,50
23.73333,50
23.74167,50
23.75000,50
23.75833,49
23.76667,49
23.77500,49
23.78333,49
23.79167,49
23.80000,49
23.80833,49
23.81667,49
23.82500,49
23.83333,49
23.84167,49
23.85000,49
23.85833,50
23.86667,50
23.87500,49
23.88333,49
23.89167,49
23.90000,49
23.90833,48
23.91667,48
23.92500,48
23.93333,48
23.94167,48
23.95000,48
23.95833,49
23.96667,49
23.97500,49
23.98333,49
23.99167,49
24.00000,49
24.00833,49
24.01667,49
24.02500,49
24.03333,49
24.04167,50
24.05000,50
24.05833,50
24.06667,50
24.07500,50
24.08333,50
24.09167,50
24.10000,50
24.10833,50
24.11667,50
24.12500,50
24.13333,50
24.14167,49
24.15000,49
24.15833,49
24.16667,49
24.17500,49
24.18333,48
24.19167,48
24.20000,48
24.20833,49
24.21667,49
24.22500,49
24.23333,50
24.24167,50
24.25000,50
24.25833,50
24.26667,51
24.27500,51
24.28333,51
24.29167,50
24.30000,50
24.30833,50
24.31667,50
24.32500,50
24.33333,50
24.34167,50
24.35000,50
24.35833,50
24.36667,51
24.37500,51
24.38333,51
24.39167,51
24.40000,51
24.40833,51
24.41667,51
24.42500,51
24.43333,51
24.44167,51
24.45000,52
24.45833,52
24.46667,52
24.47500,52
24.48333,52
24.49167,52
24.50000,52
24.50833,52
24.51667,53
24.52500,53
24.53333,54
24.54167,55
24.55000,55
24.55833,56
24.56667,57
24.57500,58
24.58333,58
24.59167,59
24.60000,61
24.60833,62
24.61667,63
24.62500,65
24.63333,66
24.64167,68
24.65000,70
24.65833,72
24.66667,75
24.67500,77
24.68333,79
24.69167,82
24.70000,85
24.70833,88
24.71667,91
24.72500,95
24.73333,99
24.74167,103
24.75000,107
24.75833,111
24.76667,116
24.77500,121
24.78333,126
24.79167,131
24.80000,136
24.80833,142
24.81667,147
24.82500,153
24.83333,159
24.84167,165
24.85000,171
24.85833,177
24.86667,183
24.87500,189
24.88333,195
24.89167,201
24.90000,206
24.90833,212
24.91667,217
24.92500,223
24.93333,228
24.94167,233
24.95000,238
24.95833,242
24.96667,247
24.97500,251
24.98333,255
24.99167,258
25.00000,261
25.00833,263
25.01667,265
25.02500,267
25.03333,268
25.04167,269
25.05000,269
25.05833,269
25.06667,269
25.07500,268
25.08333,266
25.09167,265
25.10000,263
25.10833,260
25.11667,257
25.12500,254
25.13333,251
25.14167,247
25.15000,242
25.15833,238
25.16667,233
25.17500,228
25.18333,223
25.19167,218
25.20000,213
25.20833,208
25.21667,202
25.22500,197
25.23333,191
25.24167,185
25.25000,180
25.25833,174
25.26667,169
25.27500,164
25.28333,159
25.29167,154
25.30000,148
25.30833,143
25.31667,139
25.32500,134
25.33333,129
25.34167,125
25.35000,120
25.35833,116
25.36667,112
25.37500,108
25.38333,105
25.39167,102
25.40000,99
25.40833,96
25.41667,93
25.42500,90
25.43333,88
25.44167,85
25.45000,83
25.45833,81
25.46667,78
25.47500,76
25.48333,75
25.49167,73
25.50000,72
25.50833,71
25.51667,69
25.52500,67
25.53333,66
25.54167,65
25.55000,64
25.55833,63
25.56667,62
25.57500,61
25.58333,61
25.59167,60
25.60000,60
25.60833,59
25.61667,59
25.62500,58
25.63333,58
25.64167,57
25.65000,57
25.65833,57
25.66667,57
25.67500,57
25.68333,56
25.69167,56
25.70000,56
25.70833,56
25.71667,55
25.72500,55
25.73333,55
25.74167,54
25.75000,54
25.75833,54
25.76667,54
25.77500,54
25.78333,54
25.79167,54
25.80000,54
25.80833,54
25.81667,55
25.82500,55
25.83333,54
25.84167,54
25.85000,54
25.85833,54
25.86667,55
25.87500,55
25.88333,54
25.89167,54
25.90000,54
25.90833,54
25.91667,55
25.92500,55
25.93333,55
25.94167,55
25.95000,55
25.95833,55
25.96667,55
25.97500,55
25.98333,55
25.99167,55
26.00000,55
26.00833,55
26.01667,54
26.02500,55
26.03333,55
26.04167,55
26.05000,55
26.05833,55
26.06667,55
26.07500,55
26.08333,55
26.09167,55
26.10000,55
26.10833,55
26.11667,55
26.12500,55
26.13333,55
26.14167,55
26.15000,55
26.15833,55
26.16667,54
26.17500,54
26.18333,54
26.19167,54
26.20000,54
26.20833,54
26.21667,54
26.22500,54
26.23333,54
26.24167,55
26.25000,55
26.25833,55
26.26667,55
26.27500,55
26.28333,55
26.29167,56
26.30000,55
26.30833,55
26.31667,55
26.32500,55
26.33333,55
26.34167,55
26.35000,55
26.35833,55
26.36667,55
26.37500,55
26.38333,55
26.39167,54
26.40000,55
26.40833,54
26.41667,54
26.42500,54
26.43333,54
26.44167,54
26.45000,54
26.45833,55
26.46667,55
26.47500,55
26.48333,55
26.49167,55
26.50000,55
26.50833,55
26.51667,55
26.52500,55
26.53333,55
26.54167,55
26.55000,55
26.55833,55
26.56667,55
26.57500,55
26.58333,55
26.59167,55
26.60000,55
26.60833,55
26.61667,54
26.62500,55
26.63333,55
26.64167,55
26.65000,55
26.65833,55
26.66667,55
26.67500,55
26.68333,56
26.69167,56
26.70000,55
26.70833,55
26.71667,55
26.72500,55
26.73333,55
26.74167,55
26.75000,55
26.75833,55
26.76667,56
26.77500,56
26.78333,57
26.79167,57
26.80000,56
26.80833,56
26.81667,56
26.82500,56
26.83333,55
26.84167,56
26.85000,56
26.85833,56
26.86667,56
26.87500,56
26.88333,56
26.89167,56
26.90000,56
26.90833,57
26.91667,57
26.92500,57
26.93333,57
26.94167,57
26.95000,57
26.95833,57
26.96667,57
26.97500,56
26.98333,56
26.99167,56
27.00000,57
27.00833,57
27.01667,57
27.02500,57
27.03333,56
27.04167,56
27.05000,56
27.05833,56
27.06667,56
27.07500,56
27.08333,57
27.09167,57
27.10000,57
27.10833,58
27.11667,58
27.12500,58
27.13333,58
27.14167,58
27.15000,58
27.15833,58
27.16667,58
27.17500,58
27.18333,57
27.19167,57
27.20000,57
27.20833,57
27.21667,58
27.22500,58
27.23333,57
27.24167,57
27.25000,57
27.25833,57
27.26667,57
27.27500,57
27.28333,57
27.29167,57
27.30000,57
27.30833,58
27.31667,58
27.32500,59
27.33333,59
27.34167,59
27.35000,59
27.35833,59
27.36667,59
27.37500,59
27.38333,59
27.39167,59
27.40000,59
27.40833,59
27.41667,59
27.42500,59
27.43333,59
27.44167,59
27.45000,59
27.45833,59
27.46667,59
27.47500,59
27.48333,58
27.49167,58
27.50000,58
27.50833,58
27.51667,59
27.52500,59
27.53333,60
27.54167,59
27.55000,59
27.55833,59
27.56667,59
27.57500,59
27.58333,60
27.59167,60
27.60000,60
27.60833,60
27.61667,60
27.62500,60
27.63333,60
27.64167,59
27.65000,59
27.65833,59
27.66667,59
27.67500,58
27.68333,58
27.69167,57
27.70000,57
27.70833,56
27.71667,56
27.72500,55
27.73333,55
27.74167,55
27.75000,54
27.75833,54
27.76667,53
27.77500,52
27.78333,52
27.79167,51
27.80000,50
27.80833,49
27.81667,48
27.82500,46
27.83333,45
27.84167,43
27.85000,41
27.85833,39
27.86667,37
27.87500,35
27.88333,32
27.89167,30
27.90000,27
27.90833,24
27.91667,21
27.92500,17
27.93333,14
27.94167,9
27.95000,5
27.95833,0
27.96667,-5
27.97500,-10
27.98333,-15
27.99167,-21
28.00000,-27
28.00833,-34
28.01667,-41
28.02500,-48
28.03333,-56
28.04167,-65
28.05000,-74
28.05833,-83
28.06667,-93
28.07500,-103
28.08333,-114
28.09167,-125
28.10000,-137
28.10833,-149
28.11667,-161
28.12500,-174
28.13333,-188
28.14167,-201
28.15000,-216
28.15833,-230
28.16667,-245
28.17500,-260
28.18333,-276
28.19167,-292
28.20000,-308
28.20833,-325
28.21667,-342
28.22500,-359
28.23333,-376
28.24167,-394
28.25000,-412
28.25833,-430
28.26667,-449
28.27500,-467
28.28333,-484
28.29167,-502
28.30000,-520
28.30833,-538
28.31667,-555
28.32500,-573
28.33333,-590
28.34167,-607
28.35000,-623
28.35833,-639
28.36667,-654
28.37500,-669
28.38333,-684
28.39167,-698
28.40000,-711
28.40833,-724
28.41667,-736
28.42500,-747
28.43333,-758
28.44167,-768
28.45000,-777
28.45833,-786
28.46667,-794
28.47500,-800
28.48333,-807
28.49167,-812
28.50000,-817
28.50833,-821
28.51667,-824
28.52500,-826
28.53333,-828
28.54167,-828
28.55000,-828
28.55833,-827
28.56667,-826
28.57500,-823
28.58333,-820
28.59167,-816
28.60000,-812
28.60833,-807
28.61667,-802
28.62500,-796
28.63333,-790
28.64167,-783
28.65000,-775
28.65833,-767
28.66667,-758
28.67500,-750
28.68333,-741
28.69167,-731
28.70000,-722
28.70833,-712
28.71667,-702
28.72500,-693
28.73333,-683
28.74167,-673
28.75000,-663
28.75833,-653
28.76667,-642
28.77500,-632
28.78333,-622
28.79167,-611
28.80000,-601
28.80833,-591
28.81667,-581
28.82500,-571
28.83333,-562
28.84167,-552
28.85000,-543
28.85833,-534
28.86667,-525
28.87500,-516
28.88333,-507
28.89167,-499
28.90000,-490
28.90833,-483
28.91667,-475
28.92500,-468
28.93333,-461
28.94167,-454
28.95000,-447
28.95833,-441
28.96667,-434
28.97500,-428
28.98333,-421
28.99167,-416
29.00000,-410
29.00833,-405
29.01667,-399
29.02500,-394
29.03333,-389
29.04167,-385
29.05000,-380
29.05833,-376
29.06667,-371
29.07500,-367
29.08333,-363
29.09167,-359
29.10000,-355
29.10833,-352
29.11667,-349
29.12500,-346
29.13333,-343
29.14167,-340
29.15000,-337
29.15833,-334
29.16667,-332
29.17500,-329
29.18333,-326
29.19167,-324
29.20000,-321
29.20833,-318
29.21667,-315
29.22500,-313
29.23333,-311
29.24167,-309
29.25000,-307
29.25833,-305
29.26667,-303
29.27500,-302
29.28333,-300
29.29167,-298
29.30000,-297
29.30833,-296
29.31667,-294
29.32500,-292
29.33333,-291
29.34167,-290
29.35000,-288
29.35833,-287
29.36667,-285
29.37500,-284
29.38333,-283
29.39167,-282
29.40000,-281
29.40833,-280
29.41667,-279
29.42500,-278
29.43333,-277
29.44167,-276
29.45000,-275
29.45833,-274
29.46667,-273
29.47500,-273
29.48333,-272
29.49167,-271
29.50000,-271
29.50833,-270
29.51667,-270
29.52500,-271
29.53333,-271
29.54167,-270
29.55000,-270
29.55833,-270
29.56667,-270
29.57500,-270
29.58333,-270
29.59167,-270
29.60000,-271
29.60833,-271
29.61667,-272
29.62500,-272
29.63333,-273
29.64167,-274
29.65000,-275
29.65833,-276
29.66667,-276
29.67500,-277
29.68333,-278
29.69167,-279
29.70000,-280
29.70833,-282
29.71667,-284
29.72500,-286
29.73333,-289
29.74167,-291
29.75000,-293
29.75833,-296
29.76667,-298
29.77500,-301
29.78333,-304
29.79167,-307
29.80000,-310
29.80833,-313
29.81667,-317
29.82500,-320
29.83333,-324
29.84167,-328
29.85000,-332
29.85833,-337
29.86667,-341
29.87500,-346
29.88333,-350
29.89167,-355
29.90000,-360
29.90833,-365
29.91667,-370
29.92500,-375
29.93333,-381
29.94167,-386
29.95000,-391
29.95833,-397
29.96667,-402
29.97500,-408
29.98333,-415
29.99167,-421
30.00000,-426
30.00833,-432
30.01667,-438
30.02500,-444
30.03333,-449
30.04167,-455
30.05000,-461
30.05833,-466
30.06667,-471
30.07500,-476
30.08333,-482
30.09167,-487
30.10000,-492
30.10833,-497
30.11667,-502
30.12500,-507
30.13333,-511
30.14167,-516
30.15000,-520
30.15833,-523
30.16667,-527
30.17500,-531
30.18333,-535
30.19167,-539
30.20000,-542
30.20833,-545
30.21667,-547
30.22500,-550
30.23333,-552
30.24167,-554
30.25000,-556
30.25833,-557
30.26667,-558
30.27500,-559
30.28333,-560
30.29167,-561
30.30000,-561
30.30833,-561
30.31667,-560
30.32500,-560
30.33333,-559
30.34167,-558
30.35000,-556
30.35833,-555
30.36667,-554
30.37500,-552
30.38333,-550
30.39167,-549
30.40000,-547
30.40833,-545
30.41667,-542
30.42500,-540
30.43333,-537
30.44167,-535
30.45000,-532
30.45833,-529
30.46667,-526
30.47500,-523
30.48333,-519
30.49167,-516
30.50000,-513
30.50833,-509
30.51667,-506
30.52500,-503
30.53333,-499
30.54167,-496
30.55000,-492
30.55833,-489
30.56667,-486
30.57500,-483
30.58333,-479
30.59167,-476
30.60000,-473
30.60833,-470
30.61667,-467
30.62500,-463
30.63333,-460
30.64167,-457
30.65000,-454
30.65833,-451
30.66667,-448
30.67500,-445
30.68333,-443
30.69167,-440
30.70000,-437
30.70833,-435
30.71667,-432
30.72500,-429
30.73333,-427
30.74167,-425
30.75000,-423
30.75833,-421
30.76667,-420
30.77500,-418
30.78333,-416
30.79167,-414
30.80000,-412
30.80833,-411
30.81667,-409
30.82500,-408
30.83333,-407
30.84167,-405
30.85000,-403
30.85833,-402
30.86667,-400
30.87500,-399
30.88333,-398
30.89167,-396
30.90000,-395
30.90833,-394
30.91667,-392
30.92500,-391
30.93333,-390
30.94167,-388
30.95000,-387
30.95833,-386
30.96667,-384
30.97500,-383
30.98333,-382
30.99167,-381
31.00000,-380
31.00833,-380
31.01667,-379
31.02500,-378
31.03333,-378
31.04167,-377
31.05000,-376
31.05833,-375
31.06667,-374
31.07500,-373
31.08333,-372
31.09167,-371
31.10000,-370
31.10833,-369
31.11667,-368
31.12500,-367
31.13333,-366
31.14167,-365
31.15000,-364
31.15833,-363
31.16667,-362
31.17500,-361
31.18333,-360
31.19167,-359
31.20000,-358
31.20833,-357
31.21667,-356
31.22500,-355
31.23333,-354
31.24167,-353
31.25000,-351
31.25833,-350
31.26667,-349
31.27500,-348
31.28333,-346
31.29167,-345
31.30000,-344
31.30833,-342
31.31667,-341
31.32500,-339
31.33333,-338
31.34167,-337
31.35000,-336
31.35833,-334
31.36667,-333
31.37500,-331
31.38333,-330
31.39167,-328
31.40000,-327
31.40833,-326
31.41667,-325
31.42500,-323
31.43333,-322
31.44167,-321
31.45000,-320
31.45833,-319
31.46667,-318
31.47500,-317
31.48333,-316
31.49167,-314
31.50000,-313
31.50833,-311
31.51667,-310
31.52500,-308
31.53333,-307
31.54167,-306
31.55000,-305
31.55833,-303
31.56667,-302
31.57500,-301
31.58333,-300
31.59167,-299
31.60000,-298
31.60833,-297
31.61667,-296
31.62500,-294
31.63333,-293
31.64167,-292
31.65000,-291
31.65833,-290
31.66667,-289
31.67500,-288
31.68333,-287
31.69167,-286
31.70000,-285
31.70833,-284
31.71667,-283
31.72500,-282
31.73333,-281
31.74167,-280
31.75000,-280
31.75833,-279
31.76667,-278
31.77500,-276
31.78333,-275
31.79167,-274
31.80000,-273
31.80833,-272
31.81667,-272
31.82500,-271
31.83333,-270
31.84167,-269
31.85000,-269
31.85833,-268
31.86667,-268
31.87500,-267
31.88333,-266
31.89167,-265
31.90000,-264
31.90833,-264
31.91667,-263
31.92500,-262
31.93333,-261
31.94167,-260
31.95000,-260
31.95833,-259
31.96667,-258
31.97500,-257
31.98333,-256
31.99167,-255
32.00000,-255
32.00833,-253
32.01667,-252
32.02500,-252
32.03333,-251
32.04167,-250
32.05000,-249
32.05833,-249
32.06667,-249
32.07500,-249
32.08333,-248
32.09167,-248
32.10000,-247
32.10833,-246
32.11667,-245
32.12500,-244
32.13333,-243
32.14167,-242
32.15000,-241
32.15833,-240
32.16667,-239
32.17500,-239
32.18333,-238
32.19167,-237
32.20000,-236
32.20833,-236
32.21667,-235
32.22500,-234
32.23333,-234
32.24167,-233
32.25000,-232
32.25833,-232
32.26667,-231
32.27500,-230
32.28333,-229
32.29167,-229
32.30000,-228
32.30833,-227
32.31667,-226
32.32500,-226
32.33333,-225
32.34167,-225
32.35000,-224
32.35833,-223
32.36667,-222
32.37500,-221
32.38333,-220
32.39167,-220
32.40000,-219
32.40833,-218
32.41667,-217
32.42500,-216
32.43333,-216
32.44167,-215
32.45000,-214
32.45833,-214
32.46667,-213
32.47500,-212
32.48333,-212
32.49167,-211
32.50000,-211
32.50833,-210
32.51667,-209
32.52500,-208
32.53333,-207
32.54167,-206
32.55000,-205
32.55833,-204
32.56667,-203
32.57500,-202
32.58333,-202
32.59167,-201
32.60000,-200
32.60833,-199
32.61667,-198
32.62500,-197
32.63333,-197
32.64167,-196
32.65000,-195
32.65833,-194
32.66667,-193
32.67500,-193
32.68333,-192
32.69167,-192
32.70000,-191
32.70833,-191
32.71667,-190
32.72500,-189
32.73333,-188
32.74167,-187
32.75000,-186
32.75833,-185
32.76667,-185
32.77500,-184
32.78333,-183
32.79167,-183
32.80000,-182
32.80833,-181
32.81667,-180
32.82500,-179
32.83333,-178
32.84167,-177
32.85000,-177
32.85833,-176
32.86667,-175
32.87500,-174
32.88333,-174
32.89167,-174
32.90000,-173
32.90833,-173
32.91667,-172
32.92500,-172
32.93333,-170
32.94167,-169
32.95000,-168
32.95833,-167
32.96667,-167
32.97500,-166
32.98333,-165
32.99167,-164
33.00000,-164
33.00833,-163
33.01667,-162
33.02500,-161
33.03333,-160
33.04167,-159
33.05000,-158
33.05833,-157
33.06667,-156
33.07500,-155
33.08333,-155
33.09167,-154
33.10000,-153
33.10833,-153
33.11667,-152
33.12500,-151
33.13333,-151
33.14167,-150
33.15000,-149
33.15833,-148
33.16667,-147
33.17500,-147
33.18333,-146
33.19167,-145
33.20000,-144
33.20833,-143
33.21667,-143
33.22500,-142
33.23333,-141
33.24167,-140
33.25000,-139
33.25833,-138
33.26667,-137
33.27500,-136
33.28333,-135
33.29167,-134
33.30000,-134
33.30833,-133
33.31667,-133
33.32500,-132
33.33333,-132
33.34167,-131
33.35000,-131
33.35833,-130
33.36667,-129
33.37500,-128
33.38333,-127
33.39167,-126
33.40000,-125
33.40833,-124
33.41667,-124
33.42500,-123
33.43333,-123
33.44167,-122
33.45000,-121
33.45833,-120
33.46667,-119
33.47500,-118
33.48333,-118
33.49167,-117
33.50000,-116
33.50833,-116
33.51667,-116
33.52500,-115
33.53333,-115
33.54167,-114
33.55000,-114
33.55833,-113
33.56667,-112
33.57500,-111
33.58333,-110
33.59167,-109
33.60000,-108
33.60833,-108
33.61667,-107
33.62500,-107
33.63333,-106
33.64167,-106
33.65000,-105
33.65833,-104
33.66667,-103
33.67500,-102
33.68333,-102
33.69167,-101
33.70000,-100
33.70833,-100
33.71667,-99
33.72500,-98
33.73333,-98
33.74167,-97
33.75000,-97
33.75833,-96
33.76667,-96
33.77500,-95
33.78333,-94
33.79167,-94
33.80000,-93
33.80833,-93
33.81667,-92
33.82500,-91
33.83333,-90
33.84167,-89
33.85000,-88
33.85833,-88
33.86667,-87
33.87500,-87
33.88333,-86
33.89167,-86
33.90000,-85
33.90833,-85
33.91667,-84
33.92500,-84
33.93333,-83
33.94167,-82
33.95000,-81
33.95833,-81
33.96667,-81
33.97500,-80
33.98333,-79
33.99167,-79
34.00000,-78
34.00833,-77
34.01667,-77
34.02500,-76
34.03333,-76
34.04167,-75
34.05000,-74
34.05833,-74
34.06667,-74
34.07500,-73
34.08333,-73
34.09167,-72
34.10000,-72
34.10833,-71
34.11667,-71
34.12500,-71
34.13333,-70
34.14167,-69
34.15000,-69
34.15833,-68
34.16667,-68
34.17500,-68
34.18333,-67
34.19167,-66
34.20000,-66
34.20833,-65
34.21667,-65
34.22500,-64
34.23333,-64
34.24167,-64
34.25000,-63
34.25833,-63
34.26667,-62
34.27500,-62
34.28333,-61
34.29167,-60
34.30000,-59
34.30833,-59
34.31667,-58
34.32500,-58
34.33333,-58
34.34167,-58
34.35000,-58
34.35833,-58
34.36667,-57
34.37500,-57
34.38333,-56
34.39167,-56
34.40000,-55
34.40833,-54
34.41667,-54
34.42500,-53
34.43333,-52
34.44167,-52
34.45000,-51
34.45833,-51
34.46667,-50
34.47500,-49
34.48333,-49
34.49167,-48
34.50000,-47
34.50833,-47
34.51667,-47
34.52500,-46
34.53333,-46
34.54167,-46
34.55000,-45
34.55833,-45
34.56667,-45
34.57500,-44
34.58333,-44
34.59167,-44
34.60000,-44
34.60833,-44
34.61667,-43
34.62500,-42
34.63333,-41
34.64167,-41
34.65000,-40
34.65833,-39
34.66667,-39
34.67500,-38
34.68333,-37
34.69167,-37
34.70000,-36
34.70833,-36
34.71667,-35
34.72500,-35
34.73333,-35
34.74167,-34
34.75000,-34
34.75833,-34
34.76667,-34
34.77500,-34
34.78333,-33
34.79167,-33
34.80000,-33
34.80833,-32
34.81667,-32
34.82500,-31
34.83333,-31
34.84167,-31
34.85000,-30
34.85833,-29
34.86667,-29
34.87500,-28
34.88333,-28
34.89167,-27
34.90000,-27
34.90833,-26
34.91667,-25
34.92500,-25
34.93333,-25
34.94167,-25
34.95000,-24
34.95833,-24
34.96667,-23
34.97500,-23
34.98333,-23
34.99167,-22
35.00000,-21
35.00833,-21
35.01667,-20
35.02500,-19
35.03333,-19
35.04167,-19
35.05000,-18
35.05833,-17
35.06667,-17
35.07500,-16
35.08333,-16
35.09167,-15
35.10000,-15
35.10833,-14
35.11667,-13
35.12500,-13
35.13333,-13
35.14167,-12
35.15000,-12
35.15833,-12
35.16667,-11
35.17500,-11
35.18333,-11
35.19167,-11
35.20000,-11
35.20833,-10
35.21667,-10
35.22500,-9
35.23333,-9
35.24167,-8
35.25000,-7
35.25833,-7
35.26667,-6
35.27500,-6
35.28333,-5
35.29167,-5
35.30000,-4
35.30833,-4
35.31667,-3
35.32500,-3
35.33333,-2
35.34167,-1
35.35000,-1
35.35833,-0
35.36667,0
35.37500,0
35.38333,0
35.39167,1
35.40000,1
35.40833,1
35.41667,2
35.42500,2
35.43333,3
35.44167,3
35.45000,4
35.45833,4
35.46667,5
35.47500,6
35.48333,6
35.49167,6
35.50000,7
35.50833,7
35.51667,8
35.52500,8
35.53333,9
35.54167,9
35.55000,9
35.55833,9
35.56667,9
35.57500,9
35.58333,10
35.59167,10
35.60000,11
35.60833,11
35.61667,11
35.62500,12
35.63333,12
35.64167,13
35.65000,13
35.65833,13
35.66667,14
35.67500,15
35.68333,15
35.69167,16
35.70000,16
35.70833,16
35.71667,17
35.72500,17
35.73333,17
35.74167,18
35.75000,18
35.75833,19
35.76667,19
35.77500,20
35.78333,20
35.79167,20
35.80000,20
35.80833,21
35.81667,22
35.82500,22
35.83333,23
35.84167,23
35.85000,23
35.85833,23
35.86667,23
35.87500,23
35.88333,24
35.89167,24
35.90000,25
35.90833,25
35.91667,26
35.92500,26
35.93333,26
35.94167,27
35.95000,28
35.95833,29
35.96667,29
35.97500,30
35.98333,30
35.99167,30
36.00000,30
36.00833,30
36.01667,31
36.02500,31
36.03333,31
36.04167,31
36.05000,32
36.05833,32
36.06667,32
36.07500,32
36.08333,33
36.09167,34
36.10000,34
36.10833,35
36.11667,35
36.12500,35
36.13333,35
36.14167,36
36.15000,36
36.15833,37
36.16667,37
36.17500,37
36.18333,38
36.19167,38
36.20000,37
36.20833,37
36.21667,37
36.22500,38
36.23333,38
36.24167,38
36.25000,39
36.25833,39
36.26667,40
36.27500,40
36.28333,41
36.29167,41
36.30000,42
36.30833,42
36.31667,42
36.32500,43
36.33333,43
36.34167,43
36.35000,44
36.35833,45
36.36667,45
36.37500,46
36.38333,46
36.39167,46
36.40000,46
36.40833,46
36.41667,46
36.42500,46
36.43333,46
36.44167,47
36.45000,47
36.45833,47
36.46667,48
36.47500,49
36.48333,49
36.49167,50
36.50000,50
36.50833,51
36.51667,52
36.52500,53
36.53333,53
36.54167,54
36.55000,55
36.55833,55
36.56667,56
36.57500,57
36.58333,57
36.59167,57
36.60000,58
36.60833,59
36.61667,59
36.62500,60
36.63333,60
36.64167,60
36.65000,61
36.65833,62
36.66667,63
36.67500,64
36.68333,65
36.69167,66
36.70000,67
36.70833,67
36.71667,68
36.72500,69
36.73333,70
36.74167,71
36.75000,72
36.75833,73
36.76667,73
36.77500,74
36.78333,75
36.79167,76
36.80000,76
36.80833,77
36.81667,79
36.82500,80
36.83333,81
36.84167,82
36.85000,82
36.85833,83
36.86667,84
36.87500,85
36.88333,86
36.89167,87
36.90000,88
36.90833,88
36.91667,89
36.92500,90
36.93333,91
36.94167,92
36.95000,93
36.95833,94
36.96667,95
36.97500,96
36.98333,97
36.99167,98
37.00000,98
37.00833,98
37.01667,99
37.02500,99
37.03333,100
37.04167,100
37.05000,101
37.05833,101
37.06667,102
37.07500,102
37.08333,103
37.09167,103
37.10000,104
37.10833,104
37.11667,105
37.12500,105
37.13333,106
37.14167,106
37.15000,106
37.15833,106
37.16667,106
37.17500,106
37.18333,106
37.19167,106
37.20000,106
37.20833,106
37.21667,106
37.22500,106
37.23333,106
37.24167,106
37.25000,105
37.25833,105
37.26667,105
37.27500,105
37.28333,104
37.29167,104
37.30000,103
37.30833,103
37.31667,103
37.32500,103
37.33333,102
37.34167,102
37.35000,102
37.35833,101
37.36667,100
37.37500,100
37.38333,99
37.39167,98
37.40000,98
37.40833,98
37.41667,97
37.42500,96
37.43333,95
37.44167,94
37.45000,93
37.45833,93
37.46667,92
37.47500,92
37.48333,91
37.49167,90
37.50000,89
37.50833,89
37.51667,88
37.52500,87
37.53333,87
37.54167,87
37.55000,86
37.55833,85
37.56667,84
37.57500,83
37.58333,83
37.59167,82
37.60000,81
37.60833,80
37.61667,79
37.62500,78
37.63333,77
37.64167,77
37.65000,76
37.65833,76
37.66667,76
37.67500,75
37.68333,75
37.69167,74
37.70000,73
37.70833,73
37.71667,72
37.72500,72
37.73333,72
37.74167,71
37.75000,71
37.75833,70
37.76667,70
37.77500,70
37.78333,69
37.79167,69
37.80000,68
37.80833,68
37.81667,68
37.82500,67
37.83333,67
37.84167,66
37.85000,65
37.85833,64
37.86667,64
37.87500,63
37.88333,63
37.89167,63
37.90000,63
37.90833,62
37.91667,62
37.92500,62
37.93333,62
37.94167,61
37.95000,61
37.95833,61
37.96667,61
37.97500,61
37.98333,61
37.99167,61
38.00000,60
38.00833,60
38.01667,60
38.02500,60
38.03333,59
38.04167,59
38.05000,59
38.05833,59
38.06667,58
38.07500,58
38.08333,58
38.09167,58
38.10000,58
38.10833,59
38.11667,59
38.12500,59
38.13333,60
38.14167,60
38.15000,60
38.15833,60
38.16667,60
38.17500,60
38.18333,60
38.19167,60
38.20000,59
38.20833,59
38.21667,59
38.22500,58
38.23333,58
38.24167,57
38.25000,57
38.25833,58
38.26667,58
38.27500,57
38.28333,58
38.29167,58
38.30000,58
38.30833,58
38.31667,58
38.32500,58
38.33333,58
38.34167,58
38.35000,58
38.35833,59
38.36667,59
38.37500,59
38.38333,60
38.39167,60
38.40000,60
38.40833,59
38.41667,59
38.42500,59
38.43333,58
38.44167,59
38.45000,59
38.45833,58
38.46667,58
38.47500,59
38.48333,59
38.49167,59
38.50000,58
38.50833,59
38.51667,59
38.52500,59
38.53333,59
38.54167,59
38.55000,59
38.55833,59
38.56667,59
38.57500,59
38.58333,58
38.59167,58
38.60000,58
38.60833,58
38.61667,58
38.62500,58
38.63333,58
38.64167,58
38.65000,57
38.65833,57
38.66667,58
38.67500,58
38.68333,58
38.69167,58
38.70000,58
38.70833,58
38.71667,58
38.72500,58
38.73333,58
38.74167,58
38.75000,58
38.75833,58
38.76667,58
38.77500,59
38.78333,59
38.79167,60
38.80000,60
38.80833,60
38.81667,60
38.82500,59
38.83333,59
38.84167,59
38.85000,59
38.85833,59
38.86667,59
38.87500,58
38.88333,59
38.89167,59
38.90000,58
38.90833,58
38.91667,58
38.92500,58
38.93333,59
38.94167,59
38.95000,59
38.95833,59
38.96667,59
38.97500,59
38.98333,59
38.99167,59
39.00000,59
39.00833,60
39.01667,60
39.02500,60
39.03333,60
39.04167,59
39.05000,59
39.05833,59
39.06667,59
39.07500,59
39.08333,59
39.09167,59
39.10000,59
39.10833,59
39.11667,59
39.12500,59
39.13333,59
39.14167,60
39.15000,60
39.15833,60
39.16667,60
39.17500,60
39.18333,61
39.19167,61
39.20000,61
39.20833,61
39.21667,61
39.22500,61
39.23333,60
39.24167,60
39.25000,60
39.25833,60
39.26667,60
39.27500,60
39.28333,60
39.29167,60
39.30000,61
39.30833,61
39.31667,61
39.32500,61
39.33333,61
39.34167,61
39.35000,61
39.35833,60
39.36667,60
39.37500,60
39.38333,60
39.39167,61
39.40000,62
39.40833,62
39.41667,62
39.42500,62
39.43333,61
39.44167,61
39.45000,61
39.45833,62
39.46667,62
39.47500,62
39.48333,61
39.49167,61
39.50000,61
39.50833,62
39.51667,62
39.52500,62
39.53333,62
39.54167,62
39.55000,62
39.55833,62
39.56667,62
39.57500,62
39.58333,62
39.59167,62
39.60000,62
39.60833,63
39.61667,63
39.62500,63
39.63333,63
39.64167,63
39.65000,63
39.65833,63
39.66667,63
39.67500,63
39.68333,63
39.69167,63
39.70000,62
39.70833,62
39.71667,62
39.72500,62
39.73333,63
39.74167,63
39.75000,63
39.75833,62
39.76667,62
39.77500,62
39.78333,62
39.79167,63
39.80000,63
39.80833,63
39.81667,63
39.82500,63
39.83333,63
39.84167,63
39.85000,63
39.85833,62
39.86667,62
39.87500,62
39.88333,62
39.89167,62
39.90000,62
39.90833,62
39.91667,63
39.92500,63
39.93333,63
39.94167,64
39.95000,64
39.95833,64
39.96667,64
39.97500,64
39.98333,64
39.99167,64
40.00000,64

