[Header]
Application Name,LabSolutions
Version,5.97 SP1
Data File Name,C:\Users\cremerlab\Desktop\griffin\2021-03-31_NCM3722_NCglucose_turnover\2021-03-31_NCM3722_turnover_batch_3312021_006_006.lcd
Output Date,3/31/2021
Output Time,10:35:02 PM

[File Information]
Type,Data File
Generated,3/31/2021 9:54:42 PM
Generated by,System Administrator
Modified,3/31/2021 10:35:01 PM
Modified by,System Administrator

[Sample Information]
Operator Name,System Administrator
Acquired,3/31/2021 9:55:01 PM
Sample Type,1:Standard
Level,6
Sample Name,2021-03-31_NCM3722_NCglucose_replicate_01_timepoint_006
Sample ID,006
ISTD Amount1,1
ISTD Amount2,1
ISTD Amount3,1
ISTD Amount4,1
ISTD Amount5,1
ISTD Amount6,1
ISTD Amount7,1
ISTD Amount8,1
ISTD Amount9,1
ISTD Amount10,1
ISTD Amount11,1
ISTD Amount12,1
ISTD Amount13,1
ISTD Amount14,1
ISTD Amount15,1
ISTD Amount16,1
ISTD Amount17,1
ISTD Amount18,1
ISTD Amount19,1
ISTD Amount20,1
ISTD Amount21,1
ISTD Amount22,1
ISTD Amount23,1
ISTD Amount24,1
ISTD Amount25,1
ISTD Amount26,1
ISTD Amount27,1
ISTD Amount28,1
ISTD Amount29,1
ISTD Amount30,1
ISTD Amount31,1
ISTD Amount32,1
Sample Amount,1
Dilution Factor,1
Vial#,15
Injection Volume,20

[Original Files]
Data File,C:\Users\cremerlab\Desktop\griffin\2021-03-31_NCM3722_NCglucose_turnover\2021-03-31_NCM3722_turnover_batch_3312021_006_006.lcd
Method File,C:\LabSolutions\Data\Project1\organicacidsetc2.lcm
Batch File,C:\Users\cremerlab\Desktop\griffin\2021-03-31_NCM3722_NCglucose_turnover\2021-03-31_NCM3722_turnover_batch.lcb
Report Format File,c:\LabSolutions\System\DEFAULT.lsr

[File Description]


[Configuration]
Instrument Name,HPLC-PC-Instrument1
Instrument #,1
Line #,1
# of Detectors,2
Detector ID,Detector A,Detector B
Detector Name,Detector A,Detector B
# of Channels,1,1

[Peak Table(Detector A)]
# of Peaks,0

[Peak Table(Detector B)]
# of Peaks,5
Peak#,R.Time,I.Time,F.Time,Area,Height,A/H,Conc.,Mark,ID#,Name,k',Plate #,Plate Ht.,Tailing,Resolution,Sep.Factor,Area Ratio,Height Ratio,Conc. %,Norm Conc.
1,11.035,10.758,12.275,765278,44542,17.181,23.044,   ,,,0.000,10894,13.769,1.414,0.000,0.000,0,0,0.000,0.000
2,14.988,14.117,15.325,1977629,82436,23.990,59.551,   ,,,0.358,8416,17.824,0.000,7.346,0.000,0,0,0.000,0.000
3,15.625,15.325,17.875,548215,22748,24.100,16.508, V ,,,0.416,9844,15.238,0.000,0.992,1.161,0,0,0.000,0.000
4,25.050,24.608,25.667,5352,196,27.307,0.161,   ,,,1.270,18933,7.923,1.110,13.880,3.053,0,0,0.000,0.000
5,29.699,28.625,30.333,24416,376,64.856,0.735,   ,,,1.691,5713,26.257,0.785,4.043,1.332,0,0,0.000,0.000

[LC Chromatogram(Detector B-Ch1)]
Interval(msec),500
# of Points,4801
Start Time(min),0.000
End Time(min),40.000
Intensity Units,mV
Intensity Multiplier,0.001
R.Time (min),Intensity
0.00000,-0
0.00833,-0
0.01667,0
0.02500,2
0.03333,2
0.04167,1
0.05000,-2
0.05833,-4
0.06667,-6
0.07500,-7
0.08333,-7
0.09167,-7
0.10000,-6
0.10833,-5
0.11667,-3
0.12500,-2
0.13333,-1
0.14167,0
0.15000,1
0.15833,1
0.16667,2
0.17500,2
0.18333,2
0.19167,2
0.20000,1
0.20833,-0
0.21667,-0
0.22500,-0
0.23333,0
0.24167,1
0.25000,2
0.25833,4
0.26667,5
0.27500,5
0.28333,5
0.29167,5
0.30000,4
0.30833,4
0.31667,4
0.32500,4
0.33333,3
0.34167,3
0.35000,2
0.35833,2
0.36667,2
0.37500,2
0.38333,1
0.39167,1
0.40000,1
0.40833,1
0.41667,1
0.42500,1
0.43333,1
0.44167,1
0.45000,1
0.45833,1
0.46667,1
0.47500,1
0.48333,1
0.49167,1
0.50000,1
0.50833,1
0.51667,1
0.52500,1
0.53333,1
0.54167,2
0.55000,2
0.55833,4
0.56667,6
0.57500,8
0.58333,10
0.59167,12
0.60000,14
0.60833,15
0.61667,15
0.62500,15
0.63333,14
0.64167,12
0.65000,10
0.65833,7
0.66667,4
0.67500,1
0.68333,-3
0.69167,-6
0.70000,-9
0.70833,-12
0.71667,-15
0.72500,-17
0.73333,-18
0.74167,-19
0.75000,-19
0.75833,-19
0.76667,-19
0.77500,-19
0.78333,-18
0.79167,-17
0.80000,-16
0.80833,-15
0.81667,-14
0.82500,-12
0.83333,-11
0.84167,-11
0.85000,-10
0.85833,-9
0.86667,-8
0.87500,-7
0.88333,-7
0.89167,-6
0.90000,-5
0.90833,-4
0.91667,-4
0.92500,-3
0.93333,-3
0.94167,-2
0.95000,-2
0.95833,-1
0.96667,-1
0.97500,-0
0.98333,-0
0.99167,0
1.00000,0
1.00833,-0
1.01667,-0
1.02500,-0
1.03333,0
1.04167,0
1.05000,0
1.05833,0
1.06667,0
1.07500,0
1.08333,0
1.09167,0
1.10000,0
1.10833,0
1.11667,0
1.12500,0
1.13333,0
1.14167,0
1.15000,1
1.15833,1
1.16667,1
1.17500,0
1.18333,0
1.19167,0
1.20000,0
1.20833,0
1.21667,0
1.22500,0
1.23333,0
1.24167,0
1.25000,-0
1.25833,-0
1.26667,-0
1.27500,-0
1.28333,-0
1.29167,-0
1.30000,-0
1.30833,-0
1.31667,-0
1.32500,-0
1.33333,-0
1.34167,-0
1.35000,-0
1.35833,-0
1.36667,-0
1.37500,-0
1.38333,-1
1.39167,-1
1.40000,-1
1.40833,-1
1.41667,-1
1.42500,-2
1.43333,-1
1.44167,-1
1.45000,-1
1.45833,-0
1.46667,0
1.47500,1
1.48333,1
1.49167,0
1.50000,0
1.50833,0
1.51667,-0
1.52500,-0
1.53333,-1
1.54167,-1
1.55000,-1
1.55833,-1
1.56667,-0
1.57500,-0
1.58333,0
1.59167,0
1.60000,0
1.60833,0
1.61667,0
1.62500,0
1.63333,0
1.64167,0
1.65000,0
1.65833,0
1.66667,0
1.67500,0
1.68333,0
1.69167,0
1.70000,0
1.70833,0
1.71667,0
1.72500,0
1.73333,0
1.74167,0
1.75000,1
1.75833,1
1.76667,1
1.77500,1
1.78333,1
1.79167,2
1.80000,2
1.80833,2
1.81667,2
1.82500,1
1.83333,1
1.84167,1
1.85000,1
1.85833,1
1.86667,1
1.87500,1
1.88333,1
1.89167,1
1.90000,1
1.90833,1
1.91667,1
1.92500,1
1.93333,2
1.94167,2
1.95000,2
1.95833,2
1.96667,2
1.97500,2
1.98333,2
1.99167,2
2.00000,2
2.00833,2
2.01667,2
2.02500,3
2.03333,2
2.04167,2
2.05000,3
2.05833,3
2.06667,3
2.07500,3
2.08333,3
2.09167,3
2.10000,4
2.10833,4
2.11667,4
2.12500,3
2.13333,3
2.14167,3
2.15000,3
2.15833,3
2.16667,2
2.17500,2
2.18333,2
2.19167,2
2.20000,1
2.20833,1
2.21667,1
2.22500,2
2.23333,2
2.24167,3
2.25000,3
2.25833,3
2.26667,2
2.27500,2
2.28333,2
2.29167,2
2.30000,2
2.30833,1
2.31667,1
2.32500,1
2.33333,2
2.34167,1
2.35000,1
2.35833,1
2.36667,1
2.37500,1
2.38333,1
2.39167,2
2.40000,2
2.40833,1
2.41667,1
2.42500,1
2.43333,1
2.44167,1
2.45000,1
2.45833,0
2.46667,0
2.47500,0
2.48333,0
2.49167,0
2.50000,0
2.50833,0
2.51667,0
2.52500,-0
2.53333,-0
2.54167,-1
2.55000,-1
2.55833,-1
2.56667,-1
2.57500,-1
2.58333,-1
2.59167,-2
2.60000,-2
2.60833,-2
2.61667,-1
2.62500,-1
2.63333,-1
2.64167,-1
2.65000,-1
2.65833,-1
2.66667,-1
2.67500,-1
2.68333,-2
2.69167,-2
2.70000,-2
2.70833,-2
2.71667,-2
2.72500,-3
2.73333,-2
2.74167,-2
2.75000,-2
2.75833,-3
2.76667,-3
2.77500,-3
2.78333,-3
2.79167,-3
2.80000,-3
2.80833,-3
2.81667,-3
2.82500,-3
2.83333,-3
2.84167,-3
2.85000,-2
2.85833,-3
2.86667,-3
2.87500,-3
2.88333,-3
2.89167,-3
2.90000,-3
2.90833,-3
2.91667,-3
2.92500,-3
2.93333,-2
2.94167,-2
2.95000,-3
2.95833,-3
2.96667,-3
2.97500,-4
2.98333,-4
2.99167,-4
3.00000,-4
3.00833,-4
3.01667,-4
3.02500,-4
3.03333,-5
3.04167,-5
3.05000,-5
3.05833,-5
3.06667,-4
3.07500,-5
3.08333,-5
3.09167,-5
3.10000,-5
3.10833,-5
3.11667,-5
3.12500,-5
3.13333,-5
3.14167,-5
3.15000,-5
3.15833,-5
3.16667,-5
3.17500,-5
3.18333,-5
3.19167,-5
3.20000,-5
3.20833,-5
3.21667,-5
3.22500,-5
3.23333,-5
3.24167,-5
3.25000,-5
3.25833,-5
3.26667,-5
3.27500,-5
3.28333,-5
3.29167,-5
3.30000,-5
3.30833,-4
3.31667,-4
3.32500,-4
3.33333,-4
3.34167,-4
3.35000,-4
3.35833,-4
3.36667,-5
3.37500,-5
3.38333,-5
3.39167,-5
3.40000,-5
3.40833,-5
3.41667,-5
3.42500,-5
3.43333,-4
3.44167,-4
3.45000,-4
3.45833,-4
3.46667,-5
3.47500,-5
3.48333,-5
3.49167,-5
3.50000,-5
3.50833,-4
3.51667,-4
3.52500,-4
3.53333,-4
3.54167,-4
3.55000,-4
3.55833,-4
3.56667,-4
3.57500,-4
3.58333,-4
3.59167,-4
3.60000,-4
3.60833,-4
3.61667,-4
3.62500,-3
3.63333,-3
3.64167,-3
3.65000,-4
3.65833,-4
3.66667,-3
3.67500,-3
3.68333,-3
3.69167,-3
3.70000,-3
3.70833,-3
3.71667,-3
3.72500,-3
3.73333,-3
3.74167,-3
3.75000,-3
3.75833,-3
3.76667,-3
3.77500,-3
3.78333,-3
3.79167,-3
3.80000,-2
3.80833,-2
3.81667,-2
3.82500,-2
3.83333,-2
3.84167,-2
3.85000,-2
3.85833,-2
3.86667,-1
3.87500,-1
3.88333,-1
3.89167,-2
3.90000,-2
3.90833,-2
3.91667,-1
3.92500,-1
3.93333,-1
3.94167,-2
3.95000,-2
3.95833,-2
3.96667,-2
3.97500,-2
3.98333,-1
3.99167,-1
4.00000,-2
4.00833,-1
4.01667,-1
4.02500,-2
4.03333,-2
4.04167,-2
4.05000,-3
4.05833,-2
4.06667,-2
4.07500,-2
4.08333,-1
4.09167,-1
4.10000,-1
4.10833,-1
4.11667,-1
4.12500,-1
4.13333,-1
4.14167,-1
4.15000,-1
4.15833,-1
4.16667,-1
4.17500,-1
4.18333,-1
4.19167,-1
4.20000,-1
4.20833,-1
4.21667,-1
4.22500,-0
4.23333,-0
4.24167,-0
4.25000,-0
4.25833,-0
4.26667,-0
4.27500,-0
4.28333,-0
4.29167,-0
4.30000,-1
4.30833,-1
4.31667,-2
4.32500,-2
4.33333,-2
4.34167,-2
4.35000,-2
4.35833,-3
4.36667,-3
4.37500,-3
4.38333,-3
4.39167,-3
4.40000,-3
4.40833,-3
4.41667,-3
4.42500,-2
4.43333,-2
4.44167,-2
4.45000,-3
4.45833,-3
4.46667,-2
4.47500,-2
4.48333,-3
4.49167,-3
4.50000,-2
4.50833,-2
4.51667,-3
4.52500,-3
4.53333,-3
4.54167,-4
4.55000,-4
4.55833,-4
4.56667,-4
4.57500,-4
4.58333,-4
4.59167,-4
4.60000,-4
4.60833,-4
4.61667,-3
4.62500,-3
4.63333,-3
4.64167,-4
4.65000,-4
4.65833,-4
4.66667,-4
4.67500,-4
4.68333,-5
4.69167,-5
4.70000,-5
4.70833,-5
4.71667,-5
4.72500,-4
4.73333,-4
4.74167,-5
4.75000,-5
4.75833,-5
4.76667,-6
4.77500,-6
4.78333,-6
4.79167,-6
4.80000,-6
4.80833,-7
4.81667,-7
4.82500,-7
4.83333,-7
4.84167,-6
4.85000,-6
4.85833,-6
4.86667,-5
4.87500,-5
4.88333,-5
4.89167,-5
4.90000,-5
4.90833,-5
4.91667,-5
4.92500,-5
4.93333,-5
4.94167,-5
4.95000,-5
4.95833,-5
4.96667,-5
4.97500,-5
4.98333,-6
4.99167,-6
5.00000,-6
5.00833,-6
5.01667,-5
5.02500,-5
5.03333,-5
5.04167,-5
5.05000,-5
5.05833,-6
5.06667,-6
5.07500,-6
5.08333,-6
5.09167,-6
5.10000,-6
5.10833,-6
5.11667,-6
5.12500,-6
5.13333,-6
5.14167,-6
5.15000,-6
5.15833,-6
5.16667,-6
5.17500,-6
5.18333,-6
5.19167,-6
5.20000,-5
5.20833,-5
5.21667,-6
5.22500,-6
5.23333,-6
5.24167,-6
5.25000,-6
5.25833,-5
5.26667,-5
5.27500,-6
5.28333,-6
5.29167,-6
5.30000,-6
5.30833,-6
5.31667,-6
5.32500,-6
5.33333,-6
5.34167,-6
5.35000,-6
5.35833,-5
5.36667,-5
5.37500,-5
5.38333,-5
5.39167,-5
5.40000,-4
5.40833,-4
5.41667,-4
5.42500,-5
5.43333,-5
5.44167,-5
5.45000,-5
5.45833,-5
5.46667,-6
5.47500,-6
5.48333,-6
5.49167,-6
5.50000,-6
5.50833,-6
5.51667,-6
5.52500,-6
5.53333,-6
5.54167,-6
5.55000,-6
5.55833,-6
5.56667,-6
5.57500,-6
5.58333,-6
5.59167,-6
5.60000,-6
5.60833,-6
5.61667,-6
5.62500,-6
5.63333,-6
5.64167,-6
5.65000,-6
5.65833,-6
5.66667,-5
5.67500,-5
5.68333,-6
5.69167,-6
5.70000,-6
5.70833,-6
5.71667,-6
5.72500,-6
5.73333,-5
5.74167,-5
5.75000,-5
5.75833,-5
5.76667,-5
5.77500,-5
5.78333,-5
5.79167,-5
5.80000,-5
5.80833,-6
5.81667,-6
5.82500,-6
5.83333,-6
5.84167,-7
5.85000,-6
5.85833,-6
5.86667,-6
5.87500,-6
5.88333,-6
5.89167,-6
5.90000,-6
5.90833,-6
5.91667,-6
5.92500,-7
5.93333,-7
5.94167,-7
5.95000,-7
5.95833,-7
5.96667,-7
5.97500,-7
5.98333,-7
5.99167,-7
6.00000,-7
6.00833,-6
6.01667,-6
6.02500,-6
6.03333,-6
6.04167,-6
6.05000,-7
6.05833,-7
6.06667,-7
6.07500,-7
6.08333,-7
6.09167,-7
6.10000,-7
6.10833,-7
6.11667,-7
6.12500,-7
6.13333,-7
6.14167,-7
6.15000,-7
6.15833,-7
6.16667,-7
6.17500,-7
6.18333,-7
6.19167,-7
6.20000,-7
6.20833,-7
6.21667,-7
6.22500,-7
6.23333,-6
6.24167,-7
6.25000,-7
6.25833,-7
6.26667,-7
6.27500,-7
6.28333,-7
6.29167,-7
6.30000,-7
6.30833,-7
6.31667,-7
6.32500,-7
6.33333,-7
6.34167,-7
6.35000,-7
6.35833,-7
6.36667,-7
6.37500,-7
6.38333,-7
6.39167,-6
6.40000,-6
6.40833,-6
6.41667,-6
6.42500,-6
6.43333,-7
6.44167,-7
6.45000,-7
6.45833,-6
6.46667,-6
6.47500,-6
6.48333,-6
6.49167,-6
6.50000,-6
6.50833,-6
6.51667,-6
6.52500,-6
6.53333,-6
6.54167,-6
6.55000,-6
6.55833,-6
6.56667,-6
6.57500,-6
6.58333,-6
6.59167,-6
6.60000,-6
6.60833,-7
6.61667,-7
6.62500,-6
6.63333,-6
6.64167,-6
6.65000,-6
6.65833,-6
6.66667,-6
6.67500,-6
6.68333,-6
6.69167,-6
6.70000,-6
6.70833,-6
6.71667,-6
6.72500,-6
6.73333,-7
6.74167,-7
6.75000,-7
6.75833,-6
6.76667,-6
6.77500,-6
6.78333,-6
6.79167,-6
6.80000,-6
6.80833,-6
6.81667,-6
6.82500,-6
6.83333,-6
6.84167,-6
6.85000,-6
6.85833,-5
6.86667,-5
6.87500,-6
6.88333,-6
6.89167,-6
6.90000,-6
6.90833,-6
6.91667,-6
6.92500,-5
6.93333,-5
6.94167,-5
6.95000,-5
6.95833,-5
6.96667,-5
6.97500,-5
6.98333,-5
6.99167,-5
7.00000,-5
7.00833,-5
7.01667,-5
7.02500,-5
7.03333,-5
7.04167,-5
7.05000,-5
7.05833,-5
7.06667,-5
7.07500,-5
7.08333,-5
7.09167,-5
7.10000,-5
7.10833,-5
7.11667,-5
7.12500,-5
7.13333,-6
7.14167,-6
7.15000,-6
7.15833,-5
7.16667,-5
7.17500,-5
7.18333,-5
7.19167,-6
7.20000,-6
7.20833,-7
7.21667,-7
7.22500,-7
7.23333,-6
7.24167,-6
7.25000,-6
7.25833,-6
7.26667,-6
7.27500,-6
7.28333,-6
7.29167,-6
7.30000,-5
7.30833,-5
7.31667,-5
7.32500,-5
7.33333,-6
7.34167,-6
7.35000,-6
7.35833,-6
7.36667,-6
7.37500,-6
7.38333,-6
7.39167,-6
7.40000,-6
7.40833,-6
7.41667,-7
7.42500,-7
7.43333,-7
7.44167,-6
7.45000,-6
7.45833,-7
7.46667,-6
7.47500,-6
7.48333,-6
7.49167,-6
7.50000,-6
7.50833,-6
7.51667,-6
7.52500,-7
7.53333,-7
7.54167,-7
7.55000,-6
7.55833,-6
7.56667,-6
7.57500,-6
7.58333,-6
7.59167,-6
7.60000,-6
7.60833,-6
7.61667,-6
7.62500,-6
7.63333,-6
7.64167,-5
7.65000,-5
7.65833,-5
7.66667,-5
7.67500,-5
7.68333,-5
7.69167,-5
7.70000,-6
7.70833,-6
7.71667,-6
7.72500,-6
7.73333,-6
7.74167,-6
7.75000,-6
7.75833,-7
7.76667,-7
7.77500,-7
7.78333,-7
7.79167,-7
7.80000,-6
7.80833,-6
7.81667,-6
7.82500,-7
7.83333,-6
7.84167,-6
7.85000,-7
7.85833,-7
7.86667,-7
7.87500,-7
7.88333,-7
7.89167,-7
7.90000,-7
7.90833,-7
7.91667,-7
7.92500,-7
7.93333,-7
7.94167,-7
7.95000,-7
7.95833,-7
7.96667,-7
7.97500,-7
7.98333,-7
7.99167,-7
8.00000,-7
8.00833,-7
8.01667,-7
8.02500,-7
8.03333,-7
8.04167,-7
8.05000,-7
8.05833,-7
8.06667,-8
8.07500,-8
8.08333,-7
8.09167,-7
8.10000,-7
8.10833,-7
8.11667,-7
8.12500,-8
8.13333,-8
8.14167,-8
8.15000,-8
8.15833,-8
8.16667,-8
8.17500,-8
8.18333,-8
8.19167,-8
8.20000,-8
8.20833,-8
8.21667,-8
8.22500,-8
8.23333,-7
8.24167,-7
8.25000,-7
8.25833,-7
8.26667,-7
8.27500,-7
8.28333,-6
8.29167,-6
8.30000,-7
8.30833,-7
8.31667,-7
8.32500,-7
8.33333,-7
8.34167,-7
8.35000,-7
8.35833,-7
8.36667,-7
8.37500,-7
8.38333,-8
8.39167,-8
8.40000,-8
8.40833,-8
8.41667,-7
8.42500,-7
8.43333,-7
8.44167,-7
8.45000,-8
8.45833,-8
8.46667,-8
8.47500,-8
8.48333,-8
8.49167,-8
8.50000,-8
8.50833,-8
8.51667,-8
8.52500,-8
8.53333,-8
8.54167,-8
8.55000,-8
8.55833,-8
8.56667,-8
8.57500,-8
8.58333,-8
8.59167,-8
8.60000,-8
8.60833,-8
8.61667,-8
8.62500,-8
8.63333,-8
8.64167,-8
8.65000,-8
8.65833,-8
8.66667,-8
8.67500,-8
8.68333,-8
8.69167,-8
8.70000,-8
8.70833,-8
8.71667,-8
8.72500,-9
8.73333,-8
8.74167,-9
8.75000,-9
8.75833,-8
8.76667,-8
8.77500,-8
8.78333,-8
8.79167,-8
8.80000,-8
8.80833,-8
8.81667,-8
8.82500,-8
8.83333,-7
8.84167,-7
8.85000,-7
8.85833,-7
8.86667,-7
8.87500,-7
8.88333,-7
8.89167,-7
8.90000,-7
8.90833,-7
8.91667,-7
8.92500,-7
8.93333,-7
8.94167,-8
8.95000,-8
8.95833,-8
8.96667,-8
8.97500,-7
8.98333,-7
8.99167,-7
9.00000,-7
9.00833,-7
9.01667,-7
9.02500,-7
9.03333,-7
9.04167,-7
9.05000,-7
9.05833,-7
9.06667,-7
9.07500,-7
9.08333,-7
9.09167,-7
9.10000,-7
9.10833,-7
9.11667,-7
9.12500,-7
9.13333,-7
9.14167,-7
9.15000,-7
9.15833,-7
9.16667,-7
9.17500,-8
9.18333,-8
9.19167,-8
9.20000,-8
9.20833,-8
9.21667,-7
9.22500,-7
9.23333,-7
9.24167,-7
9.25000,-7
9.25833,-7
9.26667,-7
9.27500,-7
9.28333,-8
9.29167,-8
9.30000,-8
9.30833,-8
9.31667,-8
9.32500,-8
9.33333,-8
9.34167,-8
9.35000,-8
9.35833,-7
9.36667,-7
9.37500,-7
9.38333,-7
9.39167,-7
9.40000,-7
9.40833,-7
9.41667,-7
9.42500,-7
9.43333,-7
9.44167,-7
9.45000,-8
9.45833,-8
9.46667,-8
9.47500,-8
9.48333,-7
9.49167,-7
9.50000,-7
9.50833,-7
9.51667,-7
9.52500,-8
9.53333,-8
9.54167,-8
9.55000,-8
9.55833,-8
9.56667,-8
9.57500,-8
9.58333,-8
9.59167,-8
9.60000,-8
9.60833,-8
9.61667,-8
9.62500,-9
9.63333,-9
9.64167,-9
9.65000,-9
9.65833,-9
9.66667,-8
9.67500,-8
9.68333,-8
9.69167,-8
9.70000,-8
9.70833,-8
9.71667,-8
9.72500,-8
9.73333,-8
9.74167,-8
9.75000,-7
9.75833,-7
9.76667,-7
9.77500,-8
9.78333,-8
9.79167,-8
9.80000,-8
9.80833,-8
9.81667,-8
9.82500,-8
9.83333,-8
9.84167,-8
9.85000,-8
9.85833,-8
9.86667,-8
9.87500,-8
9.88333,-8
9.89167,-8
9.90000,-8
9.90833,-8
9.91667,-8
9.92500,-8
9.93333,-8
9.94167,-8
9.95000,-8
9.95833,-8
9.96667,-8
9.97500,-7
9.98333,-7
9.99167,-7
10.00000,-7
10.00833,-7
10.01667,-7
10.02500,-7
10.03333,-7
10.04167,-7
10.05000,-7
10.05833,-8
10.06667,-8
10.07500,-7
10.08333,-7
10.09167,-7
10.10000,-7
10.10833,-8
10.11667,-8
10.12500,-9
10.13333,-9
10.14167,-9
10.15000,-9
10.15833,-9
10.16667,-9
10.17500,-9
10.18333,-9
10.19167,-9
10.20000,-10
10.20833,-10
10.21667,-10
10.22500,-10
10.23333,-10
10.24167,-10
10.25000,-10
10.25833,-10
10.26667,-10
10.27500,-10
10.28333,-9
10.29167,-9
10.30000,-8
10.30833,-8
10.31667,-7
10.32500,-7
10.33333,-6
10.34167,-5
10.35000,-5
10.35833,-3
10.36667,-2
10.37500,-1
10.38333,-0
10.39167,1
10.40000,2
10.40833,3
10.41667,4
10.42500,4
10.43333,5
10.44167,6
10.45000,7
10.45833,8
10.46667,8
10.47500,8
10.48333,8
10.49167,7
10.50000,6
10.50833,4
10.51667,2
10.52500,-1
10.53333,-5
10.54167,-11
10.55000,-19
10.55833,-31
10.56667,-47
10.57500,-68
10.58333,-96
10.59167,-132
10.60000,-177
10.60833,-233
10.61667,-302
10.62500,-386
10.63333,-487
10.64167,-606
10.65000,-744
10.65833,-901
10.66667,-1076
10.67500,-1268
10.68333,-1475
10.69167,-1692
10.70000,-1914
10.70833,-2135
10.71667,-2347
10.72500,-2540
10.73333,-2706
10.74167,-2832
10.75000,-2907
10.75833,-2919
10.76667,-2855
10.77500,-2705
10.78333,-2455
10.79167,-2095
10.80000,-1614
10.80833,-1005
10.81667,-259
10.82500,628
10.83333,1662
10.84167,2843
10.85000,4174
10.85833,5651
10.86667,7270
10.87500,9026
10.88333,10909
10.89167,12908
10.90000,15009
10.90833,17196
10.91667,19449
10.92500,21746
10.93333,24062
10.94167,26370
10.95000,28638
10.95833,30836
10.96667,32928
10.97500,34882
10.98333,36664
10.99167,38240
11.00000,39583
11.00833,40664
11.01667,41464
11.02500,41968
11.03333,42167
11.04167,42061
11.05000,41655
11.05833,40964
11.06667,40008
11.07500,38811
11.08333,37405
11.09167,35821
11.10000,34095
11.10833,32261
11.11667,30353
11.12500,28405
11.13333,26447
11.14167,24505
11.15000,22602
11.15833,20758
11.16667,18989
11.17500,17305
11.18333,15717
11.19167,14231
11.20000,12847
11.20833,11568
11.21667,10393
11.22500,9317
11.23333,8338
11.24167,7451
11.25000,6650
11.25833,5930
11.26667,5283
11.27500,4706
11.28333,4191
11.29167,3733
11.30000,3326
11.30833,2967
11.31667,2648
11.32500,2367
11.33333,2119
11.34167,1900
11.35000,1708
11.35833,1538
11.36667,1389
11.37500,1258
11.38333,1142
11.39167,1040
11.40000,951
11.40833,872
11.41667,802
11.42500,740
11.43333,685
11.44167,636
11.45000,593
11.45833,554
11.46667,519
11.47500,488
11.48333,460
11.49167,434
11.50000,411
11.50833,389
11.51667,370
11.52500,353
11.53333,337
11.54167,322
11.55000,309
11.55833,296
11.56667,284
11.57500,273
11.58333,262
11.59167,252
11.60000,244
11.60833,235
11.61667,227
11.62500,219
11.63333,212
11.64167,205
11.65000,198
11.65833,192
11.66667,186
11.67500,180
11.68333,175
11.69167,171
11.70000,166
11.70833,161
11.71667,156
11.72500,152
11.73333,148
11.74167,144
11.75000,140
11.75833,137
11.76667,133
11.77500,130
11.78333,127
11.79167,124
11.80000,121
11.80833,119
11.81667,117
11.82500,114
11.83333,112
11.84167,110
11.85000,109
11.85833,107
11.86667,105
11.87500,103
11.88333,102
11.89167,101
11.90000,99
11.90833,98
11.91667,97
11.92500,96
11.93333,95
11.94167,95
11.95000,93
11.95833,92
11.96667,91
11.97500,90
11.98333,89
11.99167,88
12.00000,87
12.00833,87
12.01667,86
12.02500,85
12.03333,84
12.04167,83
12.05000,82
12.05833,81
12.06667,80
12.07500,80
12.08333,79
12.09167,78
12.10000,78
12.10833,77
12.11667,76
12.12500,76
12.13333,75
12.14167,74
12.15000,74
12.15833,74
12.16667,73
12.17500,73
12.18333,72
12.19167,72
12.20000,71
12.20833,70
12.21667,70
12.22500,69
12.23333,69
12.24167,68
12.25000,67
12.25833,66
12.26667,66
12.27500,66
12.28333,66
12.29167,66
12.30000,66
12.30833,65
12.31667,64
12.32500,64
12.33333,64
12.34167,64
12.35000,64
12.35833,63
12.36667,63
12.37500,62
12.38333,62
12.39167,61
12.40000,61
12.40833,60
12.41667,60
12.42500,59
12.43333,59
12.44167,58
12.45000,58
12.45833,58
12.46667,57
12.47500,57
12.48333,57
12.49167,56
12.50000,56
12.50833,56
12.51667,55
12.52500,55
12.53333,55
12.54167,54
12.55000,54
12.55833,54
12.56667,54
12.57500,54
12.58333,54
12.59167,54
12.60000,53
12.60833,53
12.61667,52
12.62500,52
12.63333,51
12.64167,51
12.65000,50
12.65833,49
12.66667,49
12.67500,49
12.68333,49
12.69167,48
12.70000,48
12.70833,47
12.71667,47
12.72500,47
12.73333,47
12.74167,47
12.75000,46
12.75833,46
12.76667,46
12.77500,46
12.78333,45
12.79167,45
12.80000,45
12.80833,45
12.81667,45
12.82500,45
12.83333,45
12.84167,45
12.85000,44
12.85833,44
12.86667,44
12.87500,44
12.88333,45
12.89167,45
12.90000,45
12.90833,45
12.91667,46
12.92500,46
12.93333,45
12.94167,45
12.95000,45
12.95833,45
12.96667,45
12.97500,46
12.98333,46
12.99167,46
13.00000,46
13.00833,46
13.01667,46
13.02500,47
13.03333,47
13.04167,47
13.05000,47
13.05833,47
13.06667,47
13.07500,47
13.08333,47
13.09167,47
13.10000,47
13.10833,47
13.11667,47
13.12500,47
13.13333,47
13.14167,47
13.15000,47
13.15833,46
13.16667,46
13.17500,46
13.18333,46
13.19167,45
13.20000,45
13.20833,45
13.21667,44
13.22500,44
13.23333,44
13.24167,44
13.25000,44
13.25833,43
13.26667,42
13.27500,42
13.28333,41
13.29167,41
13.30000,41
13.30833,40
13.31667,40
13.32500,39
13.33333,39
13.34167,38
13.35000,38
13.35833,37
13.36667,36
13.37500,36
13.38333,35
13.39167,35
13.40000,34
13.40833,33
13.41667,33
13.42500,32
13.43333,31
13.44167,31
13.45000,30
13.45833,30
13.46667,29
13.47500,28
13.48333,27
13.49167,27
13.50000,27
13.50833,27
13.51667,27
13.52500,27
13.53333,26
13.54167,26
13.55000,25
13.55833,25
13.56667,24
13.57500,24
13.58333,23
13.59167,22
13.60000,22
13.60833,22
13.61667,21
13.62500,21
13.63333,21
13.64167,21
13.65000,20
13.65833,20
13.66667,19
13.67500,19
13.68333,19
13.69167,19
13.70000,18
13.70833,18
13.71667,17
13.72500,17
13.73333,17
13.74167,17
13.75000,16
13.75833,16
13.76667,16
13.77500,16
13.78333,16
13.79167,16
13.80000,16
13.80833,16
13.81667,16
13.82500,16
13.83333,16
13.84167,16
13.85000,16
13.85833,16
13.86667,16
13.87500,17
13.88333,17
13.89167,17
13.90000,17
13.90833,17
13.91667,16
13.92500,16
13.93333,16
13.94167,16
13.95000,16
13.95833,17
13.96667,17
13.97500,18
13.98333,18
13.99167,18
14.00000,18
14.00833,19
14.01667,18
14.02500,18
14.03333,18
14.04167,19
14.05000,19
14.05833,20
14.06667,20
14.07500,21
14.08333,21
14.09167,22
14.10000,23
14.10833,23
14.11667,24
14.12500,26
14.13333,27
14.14167,28
14.15000,30
14.15833,32
14.16667,34
14.17500,36
14.18333,39
14.19167,43
14.20000,48
14.20833,53
14.21667,60
14.22500,68
14.23333,77
14.24167,89
14.25000,103
14.25833,120
14.26667,141
14.27500,165
14.28333,195
14.29167,231
14.30000,273
14.30833,323
14.31667,382
14.32500,452
14.33333,532
14.34167,626
14.35000,735
14.35833,861
14.36667,1004
14.37500,1167
14.38333,1352
14.39167,1560
14.40000,1792
14.40833,2050
14.41667,2337
14.42500,2653
14.43333,3000
14.44167,3378
14.45000,3790
14.45833,4235
14.46667,4715
14.47500,5230
14.48333,5781
14.49167,6368
14.50000,6991
14.50833,7651
14.51667,8347
14.52500,9081
14.53333,9850
14.54167,10655
14.55000,11495
14.55833,12370
14.56667,13279
14.57500,14222
14.58333,15199
14.59167,16208
14.60000,17249
14.60833,18321
14.61667,19425
14.62500,20558
14.63333,21720
14.64167,22911
14.65000,24129
14.65833,25375
14.66667,26647
14.67500,27946
14.68333,29269
14.69167,30617
14.70000,31989
14.70833,33385
14.71667,34803
14.72500,36244
14.73333,37707
14.74167,39192
14.75000,40697
14.75833,42222
14.76667,43767
14.77500,45331
14.78333,46914
14.79167,48514
14.80000,50131
14.80833,51765
14.81667,53413
14.82500,55075
14.83333,56750
14.84167,58436
14.85000,60132
14.85833,61835
14.86667,63544
14.87500,65255
14.88333,66964
14.89167,68667
14.90000,70356
14.90833,72021
14.91667,73651
14.92500,75229
14.93333,76735
14.94167,78142
14.95000,79419
14.95833,80530
14.96667,81435
14.97500,82090
14.98333,82451
14.99167,82475
15.00000,82126
15.00833,81373
15.01667,80195
15.02500,78585
15.03333,76548
15.04167,74105
15.05000,71287
15.05833,68140
15.06667,64718
15.07500,61083
15.08333,57299
15.09167,53432
15.10000,49546
15.10833,45698
15.11667,41941
15.12500,38320
15.13333,34869
15.14167,31614
15.15000,28574
15.15833,25760
15.16667,23175
15.17500,20817
15.18333,18681
15.19167,16758
15.20000,15035
15.20833,13501
15.21667,12141
15.22500,10942
15.23333,9891
15.24167,8974
15.25000,8181
15.25833,7501
15.26667,6924
15.27500,6443
15.28333,6049
15.29167,5737
15.30000,5503
15.30833,5340
15.31667,5246
15.32500,5219
15.33333,5255
15.34167,5353
15.35000,5510
15.35833,5726
15.36667,5998
15.37500,6326
15.38333,6707
15.39167,7140
15.40000,7624
15.40833,8155
15.41667,8730
15.42500,9346
15.43333,10000
15.44167,10687
15.45000,11403
15.45833,12143
15.46667,12901
15.47500,13672
15.48333,14448
15.49167,15225
15.50000,15996
15.50833,16753
15.51667,17491
15.52500,18202
15.53333,18881
15.54167,19520
15.55000,20116
15.55833,20661
15.56667,21152
15.57500,21585
15.58333,21955
15.59167,22261
15.60000,22498
15.60833,22667
15.61667,22767
15.62500,22798
15.63333,22760
15.64167,22655
15.65000,22485
15.65833,22251
15.66667,21958
15.67500,21608
15.68333,21206
15.69167,20756
15.70000,20262
15.70833,19728
15.71667,19161
15.72500,18564
15.73333,17942
15.74167,17300
15.75000,16643
15.75833,15975
15.76667,15300
15.77500,14622
15.78333,13945
15.79167,13273
15.80000,12609
15.80833,11956
15.81667,11315
15.82500,10691
15.83333,10083
15.84167,9495
15.85000,8927
15.85833,8381
15.86667,7858
15.87500,7358
15.88333,6881
15.89167,6428
15.90000,5998
15.90833,5591
15.91667,5207
15.92500,4846
15.93333,4506
15.94167,4188
15.95000,3890
15.95833,3611
15.96667,3352
15.97500,3111
15.98333,2887
15.99167,2679
16.00000,2486
16.00833,2308
16.01667,2143
16.02500,1992
16.03333,1852
16.04167,1723
16.05000,1605
16.05833,1496
16.06667,1396
16.07500,1304
16.08333,1219
16.09167,1142
16.10000,1072
16.10833,1007
16.11667,948
16.12500,893
16.13333,843
16.14167,798
16.15000,756
16.15833,717
16.16667,683
16.17500,651
16.18333,622
16.19167,595
16.20000,569
16.20833,546
16.21667,525
16.22500,506
16.23333,487
16.24167,470
16.25000,455
16.25833,440
16.26667,427
16.27500,415
16.28333,403
16.29167,393
16.30000,383
16.30833,374
16.31667,365
16.32500,357
16.33333,349
16.34167,342
16.35000,335
16.35833,328
16.36667,322
16.37500,316
16.38333,311
16.39167,306
16.40000,301
16.40833,296
16.41667,292
16.42500,288
16.43333,285
16.44167,281
16.45000,277
16.45833,274
16.46667,271
16.47500,268
16.48333,265
16.49167,262
16.50000,259
16.50833,256
16.51667,253
16.52500,251
16.53333,249
16.54167,246
16.55000,244
16.55833,242
16.56667,240
16.57500,238
16.58333,236
16.59167,235
16.60000,233
16.60833,231
16.61667,229
16.62500,227
16.63333,225
16.64167,223
16.65000,221
16.65833,219
16.66667,218
16.67500,216
16.68333,215
16.69167,214
16.70000,212
16.70833,210
16.71667,209
16.72500,208
16.73333,207
16.74167,205
16.75000,204
16.75833,203
16.76667,202
16.77500,200
16.78333,199
16.79167,198
16.80000,196
16.80833,195
16.81667,195
16.82500,194
16.83333,193
16.84167,191
16.85000,190
16.85833,189
16.86667,188
16.87500,187
16.88333,186
16.89167,184
16.90000,183
16.90833,182
16.91667,181
16.92500,179
16.93333,178
16.94167,177
16.95000,176
16.95833,175
16.96667,174
16.97500,173
16.98333,171
16.99167,170
17.00000,169
17.00833,168
17.01667,167
17.02500,166
17.03333,165
17.04167,164
17.05000,163
17.05833,162
17.06667,161
17.07500,161
17.08333,160
17.09167,159
17.10000,157
17.10833,156
17.11667,156
17.12500,155
17.13333,154
17.14167,152
17.15000,151
17.15833,150
17.16667,150
17.17500,149
17.18333,148
17.19167,147
17.20000,145
17.20833,144
17.21667,143
17.22500,143
17.23333,142
17.24167,141
17.25000,140
17.25833,140
17.26667,139
17.27500,138
17.28333,138
17.29167,137
17.30000,136
17.30833,136
17.31667,135
17.32500,134
17.33333,133
17.34167,132
17.35000,131
17.35833,130
17.36667,129
17.37500,128
17.38333,127
17.39167,126
17.40000,125
17.40833,124
17.41667,124
17.42500,123
17.43333,122
17.44167,121
17.45000,121
17.45833,120
17.46667,119
17.47500,118
17.48333,117
17.49167,117
17.50000,116
17.50833,116
17.51667,115
17.52500,114
17.53333,113
17.54167,112
17.55000,112
17.55833,111
17.56667,110
17.57500,110
17.58333,109
17.59167,109
17.60000,108
17.60833,107
17.61667,106
17.62500,106
17.63333,105
17.64167,104
17.65000,104
17.65833,104
17.66667,103
17.67500,102
17.68333,102
17.69167,101
17.70000,101
17.70833,100
17.71667,99
17.72500,98
17.73333,98
17.74167,97
17.75000,96
17.75833,95
17.76667,95
17.77500,94
17.78333,94
17.79167,94
17.80000,93
17.80833,92
17.81667,92
17.82500,91
17.83333,91
17.84167,90
17.85000,90
17.85833,89
17.86667,89
17.87500,89
17.88333,88
17.89167,87
17.90000,86
17.90833,86
17.91667,85
17.92500,85
17.93333,85
17.94167,84
17.95000,84
17.95833,83
17.96667,83
17.97500,82
17.98333,81
17.99167,80
18.00000,80
18.00833,79
18.01667,79
18.02500,78
18.03333,78
18.04167,77
18.05000,77
18.05833,77
18.06667,76
18.07500,76
18.08333,75
18.09167,75
18.10000,74
18.10833,74
18.11667,74
18.12500,73
18.13333,73
18.14167,72
18.15000,72
18.15833,71
18.16667,71
18.17500,70
18.18333,70
18.19167,69
18.20000,69
18.20833,69
18.21667,68
18.22500,68
18.23333,68
18.24167,67
18.25000,67
18.25833,66
18.26667,65
18.27500,65
18.28333,64
18.29167,64
18.30000,64
18.30833,63
18.31667,62
18.32500,62
18.33333,62
18.34167,61
18.35000,61
18.35833,60
18.36667,60
18.37500,59
18.38333,59
18.39167,58
18.40000,58
18.40833,58
18.41667,58
18.42500,57
18.43333,57
18.44167,57
18.45000,56
18.45833,56
18.46667,56
18.47500,56
18.48333,55
18.49167,55
18.50000,55
18.50833,55
18.51667,54
18.52500,54
18.53333,54
18.54167,53
18.55000,53
18.55833,53
18.56667,52
18.57500,52
18.58333,52
18.59167,53
18.60000,53
18.60833,52
18.61667,52
18.62500,52
18.63333,52
18.64167,52
18.65000,52
18.65833,52
18.66667,52
18.67500,52
18.68333,52
18.69167,52
18.70000,53
18.70833,53
18.71667,53
18.72500,54
18.73333,55
18.74167,55
18.75000,56
18.75833,56
18.76667,57
18.77500,58
18.78333,59
18.79167,60
18.80000,61
18.80833,62
18.81667,63
18.82500,64
18.83333,64
18.84167,65
18.85000,66
18.85833,68
18.86667,69
18.87500,70
18.88333,72
18.89167,73
18.90000,74
18.90833,74
18.91667,75
18.92500,75
18.93333,76
18.94167,76
18.95000,76
18.95833,76
18.96667,77
18.97500,77
18.98333,77
18.99167,77
19.00000,77
19.00833,76
19.01667,76
19.02500,75
19.03333,74
19.04167,73
19.05000,72
19.05833,71
19.06667,71
19.07500,70
19.08333,68
19.09167,67
19.10000,66
19.10833,64
19.11667,63
19.12500,62
19.13333,61
19.14167,59
19.15000,58
19.15833,56
19.16667,54
19.17500,53
19.18333,52
19.19167,50
19.20000,49
19.20833,48
19.21667,47
19.22500,46
19.23333,45
19.24167,43
19.25000,42
19.25833,42
19.26667,41
19.27500,40
19.28333,38
19.29167,37
19.30000,36
19.30833,36
19.31667,35
19.32500,35
19.33333,34
19.34167,34
19.35000,34
19.35833,33
19.36667,32
19.37500,32
19.38333,31
19.39167,31
19.40000,30
19.40833,30
19.41667,30
19.42500,29
19.43333,29
19.44167,29
19.45000,28
19.45833,28
19.46667,28
19.47500,27
19.48333,27
19.49167,27
19.50000,27
19.50833,27
19.51667,27
19.52500,26
19.53333,26
19.54167,25
19.55000,25
19.55833,25
19.56667,25
19.57500,25
19.58333,25
19.59167,25
19.60000,24
19.60833,24
19.61667,23
19.62500,23
19.63333,23
19.64167,23
19.65000,23
19.65833,23
19.66667,23
19.67500,23
19.68333,23
19.69167,22
19.70000,22
19.70833,22
19.71667,23
19.72500,22
19.73333,22
19.74167,22
19.75000,22
19.75833,22
19.76667,21
19.77500,21
19.78333,20
19.79167,20
19.80000,20
19.80833,20
19.81667,20
19.82500,19
19.83333,19
19.84167,19
19.85000,19
19.85833,19
19.86667,19
19.87500,19
19.88333,19
19.89167,19
19.90000,18
19.90833,18
19.91667,18
19.92500,18
19.93333,18
19.94167,17
19.95000,17
19.95833,16
19.96667,16
19.97500,15
19.98333,15
19.99167,15
20.00000,15
20.00833,15
20.01667,15
20.02500,15
20.03333,15
20.04167,15
20.05000,15
20.05833,15
20.06667,15
20.07500,15
20.08333,15
20.09167,15
20.10000,15
20.10833,15
20.11667,14
20.12500,14
20.13333,14
20.14167,14
20.15000,14
20.15833,14
20.16667,14
20.17500,14
20.18333,13
20.19167,13
20.20000,14
20.20833,14
20.21667,14
20.22500,14
20.23333,14
20.24167,13
20.25000,13
20.25833,12
20.26667,13
20.27500,13
20.28333,13
20.29167,13
20.30000,12
20.30833,12
20.31667,12
20.32500,12
20.33333,12
20.34167,12
20.35000,12
20.35833,12
20.36667,12
20.37500,12
20.38333,11
20.39167,11
20.40000,11
20.40833,11
20.41667,11
20.42500,11
20.43333,11
20.44167,11
20.45000,11
20.45833,11
20.46667,10
20.47500,10
20.48333,10
20.49167,9
20.50000,9
20.50833,9
20.51667,9
20.52500,9
20.53333,9
20.54167,9
20.55000,9
20.55833,9
20.56667,8
20.57500,8
20.58333,8
20.59167,8
20.60000,8
20.60833,8
20.61667,8
20.62500,8
20.63333,8
20.64167,7
20.65000,7
20.65833,6
20.66667,6
20.67500,5
20.68333,5
20.69167,5
20.70000,5
20.70833,5
20.71667,5
20.72500,6
20.73333,6
20.74167,6
20.75000,6
20.75833,6
20.76667,5
20.77500,5
20.78333,5
20.79167,5
20.80000,5
20.80833,5
20.81667,5
20.82500,5
20.83333,5
20.84167,4
20.85000,4
20.85833,5
20.86667,5
20.87500,4
20.88333,5
20.89167,5
20.90000,5
20.90833,5
20.91667,4
20.92500,4
20.93333,4
20.94167,4
20.95000,3
20.95833,3
20.96667,3
20.97500,3
20.98333,3
20.99167,3
21.00000,3
21.00833,4
21.01667,4
21.02500,4
21.03333,4
21.04167,4
21.05000,3
21.05833,3
21.06667,3
21.07500,3
21.08333,3
21.09167,3
21.10000,3
21.10833,2
21.11667,2
21.12500,2
21.13333,2
21.14167,2
21.15000,2
21.15833,2
21.16667,2
21.17500,2
21.18333,2
21.19167,2
21.20000,2
21.20833,1
21.21667,1
21.22500,1
21.23333,0
21.24167,-0
21.25000,0
21.25833,0
21.26667,1
21.27500,1
21.28333,1
21.29167,1
21.30000,1
21.30833,1
21.31667,1
21.32500,1
21.33333,1
21.34167,1
21.35000,1
21.35833,2
21.36667,2
21.37500,2
21.38333,1
21.39167,1
21.40000,1
21.40833,1
21.41667,1
21.42500,1
21.43333,1
21.44167,1
21.45000,1
21.45833,0
21.46667,0
21.47500,1
21.48333,0
21.49167,0
21.50000,0
21.50833,0
21.51667,0
21.52500,0
21.53333,0
21.54167,0
21.55000,0
21.55833,0
21.56667,0
21.57500,0
21.58333,0
21.59167,0
21.60000,1
21.60833,1
21.61667,1
21.62500,2
21.63333,2
21.64167,2
21.65000,2
21.65833,2
21.66667,2
21.67500,2
21.68333,2
21.69167,2
21.70000,2
21.70833,2
21.71667,3
21.72500,2
21.73333,2
21.74167,2
21.75000,2
21.75833,2
21.76667,2
21.77500,2
21.78333,2
21.79167,2
21.80000,2
21.80833,1
21.81667,1
21.82500,2
21.83333,2
21.84167,2
21.85000,2
21.85833,3
21.86667,3
21.87500,3
21.88333,3
21.89167,3
21.90000,3
21.90833,3
21.91667,3
21.92500,3
21.93333,3
21.94167,3
21.95000,2
21.95833,2
21.96667,2
21.97500,3
21.98333,3
21.99167,3
22.00000,2
22.00833,2
22.01667,2
22.02500,2
22.03333,2
22.04167,2
22.05000,2
22.05833,2
22.06667,2
22.07500,1
22.08333,1
22.09167,1
22.10000,1
22.10833,1
22.11667,1
22.12500,1
22.13333,1
22.14167,1
22.15000,0
22.15833,-0
22.16667,-0
22.17500,-1
22.18333,-1
22.19167,-1
22.20000,-1
22.20833,-1
22.21667,-1
22.22500,-1
22.23333,-1
22.24167,-1
22.25000,-1
22.25833,-1
22.26667,-1
22.27500,-2
22.28333,-2
22.29167,-2
22.30000,-2
22.30833,-2
22.31667,-2
22.32500,-2
22.33333,-2
22.34167,-2
22.35000,-3
22.35833,-3
22.36667,-3
22.37500,-3
22.38333,-3
22.39167,-3
22.40000,-4
22.40833,-4
22.41667,-4
22.42500,-3
22.43333,-4
22.44167,-4
22.45000,-4
22.45833,-4
22.46667,-4
22.47500,-4
22.48333,-4
22.49167,-4
22.50000,-4
22.50833,-5
22.51667,-5
22.52500,-4
22.53333,-4
22.54167,-4
22.55000,-4
22.55833,-4
22.56667,-4
22.57500,-5
22.58333,-5
22.59167,-5
22.60000,-5
22.60833,-5
22.61667,-4
22.62500,-4
22.63333,-4
22.64167,-4
22.65000,-4
22.65833,-4
22.66667,-4
22.67500,-4
22.68333,-4
22.69167,-4
22.70000,-4
22.70833,-4
22.71667,-5
22.72500,-4
22.73333,-4
22.74167,-4
22.75000,-4
22.75833,-4
22.76667,-4
22.77500,-4
22.78333,-4
22.79167,-4
22.80000,-4
22.80833,-4
22.81667,-4
22.82500,-4
22.83333,-4
22.84167,-4
22.85000,-3
22.85833,-3
22.86667,-3
22.87500,-3
22.88333,-3
22.89167,-2
22.90000,-2
22.90833,-2
22.91667,-1
22.92500,-0
22.93333,0
22.94167,0
22.95000,0
22.95833,0
22.96667,0
22.97500,1
22.98333,1
22.99167,2
23.00000,2
23.00833,2
23.01667,2
23.02500,3
23.03333,4
23.04167,4
23.05000,5
23.05833,5
23.06667,6
23.07500,7
23.08333,7
23.09167,8
23.10000,8
23.10833,8
23.11667,8
23.12500,9
23.13333,9
23.14167,10
23.15000,10
23.15833,10
23.16667,11
23.17500,11
23.18333,12
23.19167,12
23.20000,12
23.20833,12
23.21667,12
23.22500,12
23.23333,12
23.24167,12
23.25000,12
23.25833,11
23.26667,11
23.27500,11
23.28333,11
23.29167,10
23.30000,10
23.30833,10
23.31667,10
23.32500,9
23.33333,9
23.34167,8
23.35000,8
23.35833,7
23.36667,7
23.37500,7
23.38333,6
23.39167,6
23.40000,5
23.40833,5
23.41667,4
23.42500,3
23.43333,3
23.44167,2
23.45000,2
23.45833,1
23.46667,1
23.47500,0
23.48333,-0
23.49167,-1
23.50000,-1
23.50833,-1
23.51667,-2
23.52500,-2
23.53333,-2
23.54167,-2
23.55000,-3
23.55833,-3
23.56667,-4
23.57500,-4
23.58333,-4
23.59167,-4
23.60000,-5
23.60833,-5
23.61667,-5
23.62500,-6
23.63333,-5
23.64167,-6
23.65000,-6
23.65833,-6
23.66667,-6
23.67500,-6
23.68333,-7
23.69167,-7
23.70000,-7
23.70833,-7
23.71667,-7
23.72500,-7
23.73333,-7
23.74167,-7
23.75000,-8
23.75833,-8
23.76667,-7
23.77500,-7
23.78333,-7
23.79167,-7
23.80000,-7
23.80833,-7
23.81667,-8
23.82500,-8
23.83333,-8
23.84167,-8
23.85000,-8
23.85833,-8
23.86667,-8
23.87500,-9
23.88333,-9
23.89167,-9
23.90000,-9
23.90833,-9
23.91667,-9
23.92500,-9
23.93333,-9
23.94167,-10
23.95000,-9
23.95833,-9
23.96667,-9
23.97500,-9
23.98333,-9
23.99167,-9
24.00000,-9
24.00833,-8
24.01667,-8
24.02500,-8
24.03333,-9
24.04167,-9
24.05000,-9
24.05833,-9
24.06667,-9
24.07500,-9
24.08333,-9
24.09167,-9
24.10000,-9
24.10833,-8
24.11667,-8
24.12500,-9
24.13333,-9
24.14167,-9
24.15000,-10
24.15833,-10
24.16667,-9
24.17500,-9
24.18333,-9
24.19167,-9
24.20000,-9
24.20833,-8
24.21667,-8
24.22500,-8
24.23333,-8
24.24167,-8
24.25000,-8
24.25833,-8
24.26667,-8
24.27500,-8
24.28333,-8
24.29167,-8
24.30000,-9
24.30833,-9
24.31667,-9
24.32500,-8
24.33333,-8
24.34167,-8
24.35000,-8
24.35833,-8
24.36667,-8
24.37500,-8
24.38333,-8
24.39167,-8
24.40000,-7
24.40833,-8
24.41667,-8
24.42500,-8
24.43333,-7
24.44167,-7
24.45000,-7
24.45833,-6
24.46667,-6
24.47500,-6
24.48333,-7
24.49167,-7
24.50000,-6
24.50833,-5
24.51667,-5
24.52500,-4
24.53333,-3
24.54167,-3
24.55000,-2
24.55833,-1
24.56667,-1
24.57500,0
24.58333,1
24.59167,2
24.60000,3
24.60833,5
24.61667,6
24.62500,7
24.63333,8
24.64167,10
24.65000,12
24.65833,14
24.66667,16
24.67500,18
24.68333,21
24.69167,24
24.70000,27
24.70833,30
24.71667,33
24.72500,36
24.73333,40
24.74167,44
24.75000,47
24.75833,51
24.76667,55
24.77500,60
24.78333,65
24.79167,70
24.80000,76
24.80833,81
24.81667,86
24.82500,92
24.83333,97
24.84167,103
24.85000,109
24.85833,115
24.86667,120
24.87500,126
24.88333,132
24.89167,138
24.90000,143
24.90833,148
24.91667,153
24.92500,158
24.93333,163
24.94167,167
24.95000,171
24.95833,175
24.96667,179
24.97500,182
24.98333,185
24.99167,188
25.00000,190
25.00833,192
25.01667,194
25.02500,196
25.03333,196
25.04167,196
25.05000,196
25.05833,196
25.06667,196
25.07500,195
25.08333,193
25.09167,191
25.10000,189
25.10833,186
25.11667,183
25.12500,180
25.13333,177
25.14167,173
25.15000,169
25.15833,165
25.16667,161
25.17500,156
25.18333,151
25.19167,146
25.20000,141
25.20833,135
25.21667,130
25.22500,125
25.23333,120
25.24167,114
25.25000,109
25.25833,104
25.26667,99
25.27500,94
25.28333,89
25.29167,84
25.30000,79
25.30833,75
25.31667,71
25.32500,66
25.33333,62
25.34167,58
25.35000,55
25.35833,51
25.36667,47
25.37500,43
25.38333,40
25.39167,37
25.40000,34
25.40833,31
25.41667,29
25.42500,26
25.43333,24
25.44167,22
25.45000,20
25.45833,18
25.46667,16
25.47500,15
25.48333,13
25.49167,11
25.50000,10
25.50833,8
25.51667,7
25.52500,6
25.53333,5
25.54167,4
25.55000,3
25.55833,2
25.56667,2
25.57500,1
25.58333,0
25.59167,-1
25.60000,-1
25.60833,-2
25.61667,-3
25.62500,-3
25.63333,-4
25.64167,-4
25.65000,-5
25.65833,-5
25.66667,-6
25.67500,-6
25.68333,-6
25.69167,-6
25.70000,-6
25.70833,-6
25.71667,-6
25.72500,-6
25.73333,-6
25.74167,-6
25.75000,-6
25.75833,-6
25.76667,-6
25.77500,-6
25.78333,-6
25.79167,-6
25.80000,-6
25.80833,-6
25.81667,-7
25.82500,-7
25.83333,-7
25.84167,-7
25.85000,-7
25.85833,-7
25.86667,-7
25.87500,-6
25.88333,-6
25.89167,-6
25.90000,-6
25.90833,-7
25.91667,-7
25.92500,-7
25.93333,-7
25.94167,-7
25.95000,-7
25.95833,-7
25.96667,-7
25.97500,-7
25.98333,-8
25.99167,-8
26.00000,-8
26.00833,-8
26.01667,-8
26.02500,-8
26.03333,-8
26.04167,-8
26.05000,-8
26.05833,-8
26.06667,-8
26.07500,-8
26.08333,-7
26.09167,-7
26.10000,-8
26.10833,-8
26.11667,-8
26.12500,-8
26.13333,-8
26.14167,-8
26.15000,-8
26.15833,-7
26.16667,-7
26.17500,-7
26.18333,-7
26.19167,-7
26.20000,-7
26.20833,-7
26.21667,-7
26.22500,-7
26.23333,-8
26.24167,-8
26.25000,-8
26.25833,-8
26.26667,-8
26.27500,-8
26.28333,-8
26.29167,-8
26.30000,-8
26.30833,-8
26.31667,-8
26.32500,-8
26.33333,-8
26.34167,-8
26.35000,-8
26.35833,-8
26.36667,-8
26.37500,-7
26.38333,-8
26.39167,-8
26.40000,-8
26.40833,-8
26.41667,-8
26.42500,-8
26.43333,-8
26.44167,-8
26.45000,-8
26.45833,-8
26.46667,-8
26.47500,-8
26.48333,-8
26.49167,-8
26.50000,-8
26.50833,-8
26.51667,-9
26.52500,-9
26.53333,-9
26.54167,-9
26.55000,-8
26.55833,-8
26.56667,-8
26.57500,-8
26.58333,-8
26.59167,-7
26.60000,-7
26.60833,-7
26.61667,-7
26.62500,-7
26.63333,-8
26.64167,-8
26.65000,-8
26.65833,-8
26.66667,-8
26.67500,-7
26.68333,-7
26.69167,-7
26.70000,-8
26.70833,-8
26.71667,-8
26.72500,-8
26.73333,-8
26.74167,-8
26.75000,-8
26.75833,-8
26.76667,-8
26.77500,-8
26.78333,-8
26.79167,-8
26.80000,-8
26.80833,-8
26.81667,-8
26.82500,-7
26.83333,-7
26.84167,-7
26.85000,-8
26.85833,-8
26.86667,-8
26.87500,-8
26.88333,-8
26.89167,-8
26.90000,-8
26.90833,-8
26.91667,-9
26.92500,-9
26.93333,-9
26.94167,-8
26.95000,-8
26.95833,-8
26.96667,-7
26.97500,-8
26.98333,-8
26.99167,-8
27.00000,-8
27.00833,-8
27.01667,-8
27.02500,-8
27.03333,-8
27.04167,-8
27.05000,-8
27.05833,-8
27.06667,-8
27.07500,-8
27.08333,-8
27.09167,-8
27.10000,-8
27.10833,-8
27.11667,-8
27.12500,-8
27.13333,-8
27.14167,-7
27.15000,-7
27.15833,-7
27.16667,-7
27.17500,-7
27.18333,-7
27.19167,-6
27.20000,-6
27.20833,-6
27.21667,-7
27.22500,-7
27.23333,-8
27.24167,-8
27.25000,-8
27.25833,-8
27.26667,-8
27.27500,-8
27.28333,-8
27.29167,-8
27.30000,-8
27.30833,-8
27.31667,-8
27.32500,-8
27.33333,-7
27.34167,-7
27.35000,-6
27.35833,-6
27.36667,-6
27.37500,-6
27.38333,-7
27.39167,-7
27.40000,-6
27.40833,-6
27.41667,-6
27.42500,-6
27.43333,-6
27.44167,-6
27.45000,-6
27.45833,-6
27.46667,-6
27.47500,-6
27.48333,-6
27.49167,-6
27.50000,-6
27.50833,-6
27.51667,-6
27.52500,-6
27.53333,-6
27.54167,-6
27.55000,-6
27.55833,-6
27.56667,-6
27.57500,-6
27.58333,-6
27.59167,-7
27.60000,-7
27.60833,-6
27.61667,-7
27.62500,-7
27.63333,-7
27.64167,-7
27.65000,-7
27.65833,-7
27.66667,-7
27.67500,-7
27.68333,-8
27.69167,-8
27.70000,-8
27.70833,-8
27.71667,-9
27.72500,-9
27.73333,-10
27.74167,-10
27.75000,-11
27.75833,-11
27.76667,-12
27.77500,-13
27.78333,-13
27.79167,-14
27.80000,-15
27.80833,-16
27.81667,-17
27.82500,-18
27.83333,-19
27.84167,-21
27.85000,-22
27.85833,-24
27.86667,-26
27.87500,-28
27.88333,-31
27.89167,-33
27.90000,-35
27.90833,-38
27.91667,-41
27.92500,-45
27.93333,-48
27.94167,-52
27.95000,-56
27.95833,-60
27.96667,-65
27.97500,-70
27.98333,-75
27.99167,-81
28.00000,-87
28.00833,-94
28.01667,-101
28.02500,-108
28.03333,-115
28.04167,-124
28.05000,-132
28.05833,-142
28.06667,-151
28.07500,-161
28.08333,-172
28.09167,-183
28.10000,-194
28.10833,-207
28.11667,-219
28.12500,-233
28.13333,-247
28.14167,-261
28.15000,-275
28.15833,-291
28.16667,-306
28.17500,-323
28.18333,-339
28.19167,-356
28.20000,-374
28.20833,-392
28.21667,-410
28.22500,-429
28.23333,-448
28.24167,-468
28.25000,-488
28.25833,-508
28.26667,-528
28.27500,-549
28.28333,-569
28.29167,-590
28.30000,-611
28.30833,-632
28.31667,-653
28.32500,-673
28.33333,-694
28.34167,-714
28.35000,-733
28.35833,-753
28.36667,-773
28.37500,-793
28.38333,-812
28.39167,-831
28.40000,-850
28.40833,-867
28.41667,-884
28.42500,-901
28.43333,-916
28.44167,-932
28.45000,-946
28.45833,-960
28.46667,-973
28.47500,-985
28.48333,-996
28.49167,-1007
28.50000,-1017
28.50833,-1027
28.51667,-1035
28.52500,-1043
28.53333,-1051
28.54167,-1057
28.55000,-1062
28.55833,-1066
28.56667,-1069
28.57500,-1072
28.58333,-1074
28.59167,-1076
28.60000,-1077
28.60833,-1077
28.61667,-1076
28.62500,-1075
28.63333,-1073
28.64167,-1071
28.65000,-1068
28.65833,-1064
28.66667,-1060
28.67500,-1055
28.68333,-1049
28.69167,-1044
28.70000,-1038
28.70833,-1031
28.71667,-1024
28.72500,-1018
28.73333,-1010
28.74167,-1003
28.75000,-995
28.75833,-987
28.76667,-979
28.77500,-971
28.78333,-963
28.79167,-955
28.80000,-947
28.80833,-938
28.81667,-930
28.82500,-921
28.83333,-913
28.84167,-904
28.85000,-896
28.85833,-888
28.86667,-879
28.87500,-871
28.88333,-863
28.89167,-855
28.90000,-847
28.90833,-839
28.91667,-831
28.92500,-823
28.93333,-816
28.94167,-809
28.95000,-801
28.95833,-794
28.96667,-787
28.97500,-780
28.98333,-773
28.99167,-767
29.00000,-760
29.00833,-754
29.01667,-748
29.02500,-741
29.03333,-735
29.04167,-729
29.05000,-723
29.05833,-718
29.06667,-712
29.07500,-707
29.08333,-701
29.09167,-695
29.10000,-690
29.10833,-685
29.11667,-680
29.12500,-675
29.13333,-670
29.14167,-665
29.15000,-661
29.15833,-656
29.16667,-651
29.17500,-647
29.18333,-642
29.19167,-638
29.20000,-634
29.20833,-629
29.21667,-625
29.22500,-620
29.23333,-616
29.24167,-612
29.25000,-608
29.25833,-604
29.26667,-600
29.27500,-597
29.28333,-593
29.29167,-589
29.30000,-586
29.30833,-582
29.31667,-579
29.32500,-575
29.33333,-571
29.34167,-567
29.35000,-564
29.35833,-560
29.36667,-557
29.37500,-554
29.38333,-550
29.39167,-547
29.40000,-544
29.40833,-541
29.41667,-538
29.42500,-535
29.43333,-532
29.44167,-529
29.45000,-526
29.45833,-523
29.46667,-520
29.47500,-517
29.48333,-515
29.49167,-512
29.50000,-510
29.50833,-508
29.51667,-505
29.52500,-503
29.53333,-501
29.54167,-499
29.55000,-497
29.55833,-495
29.56667,-493
29.57500,-491
29.58333,-489
29.59167,-487
29.60000,-486
29.60833,-484
29.61667,-482
29.62500,-481
29.63333,-480
29.64167,-478
29.65000,-478
29.65833,-477
29.66667,-477
29.67500,-476
29.68333,-476
29.69167,-475
29.70000,-475
29.70833,-475
29.71667,-476
29.72500,-476
29.73333,-476
29.74167,-477
29.75000,-477
29.75833,-478
29.76667,-479
29.77500,-480
29.78333,-481
29.79167,-482
29.80000,-484
29.80833,-485
29.81667,-487
29.82500,-490
29.83333,-492
29.84167,-494
29.85000,-497
29.85833,-500
29.86667,-502
29.87500,-506
29.88333,-509
29.89167,-512
29.90000,-516
29.90833,-520
29.91667,-524
29.92500,-528
29.93333,-533
29.94167,-537
29.95000,-541
29.95833,-546
29.96667,-550
29.97500,-555
29.98333,-560
29.99167,-566
30.00000,-571
30.00833,-576
30.01667,-581
30.02500,-587
30.03333,-592
30.04167,-598
30.05000,-603
30.05833,-609
30.06667,-614
30.07500,-618
30.08333,-623
30.09167,-629
30.10000,-634
30.10833,-639
30.11667,-645
30.12500,-650
30.13333,-655
30.14167,-660
30.15000,-664
30.15833,-669
30.16667,-673
30.17500,-678
30.18333,-682
30.19167,-686
30.20000,-689
30.20833,-693
30.21667,-696
30.22500,-699
30.23333,-702
30.24167,-705
30.25000,-707
30.25833,-710
30.26667,-712
30.27500,-715
30.28333,-716
30.29167,-718
30.30000,-718
30.30833,-719
30.31667,-719
30.32500,-720
30.33333,-720
30.34167,-720
30.35000,-719
30.35833,-718
30.36667,-717
30.37500,-716
30.38333,-716
30.39167,-715
30.40000,-713
30.40833,-711
30.41667,-710
30.42500,-708
30.43333,-706
30.44167,-704
30.45000,-702
30.45833,-700
30.46667,-697
30.47500,-694
30.48333,-691
30.49167,-688
30.50000,-685
30.50833,-681
30.51667,-678
30.52500,-675
30.53333,-671
30.54167,-668
30.55000,-665
30.55833,-661
30.56667,-658
30.57500,-654
30.58333,-651
30.59167,-647
30.60000,-644
30.60833,-640
30.61667,-636
30.62500,-633
30.63333,-630
30.64167,-627
30.65000,-624
30.65833,-620
30.66667,-617
30.67500,-613
30.68333,-610
30.69167,-607
30.70000,-605
30.70833,-602
30.71667,-598
30.72500,-595
30.73333,-592
30.74167,-590
30.75000,-587
30.75833,-585
30.76667,-583
30.77500,-580
30.78333,-578
30.79167,-576
30.80000,-573
30.80833,-571
30.81667,-569
30.82500,-567
30.83333,-565
30.84167,-563
30.85000,-561
30.85833,-559
30.86667,-556
30.87500,-554
30.88333,-552
30.89167,-551
30.90000,-549
30.90833,-548
30.91667,-547
30.92500,-545
30.93333,-543
30.94167,-541
30.95000,-540
30.95833,-538
30.96667,-537
30.97500,-535
30.98333,-534
30.99167,-533
31.00000,-532
31.00833,-531
31.01667,-529
31.02500,-528
31.03333,-527
31.04167,-526
31.05000,-525
31.05833,-523
31.06667,-522
31.07500,-521
31.08333,-520
31.09167,-518
31.10000,-517
31.10833,-516
31.11667,-515
31.12500,-513
31.13333,-512
31.14167,-511
31.15000,-510
31.15833,-509
31.16667,-507
31.17500,-506
31.18333,-505
31.19167,-504
31.20000,-502
31.20833,-501
31.21667,-500
31.22500,-498
31.23333,-497
31.24167,-495
31.25000,-494
31.25833,-493
31.26667,-492
31.27500,-490
31.28333,-489
31.29167,-488
31.30000,-486
31.30833,-484
31.31667,-483
31.32500,-482
31.33333,-481
31.34167,-479
31.35000,-478
31.35833,-476
31.36667,-475
31.37500,-474
31.38333,-472
31.39167,-470
31.40000,-469
31.40833,-468
31.41667,-466
31.42500,-465
31.43333,-463
31.44167,-462
31.45000,-460
31.45833,-458
31.46667,-457
31.47500,-456
31.48333,-454
31.49167,-453
31.50000,-452
31.50833,-451
31.51667,-450
31.52500,-449
31.53333,-448
31.54167,-446
31.55000,-445
31.55833,-444
31.56667,-442
31.57500,-441
31.58333,-440
31.59167,-439
31.60000,-437
31.60833,-436
31.61667,-435
31.62500,-434
31.63333,-432
31.64167,-431
31.65000,-430
31.65833,-429
31.66667,-428
31.67500,-427
31.68333,-426
31.69167,-425
31.70000,-424
31.70833,-423
31.71667,-422
31.72500,-421
31.73333,-420
31.74167,-419
31.75000,-417
31.75833,-416
31.76667,-415
31.77500,-414
31.78333,-413
31.79167,-412
31.80000,-411
31.80833,-410
31.81667,-409
31.82500,-409
31.83333,-408
31.84167,-407
31.85000,-406
31.85833,-405
31.86667,-404
31.87500,-403
31.88333,-403
31.89167,-402
31.90000,-401
31.90833,-401
31.91667,-400
31.92500,-399
31.93333,-398
31.94167,-397
31.95000,-396
31.95833,-396
31.96667,-395
31.97500,-394
31.98333,-393
31.99167,-392
32.00000,-392
32.00833,-391
32.01667,-390
32.02500,-389
32.03333,-389
32.04167,-388
32.05000,-387
32.05833,-387
32.06667,-386
32.07500,-386
32.08333,-385
32.09167,-385
32.10000,-384
32.10833,-383
32.11667,-382
32.12500,-381
32.13333,-381
32.14167,-380
32.15000,-379
32.15833,-379
32.16667,-378
32.17500,-377
32.18333,-377
32.19167,-376
32.20000,-375
32.20833,-373
32.21667,-372
32.22500,-371
32.23333,-370
32.24167,-370
32.25000,-369
32.25833,-368
32.26667,-368
32.27500,-367
32.28333,-367
32.29167,-366
32.30000,-365
32.30833,-364
32.31667,-363
32.32500,-362
32.33333,-361
32.34167,-360
32.35000,-360
32.35833,-359
32.36667,-358
32.37500,-358
32.38333,-357
32.39167,-356
32.40000,-355
32.40833,-354
32.41667,-354
32.42500,-353
32.43333,-352
32.44167,-351
32.45000,-350
32.45833,-349
32.46667,-348
32.47500,-348
32.48333,-347
32.49167,-346
32.50000,-346
32.50833,-345
32.51667,-344
32.52500,-343
32.53333,-343
32.54167,-341
32.55000,-341
32.55833,-340
32.56667,-339
32.57500,-338
32.58333,-338
32.59167,-337
32.60000,-337
32.60833,-336
32.61667,-335
32.62500,-334
32.63333,-333
32.64167,-332
32.65000,-331
32.65833,-330
32.66667,-330
32.67500,-329
32.68333,-328
32.69167,-327
32.70000,-326
32.70833,-325
32.71667,-325
32.72500,-324
32.73333,-323
32.74167,-322
32.75000,-321
32.75833,-320
32.76667,-319
32.77500,-319
32.78333,-318
32.79167,-317
32.80000,-317
32.80833,-316
32.81667,-315
32.82500,-314
32.83333,-313
32.84167,-313
32.85000,-312
32.85833,-311
32.86667,-310
32.87500,-310
32.88333,-309
32.89167,-308
32.90000,-307
32.90833,-306
32.91667,-306
32.92500,-305
32.93333,-304
32.94167,-304
32.95000,-303
32.95833,-303
32.96667,-302
32.97500,-301
32.98333,-300
32.99167,-299
33.00000,-298
33.00833,-298
33.01667,-297
33.02500,-296
33.03333,-296
33.04167,-294
33.05000,-293
33.05833,-292
33.06667,-291
33.07500,-290
33.08333,-290
33.09167,-289
33.10000,-289
33.10833,-288
33.11667,-288
33.12500,-287
33.13333,-286
33.14167,-285
33.15000,-284
33.15833,-283
33.16667,-282
33.17500,-281
33.18333,-281
33.19167,-280
33.20000,-279
33.20833,-278
33.21667,-278
33.22500,-277
33.23333,-276
33.24167,-276
33.25000,-275
33.25833,-274
33.26667,-273
33.27500,-272
33.28333,-272
33.29167,-271
33.30000,-270
33.30833,-269
33.31667,-269
33.32500,-268
33.33333,-268
33.34167,-267
33.35000,-266
33.35833,-265
33.36667,-264
33.37500,-263
33.38333,-262
33.39167,-262
33.40000,-261
33.40833,-260
33.41667,-260
33.42500,-259
33.43333,-258
33.44167,-257
33.45000,-256
33.45833,-256
33.46667,-255
33.47500,-255
33.48333,-254
33.49167,-254
33.50000,-253
33.50833,-252
33.51667,-251
33.52500,-251
33.53333,-250
33.54167,-249
33.55000,-248
33.55833,-248
33.56667,-247
33.57500,-247
33.58333,-246
33.59167,-245
33.60000,-243
33.60833,-243
33.61667,-242
33.62500,-241
33.63333,-240
33.64167,-240
33.65000,-239
33.65833,-239
33.66667,-238
33.67500,-237
33.68333,-236
33.69167,-235
33.70000,-234
33.70833,-234
33.71667,-233
33.72500,-232
33.73333,-232
33.74167,-231
33.75000,-230
33.75833,-230
33.76667,-229
33.77500,-228
33.78333,-227
33.79167,-226
33.80000,-225
33.80833,-225
33.81667,-224
33.82500,-223
33.83333,-223
33.84167,-222
33.85000,-222
33.85833,-221
33.86667,-221
33.87500,-220
33.88333,-219
33.89167,-218
33.90000,-217
33.90833,-216
33.91667,-215
33.92500,-215
33.93333,-214
33.94167,-213
33.95000,-212
33.95833,-212
33.96667,-211
33.97500,-210
33.98333,-210
33.99167,-209
34.00000,-208
34.00833,-208
34.01667,-207
34.02500,-207
34.03333,-206
34.04167,-206
34.05000,-205
34.05833,-204
34.06667,-203
34.07500,-202
34.08333,-202
34.09167,-201
34.10000,-201
34.10833,-200
34.11667,-200
34.12500,-199
34.13333,-198
34.14167,-197
34.15000,-197
34.15833,-196
34.16667,-195
34.17500,-195
34.18333,-194
34.19167,-193
34.20000,-192
34.20833,-191
34.21667,-191
34.22500,-190
34.23333,-189
34.24167,-189
34.25000,-188
34.25833,-188
34.26667,-187
34.27500,-186
34.28333,-186
34.29167,-185
34.30000,-184
34.30833,-184
34.31667,-183
34.32500,-183
34.33333,-182
34.34167,-182
34.35000,-181
34.35833,-180
34.36667,-179
34.37500,-178
34.38333,-178
34.39167,-177
34.40000,-176
34.40833,-176
34.41667,-175
34.42500,-174
34.43333,-174
34.44167,-173
34.45000,-172
34.45833,-172
34.46667,-171
34.47500,-171
34.48333,-170
34.49167,-170
34.50000,-169
34.50833,-169
34.51667,-168
34.52500,-168
34.53333,-167
34.54167,-166
34.55000,-166
34.55833,-165
34.56667,-165
34.57500,-164
34.58333,-163
34.59167,-163
34.60000,-162
34.60833,-162
34.61667,-161
34.62500,-160
34.63333,-159
34.64167,-158
34.65000,-158
34.65833,-158
34.66667,-157
34.67500,-157
34.68333,-156
34.69167,-156
34.70000,-155
34.70833,-155
34.71667,-154
34.72500,-154
34.73333,-153
34.74167,-153
34.75000,-152
34.75833,-152
34.76667,-151
34.77500,-151
34.78333,-150
34.79167,-149
34.80000,-149
34.80833,-148
34.81667,-148
34.82500,-147
34.83333,-147
34.84167,-147
34.85000,-146
34.85833,-145
34.86667,-144
34.87500,-144
34.88333,-143
34.89167,-143
34.90000,-142
34.90833,-142
34.91667,-141
34.92500,-141
34.93333,-140
34.94167,-139
34.95000,-139
34.95833,-138
34.96667,-138
34.97500,-137
34.98333,-137
34.99167,-136
35.00000,-136
35.00833,-135
35.01667,-135
35.02500,-134
35.03333,-134
35.04167,-134
35.05000,-133
35.05833,-132
35.06667,-132
35.07500,-131
35.08333,-130
35.09167,-130
35.10000,-129
35.10833,-129
35.11667,-129
35.12500,-129
35.13333,-128
35.14167,-128
35.15000,-127
35.15833,-127
35.16667,-126
35.17500,-126
35.18333,-125
35.19167,-124
35.20000,-124
35.20833,-123
35.21667,-122
35.22500,-122
35.23333,-122
35.24167,-121
35.25000,-121
35.25833,-120
35.26667,-120
35.27500,-119
35.28333,-119
35.29167,-119
35.30000,-118
35.30833,-118
35.31667,-117
35.32500,-117
35.33333,-116
35.34167,-116
35.35000,-116
35.35833,-115
35.36667,-114
35.37500,-114
35.38333,-114
35.39167,-113
35.40000,-113
35.40833,-112
35.41667,-111
35.42500,-110
35.43333,-110
35.44167,-109
35.45000,-109
35.45833,-108
35.46667,-108
35.47500,-107
35.48333,-107
35.49167,-107
35.50000,-106
35.50833,-106
35.51667,-106
35.52500,-105
35.53333,-105
35.54167,-104
35.55000,-104
35.55833,-103
35.56667,-102
35.57500,-102
35.58333,-102
35.59167,-102
35.60000,-101
35.60833,-101
35.61667,-101
35.62500,-101
35.63333,-100
35.64167,-100
35.65000,-99
35.65833,-99
35.66667,-98
35.67500,-98
35.68333,-98
35.69167,-97
35.70000,-97
35.70833,-96
35.71667,-96
35.72500,-96
35.73333,-96
35.74167,-96
35.75000,-95
35.75833,-95
35.76667,-95
35.77500,-94
35.78333,-93
35.79167,-93
35.80000,-92
35.80833,-92
35.81667,-92
35.82500,-91
35.83333,-91
35.84167,-90
35.85000,-90
35.85833,-90
35.86667,-89
35.87500,-89
35.88333,-89
35.89167,-89
35.90000,-88
35.90833,-88
35.91667,-87
35.92500,-87
35.93333,-86
35.94167,-86
35.95000,-85
35.95833,-85
35.96667,-85
35.97500,-85
35.98333,-85
35.99167,-85
36.00000,-85
36.00833,-84
36.01667,-84
36.02500,-84
36.03333,-83
36.04167,-83
36.05000,-82
36.05833,-82
36.06667,-81
36.07500,-81
36.08333,-80
36.09167,-80
36.10000,-80
36.10833,-79
36.11667,-79
36.12500,-79
36.13333,-79
36.14167,-79
36.15000,-79
36.15833,-79
36.16667,-78
36.17500,-78
36.18333,-78
36.19167,-78
36.20000,-77
36.20833,-77
36.21667,-76
36.22500,-76
36.23333,-76
36.24167,-75
36.25000,-75
36.25833,-74
36.26667,-74
36.27500,-73
36.28333,-73
36.29167,-72
36.30000,-72
36.30833,-71
36.31667,-71
36.32500,-70
36.33333,-70
36.34167,-70
36.35000,-70
36.35833,-70
36.36667,-69
36.37500,-68
36.38333,-68
36.39167,-67
36.40000,-67
36.40833,-67
36.41667,-66
36.42500,-66
36.43333,-65
36.44167,-64
36.45000,-63
36.45833,-63
36.46667,-62
36.47500,-62
36.48333,-61
36.49167,-61
36.50000,-60
36.50833,-60
36.51667,-59
36.52500,-58
36.53333,-58
36.54167,-57
36.55000,-56
36.55833,-56
36.56667,-55
36.57500,-53
36.58333,-52
36.59167,-52
36.60000,-51
36.60833,-50
36.61667,-50
36.62500,-49
36.63333,-48
36.64167,-47
36.65000,-46
36.65833,-45
36.66667,-44
36.67500,-43
36.68333,-42
36.69167,-41
36.70000,-40
36.70833,-39
36.71667,-38
36.72500,-37
36.73333,-36
36.74167,-35
36.75000,-34
36.75833,-32
36.76667,-31
36.77500,-29
36.78333,-28
36.79167,-27
36.80000,-26
36.80833,-24
36.81667,-23
36.82500,-22
36.83333,-21
36.84167,-19
36.85000,-17
36.85833,-16
36.86667,-15
36.87500,-13
36.88333,-12
36.89167,-10
36.90000,-9
36.90833,-7
36.91667,-6
36.92500,-5
36.93333,-3
36.94167,-2
36.95000,-1
36.95833,-0
36.96667,1
36.97500,2
36.98333,3
36.99167,5
37.00000,6
37.00833,8
37.01667,9
37.02500,11
37.03333,12
37.04167,13
37.05000,14
37.05833,15
37.06667,16
37.07500,17
37.08333,18
37.09167,19
37.10000,20
37.10833,21
37.11667,22
37.12500,23
37.13333,24
37.14167,24
37.15000,25
37.15833,26
37.16667,26
37.17500,27
37.18333,27
37.19167,28
37.20000,28
37.20833,28
37.21667,28
37.22500,29
37.23333,29
37.24167,29
37.25000,30
37.25833,30
37.26667,30
37.27500,30
37.28333,29
37.29167,29
37.30000,28
37.30833,28
37.31667,28
37.32500,28
37.33333,28
37.34167,27
37.35000,27
37.35833,26
37.36667,26
37.37500,25
37.38333,25
37.39167,24
37.40000,24
37.40833,23
37.41667,23
37.42500,22
37.43333,22
37.44167,21
37.45000,20
37.45833,19
37.46667,19
37.47500,18
37.48333,17
37.49167,16
37.50000,15
37.50833,14
37.51667,13
37.52500,12
37.53333,11
37.54167,10
37.55000,10
37.55833,9
37.56667,8
37.57500,6
37.58333,5
37.59167,4
37.60000,4
37.60833,3
37.61667,2
37.62500,1
37.63333,-0
37.64167,-1
37.65000,-2
37.65833,-3
37.66667,-3
37.67500,-4
37.68333,-5
37.69167,-6
37.70000,-7
37.70833,-8
37.71667,-9
37.72500,-10
37.73333,-10
37.74167,-11
37.75000,-12
37.75833,-12
37.76667,-13
37.77500,-14
37.78333,-15
37.79167,-15
37.80000,-16
37.80833,-17
37.81667,-17
37.82500,-18
37.83333,-19
37.84167,-19
37.85000,-20
37.85833,-21
37.86667,-21
37.87500,-22
37.88333,-22
37.89167,-22
37.90000,-22
37.90833,-23
37.91667,-23
37.92500,-24
37.93333,-24
37.94167,-25
37.95000,-25
37.95833,-25
37.96667,-25
37.97500,-26
37.98333,-26
37.99167,-27
38.00000,-28
38.00833,-28
38.01667,-29
38.02500,-29
38.03333,-30
38.04167,-30
38.05000,-30
38.05833,-30
38.06667,-30
38.07500,-30
38.08333,-30
38.09167,-31
38.10000,-31
38.10833,-30
38.11667,-30
38.12500,-31
38.13333,-31
38.14167,-31
38.15000,-31
38.15833,-31
38.16667,-31
38.17500,-31
38.18333,-31
38.19167,-31
38.20000,-31
38.20833,-31
38.21667,-32
38.22500,-32
38.23333,-32
38.24167,-32
38.25000,-32
38.25833,-32
38.26667,-32
38.27500,-31
38.28333,-31
38.29167,-31
38.30000,-31
38.30833,-32
38.31667,-32
38.32500,-32
38.33333,-32
38.34167,-32
38.35000,-32
38.35833,-32
38.36667,-33
38.37500,-33
38.38333,-33
38.39167,-33
38.40000,-33
38.40833,-33
38.41667,-34
38.42500,-34
38.43333,-33
38.44167,-33
38.45000,-33
38.45833,-33
38.46667,-33
38.47500,-33
38.48333,-33
38.49167,-33
38.50000,-33
38.50833,-33
38.51667,-33
38.52500,-34
38.53333,-34
38.54167,-34
38.55000,-34
38.55833,-34
38.56667,-34
38.57500,-34
38.58333,-34
38.59167,-34
38.60000,-34
38.60833,-33
38.61667,-33
38.62500,-33
38.63333,-33
38.64167,-33
38.65000,-33
38.65833,-33
38.66667,-33
38.67500,-34
38.68333,-34
38.69167,-34
38.70000,-34
38.70833,-34
38.71667,-34
38.72500,-34
38.73333,-34
38.74167,-34
38.75000,-33
38.75833,-33
38.76667,-33
38.77500,-33
38.78333,-33
38.79167,-33
38.80000,-33
38.80833,-32
38.81667,-32
38.82500,-32
38.83333,-32
38.84167,-32
38.85000,-32
38.85833,-32
38.86667,-32
38.87500,-33
38.88333,-33
38.89167,-33
38.90000,-32
38.90833,-32
38.91667,-32
38.92500,-32
38.93333,-32
38.94167,-32
38.95000,-31
38.95833,-31
38.96667,-31
38.97500,-31
38.98333,-32
38.99167,-32
39.00000,-32
39.00833,-32
39.01667,-32
39.02500,-32
39.03333,-31
39.04167,-31
39.05000,-31
39.05833,-31
39.06667,-31
39.07500,-32
39.08333,-32
39.09167,-32
39.10000,-32
39.10833,-32
39.11667,-32
39.12500,-33
39.13333,-33
39.14167,-33
39.15000,-32
39.15833,-32
39.16667,-32
39.17500,-31
39.18333,-31
39.19167,-31
39.20000,-31
39.20833,-31
39.21667,-31
39.22500,-31
39.23333,-31
39.24167,-31
39.25000,-32
39.25833,-32
39.26667,-32
39.27500,-32
39.28333,-32
39.29167,-32
39.30000,-32
39.30833,-32
39.31667,-32
39.32500,-32
39.33333,-32
39.34167,-32
39.35000,-31
39.35833,-31
39.36667,-32
39.37500,-32
39.38333,-32
39.39167,-32
39.40000,-32
39.40833,-31
39.41667,-31
39.42500,-31
39.43333,-31
39.44167,-31
39.45000,-31
39.45833,-31
39.46667,-30
39.47500,-30
39.48333,-30
39.49167,-30
39.50000,-30
39.50833,-30
39.51667,-30
39.52500,-30
39.53333,-31
39.54167,-31
39.55000,-31
39.55833,-31
39.56667,-31
39.57500,-31
39.58333,-31
39.59167,-31
39.60000,-31
39.60833,-32
39.61667,-32
39.62500,-32
39.63333,-32
39.64167,-32
39.65000,-32
39.65833,-31
39.66667,-31
39.67500,-31
39.68333,-31
39.69167,-31
39.70000,-31
39.70833,-31
39.71667,-31
39.72500,-31
39.73333,-31
39.74167,-31
39.75000,-31
39.75833,-31
39.76667,-31
39.77500,-31
39.78333,-31
39.79167,-31
39.80000,-31
39.80833,-30
39.81667,-30
39.82500,-30
39.83333,-30
39.84167,-31
39.85000,-31
39.85833,-31
39.86667,-31
39.87500,-31
39.88333,-31
39.89167,-31
39.90000,-31
39.90833,-31
39.91667,-31
39.92500,-31
39.93333,-31
39.94167,-31
39.95000,-31
39.95833,-31
39.96667,-30
39.97500,-30
39.98333,-30
39.99167,-30
40.00000,-30

