[Header]
Application Name,LabSolutions
Version,5.97 SP1
Data File Name,C:\Users\cremerlab\Desktop\griffin\2021-03-31_NCM3722_NCglucose_turnover\2021-03-31_NCM3722_turnover_batch_3312021_007_035.lcd
Output Date,4/1/2021
Output Time,8:47:20 PM

[File Information]
Type,Data File
Generated,4/1/2021 8:07:01 PM
Generated by,System Administrator
Modified,4/1/2021 8:47:20 PM
Modified by,System Administrator

[Sample Information]
Operator Name,System Administrator
Acquired,4/1/2021 8:07:20 PM
Sample Type,1:Standard
Level,7
Sample Name,2021-03-31_glucose_glycerol_acetate_calibration_03mM
Sample ID,007
ISTD Amount1,1
ISTD Amount2,1
ISTD Amount3,1
ISTD Amount4,1
ISTD Amount5,1
ISTD Amount6,1
ISTD Amount7,1
ISTD Amount8,1
ISTD Amount9,1
ISTD Amount10,1
ISTD Amount11,1
ISTD Amount12,1
ISTD Amount13,1
ISTD Amount14,1
ISTD Amount15,1
ISTD Amount16,1
ISTD Amount17,1
ISTD Amount18,1
ISTD Amount19,1
ISTD Amount20,1
ISTD Amount21,1
ISTD Amount22,1
ISTD Amount23,1
ISTD Amount24,1
ISTD Amount25,1
ISTD Amount26,1
ISTD Amount27,1
ISTD Amount28,1
ISTD Amount29,1
ISTD Amount30,1
ISTD Amount31,1
ISTD Amount32,1
Sample Amount,1
Dilution Factor,1
Vial#,7
Injection Volume,20

[Original Files]
Data File,C:\Users\cremerlab\Desktop\griffin\2021-03-31_NCM3722_NCglucose_turnover\2021-03-31_NCM3722_turnover_batch_3312021_007_035.lcd
Method File,C:\LabSolutions\Data\Project1\organicacidsetc2.lcm
Batch File,C:\Users\cremerlab\Desktop\griffin\2021-03-31_NCM3722_NCglucose_turnover\2021-03-31_NCM3722_turnover_batch.lcb
Report Format File,c:\LabSolutions\System\DEFAULT.lsr

[File Description]


[Configuration]
Instrument Name,HPLC-PC-Instrument1
Instrument #,1
Line #,1
# of Detectors,2
Detector ID,Detector A,Detector B
Detector Name,Detector A,Detector B
# of Channels,1,1

[Peak Table(Detector A)]
# of Peaks,0

[Peak Table(Detector B)]
# of Peaks,3
Peak#,R.Time,I.Time,F.Time,Area,Height,A/H,Conc.,Mark,ID#,Name,k',Plate #,Plate Ht.,Tailing,Resolution,Sep.Factor,Area Ratio,Height Ratio,Conc. %,Norm Conc.
1,15.646,14.967,16.658,306567,12733,24.077,71.524,   ,,,0.000,9741,15.399,1.150,0.000,0.000,0,0,0.000,0.000
2,22.076,21.450,22.942,86647,3221,26.896,20.215,   ,,,0.411,15433,9.719,1.087,9.561,0.000,0,0,0.000,0.000
3,25.064,24.458,25.850,35408,1220,29.022,8.261,   ,,,0.602,16912,8.869,1.067,4.033,1.465,0,0,0.000,0.000

[LC Chromatogram(Detector B-Ch1)]
Interval(msec),500
# of Points,4801
Start Time(min),0.000
End Time(min),40.000
Intensity Units,mV
Intensity Multiplier,0.001
R.Time (min),Intensity
0.00000,0
0.00833,0
0.01667,-0
0.02500,-0
0.03333,-0
0.04167,-1
0.05000,-1
0.05833,-1
0.06667,-1
0.07500,-1
0.08333,-1
0.09167,-1
0.10000,-1
0.10833,-2
0.11667,-2
0.12500,-2
0.13333,-2
0.14167,-2
0.15000,-2
0.15833,-1
0.16667,-1
0.17500,-1
0.18333,-1
0.19167,-1
0.20000,-1
0.20833,-1
0.21667,-1
0.22500,-1
0.23333,-1
0.24167,-1
0.25000,-1
0.25833,-1
0.26667,-1
0.27500,-1
0.28333,-1
0.29167,-1
0.30000,-1
0.30833,-1
0.31667,-1
0.32500,-1
0.33333,-1
0.34167,-1
0.35000,-1
0.35833,-0
0.36667,-0
0.37500,0
0.38333,0
0.39167,0
0.40000,0
0.40833,0
0.41667,0
0.42500,0
0.43333,0
0.44167,0
0.45000,0
0.45833,0
0.46667,1
0.47500,1
0.48333,1
0.49167,1
0.50000,1
0.50833,0
0.51667,0
0.52500,-0
0.53333,-0
0.54167,-0
0.55000,-0
0.55833,-0
0.56667,-0
0.57500,0
0.58333,0
0.59167,0
0.60000,0
0.60833,-0
0.61667,-0
0.62500,1
0.63333,1
0.64167,1
0.65000,1
0.65833,1
0.66667,0
0.67500,0
0.68333,1
0.69167,1
0.70000,1
0.70833,1
0.71667,0
0.72500,0
0.73333,-0
0.74167,-0
0.75000,-1
0.75833,-1
0.76667,-1
0.77500,-0
0.78333,-0
0.79167,-0
0.80000,0
0.80833,0
0.81667,0
0.82500,0
0.83333,0
0.84167,0
0.85000,1
0.85833,1
0.86667,1
0.87500,1
0.88333,1
0.89167,1
0.90000,1
0.90833,2
0.91667,2
0.92500,2
0.93333,2
0.94167,2
0.95000,2
0.95833,2
0.96667,1
0.97500,1
0.98333,1
0.99167,1
1.00000,1
1.00833,1
1.01667,1
1.02500,1
1.03333,1
1.04167,1
1.05000,1
1.05833,1
1.06667,1
1.07500,1
1.08333,2
1.09167,2
1.10000,2
1.10833,1
1.11667,2
1.12500,2
1.13333,2
1.14167,2
1.15000,2
1.15833,2
1.16667,2
1.17500,2
1.18333,2
1.19167,2
1.20000,2
1.20833,1
1.21667,1
1.22500,0
1.23333,0
1.24167,0
1.25000,1
1.25833,1
1.26667,1
1.27500,1
1.28333,1
1.29167,1
1.30000,1
1.30833,2
1.31667,2
1.32500,2
1.33333,2
1.34167,2
1.35000,2
1.35833,2
1.36667,2
1.37500,2
1.38333,2
1.39167,2
1.40000,2
1.40833,2
1.41667,2
1.42500,2
1.43333,2
1.44167,2
1.45000,2
1.45833,2
1.46667,1
1.47500,1
1.48333,1
1.49167,1
1.50000,1
1.50833,1
1.51667,1
1.52500,0
1.53333,0
1.54167,0
1.55000,1
1.55833,1
1.56667,1
1.57500,1
1.58333,1
1.59167,1
1.60000,1
1.60833,1
1.61667,2
1.62500,2
1.63333,2
1.64167,2
1.65000,2
1.65833,2
1.66667,2
1.67500,3
1.68333,3
1.69167,3
1.70000,3
1.70833,3
1.71667,3
1.72500,2
1.73333,2
1.74167,2
1.75000,1
1.75833,1
1.76667,1
1.77500,1
1.78333,1
1.79167,1
1.80000,2
1.80833,2
1.81667,2
1.82500,2
1.83333,2
1.84167,2
1.85000,2
1.85833,2
1.86667,2
1.87500,2
1.88333,2
1.89167,3
1.90000,3
1.90833,3
1.91667,3
1.92500,3
1.93333,3
1.94167,3
1.95000,2
1.95833,2
1.96667,2
1.97500,2
1.98333,2
1.99167,2
2.00000,1
2.00833,1
2.01667,2
2.02500,2
2.03333,3
2.04167,2
2.05000,2
2.05833,2
2.06667,2
2.07500,2
2.08333,2
2.09167,2
2.10000,2
2.10833,2
2.11667,2
2.12500,3
2.13333,3
2.14167,3
2.15000,3
2.15833,3
2.16667,3
2.17500,3
2.18333,2
2.19167,2
2.20000,2
2.20833,2
2.21667,3
2.22500,2
2.23333,2
2.24167,2
2.25000,2
2.25833,2
2.26667,2
2.27500,2
2.28333,2
2.29167,2
2.30000,2
2.30833,2
2.31667,2
2.32500,2
2.33333,2
2.34167,2
2.35000,2
2.35833,2
2.36667,2
2.37500,2
2.38333,2
2.39167,2
2.40000,2
2.40833,2
2.41667,2
2.42500,1
2.43333,1
2.44167,1
2.45000,1
2.45833,1
2.46667,1
2.47500,1
2.48333,1
2.49167,2
2.50000,2
2.50833,2
2.51667,2
2.52500,2
2.53333,2
2.54167,2
2.55000,2
2.55833,2
2.56667,2
2.57500,2
2.58333,2
2.59167,2
2.60000,2
2.60833,2
2.61667,2
2.62500,2
2.63333,3
2.64167,3
2.65000,3
2.65833,2
2.66667,2
2.67500,2
2.68333,2
2.69167,1
2.70000,1
2.70833,1
2.71667,1
2.72500,2
2.73333,2
2.74167,2
2.75000,3
2.75833,3
2.76667,3
2.77500,3
2.78333,3
2.79167,2
2.80000,2
2.80833,2
2.81667,2
2.82500,2
2.83333,2
2.84167,2
2.85000,2
2.85833,2
2.86667,2
2.87500,3
2.88333,3
2.89167,3
2.90000,3
2.90833,2
2.91667,2
2.92500,2
2.93333,2
2.94167,2
2.95000,2
2.95833,2
2.96667,2
2.97500,2
2.98333,2
2.99167,3
3.00000,3
3.00833,3
3.01667,3
3.02500,3
3.03333,2
3.04167,2
3.05000,2
3.05833,2
3.06667,2
3.07500,2
3.08333,2
3.09167,2
3.10000,2
3.10833,2
3.11667,3
3.12500,3
3.13333,3
3.14167,3
3.15000,3
3.15833,3
3.16667,3
3.17500,2
3.18333,2
3.19167,1
3.20000,1
3.20833,1
3.21667,1
3.22500,1
3.23333,2
3.24167,2
3.25000,2
3.25833,2
3.26667,2
3.27500,2
3.28333,2
3.29167,2
3.30000,2
3.30833,2
3.31667,2
3.32500,2
3.33333,2
3.34167,3
3.35000,3
3.35833,3
3.36667,3
3.37500,3
3.38333,3
3.39167,3
3.40000,3
3.40833,3
3.41667,3
3.42500,3
3.43333,3
3.44167,3
3.45000,3
3.45833,3
3.46667,2
3.47500,2
3.48333,2
3.49167,2
3.50000,2
3.50833,2
3.51667,3
3.52500,3
3.53333,3
3.54167,3
3.55000,3
3.55833,3
3.56667,3
3.57500,3
3.58333,3
3.59167,3
3.60000,3
3.60833,3
3.61667,3
3.62500,2
3.63333,2
3.64167,3
3.65000,3
3.65833,3
3.66667,3
3.67500,3
3.68333,2
3.69167,2
3.70000,2
3.70833,2
3.71667,2
3.72500,2
3.73333,2
3.74167,2
3.75000,2
3.75833,2
3.76667,3
3.77500,3
3.78333,3
3.79167,3
3.80000,3
3.80833,3
3.81667,3
3.82500,3
3.83333,3
3.84167,3
3.85000,4
3.85833,4
3.86667,4
3.87500,4
3.88333,4
3.89167,4
3.90000,3
3.90833,3
3.91667,2
3.92500,2
3.93333,2
3.94167,1
3.95000,1
3.95833,2
3.96667,2
3.97500,2
3.98333,2
3.99167,2
4.00000,2
4.00833,2
4.01667,3
4.02500,3
4.03333,3
4.04167,4
4.05000,4
4.05833,4
4.06667,4
4.07500,4
4.08333,4
4.09167,4
4.10000,4
4.10833,4
4.11667,3
4.12500,3
4.13333,3
4.14167,4
4.15000,4
4.15833,4
4.16667,4
4.17500,4
4.18333,3
4.19167,3
4.20000,2
4.20833,2
4.21667,2
4.22500,3
4.23333,3
4.24167,3
4.25000,3
4.25833,3
4.26667,3
4.27500,4
4.28333,4
4.29167,3
4.30000,3
4.30833,3
4.31667,3
4.32500,3
4.33333,4
4.34167,4
4.35000,4
4.35833,4
4.36667,4
4.37500,4
4.38333,5
4.39167,5
4.40000,4
4.40833,4
4.41667,4
4.42500,4
4.43333,4
4.44167,4
4.45000,3
4.45833,4
4.46667,4
4.47500,4
4.48333,4
4.49167,3
4.50000,3
4.50833,3
4.51667,3
4.52500,3
4.53333,4
4.54167,4
4.55000,4
4.55833,4
4.56667,4
4.57500,4
4.58333,4
4.59167,4
4.60000,4
4.60833,4
4.61667,4
4.62500,4
4.63333,4
4.64167,4
4.65000,3
4.65833,4
4.66667,3
4.67500,3
4.68333,3
4.69167,3
4.70000,3
4.70833,3
4.71667,3
4.72500,4
4.73333,4
4.74167,4
4.75000,4
4.75833,4
4.76667,4
4.77500,4
4.78333,5
4.79167,5
4.80000,5
4.80833,5
4.81667,5
4.82500,4
4.83333,4
4.84167,4
4.85000,5
4.85833,5
4.86667,5
4.87500,5
4.88333,4
4.89167,4
4.90000,4
4.90833,4
4.91667,4
4.92500,4
4.93333,4
4.94167,4
4.95000,4
4.95833,4
4.96667,4
4.97500,4
4.98333,4
4.99167,4
5.00000,4
5.00833,4
5.01667,5
5.02500,4
5.03333,4
5.04167,4
5.05000,5
5.05833,5
5.06667,5
5.07500,5
5.08333,5
5.09167,5
5.10000,4
5.10833,4
5.11667,4
5.12500,4
5.13333,4
5.14167,4
5.15000,4
5.15833,5
5.16667,5
5.17500,4
5.18333,4
5.19167,4
5.20000,4
5.20833,4
5.21667,4
5.22500,4
5.23333,4
5.24167,4
5.25000,4
5.25833,4
5.26667,4
5.27500,5
5.28333,5
5.29167,5
5.30000,5
5.30833,5
5.31667,5
5.32500,5
5.33333,5
5.34167,5
5.35000,5
5.35833,4
5.36667,4
5.37500,5
5.38333,4
5.39167,4
5.40000,5
5.40833,5
5.41667,5
5.42500,5
5.43333,5
5.44167,5
5.45000,5
5.45833,5
5.46667,5
5.47500,5
5.48333,5
5.49167,5
5.50000,5
5.50833,5
5.51667,5
5.52500,5
5.53333,6
5.54167,6
5.55000,6
5.55833,6
5.56667,6
5.57500,6
5.58333,6
5.59167,6
5.60000,6
5.60833,6
5.61667,6
5.62500,6
5.63333,5
5.64167,5
5.65000,5
5.65833,5
5.66667,6
5.67500,6
5.68333,6
5.69167,6
5.70000,5
5.70833,5
5.71667,5
5.72500,5
5.73333,5
5.74167,5
5.75000,5
5.75833,5
5.76667,5
5.77500,5
5.78333,6
5.79167,6
5.80000,6
5.80833,6
5.81667,6
5.82500,6
5.83333,6
5.84167,6
5.85000,6
5.85833,6
5.86667,6
5.87500,6
5.88333,6
5.89167,6
5.90000,6
5.90833,6
5.91667,6
5.92500,6
5.93333,6
5.94167,5
5.95000,6
5.95833,6
5.96667,6
5.97500,6
5.98333,6
5.99167,6
6.00000,7
6.00833,7
6.01667,7
6.02500,7
6.03333,6
6.04167,6
6.05000,6
6.05833,6
6.06667,6
6.07500,7
6.08333,7
6.09167,7
6.10000,7
6.10833,6
6.11667,6
6.12500,6
6.13333,6
6.14167,6
6.15000,6
6.15833,6
6.16667,6
6.17500,6
6.18333,6
6.19167,6
6.20000,6
6.20833,6
6.21667,6
6.22500,6
6.23333,7
6.24167,7
6.25000,7
6.25833,7
6.26667,7
6.27500,8
6.28333,8
6.29167,8
6.30000,7
6.30833,8
6.31667,8
6.32500,8
6.33333,8
6.34167,8
6.35000,7
6.35833,7
6.36667,7
6.37500,7
6.38333,7
6.39167,7
6.40000,7
6.40833,7
6.41667,7
6.42500,7
6.43333,7
6.44167,7
6.45000,7
6.45833,7
6.46667,7
6.47500,7
6.48333,7
6.49167,7
6.50000,7
6.50833,7
6.51667,7
6.52500,7
6.53333,7
6.54167,7
6.55000,7
6.55833,7
6.56667,8
6.57500,8
6.58333,7
6.59167,7
6.60000,7
6.60833,7
6.61667,7
6.62500,7
6.63333,6
6.64167,6
6.65000,6
6.65833,6
6.66667,6
6.67500,6
6.68333,6
6.69167,6
6.70000,6
6.70833,7
6.71667,7
6.72500,7
6.73333,7
6.74167,7
6.75000,8
6.75833,8
6.76667,8
6.77500,8
6.78333,7
6.79167,7
6.80000,7
6.80833,7
6.81667,7
6.82500,7
6.83333,7
6.84167,7
6.85000,7
6.85833,7
6.86667,7
6.87500,7
6.88333,7
6.89167,6
6.90000,6
6.90833,7
6.91667,7
6.92500,8
6.93333,8
6.94167,8
6.95000,8
6.95833,8
6.96667,8
6.97500,8
6.98333,8
6.99167,8
7.00000,8
7.00833,8
7.01667,8
7.02500,8
7.03333,8
7.04167,9
7.05000,9
7.05833,9
7.06667,9
7.07500,8
7.08333,8
7.09167,8
7.10000,8
7.10833,8
7.11667,9
7.12500,9
7.13333,9
7.14167,8
7.15000,8
7.15833,8
7.16667,8
7.17500,8
7.18333,8
7.19167,9
7.20000,9
7.20833,9
7.21667,8
7.22500,8
7.23333,9
7.24167,9
7.25000,9
7.25833,9
7.26667,9
7.27500,9
7.28333,10
7.29167,10
7.30000,10
7.30833,10
7.31667,10
7.32500,9
7.33333,9
7.34167,9
7.35000,9
7.35833,8
7.36667,9
7.37500,9
7.38333,9
7.39167,9
7.40000,9
7.40833,9
7.41667,9
7.42500,9
7.43333,9
7.44167,10
7.45000,9
7.45833,9
7.46667,9
7.47500,9
7.48333,9
7.49167,9
7.50000,9
7.50833,9
7.51667,10
7.52500,10
7.53333,10
7.54167,10
7.55000,10
7.55833,10
7.56667,10
7.57500,9
7.58333,9
7.59167,9
7.60000,9
7.60833,9
7.61667,9
7.62500,8
7.63333,8
7.64167,8
7.65000,8
7.65833,9
7.66667,9
7.67500,9
7.68333,9
7.69167,10
7.70000,10
7.70833,10
7.71667,10
7.72500,10
7.73333,10
7.74167,9
7.75000,9
7.75833,10
7.76667,10
7.77500,10
7.78333,10
7.79167,10
7.80000,10
7.80833,10
7.81667,10
7.82500,10
7.83333,10
7.84167,9
7.85000,9
7.85833,9
7.86667,9
7.87500,8
7.88333,8
7.89167,8
7.90000,8
7.90833,8
7.91667,9
7.92500,9
7.93333,9
7.94167,9
7.95000,9
7.95833,9
7.96667,9
7.97500,10
7.98333,10
7.99167,10
8.00000,10
8.00833,10
8.01667,10
8.02500,10
8.03333,11
8.04167,11
8.05000,11
8.05833,10
8.06667,10
8.07500,10
8.08333,11
8.09167,10
8.10000,10
8.10833,10
8.11667,10
8.12500,10
8.13333,10
8.14167,10
8.15000,10
8.15833,10
8.16667,10
8.17500,10
8.18333,10
8.19167,10
8.20000,10
8.20833,10
8.21667,11
8.22500,10
8.23333,10
8.24167,10
8.25000,10
8.25833,10
8.26667,10
8.27500,11
8.28333,11
8.29167,11
8.30000,11
8.30833,11
8.31667,10
8.32500,10
8.33333,9
8.34167,9
8.35000,9
8.35833,9
8.36667,9
8.37500,9
8.38333,9
8.39167,9
8.40000,9
8.40833,9
8.41667,10
8.42500,10
8.43333,10
8.44167,10
8.45000,11
8.45833,11
8.46667,11
8.47500,11
8.48333,11
8.49167,11
8.50000,11
8.50833,11
8.51667,11
8.52500,11
8.53333,11
8.54167,11
8.55000,10
8.55833,10
8.56667,10
8.57500,10
8.58333,9
8.59167,10
8.60000,10
8.60833,10
8.61667,10
8.62500,10
8.63333,10
8.64167,9
8.65000,10
8.65833,10
8.66667,10
8.67500,10
8.68333,11
8.69167,11
8.70000,11
8.70833,11
8.71667,11
8.72500,11
8.73333,11
8.74167,11
8.75000,11
8.75833,11
8.76667,12
8.77500,12
8.78333,12
8.79167,12
8.80000,12
8.80833,11
8.81667,11
8.82500,11
8.83333,10
8.84167,10
8.85000,10
8.85833,10
8.86667,10
8.87500,10
8.88333,10
8.89167,11
8.90000,11
8.90833,11
8.91667,11
8.92500,11
8.93333,11
8.94167,11
8.95000,11
8.95833,11
8.96667,11
8.97500,12
8.98333,12
8.99167,12
9.00000,12
9.00833,12
9.01667,12
9.02500,12
9.03333,12
9.04167,12
9.05000,12
9.05833,12
9.06667,12
9.07500,12
9.08333,12
9.09167,12
9.10000,11
9.10833,11
9.11667,11
9.12500,11
9.13333,11
9.14167,11
9.15000,11
9.15833,12
9.16667,11
9.17500,11
9.18333,11
9.19167,12
9.20000,12
9.20833,12
9.21667,12
9.22500,12
9.23333,12
9.24167,12
9.25000,12
9.25833,12
9.26667,12
9.27500,12
9.28333,12
9.29167,12
9.30000,12
9.30833,11
9.31667,11
9.32500,11
9.33333,11
9.34167,11
9.35000,11
9.35833,11
9.36667,11
9.37500,11
9.38333,11
9.39167,11
9.40000,12
9.40833,12
9.41667,12
9.42500,12
9.43333,11
9.44167,11
9.45000,12
9.45833,12
9.46667,12
9.47500,12
9.48333,12
9.49167,13
9.50000,13
9.50833,13
9.51667,12
9.52500,12
9.53333,12
9.54167,12
9.55000,12
9.55833,12
9.56667,12
9.57500,12
9.58333,12
9.59167,12
9.60000,12
9.60833,12
9.61667,12
9.62500,12
9.63333,12
9.64167,12
9.65000,12
9.65833,13
9.66667,13
9.67500,13
9.68333,13
9.69167,13
9.70000,13
9.70833,13
9.71667,13
9.72500,13
9.73333,13
9.74167,13
9.75000,13
9.75833,13
9.76667,13
9.77500,12
9.78333,13
9.79167,13
9.80000,13
9.80833,12
9.81667,12
9.82500,12
9.83333,12
9.84167,12
9.85000,13
9.85833,13
9.86667,13
9.87500,12
9.88333,12
9.89167,12
9.90000,12
9.90833,12
9.91667,12
9.92500,12
9.93333,12
9.94167,12
9.95000,13
9.95833,13
9.96667,13
9.97500,13
9.98333,13
9.99167,13
10.00000,13
10.00833,13
10.01667,12
10.02500,12
10.03333,12
10.04167,12
10.05000,12
10.05833,12
10.06667,12
10.07500,12
10.08333,13
10.09167,13
10.10000,13
10.10833,13
10.11667,13
10.12500,13
10.13333,13
10.14167,13
10.15000,13
10.15833,13
10.16667,14
10.17500,14
10.18333,14
10.19167,14
10.20000,14
10.20833,14
10.21667,14
10.22500,14
10.23333,15
10.24167,15
10.25000,14
10.25833,15
10.26667,15
10.27500,15
10.28333,14
10.29167,14
10.30000,14
10.30833,14
10.31667,13
10.32500,14
10.33333,14
10.34167,14
10.35000,14
10.35833,13
10.36667,14
10.37500,13
10.38333,13
10.39167,13
10.40000,14
10.40833,14
10.41667,14
10.42500,14
10.43333,14
10.44167,13
10.45000,13
10.45833,13
10.46667,13
10.47500,13
10.48333,13
10.49167,12
10.50000,12
10.50833,11
10.51667,11
10.52500,10
10.53333,8
10.54167,7
10.55000,5
10.55833,3
10.56667,1
10.57500,-2
10.58333,-5
10.59167,-11
10.60000,-18
10.60833,-27
10.61667,-39
10.62500,-56
10.63333,-79
10.64167,-109
10.65000,-148
10.65833,-198
10.66667,-263
10.67500,-347
10.68333,-452
10.69167,-584
10.70000,-747
10.70833,-948
10.71667,-1191
10.72500,-1482
10.73333,-1828
10.74167,-2234
10.75000,-2705
10.75833,-3245
10.76667,-3856
10.77500,-4541
10.78333,-5299
10.79167,-6127
10.80000,-7021
10.80833,-7973
10.81667,-8975
10.82500,-10016
10.83333,-11083
10.84167,-12162
10.85000,-13237
10.85833,-14293
10.86667,-15314
10.87500,-16284
10.88333,-17189
10.89167,-18016
10.90000,-18753
10.90833,-19390
10.91667,-19920
10.92500,-20338
10.93333,-20640
10.94167,-20825
10.95000,-20895
10.95833,-20853
10.96667,-20704
10.97500,-20452
10.98333,-20107
10.99167,-19674
11.00000,-19165
11.00833,-18588
11.01667,-17953
11.02500,-17268
11.03333,-16544
11.04167,-15790
11.05000,-15014
11.05833,-14225
11.06667,-13431
11.07500,-12640
11.08333,-11856
11.09167,-11086
11.10000,-10334
11.10833,-9605
11.11667,-8903
11.12500,-8230
11.13333,-7588
11.14167,-6980
11.15000,-6405
11.15833,-5865
11.16667,-5360
11.17500,-4888
11.18333,-4451
11.19167,-4046
11.20000,-3674
11.20833,-3331
11.21667,-3017
11.22500,-2731
11.23333,-2470
11.24167,-2233
11.25000,-2018
11.25833,-1824
11.26667,-1649
11.27500,-1492
11.28333,-1350
11.29167,-1223
11.30000,-1108
11.30833,-1005
11.31667,-913
11.32500,-831
11.33333,-758
11.34167,-692
11.35000,-634
11.35833,-581
11.36667,-534
11.37500,-492
11.38333,-455
11.39167,-421
11.40000,-391
11.40833,-363
11.41667,-339
11.42500,-317
11.43333,-297
11.44167,-279
11.45000,-263
11.45833,-248
11.46667,-235
11.47500,-223
11.48333,-211
11.49167,-201
11.50000,-191
11.50833,-182
11.51667,-173
11.52500,-165
11.53333,-158
11.54167,-152
11.55000,-146
11.55833,-140
11.56667,-135
11.57500,-130
11.58333,-125
11.59167,-120
11.60000,-116
11.60833,-112
11.61667,-109
11.62500,-105
11.63333,-102
11.64167,-99
11.65000,-96
11.65833,-92
11.66667,-89
11.67500,-87
11.68333,-85
11.69167,-82
11.70000,-80
11.70833,-78
11.71667,-76
11.72500,-74
11.73333,-72
11.74167,-70
11.75000,-69
11.75833,-67
11.76667,-66
11.77500,-64
11.78333,-63
11.79167,-61
11.80000,-60
11.80833,-59
11.81667,-57
11.82500,-56
11.83333,-55
11.84167,-53
11.85000,-52
11.85833,-52
11.86667,-51
11.87500,-50
11.88333,-49
11.89167,-47
11.90000,-46
11.90833,-46
11.91667,-45
11.92500,-44
11.93333,-43
11.94167,-42
11.95000,-41
11.95833,-41
11.96667,-40
11.97500,-40
11.98333,-40
11.99167,-39
12.00000,-39
12.00833,-38
12.01667,-38
12.02500,-37
12.03333,-36
12.04167,-36
12.05000,-36
12.05833,-36
12.06667,-35
12.07500,-35
12.08333,-35
12.09167,-34
12.10000,-34
12.10833,-33
12.11667,-33
12.12500,-33
12.13333,-32
12.14167,-32
12.15000,-31
12.15833,-31
12.16667,-31
12.17500,-30
12.18333,-30
12.19167,-30
12.20000,-30
12.20833,-30
12.21667,-29
12.22500,-29
12.23333,-29
12.24167,-29
12.25000,-29
12.25833,-28
12.26667,-28
12.27500,-27
12.28333,-27
12.29167,-27
12.30000,-26
12.30833,-26
12.31667,-25
12.32500,-25
12.33333,-25
12.34167,-25
12.35000,-24
12.35833,-24
12.36667,-24
12.37500,-23
12.38333,-23
12.39167,-23
12.40000,-22
12.40833,-22
12.41667,-22
12.42500,-22
12.43333,-22
12.44167,-22
12.45000,-22
12.45833,-22
12.46667,-22
12.47500,-21
12.48333,-21
12.49167,-21
12.50000,-21
12.50833,-20
12.51667,-20
12.52500,-19
12.53333,-19
12.54167,-18
12.55000,-18
12.55833,-17
12.56667,-17
12.57500,-17
12.58333,-16
12.59167,-16
12.60000,-16
12.60833,-15
12.61667,-15
12.62500,-14
12.63333,-14
12.64167,-15
12.65000,-15
12.65833,-15
12.66667,-15
12.67500,-15
12.68333,-15
12.69167,-15
12.70000,-14
12.70833,-14
12.71667,-14
12.72500,-13
12.73333,-13
12.74167,-13
12.75000,-13
12.75833,-12
12.76667,-12
12.77500,-12
12.78333,-12
12.79167,-11
12.80000,-11
12.80833,-10
12.81667,-10
12.82500,-9
12.83333,-9
12.84167,-9
12.85000,-9
12.85833,-8
12.86667,-7
12.87500,-7
12.88333,-6
12.89167,-6
12.90000,-5
12.90833,-5
12.91667,-5
12.92500,-4
12.93333,-4
12.94167,-4
12.95000,-4
12.95833,-4
12.96667,-3
12.97500,-3
12.98333,-2
12.99167,-2
13.00000,-2
13.00833,-1
13.01667,-1
13.02500,-0
13.03333,0
13.04167,0
13.05000,1
13.05833,1
13.06667,2
13.07500,2
13.08333,2
13.09167,2
13.10000,2
13.10833,2
13.11667,3
13.12500,3
13.13333,3
13.14167,3
13.15000,3
13.15833,3
13.16667,3
13.17500,4
13.18333,4
13.19167,4
13.20000,4
13.20833,4
13.21667,5
13.22500,5
13.23333,5
13.24167,6
13.25000,6
13.25833,6
13.26667,6
13.27500,7
13.28333,7
13.29167,7
13.30000,7
13.30833,7
13.31667,7
13.32500,8
13.33333,8
13.34167,8
13.35000,8
13.35833,7
13.36667,7
13.37500,7
13.38333,7
13.39167,7
13.40000,7
13.40833,7
13.41667,7
13.42500,7
13.43333,7
13.44167,6
13.45000,6
13.45833,5
13.46667,5
13.47500,5
13.48333,5
13.49167,6
13.50000,6
13.50833,6
13.51667,6
13.52500,5
13.53333,5
13.54167,6
13.55000,6
13.55833,6
13.56667,6
13.57500,6
13.58333,6
13.59167,6
13.60000,5
13.60833,5
13.61667,5
13.62500,5
13.63333,5
13.64167,5
13.65000,5
13.65833,5
13.66667,5
13.67500,5
13.68333,5
13.69167,5
13.70000,5
13.70833,6
13.71667,6
13.72500,6
13.73333,5
13.74167,5
13.75000,6
13.75833,6
13.76667,6
13.77500,6
13.78333,6
13.79167,6
13.80000,6
13.80833,6
13.81667,6
13.82500,6
13.83333,6
13.84167,6
13.85000,6
13.85833,6
13.86667,6
13.87500,6
13.88333,6
13.89167,6
13.90000,7
13.90833,7
13.91667,7
13.92500,7
13.93333,7
13.94167,7
13.95000,7
13.95833,7
13.96667,7
13.97500,8
13.98333,8
13.99167,8
14.00000,8
14.00833,8
14.01667,8
14.02500,8
14.03333,8
14.04167,8
14.05000,9
14.05833,9
14.06667,9
14.07500,9
14.08333,9
14.09167,9
14.10000,9
14.10833,9
14.11667,9
14.12500,9
14.13333,9
14.14167,9
14.15000,9
14.15833,9
14.16667,9
14.17500,9
14.18333,9
14.19167,9
14.20000,9
14.20833,9
14.21667,9
14.22500,10
14.23333,10
14.24167,11
14.25000,11
14.25833,11
14.26667,11
14.27500,11
14.28333,11
14.29167,11
14.30000,11
14.30833,11
14.31667,11
14.32500,11
14.33333,11
14.34167,11
14.35000,11
14.35833,11
14.36667,11
14.37500,11
14.38333,11
14.39167,12
14.40000,12
14.40833,11
14.41667,11
14.42500,11
14.43333,11
14.44167,11
14.45000,12
14.45833,12
14.46667,13
14.47500,13
14.48333,13
14.49167,13
14.50000,13
14.50833,13
14.51667,13
14.52500,13
14.53333,13
14.54167,13
14.55000,14
14.55833,14
14.56667,14
14.57500,13
14.58333,13
14.59167,13
14.60000,13
14.60833,13
14.61667,13
14.62500,13
14.63333,13
14.64167,13
14.65000,13
14.65833,13
14.66667,14
14.67500,13
14.68333,13
14.69167,14
14.70000,14
14.70833,14
14.71667,14
14.72500,14
14.73333,14
14.74167,14
14.75000,14
14.75833,14
14.76667,14
14.77500,14
14.78333,14
14.79167,14
14.80000,15
14.80833,14
14.81667,14
14.82500,14
14.83333,14
14.84167,14
14.85000,15
14.85833,15
14.86667,16
14.87500,16
14.88333,17
14.89167,17
14.90000,18
14.90833,19
14.91667,19
14.92500,20
14.93333,21
14.94167,22
14.95000,23
14.95833,24
14.96667,25
14.97500,26
14.98333,28
14.99167,29
15.00000,30
15.00833,32
15.01667,34
15.02500,35
15.03333,37
15.04167,39
15.05000,41
15.05833,42
15.06667,44
15.07500,46
15.08333,48
15.09167,51
15.10000,54
15.10833,57
15.11667,60
15.12500,64
15.13333,69
15.14167,73
15.15000,79
15.15833,86
15.16667,94
15.17500,103
15.18333,114
15.19167,127
15.20000,142
15.20833,160
15.21667,181
15.22500,206
15.23333,235
15.24167,269
15.25000,309
15.25833,356
15.26667,409
15.27500,471
15.28333,542
15.29167,623
15.30000,715
15.30833,820
15.31667,938
15.32500,1071
15.33333,1219
15.34167,1383
15.35000,1566
15.35833,1767
15.36667,1987
15.37500,2227
15.38333,2487
15.39167,2768
15.40000,3069
15.40833,3390
15.41667,3730
15.42500,4089
15.43333,4466
15.44167,4860
15.45000,5268
15.45833,5690
15.46667,6122
15.47500,6564
15.48333,7011
15.49167,7461
15.50000,7912
15.50833,8359
15.51667,8801
15.52500,9233
15.53333,9652
15.54167,10057
15.55000,10443
15.55833,10807
15.56667,11147
15.57500,11459
15.58333,11743
15.59167,11995
15.60000,12214
15.60833,12399
15.61667,12548
15.62500,12660
15.63333,12736
15.64167,12775
15.65000,12777
15.65833,12743
15.66667,12674
15.67500,12570
15.68333,12433
15.69167,12266
15.70000,12068
15.70833,11844
15.71667,11595
15.72500,11323
15.73333,11031
15.74167,10721
15.75000,10395
15.75833,10057
15.76667,9707
15.77500,9349
15.78333,8986
15.79167,8618
15.80000,8248
15.80833,7878
15.81667,7511
15.82500,7147
15.83333,6788
15.84167,6435
15.85000,6091
15.85833,5755
15.86667,5429
15.87500,5113
15.88333,4808
15.89167,4515
15.90000,4234
15.90833,3964
15.91667,3708
15.92500,3463
15.93333,3231
15.94167,3010
15.95000,2802
15.95833,2606
15.96667,2421
15.97500,2247
15.98333,2085
15.99167,1932
16.00000,1790
16.00833,1657
16.01667,1534
16.02500,1419
16.03333,1313
16.04167,1214
16.05000,1123
16.05833,1039
16.06667,961
16.07500,888
16.08333,821
16.09167,760
16.10000,704
16.10833,652
16.11667,605
16.12500,561
16.13333,522
16.14167,485
16.15000,451
16.15833,421
16.16667,393
16.17500,367
16.18333,344
16.19167,322
16.20000,303
16.20833,285
16.21667,268
16.22500,253
16.23333,239
16.24167,226
16.25000,214
16.25833,203
16.26667,193
16.27500,184
16.28333,176
16.29167,169
16.30000,162
16.30833,155
16.31667,150
16.32500,144
16.33333,139
16.34167,135
16.35000,131
16.35833,127
16.36667,123
16.37500,120
16.38333,116
16.39167,113
16.40000,111
16.40833,108
16.41667,105
16.42500,103
16.43333,101
16.44167,99
16.45000,98
16.45833,96
16.46667,94
16.47500,92
16.48333,90
16.49167,89
16.50000,87
16.50833,86
16.51667,85
16.52500,84
16.53333,82
16.54167,81
16.55000,81
16.55833,80
16.56667,79
16.57500,79
16.58333,78
16.59167,77
16.60000,76
16.60833,75
16.61667,75
16.62500,74
16.63333,74
16.64167,73
16.65000,73
16.65833,73
16.66667,73
16.67500,72
16.68333,72
16.69167,72
16.70000,71
16.70833,71
16.71667,70
16.72500,70
16.73333,69
16.74167,68
16.75000,68
16.75833,67
16.76667,67
16.77500,66
16.78333,65
16.79167,65
16.80000,65
16.80833,65
16.81667,64
16.82500,64
16.83333,64
16.84167,64
16.85000,64
16.85833,63
16.86667,63
16.87500,63
16.88333,62
16.89167,62
16.90000,62
16.90833,61
16.91667,61
16.92500,60
16.93333,60
16.94167,60
16.95000,59
16.95833,59
16.96667,59
16.97500,58
16.98333,58
16.99167,58
17.00000,58
17.00833,57
17.01667,57
17.02500,56
17.03333,56
17.04167,56
17.05000,55
17.05833,55
17.06667,55
17.07500,55
17.08333,55
17.09167,55
17.10000,55
17.10833,55
17.11667,55
17.12500,55
17.13333,55
17.14167,54
17.15000,53
17.15833,53
17.16667,52
17.17500,52
17.18333,51
17.19167,51
17.20000,50
17.20833,50
17.21667,50
17.22500,50
17.23333,50
17.24167,49
17.25000,49
17.25833,48
17.26667,48
17.27500,48
17.28333,48
17.29167,48
17.30000,48
17.30833,48
17.31667,47
17.32500,47
17.33333,47
17.34167,47
17.35000,47
17.35833,47
17.36667,47
17.37500,47
17.38333,47
17.39167,47
17.40000,47
17.40833,47
17.41667,46
17.42500,46
17.43333,46
17.44167,46
17.45000,46
17.45833,46
17.46667,45
17.47500,45
17.48333,44
17.49167,44
17.50000,44
17.50833,44
17.51667,43
17.52500,44
17.53333,44
17.54167,43
17.55000,43
17.55833,43
17.56667,44
17.57500,44
17.58333,44
17.59167,44
17.60000,44
17.60833,44
17.61667,44
17.62500,44
17.63333,44
17.64167,43
17.65000,43
17.65833,43
17.66667,44
17.67500,44
17.68333,44
17.69167,43
17.70000,43
17.70833,43
17.71667,42
17.72500,42
17.73333,42
17.74167,42
17.75000,42
17.75833,42
17.76667,42
17.77500,42
17.78333,42
17.79167,42
17.80000,42
17.80833,42
17.81667,42
17.82500,42
17.83333,41
17.84167,41
17.85000,42
17.85833,42
17.86667,42
17.87500,42
17.88333,42
17.89167,42
17.90000,42
17.90833,42
17.91667,42
17.92500,41
17.93333,41
17.94167,41
17.95000,41
17.95833,41
17.96667,41
17.97500,41
17.98333,41
17.99167,41
18.00000,41
18.00833,40
18.01667,40
18.02500,40
18.03333,40
18.04167,40
18.05000,40
18.05833,40
18.06667,39
18.07500,40
18.08333,40
18.09167,40
18.10000,40
18.10833,40
18.11667,40
18.12500,40
18.13333,40
18.14167,40
18.15000,40
18.15833,40
18.16667,40
18.17500,39
18.18333,39
18.19167,39
18.20000,39
18.20833,38
18.21667,38
18.22500,38
18.23333,38
18.24167,38
18.25000,37
18.25833,38
18.26667,38
18.27500,38
18.28333,38
18.29167,38
18.30000,38
18.30833,37
18.31667,37
18.32500,38
18.33333,38
18.34167,38
18.35000,38
18.35833,38
18.36667,38
18.37500,38
18.38333,38
18.39167,38
18.40000,38
18.40833,37
18.41667,37
18.42500,37
18.43333,37
18.44167,37
18.45000,37
18.45833,37
18.46667,37
18.47500,37
18.48333,36
18.49167,36
18.50000,36
18.50833,36
18.51667,36
18.52500,36
18.53333,36
18.54167,36
18.55000,37
18.55833,37
18.56667,37
18.57500,37
18.58333,37
18.59167,37
18.60000,37
18.60833,37
18.61667,37
18.62500,38
18.63333,38
18.64167,38
18.65000,39
18.65833,39
18.66667,40
18.67500,40
18.68333,40
18.69167,40
18.70000,41
18.70833,41
18.71667,41
18.72500,41
18.73333,41
18.74167,42
18.75000,43
18.75833,44
18.76667,45
18.77500,46
18.78333,47
18.79167,49
18.80000,49
18.80833,50
18.81667,51
18.82500,52
18.83333,53
18.84167,55
18.85000,56
18.85833,58
18.86667,59
18.87500,61
18.88333,63
18.89167,64
18.90000,66
18.90833,67
18.91667,67
18.92500,68
18.93333,69
18.94167,70
18.95000,70
18.95833,71
18.96667,72
18.97500,72
18.98333,72
18.99167,73
19.00000,73
19.00833,74
19.01667,74
19.02500,74
19.03333,74
19.04167,74
19.05000,74
19.05833,73
19.06667,72
19.07500,72
19.08333,71
19.09167,70
19.10000,69
19.10833,68
19.11667,67
19.12500,66
19.13333,65
19.14167,64
19.15000,62
19.15833,61
19.16667,60
19.17500,59
19.18333,58
19.19167,57
19.20000,55
19.20833,54
19.21667,53
19.22500,52
19.23333,51
19.24167,50
19.25000,49
19.25833,48
19.26667,47
19.27500,46
19.28333,46
19.29167,45
19.30000,44
19.30833,43
19.31667,42
19.32500,42
19.33333,41
19.34167,41
19.35000,40
19.35833,40
19.36667,40
19.37500,40
19.38333,39
19.39167,39
19.40000,39
19.40833,38
19.41667,38
19.42500,38
19.43333,37
19.44167,37
19.45000,37
19.45833,36
19.46667,36
19.47500,36
19.48333,35
19.49167,35
19.50000,35
19.50833,35
19.51667,35
19.52500,34
19.53333,34
19.54167,34
19.55000,34
19.55833,34
19.56667,34
19.57500,34
19.58333,34
19.59167,34
19.60000,34
19.60833,34
19.61667,35
19.62500,35
19.63333,35
19.64167,34
19.65000,34
19.65833,34
19.66667,34
19.67500,34
19.68333,34
19.69167,34
19.70000,34
19.70833,33
19.71667,33
19.72500,33
19.73333,33
19.74167,34
19.75000,34
19.75833,34
19.76667,34
19.77500,33
19.78333,33
19.79167,34
19.80000,34
19.80833,34
19.81667,34
19.82500,34
19.83333,34
19.84167,34
19.85000,34
19.85833,34
19.86667,34
19.87500,34
19.88333,33
19.89167,33
19.90000,33
19.90833,33
19.91667,33
19.92500,33
19.93333,33
19.94167,33
19.95000,33
19.95833,32
19.96667,32
19.97500,32
19.98333,32
19.99167,32
20.00000,32
20.00833,32
20.01667,32
20.02500,33
20.03333,33
20.04167,33
20.05000,33
20.05833,33
20.06667,33
20.07500,33
20.08333,33
20.09167,33
20.10000,33
20.10833,33
20.11667,33
20.12500,33
20.13333,33
20.14167,33
20.15000,33
20.15833,33
20.16667,33
20.17500,33
20.18333,33
20.19167,33
20.20000,33
20.20833,33
20.21667,33
20.22500,32
20.23333,32
20.24167,32
20.25000,32
20.25833,33
20.26667,33
20.27500,33
20.28333,33
20.29167,33
20.30000,33
20.30833,33
20.31667,33
20.32500,33
20.33333,33
20.34167,33
20.35000,33
20.35833,33
20.36667,34
20.37500,34
20.38333,34
20.39167,34
20.40000,34
20.40833,33
20.41667,33
20.42500,33
20.43333,32
20.44167,32
20.45000,32
20.45833,32
20.46667,32
20.47500,32
20.48333,32
20.49167,32
20.50000,32
20.50833,32
20.51667,32
20.52500,33
20.53333,33
20.54167,33
20.55000,33
20.55833,34
20.56667,34
20.57500,34
20.58333,34
20.59167,34
20.60000,33
20.60833,33
20.61667,32
20.62500,32
20.63333,32
20.64167,32
20.65000,32
20.65833,32
20.66667,32
20.67500,32
20.68333,32
20.69167,32
20.70000,32
20.70833,32
20.71667,31
20.72500,31
20.73333,31
20.74167,32
20.75000,32
20.75833,32
20.76667,32
20.77500,32
20.78333,32
20.79167,32
20.80000,32
20.80833,31
20.81667,32
20.82500,32
20.83333,32
20.84167,32
20.85000,32
20.85833,33
20.86667,33
20.87500,33
20.88333,33
20.89167,33
20.90000,33
20.90833,32
20.91667,32
20.92500,32
20.93333,32
20.94167,32
20.95000,32
20.95833,32
20.96667,32
20.97500,32
20.98333,32
20.99167,32
21.00000,32
21.00833,32
21.01667,32
21.02500,32
21.03333,32
21.04167,32
21.05000,32
21.05833,32
21.06667,33
21.07500,33
21.08333,33
21.09167,33
21.10000,33
21.10833,33
21.11667,33
21.12500,33
21.13333,33
21.14167,33
21.15000,33
21.15833,32
21.16667,32
21.17500,32
21.18333,32
21.19167,32
21.20000,32
21.20833,32
21.21667,32
21.22500,33
21.23333,33
21.24167,33
21.25000,33
21.25833,33
21.26667,33
21.27500,33
21.28333,33
21.29167,33
21.30000,33
21.30833,33
21.31667,34
21.32500,34
21.33333,34
21.34167,34
21.35000,35
21.35833,35
21.36667,36
21.37500,36
21.38333,37
21.39167,37
21.40000,37
21.40833,38
21.41667,38
21.42500,38
21.43333,38
21.44167,39
21.45000,39
21.45833,40
21.46667,41
21.47500,43
21.48333,44
21.49167,46
21.50000,48
21.50833,51
21.51667,53
21.52500,56
21.53333,60
21.54167,63
21.55000,67
21.55833,72
21.56667,77
21.57500,83
21.58333,89
21.59167,97
21.60000,105
21.60833,114
21.61667,124
21.62500,135
21.63333,147
21.64167,162
21.65000,177
21.65833,195
21.66667,214
21.67500,235
21.68333,259
21.69167,284
21.70000,312
21.70833,343
21.71667,376
21.72500,413
21.73333,453
21.74167,496
21.75000,543
21.75833,593
21.76667,647
21.77500,704
21.78333,764
21.79167,829
21.80000,896
21.80833,968
21.81667,1043
21.82500,1121
21.83333,1203
21.84167,1288
21.85000,1376
21.85833,1465
21.86667,1558
21.87500,1652
21.88333,1748
21.89167,1845
21.90000,1942
21.90833,2039
21.91667,2136
21.92500,2232
21.93333,2327
21.94167,2420
21.95000,2510
21.95833,2598
21.96667,2682
21.97500,2762
21.98333,2838
21.99167,2909
22.00000,2974
22.00833,3034
22.01667,3087
22.02500,3134
22.03333,3174
22.04167,3207
22.05000,3233
22.05833,3251
22.06667,3262
22.07500,3267
22.08333,3264
22.09167,3253
22.10000,3235
22.10833,3211
22.11667,3179
22.12500,3141
22.13333,3097
22.14167,3047
22.15000,2992
22.15833,2932
22.16667,2867
22.17500,2798
22.18333,2726
22.19167,2650
22.20000,2572
22.20833,2491
22.21667,2409
22.22500,2325
22.23333,2239
22.24167,2153
22.25000,2066
22.25833,1980
22.26667,1895
22.27500,1810
22.28333,1727
22.29167,1644
22.30000,1563
22.30833,1484
22.31667,1407
22.32500,1333
22.33333,1260
22.34167,1190
22.35000,1123
22.35833,1058
22.36667,995
22.37500,935
22.38333,878
22.39167,824
22.40000,772
22.40833,724
22.41667,677
22.42500,634
22.43333,592
22.44167,554
22.45000,517
22.45833,484
22.46667,452
22.47500,422
22.48333,394
22.49167,368
22.50000,344
22.50833,321
22.51667,300
22.52500,280
22.53333,262
22.54167,246
22.55000,230
22.55833,216
22.56667,203
22.57500,191
22.58333,180
22.59167,170
22.60000,160
22.60833,152
22.61667,143
22.62500,136
22.63333,129
22.64167,123
22.65000,117
22.65833,112
22.66667,107
22.67500,102
22.68333,98
22.69167,94
22.70000,91
22.70833,89
22.71667,86
22.72500,83
22.73333,80
22.74167,78
22.75000,76
22.75833,74
22.76667,72
22.77500,71
22.78333,69
22.79167,68
22.80000,67
22.80833,65
22.81667,64
22.82500,63
22.83333,62
22.84167,61
22.85000,60
22.85833,59
22.86667,59
22.87500,58
22.88333,57
22.89167,56
22.90000,56
22.90833,55
22.91667,54
22.92500,54
22.93333,54
22.94167,53
22.95000,53
22.95833,53
22.96667,53
22.97500,52
22.98333,52
22.99167,52
23.00000,52
23.00833,51
23.01667,51
23.02500,51
23.03333,51
23.04167,51
23.05000,51
23.05833,51
23.06667,50
23.07500,50
23.08333,50
23.09167,50
23.10000,49
23.10833,49
23.11667,49
23.12500,48
23.13333,48
23.14167,47
23.15000,47
23.15833,47
23.16667,47
23.17500,47
23.18333,47
23.19167,46
23.20000,46
23.20833,46
23.21667,46
23.22500,46
23.23333,46
23.24167,46
23.25000,46
23.25833,46
23.26667,46
23.27500,46
23.28333,46
23.29167,46
23.30000,46
23.30833,46
23.31667,46
23.32500,47
23.33333,47
23.34167,46
23.35000,46
23.35833,46
23.36667,45
23.37500,45
23.38333,44
23.39167,44
23.40000,44
23.40833,43
23.41667,43
23.42500,43
23.43333,44
23.44167,44
23.45000,44
23.45833,44
23.46667,44
23.47500,44
23.48333,44
23.49167,44
23.50000,44
23.50833,45
23.51667,45
23.52500,45
23.53333,45
23.54167,45
23.55000,45
23.55833,45
23.56667,44
23.57500,44
23.58333,44
23.59167,43
23.60000,43
23.60833,43
23.61667,43
23.62500,43
23.63333,43
23.64167,43
23.65000,43
23.65833,43
23.66667,43
23.67500,43
23.68333,43
23.69167,43
23.70000,42
23.70833,42
23.71667,43
23.72500,43
23.73333,43
23.74167,43
23.75000,43
23.75833,43
23.76667,43
23.77500,43
23.78333,43
23.79167,42
23.80000,42
23.80833,42
23.81667,42
23.82500,42
23.83333,43
23.84167,43
23.85000,42
23.85833,42
23.86667,41
23.87500,41
23.88333,41
23.89167,40
23.90000,40
23.90833,40
23.91667,40
23.92500,40
23.93333,40
23.94167,40
23.95000,41
23.95833,41
23.96667,41
23.97500,41
23.98333,41
23.99167,41
24.00000,41
24.00833,41
24.01667,41
24.02500,41
24.03333,41
24.04167,41
24.05000,42
24.05833,42
24.06667,42
24.07500,41
24.08333,41
24.09167,41
24.10000,41
24.10833,40
24.11667,40
24.12500,40
24.13333,40
24.14167,40
24.15000,40
24.15833,40
24.16667,40
24.17500,40
24.18333,40
24.19167,40
24.20000,40
24.20833,41
24.21667,41
24.22500,41
24.23333,41
24.24167,42
24.25000,42
24.25833,42
24.26667,43
24.27500,43
24.28333,43
24.29167,43
24.30000,43
24.30833,43
24.31667,43
24.32500,43
24.33333,43
24.34167,43
24.35000,42
24.35833,42
24.36667,43
24.37500,43
24.38333,43
24.39167,44
24.40000,44
24.40833,45
24.41667,45
24.42500,46
24.43333,47
24.44167,48
24.45000,49
24.45833,50
24.46667,52
24.47500,53
24.48333,55
24.49167,56
24.50000,58
24.50833,60
24.51667,62
24.52500,64
24.53333,67
24.54167,70
24.55000,73
24.55833,76
24.56667,80
24.57500,85
24.58333,89
24.59167,95
24.60000,100
24.60833,107
24.61667,114
24.62500,121
24.63333,129
24.64167,139
24.65000,148
24.65833,159
24.66667,171
24.67500,183
24.68333,197
24.69167,211
24.70000,227
24.70833,243
24.71667,260
24.72500,279
24.73333,299
24.74167,319
24.75000,341
24.75833,364
24.76667,388
24.77500,413
24.78333,439
24.79167,467
24.80000,495
24.80833,524
24.81667,554
24.82500,584
24.83333,615
24.84167,647
24.85000,679
24.85833,712
24.86667,746
24.87500,779
24.88333,812
24.89167,846
24.90000,879
24.90833,912
24.91667,944
24.92500,975
24.93333,1005
24.94167,1034
24.95000,1062
24.95833,1089
24.96667,1115
24.97500,1139
24.98333,1161
24.99167,1182
25.00000,1200
25.00833,1217
25.01667,1232
25.02500,1244
25.03333,1254
25.04167,1262
25.05000,1267
25.05833,1270
25.06667,1270
25.07500,1269
25.08333,1265
25.09167,1258
25.10000,1250
25.10833,1239
25.11667,1226
25.12500,1212
25.13333,1195
25.14167,1177
25.15000,1156
25.15833,1135
25.16667,1111
25.17500,1087
25.18333,1061
25.19167,1035
25.20000,1008
25.20833,979
25.21667,950
25.22500,921
25.23333,891
25.24167,860
25.25000,830
25.25833,799
25.26667,768
25.27500,738
25.28333,708
25.29167,678
25.30000,648
25.30833,619
25.31667,591
25.32500,563
25.33333,536
25.34167,509
25.35000,484
25.35833,459
25.36667,436
25.37500,413
25.38333,391
25.39167,370
25.40000,351
25.40833,332
25.41667,314
25.42500,296
25.43333,280
25.44167,265
25.45000,250
25.45833,236
25.46667,223
25.47500,211
25.48333,199
25.49167,188
25.50000,178
25.50833,168
25.51667,160
25.52500,151
25.53333,144
25.54167,137
25.55000,130
25.55833,123
25.56667,117
25.57500,111
25.58333,106
25.59167,101
25.60000,96
25.60833,92
25.61667,88
25.62500,85
25.63333,82
25.64167,79
25.65000,76
25.65833,74
25.66667,72
25.67500,70
25.68333,69
25.69167,67
25.70000,66
25.70833,64
25.71667,63
25.72500,61
25.73333,60
25.74167,59
25.75000,58
25.75833,57
25.76667,56
25.77500,55
25.78333,55
25.79167,54
25.80000,53
25.80833,53
25.81667,52
25.82500,52
25.83333,51
25.84167,51
25.85000,51
25.85833,51
25.86667,51
25.87500,50
25.88333,50
25.89167,50
25.90000,50
25.90833,49
25.91667,49
25.92500,49
25.93333,49
25.94167,49
25.95000,49
25.95833,49
25.96667,49
25.97500,49
25.98333,49
25.99167,49
26.00000,49
26.00833,49
26.01667,49
26.02500,48
26.03333,48
26.04167,48
26.05000,48
26.05833,47
26.06667,47
26.07500,47
26.08333,47
26.09167,47
26.10000,47
26.10833,46
26.11667,46
26.12500,46
26.13333,46
26.14167,46
26.15000,46
26.15833,46
26.16667,46
26.17500,46
26.18333,46
26.19167,47
26.20000,47
26.20833,47
26.21667,46
26.22500,46
26.23333,46
26.24167,46
26.25000,46
26.25833,46
26.26667,45
26.27500,45
26.28333,45
26.29167,45
26.30000,45
26.30833,45
26.31667,45
26.32500,45
26.33333,45
26.34167,45
26.35000,45
26.35833,45
26.36667,45
26.37500,45
26.38333,45
26.39167,45
26.40000,46
26.40833,46
26.41667,46
26.42500,46
26.43333,45
26.44167,45
26.45000,45
26.45833,45
26.46667,45
26.47500,45
26.48333,45
26.49167,45
26.50000,46
26.50833,46
26.51667,45
26.52500,45
26.53333,45
26.54167,45
26.55000,44
26.55833,44
26.56667,45
26.57500,45
26.58333,45
26.59167,45
26.60000,45
26.60833,45
26.61667,45
26.62500,45
26.63333,45
26.64167,46
26.65000,46
26.65833,46
26.66667,46
26.67500,46
26.68333,46
26.69167,46
26.70000,45
26.70833,45
26.71667,45
26.72500,46
26.73333,45
26.74167,45
26.75000,46
26.75833,45
26.76667,45
26.77500,45
26.78333,45
26.79167,45
26.80000,45
26.80833,45
26.81667,45
26.82500,45
26.83333,44
26.84167,45
26.85000,44
26.85833,44
26.86667,44
26.87500,44
26.88333,44
26.89167,44
26.90000,45
26.90833,45
26.91667,45
26.92500,45
26.93333,44
26.94167,44
26.95000,44
26.95833,45
26.96667,45
26.97500,45
26.98333,45
26.99167,45
27.00000,44
27.00833,44
27.01667,44
27.02500,44
27.03333,44
27.04167,44
27.05000,44
27.05833,44
27.06667,44
27.07500,44
27.08333,44
27.09167,44
27.10000,44
27.10833,44
27.11667,44
27.12500,44
27.13333,44
27.14167,44
27.15000,45
27.15833,45
27.16667,45
27.17500,45
27.18333,45
27.19167,45
27.20000,46
27.20833,46
27.21667,46
27.22500,46
27.23333,45
27.24167,45
27.25000,45
27.25833,45
27.26667,45
27.27500,45
27.28333,45
27.29167,44
27.30000,44
27.30833,44
27.31667,44
27.32500,45
27.33333,45
27.34167,46
27.35000,46
27.35833,46
27.36667,46
27.37500,46
27.38333,45
27.39167,45
27.40000,45
27.40833,45
27.41667,45
27.42500,45
27.43333,45
27.44167,45
27.45000,45
27.45833,45
27.46667,45
27.47500,45
27.48333,45
27.49167,45
27.50000,45
27.50833,45
27.51667,44
27.52500,44
27.53333,44
27.54167,44
27.55000,45
27.55833,45
27.56667,45
27.57500,45
27.58333,46
27.59167,46
27.60000,46
27.60833,46
27.61667,46
27.62500,45
27.63333,45
27.64167,45
27.65000,45
27.65833,45
27.66667,45
27.67500,45
27.68333,45
27.69167,45
27.70000,45
27.70833,45
27.71667,45
27.72500,44
27.73333,44
27.74167,43
27.75000,43
27.75833,42
27.76667,42
27.77500,42
27.78333,42
27.79167,42
27.80000,42
27.80833,42
27.81667,41
27.82500,41
27.83333,40
27.84167,40
27.85000,40
27.85833,40
27.86667,40
27.87500,39
27.88333,38
27.89167,37
27.90000,37
27.90833,36
27.91667,35
27.92500,34
27.93333,33
27.94167,31
27.95000,30
27.95833,28
27.96667,26
27.97500,25
27.98333,23
27.99167,21
28.00000,19
28.00833,18
28.01667,16
28.02500,15
28.03333,13
28.04167,11
28.05000,8
28.05833,6
28.06667,3
28.07500,1
28.08333,-1
28.09167,-4
28.10000,-6
28.10833,-9
28.11667,-13
28.12500,-16
28.13333,-19
28.14167,-23
28.15000,-26
28.15833,-29
28.16667,-32
28.17500,-35
28.18333,-39
28.19167,-42
28.20000,-46
28.20833,-50
28.21667,-54
28.22500,-58
28.23333,-61
28.24167,-65
28.25000,-68
28.25833,-71
28.26667,-75
28.27500,-78
28.28333,-81
28.29167,-84
28.30000,-87
28.30833,-90
28.31667,-93
28.32500,-96
28.33333,-98
28.34167,-101
28.35000,-103
28.35833,-106
28.36667,-107
28.37500,-109
28.38333,-111
28.39167,-112
28.40000,-114
28.40833,-115
28.41667,-117
28.42500,-118
28.43333,-119
28.44167,-120
28.45000,-120
28.45833,-120
28.46667,-120
28.47500,-120
28.48333,-120
28.49167,-119
28.50000,-118
28.50833,-118
28.51667,-117
28.52500,-115
28.53333,-114
28.54167,-112
28.55000,-110
28.55833,-109
28.56667,-106
28.57500,-104
28.58333,-102
28.59167,-100
28.60000,-97
28.60833,-95
28.61667,-92
28.62500,-89
28.63333,-86
28.64167,-83
28.65000,-80
28.65833,-77
28.66667,-75
28.67500,-72
28.68333,-69
28.69167,-66
28.70000,-63
28.70833,-60
28.71667,-57
28.72500,-54
28.73333,-51
28.74167,-48
28.75000,-45
28.75833,-42
28.76667,-39
28.77500,-35
28.78333,-33
28.79167,-30
28.80000,-27
28.80833,-25
28.81667,-23
28.82500,-21
28.83333,-18
28.84167,-16
28.85000,-14
28.85833,-11
28.86667,-9
28.87500,-7
28.88333,-5
28.89167,-3
28.90000,-1
28.90833,1
28.91667,2
28.92500,4
28.93333,6
28.94167,7
28.95000,9
28.95833,10
28.96667,11
28.97500,12
28.98333,14
28.99167,15
29.00000,16
29.00833,17
29.01667,18
29.02500,19
29.03333,20
29.04167,21
29.05000,22
29.05833,23
29.06667,24
29.07500,25
29.08333,25
29.09167,26
29.10000,27
29.10833,27
29.11667,28
29.12500,29
29.13333,29
29.14167,30
29.15000,30
29.15833,31
29.16667,31
29.17500,31
29.18333,31
29.19167,32
29.20000,32
29.20833,32
29.21667,32
29.22500,33
29.23333,33
29.24167,34
29.25000,34
29.25833,34
29.26667,34
29.27500,34
29.28333,34
29.29167,34
29.30000,35
29.30833,35
29.31667,36
29.32500,36
29.33333,36
29.34167,36
29.35000,36
29.35833,36
29.36667,36
29.37500,36
29.38333,37
29.39167,37
29.40000,37
29.40833,37
29.41667,37
29.42500,37
29.43333,38
29.44167,38
29.45000,37
29.45833,37
29.46667,36
29.47500,36
29.48333,36
29.49167,36
29.50000,36
29.50833,36
29.51667,36
29.52500,36
29.53333,36
29.54167,36
29.55000,37
29.55833,37
29.56667,37
29.57500,37
29.58333,37
29.59167,37
29.60000,36
29.60833,36
29.61667,36
29.62500,36
29.63333,35
29.64167,35
29.65000,34
29.65833,33
29.66667,32
29.67500,32
29.68333,31
29.69167,30
29.70000,30
29.70833,30
29.71667,29
29.72500,28
29.73333,28
29.74167,27
29.75000,26
29.75833,25
29.76667,24
29.77500,23
29.78333,22
29.79167,22
29.80000,21
29.80833,20
29.81667,20
29.82500,19
29.83333,18
29.84167,16
29.85000,15
29.85833,14
29.86667,13
29.87500,12
29.88333,10
29.89167,9
29.90000,8
29.90833,7
29.91667,6
29.92500,4
29.93333,3
29.94167,1
29.95000,-0
29.95833,-2
29.96667,-3
29.97500,-4
29.98333,-5
29.99167,-6
30.00000,-7
30.00833,-8
30.01667,-9
30.02500,-10
30.03333,-11
30.04167,-12
30.05000,-14
30.05833,-15
30.06667,-16
30.07500,-17
30.08333,-18
30.09167,-19
30.10000,-19
30.10833,-20
30.11667,-20
30.12500,-21
30.13333,-21
30.14167,-22
30.15000,-23
30.15833,-24
30.16667,-24
30.17500,-24
30.18333,-25
30.19167,-25
30.20000,-25
30.20833,-25
30.21667,-24
30.22500,-24
30.23333,-24
30.24167,-24
30.25000,-24
30.25833,-24
30.26667,-23
30.27500,-23
30.28333,-22
30.29167,-22
30.30000,-22
30.30833,-21
30.31667,-21
30.32500,-20
30.33333,-19
30.34167,-18
30.35000,-17
30.35833,-16
30.36667,-15
30.37500,-14
30.38333,-13
30.39167,-12
30.40000,-11
30.40833,-10
30.41667,-9
30.42500,-8
30.43333,-7
30.44167,-5
30.45000,-4
30.45833,-3
30.46667,-1
30.47500,-0
30.48333,1
30.49167,2
30.50000,3
30.50833,4
30.51667,5
30.52500,6
30.53333,8
30.54167,9
30.55000,10
30.55833,11
30.56667,12
30.57500,13
30.58333,14
30.59167,15
30.60000,16
30.60833,17
30.61667,18
30.62500,19
30.63333,20
30.64167,20
30.65000,21
30.65833,21
30.66667,22
30.67500,23
30.68333,24
30.69167,25
30.70000,25
30.70833,26
30.71667,27
30.72500,27
30.73333,28
30.74167,29
30.75000,30
30.75833,31
30.76667,31
30.77500,32
30.78333,32
30.79167,33
30.80000,33
30.80833,33
30.81667,34
30.82500,34
30.83333,34
30.84167,34
30.85000,34
30.85833,34
30.86667,34
30.87500,34
30.88333,34
30.89167,34
30.90000,35
30.90833,35
30.91667,35
30.92500,36
30.93333,36
30.94167,36
30.95000,37
30.95833,37
30.96667,37
30.97500,37
30.98333,37
30.99167,38
31.00000,38
31.00833,39
31.01667,39
31.02500,39
31.03333,39
31.04167,39
31.05000,39
31.05833,39
31.06667,39
31.07500,38
31.08333,38
31.09167,38
31.10000,38
31.10833,38
31.11667,38
31.12500,38
31.13333,38
31.14167,38
31.15000,38
31.15833,38
31.16667,39
31.17500,39
31.18333,39
31.19167,39
31.20000,39
31.20833,40
31.21667,40
31.22500,40
31.23333,40
31.24167,40
31.25000,41
31.25833,41
31.26667,41
31.27500,41
31.28333,41
31.29167,42
31.30000,42
31.30833,42
31.31667,43
31.32500,43
31.33333,43
31.34167,43
31.35000,43
31.35833,43
31.36667,42
31.37500,42
31.38333,42
31.39167,42
31.40000,42
31.40833,42
31.41667,43
31.42500,43
31.43333,43
31.44167,44
31.45000,44
31.45833,44
31.46667,44
31.47500,44
31.48333,44
31.49167,45
31.50000,45
31.50833,45
31.51667,45
31.52500,45
31.53333,45
31.54167,45
31.55000,46
31.55833,46
31.56667,45
31.57500,45
31.58333,45
31.59167,45
31.60000,45
31.60833,45
31.61667,45
31.62500,45
31.63333,45
31.64167,45
31.65000,45
31.65833,46
31.66667,46
31.67500,46
31.68333,46
31.69167,46
31.70000,46
31.70833,46
31.71667,47
31.72500,47
31.73333,48
31.74167,48
31.75000,48
31.75833,48
31.76667,48
31.77500,48
31.78333,48
31.79167,48
31.80000,47
31.80833,47
31.81667,47
31.82500,47
31.83333,46
31.84167,46
31.85000,46
31.85833,47
31.86667,47
31.87500,47
31.88333,47
31.89167,47
31.90000,47
31.90833,47
31.91667,47
31.92500,47
31.93333,47
31.94167,47
31.95000,47
31.95833,47
31.96667,47
31.97500,47
31.98333,47
31.99167,47
32.00000,47
32.00833,47
32.01667,47
32.02500,48
32.03333,48
32.04167,48
32.05000,48
32.05833,48
32.06667,48
32.07500,48
32.08333,48
32.09167,48
32.10000,48
32.10833,48
32.11667,48
32.12500,49
32.13333,48
32.14167,48
32.15000,48
32.15833,48
32.16667,48
32.17500,48
32.18333,48
32.19167,49
32.20000,49
32.20833,49
32.21667,49
32.22500,49
32.23333,49
32.24167,49
32.25000,49
32.25833,49
32.26667,49
32.27500,49
32.28333,49
32.29167,49
32.30000,49
32.30833,48
32.31667,48
32.32500,48
32.33333,48
32.34167,48
32.35000,48
32.35833,48
32.36667,48
32.37500,48
32.38333,49
32.39167,49
32.40000,49
32.40833,49
32.41667,49
32.42500,48
32.43333,49
32.44167,49
32.45000,49
32.45833,50
32.46667,49
32.47500,49
32.48333,49
32.49167,49
32.50000,49
32.50833,49
32.51667,49
32.52500,49
32.53333,49
32.54167,49
32.55000,49
32.55833,49
32.56667,50
32.57500,50
32.58333,50
32.59167,50
32.60000,50
32.60833,49
32.61667,49
32.62500,49
32.63333,49
32.64167,49
32.65000,50
32.65833,50
32.66667,50
32.67500,50
32.68333,50
32.69167,50
32.70000,50
32.70833,50
32.71667,50
32.72500,50
32.73333,50
32.74167,50
32.75000,50
32.75833,50
32.76667,50
32.77500,50
32.78333,49
32.79167,50
32.80000,50
32.80833,50
32.81667,50
32.82500,50
32.83333,50
32.84167,50
32.85000,50
32.85833,51
32.86667,51
32.87500,51
32.88333,52
32.89167,52
32.90000,52
32.90833,52
32.91667,52
32.92500,52
32.93333,51
32.94167,51
32.95000,51
32.95833,51
32.96667,51
32.97500,52
32.98333,52
32.99167,52
33.00000,51
33.00833,51
33.01667,51
33.02500,51
33.03333,50
33.04167,50
33.05000,50
33.05833,50
33.06667,50
33.07500,51
33.08333,51
33.09167,51
33.10000,51
33.10833,51
33.11667,51
33.12500,51
33.13333,51
33.14167,51
33.15000,51
33.15833,51
33.16667,51
33.17500,51
33.18333,51
33.19167,51
33.20000,52
33.20833,52
33.21667,52
33.22500,52
33.23333,52
33.24167,52
33.25000,52
33.25833,52
33.26667,51
33.27500,51
33.28333,51
33.29167,51
33.30000,50
33.30833,50
33.31667,50
33.32500,50
33.33333,50
33.34167,50
33.35000,50
33.35833,51
33.36667,51
33.37500,51
33.38333,52
33.39167,52
33.40000,52
33.40833,52
33.41667,52
33.42500,52
33.43333,52
33.44167,52
33.45000,52
33.45833,52
33.46667,52
33.47500,51
33.48333,51
33.49167,52
33.50000,52
33.50833,52
33.51667,51
33.52500,51
33.53333,51
33.54167,51
33.55000,51
33.55833,51
33.56667,51
33.57500,51
33.58333,51
33.59167,51
33.60000,51
33.60833,51
33.61667,51
33.62500,51
33.63333,52
33.64167,52
33.65000,53
33.65833,52
33.66667,52
33.67500,52
33.68333,52
33.69167,52
33.70000,52
33.70833,52
33.71667,52
33.72500,52
33.73333,52
33.74167,52
33.75000,52
33.75833,52
33.76667,52
33.77500,53
33.78333,53
33.79167,52
33.80000,52
33.80833,52
33.81667,51
33.82500,51
33.83333,51
33.84167,51
33.85000,51
33.85833,51
33.86667,51
33.87500,51
33.88333,51
33.89167,51
33.90000,51
33.90833,51
33.91667,51
33.92500,51
33.93333,51
33.94167,52
33.95000,52
33.95833,52
33.96667,52
33.97500,52
33.98333,51
33.99167,51
34.00000,51
34.00833,51
34.01667,51
34.02500,51
34.03333,52
34.04167,52
34.05000,51
34.05833,51
34.06667,51
34.07500,51
34.08333,51
34.09167,51
34.10000,51
34.10833,52
34.11667,52
34.12500,52
34.13333,53
34.14167,53
34.15000,52
34.15833,52
34.16667,52
34.17500,52
34.18333,52
34.19167,52
34.20000,52
34.20833,52
34.21667,53
34.22500,53
34.23333,53
34.24167,53
34.25000,53
34.25833,53
34.26667,53
34.27500,53
34.28333,53
34.29167,52
34.30000,53
34.30833,53
34.31667,53
34.32500,53
34.33333,53
34.34167,52
34.35000,52
34.35833,52
34.36667,52
34.37500,52
34.38333,53
34.39167,53
34.40000,53
34.40833,53
34.41667,53
34.42500,53
34.43333,53
34.44167,53
34.45000,53
34.45833,53
34.46667,53
34.47500,53
34.48333,54
34.49167,54
34.50000,54
34.50833,53
34.51667,53
34.52500,53
34.53333,53
34.54167,52
34.55000,52
34.55833,52
34.56667,52
34.57500,52
34.58333,52
34.59167,52
34.60000,52
34.60833,52
34.61667,53
34.62500,53
34.63333,54
34.64167,54
34.65000,54
34.65833,54
34.66667,54
34.67500,54
34.68333,54
34.69167,54
34.70000,54
34.70833,54
34.71667,54
34.72500,54
34.73333,54
34.74167,54
34.75000,54
34.75833,54
34.76667,54
34.77500,54
34.78333,54
34.79167,53
34.80000,53
34.80833,53
34.81667,53
34.82500,53
34.83333,53
34.84167,53
34.85000,53
34.85833,54
34.86667,54
34.87500,55
34.88333,55
34.89167,55
34.90000,55
34.90833,54
34.91667,54
34.92500,54
34.93333,54
34.94167,54
34.95000,54
34.95833,54
34.96667,54
34.97500,54
34.98333,54
34.99167,54
35.00000,55
35.00833,54
35.01667,54
35.02500,54
35.03333,54
35.04167,54
35.05000,53
35.05833,53
35.06667,53
35.07500,53
35.08333,53
35.09167,53
35.10000,54
35.10833,54
35.11667,54
35.12500,54
35.13333,54
35.14167,54
35.15000,54
35.15833,54
35.16667,54
35.17500,54
35.18333,54
35.19167,54
35.20000,54
35.20833,54
35.21667,54
35.22500,54
35.23333,55
35.24167,55
35.25000,54
35.25833,54
35.26667,54
35.27500,53
35.28333,53
35.29167,53
35.30000,53
35.30833,53
35.31667,54
35.32500,54
35.33333,54
35.34167,55
35.35000,55
35.35833,55
35.36667,55
35.37500,55
35.38333,55
35.39167,55
35.40000,55
35.40833,54
35.41667,54
35.42500,54
35.43333,54
35.44167,54
35.45000,55
35.45833,55
35.46667,55
35.47500,55
35.48333,55
35.49167,55
35.50000,55
35.50833,55
35.51667,55
35.52500,55
35.53333,55
35.54167,54
35.55000,55
35.55833,55
35.56667,55
35.57500,55
35.58333,55
35.59167,55
35.60000,55
35.60833,55
35.61667,55
35.62500,55
35.63333,55
35.64167,55
35.65000,55
35.65833,54
35.66667,54
35.67500,54
35.68333,54
35.69167,54
35.70000,54
35.70833,54
35.71667,55
35.72500,55
35.73333,55
35.74167,55
35.75000,55
35.75833,55
35.76667,55
35.77500,55
35.78333,55
35.79167,55
35.80000,55
35.80833,54
35.81667,54
35.82500,55
35.83333,55
35.84167,55
35.85000,55
35.85833,55
35.86667,55
35.87500,55
35.88333,55
35.89167,55
35.90000,55
35.90833,55
35.91667,55
35.92500,55
35.93333,55
35.94167,55
35.95000,55
35.95833,55
35.96667,55
35.97500,55
35.98333,55
35.99167,55
36.00000,55
36.00833,55
36.01667,55
36.02500,55
36.03333,55
36.04167,55
36.05000,55
36.05833,55
36.06667,54
36.07500,54
36.08333,54
36.09167,54
36.10000,54
36.10833,54
36.11667,54
36.12500,54
36.13333,54
36.14167,55
36.15000,55
36.15833,55
36.16667,55
36.17500,55
36.18333,55
36.19167,55
36.20000,55
36.20833,55
36.21667,55
36.22500,55
36.23333,55
36.24167,55
36.25000,55
36.25833,55
36.26667,55
36.27500,55
36.28333,55
36.29167,54
36.30000,54
36.30833,54
36.31667,54
36.32500,54
36.33333,54
36.34167,54
36.35000,54
36.35833,54
36.36667,54
36.37500,54
36.38333,54
36.39167,55
36.40000,55
36.40833,55
36.41667,55
36.42500,55
36.43333,55
36.44167,55
36.45000,54
36.45833,54
36.46667,54
36.47500,54
36.48333,54
36.49167,55
36.50000,55
36.50833,54
36.51667,54
36.52500,55
36.53333,55
36.54167,55
36.55000,55
36.55833,55
36.56667,55
36.57500,55
36.58333,55
36.59167,56
36.60000,56
36.60833,56
36.61667,56
36.62500,56
36.63333,55
36.64167,55
36.65000,56
36.65833,56
36.66667,55
36.67500,55
36.68333,55
36.69167,55
36.70000,55
36.70833,55
36.71667,55
36.72500,55
36.73333,55
36.74167,55
36.75000,55
36.75833,55
36.76667,55
36.77500,55
36.78333,56
36.79167,56
36.80000,56
36.80833,56
36.81667,56
36.82500,56
36.83333,57
36.84167,57
36.85000,57
36.85833,57
36.86667,56
36.87500,57
36.88333,57
36.89167,57
36.90000,57
36.90833,58
36.91667,58
36.92500,58
36.93333,58
36.94167,58
36.95000,58
36.95833,58
36.96667,58
36.97500,58
36.98333,57
36.99167,57
37.00000,57
37.00833,57
37.01667,57
37.02500,57
37.03333,57
37.04167,57
37.05000,57
37.05833,57
37.06667,57
37.07500,57
37.08333,57
37.09167,57
37.10000,57
37.10833,57
37.11667,57
37.12500,57
37.13333,58
37.14167,58
37.15000,58
37.15833,58
37.16667,58
37.17500,58
37.18333,58
37.19167,58
37.20000,58
37.20833,58
37.21667,58
37.22500,57
37.23333,57
37.24167,57
37.25000,58
37.25833,58
37.26667,58
37.27500,58
37.28333,58
37.29167,57
37.30000,57
37.30833,57
37.31667,57
37.32500,57
37.33333,58
37.34167,58
37.35000,58
37.35833,58
37.36667,58
37.37500,59
37.38333,59
37.39167,59
37.40000,58
37.40833,58
37.41667,58
37.42500,58
37.43333,58
37.44167,58
37.45000,58
37.45833,58
37.46667,58
37.47500,58
37.48333,58
37.49167,58
37.50000,57
37.50833,57
37.51667,57
37.52500,56
37.53333,56
37.54167,57
37.55000,57
37.55833,58
37.56667,58
37.57500,58
37.58333,59
37.59167,59
37.60000,59
37.60833,59
37.61667,59
37.62500,59
37.63333,59
37.64167,59
37.65000,59
37.65833,59
37.66667,59
37.67500,59
37.68333,59
37.69167,59
37.70000,59
37.70833,58
37.71667,58
37.72500,58
37.73333,57
37.74167,57
37.75000,57
37.75833,57
37.76667,57
37.77500,57
37.78333,57
37.79167,57
37.80000,58
37.80833,58
37.81667,58
37.82500,58
37.83333,58
37.84167,58
37.85000,58
37.85833,58
37.86667,58
37.87500,58
37.88333,58
37.89167,58
37.90000,58
37.90833,58
37.91667,58
37.92500,58
37.93333,59
37.94167,59
37.95000,59
37.95833,59
37.96667,58
37.97500,58
37.98333,58
37.99167,58
38.00000,58
38.00833,58
38.01667,58
38.02500,58
38.03333,58
38.04167,59
38.05000,59
38.05833,59
38.06667,59
38.07500,59
38.08333,59
38.09167,59
38.10000,59
38.10833,60
38.11667,60
38.12500,60
38.13333,60
38.14167,60
38.15000,60
38.15833,60
38.16667,60
38.17500,60
38.18333,60
38.19167,60
38.20000,60
38.20833,60
38.21667,60
38.22500,60
38.23333,61
38.24167,61
38.25000,60
38.25833,60
38.26667,61
38.27500,61
38.28333,61
38.29167,61
38.30000,61
38.30833,61
38.31667,61
38.32500,61
38.33333,61
38.34167,61
38.35000,61
38.35833,62
38.36667,62
38.37500,62
38.38333,62
38.39167,62
38.40000,62
38.40833,62
38.41667,62
38.42500,62
38.43333,62
38.44167,62
38.45000,62
38.45833,62
38.46667,62
38.47500,62
38.48333,62
38.49167,62
38.50000,61
38.50833,62
38.51667,62
38.52500,62
38.53333,62
38.54167,62
38.55000,62
38.55833,62
38.56667,62
38.57500,62
38.58333,62
38.59167,62
38.60000,62
38.60833,62
38.61667,62
38.62500,62
38.63333,62
38.64167,62
38.65000,63
38.65833,63
38.66667,63
38.67500,63
38.68333,62
38.69167,62
38.70000,62
38.70833,62
38.71667,62
38.72500,61
38.73333,61
38.74167,61
38.75000,62
38.75833,62
38.76667,61
38.77500,61
38.78333,62
38.79167,62
38.80000,62
38.80833,62
38.81667,62
38.82500,62
38.83333,62
38.84167,62
38.85000,62
38.85833,62
38.86667,62
38.87500,62
38.88333,62
38.89167,62
38.90000,62
38.90833,62
38.91667,62
38.92500,62
38.93333,61
38.94167,61
38.95000,61
38.95833,61
38.96667,61
38.97500,61
38.98333,61
38.99167,60
39.00000,60
39.00833,60
39.01667,60
39.02500,60
39.03333,60
39.04167,60
39.05000,60
39.05833,60
39.06667,60
39.07500,60
39.08333,60
39.09167,61
39.10000,61
39.10833,61
39.11667,61
39.12500,61
39.13333,61
39.14167,61
39.15000,61
39.15833,61
39.16667,61
39.17500,61
39.18333,61
39.19167,61
39.20000,60
39.20833,60
39.21667,60
39.22500,60
39.23333,60
39.24167,60
39.25000,60
39.25833,60
39.26667,60
39.27500,60
39.28333,60
39.29167,60
39.30000,60
39.30833,60
39.31667,60
39.32500,60
39.33333,60
39.34167,60
39.35000,60
39.35833,61
39.36667,61
39.37500,61
39.38333,61
39.39167,61
39.40000,61
39.40833,62
39.41667,62
39.42500,62
39.43333,62
39.44167,61
39.45000,61
39.45833,61
39.46667,61
39.47500,60
39.48333,60
39.49167,60
39.50000,60
39.50833,60
39.51667,60
39.52500,61
39.53333,61
39.54167,61
39.55000,61
39.55833,62
39.56667,62
39.57500,62
39.58333,62
39.59167,62
39.60000,62
39.60833,62
39.61667,62
39.62500,62
39.63333,62
39.64167,62
39.65000,62
39.65833,62
39.66667,62
39.67500,62
39.68333,61
39.69167,61
39.70000,61
39.70833,60
39.71667,60
39.72500,60
39.73333,60
39.74167,60
39.75000,60
39.75833,60
39.76667,60
39.77500,60
39.78333,61
39.79167,61
39.80000,61
39.80833,61
39.81667,61
39.82500,61
39.83333,62
39.84167,62
39.85000,62
39.85833,62
39.86667,62
39.87500,63
39.88333,63
39.89167,62
39.90000,62
39.90833,62
39.91667,62
39.92500,62
39.93333,62
39.94167,62
39.95000,62
39.95833,62
39.96667,62
39.97500,61
39.98333,61
39.99167,61
40.00000,61

