[Header]
Application Name,LabSolutions
Version,5.97 SP1
Data File Name,C:\Users\cremerlab\Desktop\griffin\2021-03-31_NCM3722_NCglucose_turnover\2021-03-31_NCM3722_turnover_batch_3312021_001_022.lcd
Output Date,4/1/2021
Output Time,11:22:16 AM

[File Information]
Type,Data File
Generated,4/1/2021 10:41:57 AM
Generated by,System Administrator
Modified,4/1/2021 11:22:16 AM
Modified by,System Administrator

[Sample Information]
Operator Name,System Administrator
Acquired,4/1/2021 10:42:15 AM
Sample Type,1:Standard
Level,1
Sample Name,2021-03-31_NCM3722_NCglucose_replicate_04_timepoint_001
Sample ID,001
ISTD Amount1,1
ISTD Amount2,1
ISTD Amount3,1
ISTD Amount4,1
ISTD Amount5,1
ISTD Amount6,1
ISTD Amount7,1
ISTD Amount8,1
ISTD Amount9,1
ISTD Amount10,1
ISTD Amount11,1
ISTD Amount12,1
ISTD Amount13,1
ISTD Amount14,1
ISTD Amount15,1
ISTD Amount16,1
ISTD Amount17,1
ISTD Amount18,1
ISTD Amount19,1
ISTD Amount20,1
ISTD Amount21,1
ISTD Amount22,1
ISTD Amount23,1
ISTD Amount24,1
ISTD Amount25,1
ISTD Amount26,1
ISTD Amount27,1
ISTD Amount28,1
ISTD Amount29,1
ISTD Amount30,1
ISTD Amount31,1
ISTD Amount32,1
Sample Amount,1
Dilution Factor,1
Vial#,37
Injection Volume,20

[Original Files]
Data File,C:\Users\cremerlab\Desktop\griffin\2021-03-31_NCM3722_NCglucose_turnover\2021-03-31_NCM3722_turnover_batch_3312021_001_022.lcd
Method File,C:\LabSolutions\Data\Project1\organicacidsetc2.lcm
Batch File,C:\Users\cremerlab\Desktop\griffin\2021-03-31_NCM3722_NCglucose_turnover\2021-03-31_NCM3722_turnover_batch.lcb
Report Format File,c:\LabSolutions\System\DEFAULT.lsr

[File Description]


[Configuration]
Instrument Name,HPLC-PC-Instrument1
Instrument #,1
Line #,1
# of Detectors,2
Detector ID,Detector A,Detector B
Detector Name,Detector A,Detector B
# of Channels,1,1

[Peak Table(Detector A)]
# of Peaks,0

[Peak Table(Detector B)]
# of Peaks,6
Peak#,R.Time,I.Time,F.Time,Area,Height,A/H,Conc.,Mark,ID#,Name,k',Plate #,Plate Ht.,Tailing,Resolution,Sep.Factor,Area Ratio,Height Ratio,Conc. %,Norm Conc.
1,11.059,10.750,11.625,1168422,69146,16.898,0.000,   ,,,0.000,10600,14.151,1.462,0.000,0.000,0,0,0.000,0.000
2,11.869,11.625,13.192,149518,2893,51.686,0.000, V ,,,0.073,0,0.000,0.000,0.000,0.000,0,0,0.000,0.000
3,15.105,14.108,15.392,3140720,118336,26.541,0.000,   ,,,0.366,7041,21.304,0.000,0.000,4.998,0,0,0.000,0.000
4,15.644,15.392,18.550,974739,39308,24.797,0.000, V ,,,0.415,8269,18.139,0.000,0.765,1.133,0,0,0.000,0.000
5,19.000,18.700,19.583,2215,101,21.857,0.000,   ,,,0.718,16486,9.098,1.227,5.244,1.732,0,0,0.000,0.000
6,25.067,24.717,25.592,2321,92,25.264,0.000,   ,,,1.267,20926,7.168,1.168,9.443,1.764,0,0,0.000,0.000

[LC Chromatogram(Detector B-Ch1)]
Interval(msec),500
# of Points,4801
Start Time(min),0.000
End Time(min),40.000
Intensity Units,mV
Intensity Multiplier,0.001
R.Time (min),Intensity
0.00000,166
0.00833,166
0.01667,21
0.02500,3
0.03333,4
0.04167,6
0.05000,8
0.05833,10
0.06667,12
0.07500,14
0.08333,15
0.09167,17
0.10000,18
0.10833,19
0.11667,20
0.12500,21
0.13333,22
0.14167,23
0.15000,24
0.15833,25
0.16667,26
0.17500,27
0.18333,28
0.19167,29
0.20000,29
0.20833,30
0.21667,30
0.22500,31
0.23333,32
0.24167,32
0.25000,33
0.25833,34
0.26667,34
0.27500,35
0.28333,35
0.29167,35
0.30000,35
0.30833,36
0.31667,36
0.32500,36
0.33333,36
0.34167,36
0.35000,37
0.35833,37
0.36667,38
0.37500,39
0.38333,39
0.39167,39
0.40000,40
0.40833,40
0.41667,40
0.42500,40
0.43333,39
0.44167,40
0.45000,40
0.45833,41
0.46667,41
0.47500,40
0.48333,40
0.49167,40
0.50000,40
0.50833,40
0.51667,40
0.52500,39
0.53333,39
0.54167,39
0.55000,39
0.55833,38
0.56667,39
0.57500,39
0.58333,39
0.59167,39
0.60000,39
0.60833,39
0.61667,39
0.62500,38
0.63333,38
0.64167,37
0.65000,37
0.65833,37
0.66667,36
0.67500,36
0.68333,36
0.69167,36
0.70000,36
0.70833,35
0.71667,35
0.72500,34
0.73333,34
0.74167,33
0.75000,33
0.75833,33
0.76667,33
0.77500,33
0.78333,33
0.79167,33
0.80000,33
0.80833,33
0.81667,33
0.82500,33
0.83333,33
0.84167,32
0.85000,32
0.85833,32
0.86667,31
0.87500,31
0.88333,31
0.89167,30
0.90000,30
0.90833,30
0.91667,29
0.92500,29
0.93333,28
0.94167,28
0.95000,28
0.95833,28
0.96667,27
0.97500,27
0.98333,27
0.99167,26
1.00000,26
1.00833,26
1.01667,25
1.02500,25
1.03333,25
1.04167,24
1.05000,24
1.05833,24
1.06667,24
1.07500,23
1.08333,23
1.09167,22
1.10000,22
1.10833,22
1.11667,22
1.12500,22
1.13333,21
1.14167,21
1.15000,21
1.15833,21
1.16667,21
1.17500,21
1.18333,21
1.19167,20
1.20000,20
1.20833,19
1.21667,19
1.22500,18
1.23333,18
1.24167,18
1.25000,18
1.25833,17
1.26667,17
1.27500,16
1.28333,16
1.29167,16
1.30000,16
1.30833,16
1.31667,15
1.32500,15
1.33333,14
1.34167,14
1.35000,14
1.35833,14
1.36667,13
1.37500,13
1.38333,13
1.39167,13
1.40000,12
1.40833,12
1.41667,12
1.42500,12
1.43333,11
1.44167,11
1.45000,11
1.45833,10
1.46667,10
1.47500,10
1.48333,10
1.49167,10
1.50000,10
1.50833,9
1.51667,9
1.52500,9
1.53333,9
1.54167,8
1.55000,8
1.55833,7
1.56667,7
1.57500,7
1.58333,7
1.59167,6
1.60000,6
1.60833,6
1.61667,6
1.62500,6
1.63333,6
1.64167,6
1.65000,6
1.65833,6
1.66667,5
1.67500,5
1.68333,5
1.69167,5
1.70000,5
1.70833,5
1.71667,4
1.72500,4
1.73333,4
1.74167,3
1.75000,3
1.75833,3
1.76667,3
1.77500,2
1.78333,2
1.79167,2
1.80000,2
1.80833,2
1.81667,2
1.82500,1
1.83333,1
1.84167,1
1.85000,1
1.85833,1
1.86667,1
1.87500,1
1.88333,1
1.89167,1
1.90000,1
1.90833,1
1.91667,1
1.92500,1
1.93333,1
1.94167,0
1.95000,-0
1.95833,-0
1.96667,-1
1.97500,-1
1.98333,-1
1.99167,-2
2.00000,-2
2.00833,-2
2.01667,-2
2.02500,-2
2.03333,-2
2.04167,-2
2.05000,-2
2.05833,-2
2.06667,-2
2.07500,-2
2.08333,-3
2.09167,-2
2.10000,-2
2.10833,-2
2.11667,-2
2.12500,-1
2.13333,-1
2.14167,-2
2.15000,-2
2.15833,-2
2.16667,-3
2.17500,-3
2.18333,-3
2.19167,-3
2.20000,-3
2.20833,-3
2.21667,-4
2.22500,-4
2.23333,-4
2.24167,-5
2.25000,-5
2.25833,-5
2.26667,-5
2.27500,-5
2.28333,-5
2.29167,-5
2.30000,-5
2.30833,-5
2.31667,-5
2.32500,-5
2.33333,-5
2.34167,-4
2.35000,-4
2.35833,-4
2.36667,-4
2.37500,-4
2.38333,-5
2.39167,-5
2.40000,-6
2.40833,-6
2.41667,-6
2.42500,-6
2.43333,-6
2.44167,-6
2.45000,-6
2.45833,-6
2.46667,-7
2.47500,-7
2.48333,-8
2.49167,-8
2.50000,-9
2.50833,-9
2.51667,-9
2.52500,-9
2.53333,-9
2.54167,-9
2.55000,-9
2.55833,-9
2.56667,-9
2.57500,-10
2.58333,-10
2.59167,-11
2.60000,-11
2.60833,-12
2.61667,-13
2.62500,-14
2.63333,-15
2.64167,-16
2.65000,-17
2.65833,-18
2.66667,-20
2.67500,-21
2.68333,-22
2.69167,-24
2.70000,-26
2.70833,-28
2.71667,-29
2.72500,-31
2.73333,-33
2.74167,-35
2.75000,-38
2.75833,-41
2.76667,-43
2.77500,-46
2.78333,-50
2.79167,-53
2.80000,-56
2.80833,-60
2.81667,-64
2.82500,-68
2.83333,-72
2.84167,-77
2.85000,-82
2.85833,-87
2.86667,-93
2.87500,-98
2.88333,-104
2.89167,-111
2.90000,-117
2.90833,-124
2.91667,-131
2.92500,-139
2.93333,-147
2.94167,-155
2.95000,-163
2.95833,-171
2.96667,-180
2.97500,-189
2.98333,-199
2.99167,-209
3.00000,-219
3.00833,-230
3.01667,-241
3.02500,-252
3.03333,-263
3.04167,-274
3.05000,-286
3.05833,-298
3.06667,-310
3.07500,-323
3.08333,-335
3.09167,-348
3.10000,-361
3.10833,-374
3.11667,-387
3.12500,-400
3.13333,-413
3.14167,-427
3.15000,-440
3.15833,-454
3.16667,-468
3.17500,-482
3.18333,-495
3.19167,-509
3.20000,-522
3.20833,-536
3.21667,-549
3.22500,-563
3.23333,-577
3.24167,-590
3.25000,-604
3.25833,-617
3.26667,-630
3.27500,-643
3.28333,-656
3.29167,-669
3.30000,-682
3.30833,-695
3.31667,-707
3.32500,-718
3.33333,-730
3.34167,-742
3.35000,-753
3.35833,-764
3.36667,-775
3.37500,-785
3.38333,-796
3.39167,-806
3.40000,-816
3.40833,-825
3.41667,-834
3.42500,-843
3.43333,-852
3.44167,-860
3.45000,-869
3.45833,-877
3.46667,-885
3.47500,-892
3.48333,-900
3.49167,-907
3.50000,-914
3.50833,-921
3.51667,-928
3.52500,-934
3.53333,-941
3.54167,-947
3.55000,-953
3.55833,-959
3.56667,-965
3.57500,-970
3.58333,-975
3.59167,-980
3.60000,-984
3.60833,-989
3.61667,-994
3.62500,-998
3.63333,-1003
3.64167,-1007
3.65000,-1012
3.65833,-1016
3.66667,-1021
3.67500,-1025
3.68333,-1029
3.69167,-1033
3.70000,-1038
3.70833,-1042
3.71667,-1046
3.72500,-1050
3.73333,-1054
3.74167,-1058
3.75000,-1062
3.75833,-1066
3.76667,-1070
3.77500,-1073
3.78333,-1077
3.79167,-1081
3.80000,-1085
3.80833,-1090
3.81667,-1094
3.82500,-1098
3.83333,-1102
3.84167,-1106
3.85000,-1110
3.85833,-1114
3.86667,-1118
3.87500,-1123
3.88333,-1127
3.89167,-1131
3.90000,-1135
3.90833,-1139
3.91667,-1144
3.92500,-1148
3.93333,-1153
3.94167,-1158
3.95000,-1162
3.95833,-1167
3.96667,-1171
3.97500,-1175
3.98333,-1179
3.99167,-1183
4.00000,-1188
4.00833,-1192
4.01667,-1195
4.02500,-1199
4.03333,-1203
4.04167,-1207
4.05000,-1210
4.05833,-1213
4.06667,-1217
4.07500,-1220
4.08333,-1223
4.09167,-1226
4.10000,-1228
4.10833,-1231
4.11667,-1234
4.12500,-1236
4.13333,-1239
4.14167,-1241
4.15000,-1243
4.15833,-1245
4.16667,-1247
4.17500,-1248
4.18333,-1249
4.19167,-1250
4.20000,-1251
4.20833,-1251
4.21667,-1252
4.22500,-1252
4.23333,-1253
4.24167,-1253
4.25000,-1252
4.25833,-1252
4.26667,-1251
4.27500,-1250
4.28333,-1249
4.29167,-1247
4.30000,-1246
4.30833,-1244
4.31667,-1243
4.32500,-1241
4.33333,-1239
4.34167,-1236
4.35000,-1234
4.35833,-1231
4.36667,-1229
4.37500,-1226
4.38333,-1223
4.39167,-1220
4.40000,-1217
4.40833,-1214
4.41667,-1211
4.42500,-1207
4.43333,-1203
4.44167,-1200
4.45000,-1196
4.45833,-1192
4.46667,-1188
4.47500,-1184
4.48333,-1181
4.49167,-1177
4.50000,-1173
4.50833,-1169
4.51667,-1165
4.52500,-1161
4.53333,-1158
4.54167,-1154
4.55000,-1150
4.55833,-1147
4.56667,-1143
4.57500,-1139
4.58333,-1136
4.59167,-1132
4.60000,-1129
4.60833,-1125
4.61667,-1122
4.62500,-1119
4.63333,-1116
4.64167,-1113
4.65000,-1110
4.65833,-1106
4.66667,-1103
4.67500,-1100
4.68333,-1097
4.69167,-1095
4.70000,-1092
4.70833,-1090
4.71667,-1088
4.72500,-1085
4.73333,-1083
4.74167,-1081
4.75000,-1080
4.75833,-1078
4.76667,-1077
4.77500,-1075
4.78333,-1074
4.79167,-1073
4.80000,-1072
4.80833,-1071
4.81667,-1070
4.82500,-1069
4.83333,-1068
4.84167,-1067
4.85000,-1066
4.85833,-1065
4.86667,-1065
4.87500,-1065
4.88333,-1064
4.89167,-1063
4.90000,-1063
4.90833,-1062
4.91667,-1062
4.92500,-1061
4.93333,-1060
4.94167,-1059
4.95000,-1059
4.95833,-1058
4.96667,-1057
4.97500,-1056
4.98333,-1056
4.99167,-1055
5.00000,-1055
5.00833,-1054
5.01667,-1053
5.02500,-1052
5.03333,-1051
5.04167,-1050
5.05000,-1049
5.05833,-1047
5.06667,-1046
5.07500,-1044
5.08333,-1042
5.09167,-1040
5.10000,-1038
5.10833,-1037
5.11667,-1035
5.12500,-1032
5.13333,-1030
5.14167,-1028
5.15000,-1026
5.15833,-1023
5.16667,-1020
5.17500,-1017
5.18333,-1015
5.19167,-1012
5.20000,-1009
5.20833,-1006
5.21667,-1003
5.22500,-1000
5.23333,-996
5.24167,-993
5.25000,-990
5.25833,-986
5.26667,-983
5.27500,-979
5.28333,-975
5.29167,-971
5.30000,-967
5.30833,-963
5.31667,-959
5.32500,-955
5.33333,-951
5.34167,-947
5.35000,-943
5.35833,-939
5.36667,-935
5.37500,-930
5.38333,-926
5.39167,-922
5.40000,-918
5.40833,-914
5.41667,-909
5.42500,-905
5.43333,-901
5.44167,-897
5.45000,-894
5.45833,-890
5.46667,-886
5.47500,-882
5.48333,-878
5.49167,-874
5.50000,-871
5.50833,-867
5.51667,-864
5.52500,-860
5.53333,-857
5.54167,-854
5.55000,-850
5.55833,-847
5.56667,-843
5.57500,-840
5.58333,-837
5.59167,-835
5.60000,-832
5.60833,-829
5.61667,-825
5.62500,-822
5.63333,-819
5.64167,-816
5.65000,-814
5.65833,-811
5.66667,-808
5.67500,-806
5.68333,-804
5.69167,-801
5.70000,-799
5.70833,-797
5.71667,-794
5.72500,-792
5.73333,-789
5.74167,-787
5.75000,-785
5.75833,-783
5.76667,-781
5.77500,-779
5.78333,-777
5.79167,-775
5.80000,-773
5.80833,-771
5.81667,-769
5.82500,-767
5.83333,-765
5.84167,-762
5.85000,-760
5.85833,-758
5.86667,-756
5.87500,-754
5.88333,-752
5.89167,-750
5.90000,-748
5.90833,-747
5.91667,-745
5.92500,-743
5.93333,-741
5.94167,-738
5.95000,-736
5.95833,-733
5.96667,-731
5.97500,-728
5.98333,-726
5.99167,-723
6.00000,-721
6.00833,-719
6.01667,-716
6.02500,-714
6.03333,-711
6.04167,-709
6.05000,-706
6.05833,-704
6.06667,-701
6.07500,-698
6.08333,-696
6.09167,-693
6.10000,-690
6.10833,-687
6.11667,-684
6.12500,-681
6.13333,-678
6.14167,-675
6.15000,-672
6.15833,-668
6.16667,-665
6.17500,-662
6.18333,-658
6.19167,-655
6.20000,-651
6.20833,-648
6.21667,-645
6.22500,-642
6.23333,-639
6.24167,-635
6.25000,-631
6.25833,-628
6.26667,-624
6.27500,-621
6.28333,-617
6.29167,-614
6.30000,-610
6.30833,-607
6.31667,-603
6.32500,-599
6.33333,-596
6.34167,-592
6.35000,-588
6.35833,-585
6.36667,-581
6.37500,-577
6.38333,-573
6.39167,-569
6.40000,-565
6.40833,-561
6.41667,-557
6.42500,-553
6.43333,-549
6.44167,-545
6.45000,-541
6.45833,-537
6.46667,-533
6.47500,-529
6.48333,-525
6.49167,-521
6.50000,-517
6.50833,-513
6.51667,-510
6.52500,-506
6.53333,-503
6.54167,-498
6.55000,-495
6.55833,-490
6.56667,-486
6.57500,-482
6.58333,-478
6.59167,-474
6.60000,-469
6.60833,-465
6.61667,-461
6.62500,-457
6.63333,-453
6.64167,-449
6.65000,-445
6.65833,-441
6.66667,-437
6.67500,-433
6.68333,-430
6.69167,-426
6.70000,-421
6.70833,-418
6.71667,-414
6.72500,-411
6.73333,-407
6.74167,-403
6.75000,-399
6.75833,-395
6.76667,-392
6.77500,-388
6.78333,-384
6.79167,-380
6.80000,-376
6.80833,-372
6.81667,-369
6.82500,-365
6.83333,-362
6.84167,-358
6.85000,-354
6.85833,-351
6.86667,-347
6.87500,-343
6.88333,-339
6.89167,-336
6.90000,-332
6.90833,-329
6.91667,-325
6.92500,-322
6.93333,-318
6.94167,-314
6.95000,-311
6.95833,-308
6.96667,-305
6.97500,-301
6.98333,-298
6.99167,-295
7.00000,-292
7.00833,-289
7.01667,-286
7.02500,-283
7.03333,-280
7.04167,-276
7.05000,-273
7.05833,-270
7.06667,-267
7.07500,-265
7.08333,-262
7.09167,-259
7.10000,-257
7.10833,-254
7.11667,-251
7.12500,-249
7.13333,-246
7.14167,-243
7.15000,-241
7.15833,-238
7.16667,-236
7.17500,-234
7.18333,-232
7.19167,-230
7.20000,-228
7.20833,-226
7.21667,-224
7.22500,-221
7.23333,-219
7.24167,-217
7.25000,-215
7.25833,-212
7.26667,-210
7.27500,-208
7.28333,-206
7.29167,-204
7.30000,-202
7.30833,-200
7.31667,-198
7.32500,-197
7.33333,-195
7.34167,-194
7.35000,-192
7.35833,-191
7.36667,-190
7.37500,-188
7.38333,-187
7.39167,-186
7.40000,-185
7.40833,-184
7.41667,-182
7.42500,-181
7.43333,-179
7.44167,-178
7.45000,-177
7.45833,-176
7.46667,-175
7.47500,-174
7.48333,-173
7.49167,-172
7.50000,-171
7.50833,-170
7.51667,-169
7.52500,-168
7.53333,-167
7.54167,-166
7.55000,-164
7.55833,-163
7.56667,-162
7.57500,-162
7.58333,-162
7.59167,-161
7.60000,-160
7.60833,-160
7.61667,-159
7.62500,-158
7.63333,-158
7.64167,-157
7.65000,-157
7.65833,-156
7.66667,-155
7.67500,-154
7.68333,-154
7.69167,-153
7.70000,-152
7.70833,-152
7.71667,-152
7.72500,-151
7.73333,-150
7.74167,-149
7.75000,-149
7.75833,-148
7.76667,-148
7.77500,-147
7.78333,-146
7.79167,-146
7.80000,-146
7.80833,-145
7.81667,-145
7.82500,-145
7.83333,-145
7.84167,-145
7.85000,-145
7.85833,-144
7.86667,-143
7.87500,-142
7.88333,-142
7.89167,-141
7.90000,-141
7.90833,-141
7.91667,-141
7.92500,-140
7.93333,-140
7.94167,-139
7.95000,-139
7.95833,-138
7.96667,-137
7.97500,-137
7.98333,-136
7.99167,-136
8.00000,-135
8.00833,-135
8.01667,-135
8.02500,-135
8.03333,-135
8.04167,-135
8.05000,-135
8.05833,-134
8.06667,-134
8.07500,-133
8.08333,-133
8.09167,-133
8.10000,-132
8.10833,-131
8.11667,-131
8.12500,-130
8.13333,-130
8.14167,-130
8.15000,-130
8.15833,-130
8.16667,-129
8.17500,-128
8.18333,-128
8.19167,-128
8.20000,-127
8.20833,-126
8.21667,-126
8.22500,-126
8.23333,-126
8.24167,-125
8.25000,-125
8.25833,-125
8.26667,-125
8.27500,-124
8.28333,-124
8.29167,-123
8.30000,-122
8.30833,-122
8.31667,-122
8.32500,-121
8.33333,-121
8.34167,-121
8.35000,-120
8.35833,-119
8.36667,-119
8.37500,-118
8.38333,-118
8.39167,-117
8.40000,-117
8.40833,-116
8.41667,-116
8.42500,-116
8.43333,-115
8.44167,-115
8.45000,-114
8.45833,-114
8.46667,-114
8.47500,-113
8.48333,-113
8.49167,-113
8.50000,-112
8.50833,-112
8.51667,-112
8.52500,-112
8.53333,-111
8.54167,-110
8.55000,-110
8.55833,-110
8.56667,-109
8.57500,-108
8.58333,-108
8.59167,-107
8.60000,-107
8.60833,-106
8.61667,-106
8.62500,-105
8.63333,-105
8.64167,-104
8.65000,-104
8.65833,-104
8.66667,-103
8.67500,-103
8.68333,-103
8.69167,-103
8.70000,-102
8.70833,-102
8.71667,-102
8.72500,-101
8.73333,-101
8.74167,-101
8.75000,-100
8.75833,-99
8.76667,-99
8.77500,-99
8.78333,-98
8.79167,-97
8.80000,-97
8.80833,-96
8.81667,-96
8.82500,-95
8.83333,-95
8.84167,-94
8.85000,-94
8.85833,-93
8.86667,-93
8.87500,-92
8.88333,-92
8.89167,-92
8.90000,-91
8.90833,-91
8.91667,-91
8.92500,-91
8.93333,-90
8.94167,-90
8.95000,-90
8.95833,-90
8.96667,-90
8.97500,-90
8.98333,-91
8.99167,-91
9.00000,-91
9.00833,-91
9.01667,-91
9.02500,-91
9.03333,-91
9.04167,-90
9.05000,-90
9.05833,-89
9.06667,-89
9.07500,-88
9.08333,-88
9.09167,-88
9.10000,-88
9.10833,-89
9.11667,-89
9.12500,-89
9.13333,-89
9.14167,-89
9.15000,-89
9.15833,-89
9.16667,-88
9.17500,-88
9.18333,-88
9.19167,-87
9.20000,-87
9.20833,-86
9.21667,-86
9.22500,-86
9.23333,-85
9.24167,-85
9.25000,-84
9.25833,-83
9.26667,-83
9.27500,-83
9.28333,-83
9.29167,-82
9.30000,-82
9.30833,-82
9.31667,-82
9.32500,-81
9.33333,-81
9.34167,-80
9.35000,-80
9.35833,-80
9.36667,-80
9.37500,-80
9.38333,-80
9.39167,-80
9.40000,-80
9.40833,-79
9.41667,-79
9.42500,-78
9.43333,-78
9.44167,-77
9.45000,-77
9.45833,-77
9.46667,-77
9.47500,-76
9.48333,-76
9.49167,-76
9.50000,-76
9.50833,-75
9.51667,-75
9.52500,-75
9.53333,-75
9.54167,-75
9.55000,-74
9.55833,-74
9.56667,-74
9.57500,-73
9.58333,-73
9.59167,-73
9.60000,-73
9.60833,-72
9.61667,-72
9.62500,-71
9.63333,-71
9.64167,-70
9.65000,-70
9.65833,-70
9.66667,-70
9.67500,-70
9.68333,-69
9.69167,-69
9.70000,-69
9.70833,-68
9.71667,-68
9.72500,-67
9.73333,-67
9.74167,-67
9.75000,-67
9.75833,-66
9.76667,-66
9.77500,-66
9.78333,-66
9.79167,-66
9.80000,-66
9.80833,-66
9.81667,-66
9.82500,-65
9.83333,-65
9.84167,-64
9.85000,-64
9.85833,-64
9.86667,-63
9.87500,-63
9.88333,-63
9.89167,-63
9.90000,-62
9.90833,-62
9.91667,-62
9.92500,-62
9.93333,-62
9.94167,-62
9.95000,-62
9.95833,-61
9.96667,-61
9.97500,-61
9.98333,-61
9.99167,-60
10.00000,-60
10.00833,-60
10.01667,-60
10.02500,-60
10.03333,-59
10.04167,-59
10.05000,-58
10.05833,-58
10.06667,-57
10.07500,-57
10.08333,-57
10.09167,-57
10.10000,-57
10.10833,-57
10.11667,-57
10.12500,-57
10.13333,-57
10.14167,-57
10.15000,-57
10.15833,-57
10.16667,-57
10.17500,-57
10.18333,-56
10.19167,-56
10.20000,-56
10.20833,-56
10.21667,-55
10.22500,-55
10.23333,-55
10.24167,-54
10.25000,-54
10.25833,-53
10.26667,-53
10.27500,-53
10.28333,-52
10.29167,-52
10.30000,-52
10.30833,-52
10.31667,-52
10.32500,-51
10.33333,-51
10.34167,-50
10.35000,-49
10.35833,-49
10.36667,-49
10.37500,-48
10.38333,-47
10.39167,-47
10.40000,-47
10.40833,-46
10.41667,-45
10.42500,-45
10.43333,-44
10.44167,-44
10.45000,-43
10.45833,-42
10.46667,-42
10.47500,-42
10.48333,-42
10.49167,-42
10.50000,-43
10.50833,-45
10.51667,-48
10.52500,-53
10.53333,-61
10.54167,-71
10.55000,-86
10.55833,-105
10.56667,-131
10.57500,-164
10.58333,-207
10.59167,-262
10.60000,-331
10.60833,-416
10.61667,-520
10.62500,-643
10.63333,-788
10.64167,-955
10.65000,-1145
10.65833,-1358
10.66667,-1591
10.67500,-1843
10.68333,-2108
10.69167,-2380
10.70000,-2654
10.70833,-2919
10.71667,-3166
10.72500,-3385
10.73333,-3563
10.74167,-3688
10.75000,-3746
10.75833,-3723
10.76667,-3607
10.77500,-3385
10.78333,-3044
10.79167,-2574
10.80000,-1964
10.80833,-1205
10.81667,-288
10.82500,792
10.83333,2041
10.84167,3462
10.85000,5057
10.85833,6827
10.86667,8771
10.87500,10885
10.88333,13166
10.89167,15607
10.90000,18202
10.90833,20940
10.91667,23809
10.92500,26796
10.93333,29883
10.94167,33050
10.95000,36274
10.95833,39529
10.96667,42782
10.97500,45996
10.98333,49132
10.99167,52145
11.00000,54985
11.00833,57601
11.01667,59942
11.02500,61955
11.03333,63594
11.04167,64817
11.05000,65588
11.05833,65886
11.06667,65699
11.07500,65029
11.08333,63893
11.09167,62320
11.10000,60350
11.10833,58034
11.11667,55426
11.12500,52589
11.13333,49584
11.14167,46470
11.15000,43306
11.15833,40142
11.16667,37024
11.17500,33990
11.18333,31073
11.19167,28295
11.20000,25674
11.20833,23223
11.21667,20945
11.22500,18844
11.23333,16917
11.24167,15158
11.25000,13562
11.25833,12118
11.26667,10819
11.27500,9652
11.28333,8609
11.29167,7678
11.30000,6850
11.30833,6115
11.31667,5464
11.32500,4889
11.33333,4381
11.34167,3932
11.35000,3538
11.35833,3191
11.36667,2886
11.37500,2619
11.38333,2385
11.39167,2180
11.40000,2000
11.40833,1843
11.41667,1706
11.42500,1586
11.43333,1481
11.44167,1390
11.45000,1310
11.45833,1240
11.46667,1179
11.47500,1126
11.48333,1080
11.49167,1040
11.50000,1005
11.50833,975
11.51667,949
11.52500,926
11.53333,907
11.54167,891
11.55000,878
11.55833,866
11.56667,856
11.57500,848
11.58333,842
11.59167,838
11.60000,834
11.60833,832
11.61667,830
11.62500,830
11.63333,830
11.64167,831
11.65000,832
11.65833,834
11.66667,836
11.67500,838
11.68333,841
11.69167,844
11.70000,847
11.70833,851
11.71667,855
11.72500,859
11.73333,863
11.74167,868
11.75000,871
11.75833,875
11.76667,878
11.77500,881
11.78333,884
11.79167,888
11.80000,891
11.80833,893
11.81667,896
11.82500,898
11.83333,900
11.84167,902
11.85000,902
11.85833,903
11.86667,903
11.87500,903
11.88333,903
11.89167,902
11.90000,900
11.90833,899
11.91667,896
11.92500,894
11.93333,892
11.94167,889
11.95000,886
11.95833,882
11.96667,877
11.97500,872
11.98333,867
11.99167,861
12.00000,855
12.00833,849
12.01667,843
12.02500,836
12.03333,828
12.04167,820
12.05000,812
12.05833,803
12.06667,794
12.07500,785
12.08333,775
12.09167,766
12.10000,755
12.10833,745
12.11667,735
12.12500,724
12.13333,713
12.14167,703
12.15000,692
12.15833,681
12.16667,670
12.17500,658
12.18333,647
12.19167,636
12.20000,624
12.20833,613
12.21667,601
12.22500,590
12.23333,579
12.24167,568
12.25000,557
12.25833,546
12.26667,535
12.27500,523
12.28333,512
12.29167,501
12.30000,490
12.30833,479
12.31667,468
12.32500,457
12.33333,446
12.34167,436
12.35000,426
12.35833,416
12.36667,407
12.37500,398
12.38333,389
12.39167,379
12.40000,371
12.40833,362
12.41667,354
12.42500,345
12.43333,337
12.44167,329
12.45000,321
12.45833,313
12.46667,306
12.47500,298
12.48333,291
12.49167,284
12.50000,277
12.50833,270
12.51667,264
12.52500,257
12.53333,251
12.54167,245
12.55000,239
12.55833,233
12.56667,228
12.57500,222
12.58333,217
12.59167,213
12.60000,208
12.60833,203
12.61667,199
12.62500,194
12.63333,190
12.64167,185
12.65000,181
12.65833,177
12.66667,173
12.67500,170
12.68333,166
12.69167,163
12.70000,160
12.70833,157
12.71667,153
12.72500,150
12.73333,147
12.74167,144
12.75000,142
12.75833,139
12.76667,137
12.77500,134
12.78333,132
12.79167,130
12.80000,128
12.80833,126
12.81667,124
12.82500,122
12.83333,120
12.84167,118
12.85000,117
12.85833,116
12.86667,115
12.87500,114
12.88333,113
12.89167,111
12.90000,110
12.90833,109
12.91667,108
12.92500,107
12.93333,106
12.94167,106
12.95000,105
12.95833,104
12.96667,103
12.97500,103
12.98333,102
12.99167,101
13.00000,100
13.00833,100
13.01667,99
13.02500,99
13.03333,98
13.04167,97
13.05000,96
13.05833,96
13.06667,96
13.07500,95
13.08333,95
13.09167,94
13.10000,94
13.10833,93
13.11667,93
13.12500,92
13.13333,91
13.14167,90
13.15000,90
13.15833,89
13.16667,89
13.17500,88
13.18333,88
13.19167,87
13.20000,87
13.20833,87
13.21667,86
13.22500,86
13.23333,85
13.24167,85
13.25000,84
13.25833,84
13.26667,83
13.27500,83
13.28333,81
13.29167,80
13.30000,80
13.30833,79
13.31667,78
13.32500,77
13.33333,76
13.34167,75
13.35000,74
13.35833,73
13.36667,71
13.37500,70
13.38333,69
13.39167,69
13.40000,68
13.40833,67
13.41667,66
13.42500,65
13.43333,64
13.44167,64
13.45000,63
13.45833,62
13.46667,61
13.47500,60
13.48333,59
13.49167,58
13.50000,58
13.50833,57
13.51667,57
13.52500,56
13.53333,55
13.54167,54
13.55000,53
13.55833,52
13.56667,51
13.57500,51
13.58333,51
13.59167,50
13.60000,50
13.60833,49
13.61667,49
13.62500,48
13.63333,48
13.64167,48
13.65000,48
13.65833,47
13.66667,47
13.67500,46
13.68333,46
13.69167,46
13.70000,46
13.70833,47
13.71667,47
13.72500,47
13.73333,46
13.74167,46
13.75000,46
13.75833,46
13.76667,47
13.77500,47
13.78333,46
13.79167,46
13.80000,46
13.80833,46
13.81667,46
13.82500,46
13.83333,47
13.84167,46
13.85000,47
13.85833,47
13.86667,47
13.87500,47
13.88333,47
13.89167,48
13.90000,48
13.90833,48
13.91667,48
13.92500,49
13.93333,49
13.94167,50
13.95000,50
13.95833,51
13.96667,51
13.97500,52
13.98333,53
13.99167,53
14.00000,53
14.00833,53
14.01667,53
14.02500,53
14.03333,54
14.04167,54
14.05000,55
14.05833,55
14.06667,56
14.07500,57
14.08333,59
14.09167,60
14.10000,60
14.10833,61
14.11667,62
14.12500,64
14.13333,65
14.14167,67
14.15000,68
14.15833,70
14.16667,73
14.17500,76
14.18333,80
14.19167,84
14.20000,88
14.20833,94
14.21667,100
14.22500,109
14.23333,119
14.24167,131
14.25000,146
14.25833,164
14.26667,186
14.27500,212
14.28333,242
14.29167,279
14.30000,322
14.30833,374
14.31667,435
14.32500,506
14.33333,590
14.34167,687
14.35000,799
14.35833,927
14.36667,1073
14.37500,1240
14.38333,1428
14.39167,1639
14.40000,1876
14.40833,2139
14.41667,2431
14.42500,2753
14.43333,3105
14.44167,3490
14.45000,3909
14.45833,4362
14.46667,4850
14.47500,5374
14.48333,5934
14.49167,6532
14.50000,7166
14.50833,7837
14.51667,8546
14.52500,9291
14.53333,10074
14.54167,10892
14.55000,11747
14.55833,12638
14.56667,13564
14.57500,14525
14.58333,15520
14.59167,16548
14.60000,17609
14.60833,18703
14.61667,19828
14.62500,20984
14.63333,22171
14.64167,23387
14.65000,24633
14.65833,25908
14.66667,27211
14.67500,28541
14.68333,29899
14.69167,31284
14.70000,32696
14.70833,34134
14.71667,35597
14.72500,37085
14.73333,38598
14.74167,40135
14.75000,41697
14.75833,43283
14.76667,44892
14.77500,46525
14.78333,48182
14.79167,49861
14.80000,51564
14.80833,53289
14.81667,55036
14.82500,56805
14.83333,58596
14.84167,60409
14.85000,62243
14.85833,64099
14.86667,65976
14.87500,67874
14.88333,69794
14.89167,71733
14.90000,73692
14.90833,75672
14.91667,77670
14.92500,79686
14.93333,81720
14.94167,83771
14.95000,85839
14.95833,87921
14.96667,90017
14.97500,92124
14.98333,94241
14.99167,96365
15.00000,98491
15.00833,100615
15.01667,102729
15.02500,104822
15.03333,106881
15.04167,108887
15.05000,110812
15.05833,112626
15.06667,114287
15.07500,115748
15.08333,116952
15.09167,117840
15.10000,118348
15.10833,118414
15.11667,117980
15.12500,116999
15.13333,115437
15.14167,113277
15.15000,110522
15.15833,107192
15.16667,103331
15.17500,98996
15.18333,94263
15.19167,89218
15.20000,83953
15.20833,78563
15.21667,73138
15.22500,67765
15.23333,62522
15.24167,57472
15.25000,52671
15.25833,48159
15.26667,43965
15.27500,40107
15.28333,36594
15.29167,33425
15.30000,30596
15.30833,28095
15.31667,25909
15.32500,24020
15.33333,22413
15.34167,21068
15.35000,19967
15.35833,19095
15.36667,18434
15.37500,17971
15.38333,17690
15.39167,17579
15.40000,17626
15.40833,17819
15.41667,18147
15.42500,18600
15.43333,19167
15.44167,19838
15.45000,20603
15.45833,21451
15.46667,22371
15.47500,23354
15.48333,24387
15.49167,25460
15.50000,26562
15.50833,27680
15.51667,28804
15.52500,29921
15.53333,31021
15.54167,32092
15.55000,33122
15.55833,34103
15.56667,35024
15.57500,35875
15.58333,36649
15.59167,37337
15.60000,37935
15.60833,38435
15.61667,38834
15.62500,39128
15.63333,39315
15.64167,39395
15.65000,39366
15.65833,39231
15.66667,38992
15.67500,38651
15.68333,38212
15.69167,37681
15.70000,37062
15.70833,36362
15.71667,35587
15.72500,34744
15.73333,33840
15.74167,32883
15.75000,31879
15.75833,30836
15.76667,29762
15.77500,28664
15.78333,27548
15.79167,26421
15.80000,25290
15.80833,24160
15.81667,23037
15.82500,21926
15.83333,20831
15.84167,19758
15.85000,18708
15.85833,17686
15.86667,16694
15.87500,15735
15.88333,14810
15.89167,13920
15.90000,13068
15.90833,12253
15.91667,11476
15.92500,10737
15.93333,10036
15.94167,9373
15.95000,8746
15.95833,8155
15.96667,7599
15.97500,7078
15.98333,6589
15.99167,6132
16.00000,5705
16.00833,5307
16.01667,4937
16.02500,4593
16.03333,4274
16.04167,3978
16.05000,3705
16.05833,3451
16.06667,3217
16.07500,3001
16.08333,2802
16.09167,2619
16.10000,2451
16.10833,2295
16.11667,2153
16.12500,2021
16.13333,1901
16.14167,1790
16.15000,1688
16.15833,1595
16.16667,1509
16.17500,1431
16.18333,1359
16.19167,1293
16.20000,1232
16.20833,1176
16.21667,1125
16.22500,1078
16.23333,1034
16.24167,994
16.25000,957
16.25833,922
16.26667,890
16.27500,861
16.28333,834
16.29167,808
16.30000,785
16.30833,763
16.31667,743
16.32500,725
16.33333,707
16.34167,691
16.35000,676
16.35833,662
16.36667,648
16.37500,635
16.38333,623
16.39167,612
16.40000,601
16.40833,591
16.41667,581
16.42500,572
16.43333,562
16.44167,554
16.45000,546
16.45833,538
16.46667,531
16.47500,524
16.48333,518
16.49167,512
16.50000,505
16.50833,499
16.51667,493
16.52500,488
16.53333,483
16.54167,478
16.55000,474
16.55833,469
16.56667,464
16.57500,460
16.58333,455
16.59167,451
16.60000,447
16.60833,443
16.61667,440
16.62500,436
16.63333,433
16.64167,429
16.65000,426
16.65833,423
16.66667,420
16.67500,416
16.68333,413
16.69167,410
16.70000,407
16.70833,404
16.71667,401
16.72500,399
16.73333,396
16.74167,393
16.75000,390
16.75833,388
16.76667,385
16.77500,382
16.78333,380
16.79167,377
16.80000,375
16.80833,372
16.81667,370
16.82500,368
16.83333,366
16.84167,364
16.85000,361
16.85833,359
16.86667,357
16.87500,355
16.88333,353
16.89167,350
16.90000,348
16.90833,346
16.91667,344
16.92500,341
16.93333,339
16.94167,337
16.95000,335
16.95833,333
16.96667,331
16.97500,329
16.98333,327
16.99167,326
17.00000,324
17.00833,322
17.01667,320
17.02500,318
17.03333,316
17.04167,315
17.05000,313
17.05833,311
17.06667,309
17.07500,307
17.08333,306
17.09167,304
17.10000,302
17.10833,300
17.11667,298
17.12500,296
17.13333,294
17.14167,293
17.15000,291
17.15833,289
17.16667,288
17.17500,286
17.18333,285
17.19167,283
17.20000,282
17.20833,280
17.21667,279
17.22500,277
17.23333,276
17.24167,275
17.25000,273
17.25833,272
17.26667,271
17.27500,270
17.28333,269
17.29167,267
17.30000,265
17.30833,264
17.31667,263
17.32500,262
17.33333,261
17.34167,259
17.35000,257
17.35833,256
17.36667,254
17.37500,253
17.38333,252
17.39167,251
17.40000,249
17.40833,248
17.41667,247
17.42500,245
17.43333,244
17.44167,242
17.45000,241
17.45833,240
17.46667,239
17.47500,238
17.48333,237
17.49167,236
17.50000,235
17.50833,233
17.51667,232
17.52500,231
17.53333,230
17.54167,229
17.55000,228
17.55833,227
17.56667,226
17.57500,225
17.58333,224
17.59167,222
17.60000,221
17.60833,220
17.61667,220
17.62500,218
17.63333,217
17.64167,216
17.65000,215
17.65833,215
17.66667,214
17.67500,213
17.68333,212
17.69167,211
17.70000,210
17.70833,208
17.71667,207
17.72500,206
17.73333,205
17.74167,204
17.75000,203
17.75833,203
17.76667,202
17.77500,201
17.78333,200
17.79167,199
17.80000,198
17.80833,197
17.81667,196
17.82500,195
17.83333,194
17.84167,192
17.85000,192
17.85833,191
17.86667,190
17.87500,190
17.88333,189
17.89167,189
17.90000,188
17.90833,187
17.91667,186
17.92500,186
17.93333,185
17.94167,184
17.95000,183
17.95833,182
17.96667,181
17.97500,180
17.98333,179
17.99167,179
18.00000,178
18.00833,177
18.01667,176
18.02500,175
18.03333,174
18.04167,173
18.05000,173
18.05833,172
18.06667,172
18.07500,171
18.08333,170
18.09167,169
18.10000,168
18.10833,168
18.11667,167
18.12500,166
18.13333,166
18.14167,165
18.15000,164
18.15833,164
18.16667,163
18.17500,162
18.18333,161
18.19167,160
18.20000,159
18.20833,159
18.21667,158
18.22500,158
18.23333,157
18.24167,157
18.25000,156
18.25833,155
18.26667,155
18.27500,154
18.28333,153
18.29167,152
18.30000,151
18.30833,151
18.31667,150
18.32500,150
18.33333,149
18.34167,149
18.35000,148
18.35833,148
18.36667,147
18.37500,147
18.38333,146
18.39167,146
18.40000,145
18.40833,144
18.41667,144
18.42500,143
18.43333,142
18.44167,141
18.45000,140
18.45833,140
18.46667,139
18.47500,138
18.48333,138
18.49167,137
18.50000,137
18.50833,137
18.51667,136
18.52500,136
18.53333,135
18.54167,135
18.55000,135
18.55833,134
18.56667,134
18.57500,134
18.58333,134
18.59167,134
18.60000,133
18.60833,133
18.61667,134
18.62500,134
18.63333,134
18.64167,134
18.65000,135
18.65833,135
18.66667,136
18.67500,136
18.68333,137
18.69167,138
18.70000,139
18.70833,140
18.71667,141
18.72500,142
18.73333,144
18.74167,146
18.75000,148
18.75833,150
18.76667,152
18.77500,155
18.78333,157
18.79167,160
18.80000,163
18.80833,166
18.81667,170
18.82500,173
18.83333,176
18.84167,179
18.85000,183
18.85833,186
18.86667,190
18.87500,193
18.88333,196
18.89167,199
18.90000,203
18.90833,206
18.91667,208
18.92500,211
18.93333,213
18.94167,216
18.95000,218
18.95833,220
18.96667,221
18.97500,223
18.98333,224
18.99167,224
19.00000,224
19.00833,224
19.01667,224
19.02500,223
19.03333,222
19.04167,221
19.05000,220
19.05833,218
19.06667,216
19.07500,213
19.08333,211
19.09167,208
19.10000,205
19.10833,202
19.11667,199
19.12500,196
19.13333,192
19.14167,188
19.15000,184
19.15833,181
19.16667,177
19.17500,173
19.18333,170
19.19167,166
19.20000,163
19.20833,159
19.21667,156
19.22500,153
19.23333,150
19.24167,146
19.25000,143
19.25833,141
19.26667,138
19.27500,136
19.28333,133
19.29167,131
19.30000,128
19.30833,126
19.31667,123
19.32500,120
19.33333,118
19.34167,117
19.35000,115
19.35833,113
19.36667,112
19.37500,110
19.38333,109
19.39167,108
19.40000,107
19.40833,106
19.41667,105
19.42500,105
19.43333,104
19.44167,103
19.45000,102
19.45833,101
19.46667,100
19.47500,99
19.48333,99
19.49167,98
19.50000,97
19.50833,96
19.51667,96
19.52500,95
19.53333,95
19.54167,94
19.55000,94
19.55833,93
19.56667,93
19.57500,92
19.58333,92
19.59167,92
19.60000,91
19.60833,91
19.61667,91
19.62500,91
19.63333,91
19.64167,90
19.65000,90
19.65833,89
19.66667,89
19.67500,88
19.68333,88
19.69167,88
19.70000,88
19.70833,88
19.71667,88
19.72500,87
19.73333,87
19.74167,87
19.75000,87
19.75833,86
19.76667,86
19.77500,85
19.78333,85
19.79167,84
19.80000,84
19.80833,84
19.81667,83
19.82500,84
19.83333,83
19.84167,83
19.85000,83
19.85833,83
19.86667,83
19.87500,83
19.88333,83
19.89167,83
19.90000,83
19.90833,83
19.91667,83
19.92500,83
19.93333,83
19.94167,83
19.95000,82
19.95833,82
19.96667,82
19.97500,82
19.98333,81
19.99167,81
20.00000,81
20.00833,80
20.01667,80
20.02500,80
20.03333,79
20.04167,79
20.05000,79
20.05833,79
20.06667,79
20.07500,79
20.08333,79
20.09167,79
20.10000,79
20.10833,78
20.11667,78
20.12500,78
20.13333,78
20.14167,78
20.15000,78
20.15833,78
20.16667,79
20.17500,78
20.18333,78
20.19167,78
20.20000,77
20.20833,77
20.21667,77
20.22500,77
20.23333,77
20.24167,77
20.25000,76
20.25833,76
20.26667,76
20.27500,76
20.28333,76
20.29167,76
20.30000,76
20.30833,76
20.31667,76
20.32500,76
20.33333,75
20.34167,75
20.35000,75
20.35833,75
20.36667,76
20.37500,76
20.38333,76
20.39167,76
20.40000,76
20.40833,76
20.41667,75
20.42500,75
20.43333,74
20.44167,74
20.45000,74
20.45833,74
20.46667,74
20.47500,74
20.48333,74
20.49167,74
20.50000,74
20.50833,74
20.51667,74
20.52500,73
20.53333,73
20.54167,74
20.55000,74
20.55833,74
20.56667,74
20.57500,73
20.58333,73
20.59167,73
20.60000,73
20.60833,73
20.61667,73
20.62500,73
20.63333,73
20.64167,73
20.65000,73
20.65833,73
20.66667,73
20.67500,72
20.68333,72
20.69167,72
20.70000,72
20.70833,72
20.71667,72
20.72500,72
20.73333,72
20.74167,73
20.75000,73
20.75833,73
20.76667,72
20.77500,72
20.78333,72
20.79167,72
20.80000,72
20.80833,72
20.81667,72
20.82500,72
20.83333,71
20.84167,71
20.85000,71
20.85833,71
20.86667,71
20.87500,71
20.88333,71
20.89167,71
20.90000,71
20.90833,71
20.91667,71
20.92500,71
20.93333,70
20.94167,70
20.95000,70
20.95833,70
20.96667,70
20.97500,70
20.98333,71
20.99167,71
21.00000,71
21.00833,71
21.01667,71
21.02500,71
21.03333,71
21.04167,71
21.05000,70
21.05833,70
21.06667,69
21.07500,69
21.08333,69
21.09167,68
21.10000,68
21.10833,68
21.11667,68
21.12500,68
21.13333,68
21.14167,68
21.15000,68
21.15833,68
21.16667,68
21.17500,68
21.18333,68
21.19167,68
21.20000,68
21.20833,68
21.21667,68
21.22500,68
21.23333,68
21.24167,68
21.25000,68
21.25833,68
21.26667,68
21.27500,68
21.28333,68
21.29167,67
21.30000,67
21.30833,67
21.31667,66
21.32500,66
21.33333,66
21.34167,66
21.35000,67
21.35833,67
21.36667,67
21.37500,67
21.38333,67
21.39167,68
21.40000,68
21.40833,67
21.41667,67
21.42500,67
21.43333,68
21.44167,68
21.45000,68
21.45833,68
21.46667,68
21.47500,68
21.48333,68
21.49167,68
21.50000,67
21.50833,67
21.51667,67
21.52500,67
21.53333,67
21.54167,67
21.55000,67
21.55833,66
21.56667,66
21.57500,66
21.58333,66
21.59167,67
21.60000,67
21.60833,67
21.61667,67
21.62500,67
21.63333,68
21.64167,68
21.65000,67
21.65833,67
21.66667,67
21.67500,67
21.68333,68
21.69167,68
21.70000,67
21.70833,67
21.71667,67
21.72500,67
21.73333,67
21.74167,67
21.75000,67
21.75833,67
21.76667,67
21.77500,67
21.78333,67
21.79167,67
21.80000,67
21.80833,67
21.81667,67
21.82500,67
21.83333,67
21.84167,67
21.85000,67
21.85833,68
21.86667,68
21.87500,68
21.88333,68
21.89167,68
21.90000,68
21.90833,67
21.91667,67
21.92500,67
21.93333,67
21.94167,67
21.95000,67
21.95833,66
21.96667,66
21.97500,66
21.98333,67
21.99167,67
22.00000,67
22.00833,67
22.01667,67
22.02500,67
22.03333,67
22.04167,67
22.05000,67
22.05833,67
22.06667,67
22.07500,67
22.08333,66
22.09167,66
22.10000,66
22.10833,66
22.11667,66
22.12500,66
22.13333,66
22.14167,65
22.15000,65
22.15833,66
22.16667,66
22.17500,66
22.18333,66
22.19167,66
22.20000,65
22.20833,65
22.21667,65
22.22500,65
22.23333,65
22.24167,65
22.25000,65
22.25833,65
22.26667,65
22.27500,65
22.28333,65
22.29167,65
22.30000,66
22.30833,66
22.31667,66
22.32500,66
22.33333,65
22.34167,65
22.35000,65
22.35833,65
22.36667,65
22.37500,65
22.38333,65
22.39167,65
22.40000,65
22.40833,65
22.41667,65
22.42500,65
22.43333,65
22.44167,65
22.45000,65
22.45833,65
22.46667,65
22.47500,65
22.48333,65
22.49167,64
22.50000,64
22.50833,64
22.51667,64
22.52500,64
22.53333,64
22.54167,64
22.55000,64
22.55833,64
22.56667,64
22.57500,64
22.58333,64
22.59167,64
22.60000,64
22.60833,64
22.61667,64
22.62500,64
22.63333,64
22.64167,64
22.65000,63
22.65833,64
22.66667,64
22.67500,64
22.68333,65
22.69167,65
22.70000,65
22.70833,65
22.71667,65
22.72500,65
22.73333,65
22.74167,65
22.75000,65
22.75833,65
22.76667,65
22.77500,65
22.78333,65
22.79167,65
22.80000,65
22.80833,65
22.81667,65
22.82500,65
22.83333,65
22.84167,66
22.85000,66
22.85833,66
22.86667,66
22.87500,66
22.88333,66
22.89167,67
22.90000,67
22.90833,67
22.91667,68
22.92500,68
22.93333,69
22.94167,69
22.95000,70
22.95833,70
22.96667,71
22.97500,71
22.98333,72
22.99167,72
23.00000,72
23.00833,73
23.01667,74
23.02500,74
23.03333,74
23.04167,75
23.05000,75
23.05833,76
23.06667,77
23.07500,78
23.08333,78
23.09167,79
23.10000,80
23.10833,81
23.11667,82
23.12500,82
23.13333,83
23.14167,83
23.15000,84
23.15833,85
23.16667,85
23.17500,86
23.18333,86
23.19167,87
23.20000,87
23.20833,87
23.21667,87
23.22500,87
23.23333,87
23.24167,87
23.25000,87
23.25833,87
23.26667,87
23.27500,87
23.28333,87
23.29167,86
23.30000,86
23.30833,86
23.31667,85
23.32500,85
23.33333,85
23.34167,84
23.35000,84
23.35833,84
23.36667,83
23.37500,83
23.38333,83
23.39167,82
23.40000,82
23.40833,82
23.41667,81
23.42500,80
23.43333,79
23.44167,78
23.45000,77
23.45833,77
23.46667,76
23.47500,75
23.48333,74
23.49167,74
23.50000,73
23.50833,73
23.51667,73
23.52500,73
23.53333,72
23.54167,72
23.55000,72
23.55833,71
23.56667,70
23.57500,70
23.58333,69
23.59167,69
23.60000,69
23.60833,69
23.61667,68
23.62500,68
23.63333,68
23.64167,68
23.65000,67
23.65833,67
23.66667,66
23.67500,65
23.68333,65
23.69167,65
23.70000,65
23.70833,65
23.71667,66
23.72500,66
23.73333,66
23.74167,66
23.75000,66
23.75833,66
23.76667,65
23.77500,65
23.78333,65
23.79167,65
23.80000,65
23.80833,65
23.81667,65
23.82500,65
23.83333,65
23.84167,65
23.85000,65
23.85833,65
23.86667,65
23.87500,65
23.88333,65
23.89167,65
23.90000,65
23.90833,65
23.91667,65
23.92500,65
23.93333,65
23.94167,65
23.95000,66
23.95833,66
23.96667,66
23.97500,66
23.98333,66
23.99167,65
24.00000,65
24.00833,66
24.01667,66
24.02500,66
24.03333,66
24.04167,66
24.05000,66
24.05833,66
24.06667,65
24.07500,65
24.08333,65
24.09167,65
24.10000,65
24.10833,65
24.11667,65
24.12500,65
24.13333,65
24.14167,65
24.15000,66
24.15833,66
24.16667,66
24.17500,66
24.18333,66
24.19167,66
24.20000,66
24.20833,66
24.21667,66
24.22500,66
24.23333,66
24.24167,66
24.25000,67
24.25833,67
24.26667,67
24.27500,67
24.28333,67
24.29167,67
24.30000,67
24.30833,67
24.31667,67
24.32500,67
24.33333,67
24.34167,67
24.35000,67
24.35833,67
24.36667,67
24.37500,67
24.38333,67
24.39167,67
24.40000,67
24.40833,67
24.41667,67
24.42500,67
24.43333,67
24.44167,68
24.45000,68
24.45833,68
24.46667,68
24.47500,68
24.48333,68
24.49167,69
24.50000,69
24.50833,69
24.51667,69
24.52500,69
24.53333,69
24.54167,70
24.55000,70
24.55833,70
24.56667,70
24.57500,71
24.58333,71
24.59167,72
24.60000,72
24.60833,73
24.61667,74
24.62500,75
24.63333,75
24.64167,76
24.65000,77
24.65833,78
24.66667,79
24.67500,80
24.68333,81
24.69167,82
24.70000,84
24.70833,86
24.71667,87
24.72500,89
24.73333,91
24.74167,92
24.75000,94
24.75833,95
24.76667,98
24.77500,100
24.78333,103
24.79167,106
24.80000,108
24.80833,111
24.81667,113
24.82500,116
24.83333,119
24.84167,122
24.85000,125
24.85833,128
24.86667,131
24.87500,134
24.88333,137
24.89167,139
24.90000,142
24.90833,145
24.91667,148
24.92500,151
24.93333,153
24.94167,155
24.95000,157
24.95833,159
24.96667,161
24.97500,162
24.98333,164
24.99167,166
25.00000,168
25.00833,169
25.01667,170
25.02500,171
25.03333,172
25.04167,173
25.05000,174
25.05833,174
25.06667,174
25.07500,174
25.08333,174
25.09167,173
25.10000,172
25.10833,171
25.11667,170
25.12500,169
25.13333,168
25.14167,166
25.15000,164
25.15833,162
25.16667,160
25.17500,157
25.18333,155
25.19167,152
25.20000,150
25.20833,148
25.21667,146
25.22500,143
25.23333,141
25.24167,139
25.25000,136
25.25833,134
25.26667,131
25.27500,128
25.28333,126
25.29167,123
25.30000,120
25.30833,118
25.31667,115
25.32500,113
25.33333,111
25.34167,109
25.35000,107
25.35833,105
25.36667,103
25.37500,101
25.38333,99
25.39167,97
25.40000,96
25.40833,94
25.41667,92
25.42500,90
25.43333,89
25.44167,87
25.45000,86
25.45833,85
25.46667,84
25.47500,83
25.48333,83
25.49167,82
25.50000,81
25.50833,81
25.51667,80
25.52500,79
25.53333,78
25.54167,78
25.55000,77
25.55833,77
25.56667,76
25.57500,76
25.58333,75
25.59167,75
25.60000,75
25.60833,74
25.61667,74
25.62500,74
25.63333,73
25.64167,73
25.65000,72
25.65833,72
25.66667,72
25.67500,72
25.68333,72
25.69167,72
25.70000,72
25.70833,72
25.71667,72
25.72500,72
25.73333,72
25.74167,72
25.75000,73
25.75833,73
25.76667,73
25.77500,73
25.78333,73
25.79167,73
25.80000,72
25.80833,72
25.81667,72
25.82500,72
25.83333,72
25.84167,72
25.85000,72
25.85833,72
25.86667,72
25.87500,72
25.88333,72
25.89167,73
25.90000,73
25.90833,73
25.91667,73
25.92500,73
25.93333,73
25.94167,73
25.95000,73
25.95833,73
25.96667,74
25.97500,74
25.98333,74
25.99167,74
26.00000,74
26.00833,73
26.01667,73
26.02500,74
26.03333,74
26.04167,74
26.05000,74
26.05833,74
26.06667,74
26.07500,74
26.08333,74
26.09167,74
26.10000,74
26.10833,74
26.11667,75
26.12500,75
26.13333,75
26.14167,75
26.15000,75
26.15833,75
26.16667,75
26.17500,75
26.18333,75
26.19167,75
26.20000,75
26.20833,75
26.21667,75
26.22500,74
26.23333,74
26.24167,74
26.25000,74
26.25833,74
26.26667,75
26.27500,75
26.28333,75
26.29167,75
26.30000,75
26.30833,75
26.31667,75
26.32500,75
26.33333,75
26.34167,76
26.35000,76
26.35833,76
26.36667,76
26.37500,76
26.38333,76
26.39167,76
26.40000,76
26.40833,76
26.41667,75
26.42500,75
26.43333,75
26.44167,75
26.45000,76
26.45833,76
26.46667,75
26.47500,75
26.48333,75
26.49167,75
26.50000,75
26.50833,75
26.51667,76
26.52500,76
26.53333,76
26.54167,76
26.55000,76
26.55833,76
26.56667,77
26.57500,76
26.58333,76
26.59167,77
26.60000,77
26.60833,76
26.61667,76
26.62500,76
26.63333,76
26.64167,76
26.65000,76
26.65833,76
26.66667,76
26.67500,76
26.68333,76
26.69167,75
26.70000,75
26.70833,76
26.71667,76
26.72500,76
26.73333,76
26.74167,76
26.75000,76
26.75833,76
26.76667,77
26.77500,77
26.78333,77
26.79167,77
26.80000,77
26.80833,78
26.81667,78
26.82500,78
26.83333,78
26.84167,78
26.85000,78
26.85833,78
26.86667,78
26.87500,78
26.88333,77
26.89167,77
26.90000,78
26.90833,78
26.91667,78
26.92500,78
26.93333,78
26.94167,78
26.95000,78
26.95833,79
26.96667,79
26.97500,79
26.98333,79
26.99167,79
27.00000,79
27.00833,79
27.01667,79
27.02500,80
27.03333,80
27.04167,80
27.05000,80
27.05833,80
27.06667,80
27.07500,80
27.08333,81
27.09167,80
27.10000,80
27.10833,80
27.11667,79
27.12500,80
27.13333,80
27.14167,80
27.15000,80
27.15833,80
27.16667,80
27.17500,80
27.18333,80
27.19167,80
27.20000,80
27.20833,81
27.21667,81
27.22500,81
27.23333,81
27.24167,81
27.25000,81
27.25833,81
27.26667,81
27.27500,81
27.28333,81
27.29167,81
27.30000,82
27.30833,82
27.31667,82
27.32500,81
27.33333,81
27.34167,81
27.35000,81
27.35833,81
27.36667,82
27.37500,82
27.38333,83
27.39167,83
27.40000,83
27.40833,83
27.41667,83
27.42500,83
27.43333,83
27.44167,83
27.45000,84
27.45833,83
27.46667,83
27.47500,83
27.48333,83
27.49167,83
27.50000,84
27.50833,84
27.51667,84
27.52500,84
27.53333,84
27.54167,84
27.55000,84
27.55833,84
27.56667,84
27.57500,84
27.58333,84
27.59167,84
27.60000,84
27.60833,84
27.61667,84
27.62500,84
27.63333,84
27.64167,84
27.65000,84
27.65833,84
27.66667,84
27.67500,84
27.68333,84
27.69167,84
27.70000,84
27.70833,84
27.71667,84
27.72500,83
27.73333,83
27.74167,83
27.75000,82
27.75833,82
27.76667,82
27.77500,83
27.78333,82
27.79167,82
27.80000,82
27.80833,82
27.81667,81
27.82500,81
27.83333,81
27.84167,80
27.85000,80
27.85833,80
27.86667,79
27.87500,79
27.88333,78
27.89167,77
27.90000,77
27.90833,76
27.91667,75
27.92500,74
27.93333,73
27.94167,72
27.95000,70
27.95833,69
27.96667,69
27.97500,67
27.98333,66
27.99167,65
28.00000,63
28.00833,62
28.01667,60
28.02500,58
28.03333,56
28.04167,55
28.05000,52
28.05833,50
28.06667,48
28.07500,45
28.08333,43
28.09167,41
28.10000,39
28.10833,37
28.11667,34
28.12500,31
28.13333,28
28.14167,25
28.15000,22
28.15833,19
28.16667,15
28.17500,12
28.18333,10
28.19167,7
28.20000,4
28.20833,0
28.21667,-3
28.22500,-6
28.23333,-9
28.24167,-12
28.25000,-15
28.25833,-18
28.26667,-21
28.27500,-24
28.28333,-28
28.29167,-30
28.30000,-33
28.30833,-36
28.31667,-39
28.32500,-41
28.33333,-44
28.34167,-46
28.35000,-49
28.35833,-51
28.36667,-53
28.37500,-55
28.38333,-57
28.39167,-58
28.40000,-60
28.40833,-61
28.41667,-63
28.42500,-64
28.43333,-64
28.44167,-64
28.45000,-65
28.45833,-65
28.46667,-66
28.47500,-66
28.48333,-65
28.49167,-65
28.50000,-64
28.50833,-63
28.51667,-63
28.52500,-62
28.53333,-61
28.54167,-59
28.55000,-58
28.55833,-56
28.56667,-55
28.57500,-53
28.58333,-50
28.59167,-48
28.60000,-45
28.60833,-43
28.61667,-40
28.62500,-38
28.63333,-36
28.64167,-33
28.65000,-30
28.65833,-28
28.66667,-25
28.67500,-22
28.68333,-20
28.69167,-17
28.70000,-14
28.70833,-11
28.71667,-9
28.72500,-6
28.73333,-3
28.74167,0
28.75000,3
28.75833,5
28.76667,8
28.77500,10
28.78333,13
28.79167,16
28.80000,18
28.80833,20
28.81667,22
28.82500,25
28.83333,27
28.84167,29
28.85000,32
28.85833,34
28.86667,36
28.87500,38
28.88333,40
28.89167,42
28.90000,44
28.90833,46
28.91667,48
28.92500,49
28.93333,51
28.94167,52
28.95000,54
28.95833,55
28.96667,57
28.97500,58
28.98333,59
28.99167,60
29.00000,61
29.00833,62
29.01667,63
29.02500,64
29.03333,64
29.04167,65
29.05000,66
29.05833,67
29.06667,68
29.07500,69
29.08333,69
29.09167,70
29.10000,70
29.10833,71
29.11667,71
29.12500,72
29.13333,73
29.14167,74
29.15000,75
29.15833,75
29.16667,76
29.17500,76
29.18333,77
29.19167,77
29.20000,77
29.20833,77
29.21667,77
29.22500,77
29.23333,77
29.24167,77
29.25000,78
29.25833,78
29.26667,78
29.27500,79
29.28333,79
29.29167,79
29.30000,79
29.30833,79
29.31667,79
29.32500,80
29.33333,80
29.34167,80
29.35000,80
29.35833,80
29.36667,80
29.37500,81
29.38333,81
29.39167,80
29.40000,80
29.40833,80
29.41667,80
29.42500,80
29.43333,80
29.44167,80
29.45000,80
29.45833,80
29.46667,80
29.47500,80
29.48333,80
29.49167,80
29.50000,80
29.50833,80
29.51667,80
29.52500,80
29.53333,80
29.54167,80
29.55000,80
29.55833,80
29.56667,80
29.57500,80
29.58333,80
29.59167,80
29.60000,80
29.60833,79
29.61667,79
29.62500,79
29.63333,78
29.64167,78
29.65000,77
29.65833,77
29.66667,77
29.67500,76
29.68333,76
29.69167,75
29.70000,75
29.70833,74
29.71667,74
29.72500,73
29.73333,73
29.74167,72
29.75000,71
29.75833,71
29.76667,70
29.77500,69
29.78333,68
29.79167,68
29.80000,67
29.80833,67
29.81667,66
29.82500,65
29.83333,64
29.84167,63
29.85000,62
29.85833,61
29.86667,59
29.87500,58
29.88333,57
29.89167,56
29.90000,55
29.90833,54
29.91667,53
29.92500,53
29.93333,52
29.94167,51
29.95000,50
29.95833,49
29.96667,48
29.97500,47
29.98333,46
29.99167,45
30.00000,43
30.00833,42
30.01667,41
30.02500,41
30.03333,40
30.04167,39
30.05000,38
30.05833,37
30.06667,36
30.07500,35
30.08333,34
30.09167,33
30.10000,33
30.10833,32
30.11667,31
30.12500,31
30.13333,30
30.14167,30
30.15000,30
30.15833,30
30.16667,29
30.17500,28
30.18333,28
30.19167,28
30.20000,28
30.20833,27
30.21667,28
30.22500,28
30.23333,28
30.24167,28
30.25000,28
30.25833,28
30.26667,28
30.27500,29
30.28333,29
30.29167,29
30.30000,30
30.30833,30
30.31667,31
30.32500,32
30.33333,33
30.34167,33
30.35000,34
30.35833,34
30.36667,35
30.37500,36
30.38333,37
30.39167,38
30.40000,40
30.40833,41
30.41667,42
30.42500,42
30.43333,43
30.44167,44
30.45000,45
30.45833,46
30.46667,47
30.47500,48
30.48333,49
30.49167,50
30.50000,50
30.50833,51
30.51667,52
30.52500,53
30.53333,54
30.54167,55
30.55000,56
30.55833,56
30.56667,58
30.57500,59
30.58333,60
30.59167,60
30.60000,61
30.60833,61
30.61667,62
30.62500,63
30.63333,63
30.64167,64
30.65000,64
30.65833,65
30.66667,65
30.67500,65
30.68333,66
30.69167,67
30.70000,67
30.70833,68
30.71667,68
30.72500,69
30.73333,69
30.74167,69
30.75000,69
30.75833,70
30.76667,70
30.77500,71
30.78333,71
30.79167,71
30.80000,71
30.80833,72
30.81667,72
30.82500,73
30.83333,73
30.84167,73
30.85000,73
30.85833,73
30.86667,72
30.87500,72
30.88333,72
30.89167,72
30.90000,72
30.90833,72
30.91667,73
30.92500,73
30.93333,72
30.94167,72
30.95000,72
30.95833,72
30.96667,72
30.97500,72
30.98333,72
30.99167,72
31.00000,72
31.00833,72
31.01667,72
31.02500,72
31.03333,72
31.04167,72
31.05000,72
31.05833,71
31.06667,71
31.07500,71
31.08333,72
31.09167,72
31.10000,72
31.10833,72
31.11667,72
31.12500,72
31.13333,72
31.14167,72
31.15000,72
31.15833,73
31.16667,73
31.17500,73
31.18333,73
31.19167,74
31.20000,74
31.20833,74
31.21667,74
31.22500,74
31.23333,75
31.24167,75
31.25000,75
31.25833,76
31.26667,76
31.27500,76
31.28333,76
31.29167,77
31.30000,77
31.30833,78
31.31667,78
31.32500,78
31.33333,78
31.34167,79
31.35000,79
31.35833,79
31.36667,80
31.37500,80
31.38333,81
31.39167,81
31.40000,81
31.40833,82
31.41667,82
31.42500,83
31.43333,83
31.44167,84
31.45000,84
31.45833,85
31.46667,85
31.47500,86
31.48333,86
31.49167,86
31.50000,86
31.50833,87
31.51667,87
31.52500,87
31.53333,87
31.54167,88
31.55000,88
31.55833,88
31.56667,89
31.57500,89
31.58333,89
31.59167,89
31.60000,89
31.60833,90
31.61667,90
31.62500,91
31.63333,91
31.64167,91
31.65000,91
31.65833,92
31.66667,92
31.67500,92
31.68333,93
31.69167,93
31.70000,93
31.70833,94
31.71667,94
31.72500,94
31.73333,94
31.74167,94
31.75000,94
31.75833,94
31.76667,94
31.77500,94
31.78333,94
31.79167,94
31.80000,95
31.80833,95
31.81667,95
31.82500,95
31.83333,95
31.84167,95
31.85000,94
31.85833,95
31.86667,95
31.87500,95
31.88333,95
31.89167,95
31.90000,95
31.90833,95
31.91667,95
31.92500,94
31.93333,94
31.94167,94
31.95000,94
31.95833,94
31.96667,94
31.97500,94
31.98333,94
31.99167,94
32.00000,94
32.00833,94
32.01667,94
32.02500,94
32.03333,94
32.04167,93
32.05000,93
32.05833,93
32.06667,93
32.07500,93
32.08333,93
32.09167,93
32.10000,92
32.10833,92
32.11667,92
32.12500,92
32.13333,92
32.14167,92
32.15000,91
32.15833,91
32.16667,91
32.17500,91
32.18333,92
32.19167,92
32.20000,92
32.20833,92
32.21667,91
32.22500,91
32.23333,91
32.24167,91
32.25000,91
32.25833,91
32.26667,91
32.27500,91
32.28333,91
32.29167,91
32.30000,91
32.30833,91
32.31667,91
32.32500,91
32.33333,91
32.34167,91
32.35000,91
32.35833,91
32.36667,90
32.37500,90
32.38333,90
32.39167,90
32.40000,90
32.40833,91
32.41667,90
32.42500,91
32.43333,91
32.44167,91
32.45000,91
32.45833,91
32.46667,91
32.47500,91
32.48333,91
32.49167,91
32.50000,91
32.50833,91
32.51667,91
32.52500,91
32.53333,91
32.54167,91
32.55000,91
32.55833,91
32.56667,92
32.57500,92
32.58333,92
32.59167,91
32.60000,91
32.60833,91
32.61667,91
32.62500,91
32.63333,91
32.64167,91
32.65000,92
32.65833,92
32.66667,92
32.67500,92
32.68333,92
32.69167,92
32.70000,92
32.70833,93
32.71667,93
32.72500,93
32.73333,93
32.74167,93
32.75000,93
32.75833,93
32.76667,93
32.77500,93
32.78333,93
32.79167,92
32.80000,92
32.80833,92
32.81667,92
32.82500,92
32.83333,92
32.84167,92
32.85000,92
32.85833,92
32.86667,92
32.87500,92
32.88333,92
32.89167,92
32.90000,92
32.90833,92
32.91667,92
32.92500,92
32.93333,92
32.94167,92
32.95000,93
32.95833,93
32.96667,93
32.97500,93
32.98333,93
32.99167,93
33.00000,93
33.00833,93
33.01667,93
33.02500,92
33.03333,92
33.04167,93
33.05000,92
33.05833,92
33.06667,92
33.07500,92
33.08333,92
33.09167,92
33.10000,93
33.10833,93
33.11667,94
33.12500,94
33.13333,94
33.14167,94
33.15000,94
33.15833,94
33.16667,94
33.17500,94
33.18333,94
33.19167,94
33.20000,95
33.20833,95
33.21667,95
33.22500,95
33.23333,95
33.24167,95
33.25000,96
33.25833,96
33.26667,96
33.27500,95
33.28333,95
33.29167,95
33.30000,95
33.30833,95
33.31667,95
33.32500,95
33.33333,94
33.34167,94
33.35000,95
33.35833,95
33.36667,95
33.37500,95
33.38333,95
33.39167,95
33.40000,95
33.40833,95
33.41667,95
33.42500,95
33.43333,95
33.44167,95
33.45000,95
33.45833,95
33.46667,95
33.47500,95
33.48333,95
33.49167,95
33.50000,95
33.50833,95
33.51667,95
33.52500,95
33.53333,95
33.54167,95
33.55000,95
33.55833,96
33.56667,96
33.57500,96
33.58333,96
33.59167,96
33.60000,97
33.60833,97
33.61667,97
33.62500,97
33.63333,97
33.64167,96
33.65000,96
33.65833,96
33.66667,97
33.67500,97
33.68333,97
33.69167,97
33.70000,97
33.70833,97
33.71667,97
33.72500,97
33.73333,97
33.74167,97
33.75000,97
33.75833,97
33.76667,97
33.77500,97
33.78333,97
33.79167,97
33.80000,97
33.80833,97
33.81667,97
33.82500,97
33.83333,97
33.84167,97
33.85000,97
33.85833,97
33.86667,98
33.87500,98
33.88333,98
33.89167,99
33.90000,99
33.90833,99
33.91667,99
33.92500,99
33.93333,99
33.94167,98
33.95000,98
33.95833,98
33.96667,98
33.97500,98
33.98333,98
33.99167,98
34.00000,98
34.00833,99
34.01667,99
34.02500,98
34.03333,99
34.04167,99
34.05000,99
34.05833,99
34.06667,99
34.07500,100
34.08333,100
34.09167,100
34.10000,100
34.10833,100
34.11667,100
34.12500,100
34.13333,100
34.14167,100
34.15000,100
34.15833,100
34.16667,100
34.17500,99
34.18333,99
34.19167,99
34.20000,99
34.20833,99
34.21667,99
34.22500,99
34.23333,99
34.24167,99
34.25000,99
34.25833,99
34.26667,100
34.27500,100
34.28333,100
34.29167,100
34.30000,100
34.30833,101
34.31667,101
34.32500,101
34.33333,101
34.34167,101
34.35000,101
34.35833,101
34.36667,101
34.37500,101
34.38333,101
34.39167,101
34.40000,101
34.40833,101
34.41667,102
34.42500,102
34.43333,102
34.44167,102
34.45000,102
34.45833,102
34.46667,102
34.47500,102
34.48333,102
34.49167,102
34.50000,101
34.50833,101
34.51667,101
34.52500,101
34.53333,101
34.54167,101
34.55000,102
34.55833,102
34.56667,102
34.57500,102
34.58333,102
34.59167,101
34.60000,101
34.60833,101
34.61667,101
34.62500,101
34.63333,101
34.64167,101
34.65000,101
34.65833,102
34.66667,102
34.67500,102
34.68333,102
34.69167,103
34.70000,103
34.70833,103
34.71667,103
34.72500,103
34.73333,104
34.74167,104
34.75000,104
34.75833,104
34.76667,104
34.77500,103
34.78333,103
34.79167,103
34.80000,103
34.80833,103
34.81667,103
34.82500,103
34.83333,103
34.84167,103
34.85000,103
34.85833,103
34.86667,103
34.87500,103
34.88333,104
34.89167,104
34.90000,104
34.90833,103
34.91667,103
34.92500,103
34.93333,104
34.94167,104
34.95000,104
34.95833,104
34.96667,104
34.97500,104
34.98333,104
34.99167,104
35.00000,104
35.00833,105
35.01667,105
35.02500,105
35.03333,104
35.04167,104
35.05000,104
35.05833,104
35.06667,104
35.07500,104
35.08333,104
35.09167,104
35.10000,104
35.10833,104
35.11667,104
35.12500,104
35.13333,104
35.14167,104
35.15000,104
35.15833,104
35.16667,104
35.17500,104
35.18333,104
35.19167,104
35.20000,104
35.20833,104
35.21667,104
35.22500,103
35.23333,103
35.24167,103
35.25000,103
35.25833,103
35.26667,103
35.27500,103
35.28333,103
35.29167,103
35.30000,103
35.30833,103
35.31667,103
35.32500,103
35.33333,104
35.34167,104
35.35000,104
35.35833,104
35.36667,104
35.37500,104
35.38333,104
35.39167,104
35.40000,104
35.40833,104
35.41667,104
35.42500,104
35.43333,104
35.44167,104
35.45000,104
35.45833,104
35.46667,104
35.47500,104
35.48333,103
35.49167,103
35.50000,103
35.50833,103
35.51667,103
35.52500,103
35.53333,103
35.54167,103
35.55000,103
35.55833,103
35.56667,103
35.57500,103
35.58333,103
35.59167,103
35.60000,103
35.60833,103
35.61667,103
35.62500,103
35.63333,103
35.64167,103
35.65000,103
35.65833,103
35.66667,103
35.67500,103
35.68333,103
35.69167,103
35.70000,103
35.70833,102
35.71667,102
35.72500,102
35.73333,102
35.74167,102
35.75000,102
35.75833,103
35.76667,102
35.77500,102
35.78333,103
35.79167,103
35.80000,104
35.80833,104
35.81667,103
35.82500,103
35.83333,103
35.84167,103
35.85000,104
35.85833,104
35.86667,103
35.87500,103
35.88333,103
35.89167,103
35.90000,103
35.90833,103
35.91667,102
35.92500,102
35.93333,102
35.94167,103
35.95000,103
35.95833,103
35.96667,103
35.97500,102
35.98333,102
35.99167,102
36.00000,103
36.00833,103
36.01667,103
36.02500,103
36.03333,103
36.04167,104
36.05000,104
36.05833,104
36.06667,104
36.07500,104
36.08333,104
36.09167,104
36.10000,104
36.10833,104
36.11667,104
36.12500,104
36.13333,103
36.14167,103
36.15000,103
36.15833,102
36.16667,102
36.17500,102
36.18333,102
36.19167,103
36.20000,103
36.20833,103
36.21667,103
36.22500,103
36.23333,104
36.24167,104
36.25000,103
36.25833,103
36.26667,103
36.27500,103
36.28333,103
36.29167,103
36.30000,103
36.30833,103
36.31667,104
36.32500,103
36.33333,103
36.34167,103
36.35000,102
36.35833,102
36.36667,102
36.37500,102
36.38333,102
36.39167,102
36.40000,102
36.40833,101
36.41667,101
36.42500,101
36.43333,101
36.44167,102
36.45000,102
36.45833,102
36.46667,102
36.47500,102
36.48333,102
36.49167,102
36.50000,103
36.50833,102
36.51667,102
36.52500,102
36.53333,102
36.54167,102
36.55000,102
36.55833,102
36.56667,101
36.57500,101
36.58333,102
36.59167,102
36.60000,102
36.60833,102
36.61667,102
36.62500,102
36.63333,102
36.64167,102
36.65000,102
36.65833,103
36.66667,103
36.67500,103
36.68333,103
36.69167,103
36.70000,103
36.70833,103
36.71667,103
36.72500,103
36.73333,103
36.74167,103
36.75000,103
36.75833,103
36.76667,103
36.77500,103
36.78333,103
36.79167,103
36.80000,103
36.80833,102
36.81667,102
36.82500,102
36.83333,102
36.84167,102
36.85000,102
36.85833,103
36.86667,103
36.87500,103
36.88333,103
36.89167,104
36.90000,104
36.90833,104
36.91667,104
36.92500,104
36.93333,104
36.94167,104
36.95000,104
36.95833,104
36.96667,103
36.97500,103
36.98333,103
36.99167,103
37.00000,103
37.00833,103
37.01667,103
37.02500,103
37.03333,103
37.04167,103
37.05000,103
37.05833,103
37.06667,103
37.07500,103
37.08333,103
37.09167,103
37.10000,103
37.10833,103
37.11667,103
37.12500,103
37.13333,103
37.14167,103
37.15000,103
37.15833,103
37.16667,103
37.17500,103
37.18333,103
37.19167,103
37.20000,103
37.20833,103
37.21667,103
37.22500,103
37.23333,104
37.24167,103
37.25000,103
37.25833,104
37.26667,103
37.27500,103
37.28333,103
37.29167,103
37.30000,103
37.30833,103
37.31667,103
37.32500,103
37.33333,103
37.34167,103
37.35000,103
37.35833,104
37.36667,104
37.37500,104
37.38333,104
37.39167,104
37.40000,104
37.40833,104
37.41667,103
37.42500,103
37.43333,103
37.44167,103
37.45000,103
37.45833,102
37.46667,102
37.47500,102
37.48333,103
37.49167,104
37.50000,104
37.50833,104
37.51667,104
37.52500,104
37.53333,104
37.54167,104
37.55000,103
37.55833,103
37.56667,103
37.57500,103
37.58333,104
37.59167,104
37.60000,104
37.60833,105
37.61667,105
37.62500,105
37.63333,105
37.64167,105
37.65000,105
37.65833,104
37.66667,104
37.67500,104
37.68333,104
37.69167,103
37.70000,103
37.70833,103
37.71667,104
37.72500,104
37.73333,104
37.74167,104
37.75000,104
37.75833,105
37.76667,105
37.77500,105
37.78333,104
37.79167,104
37.80000,104
37.80833,104
37.81667,104
37.82500,104
37.83333,104
37.84167,105
37.85000,105
37.85833,105
37.86667,105
37.87500,105
37.88333,105
37.89167,104
37.90000,104
37.90833,104
37.91667,104
37.92500,104
37.93333,104
37.94167,104
37.95000,104
37.95833,105
37.96667,105
37.97500,104
37.98333,104
37.99167,105
38.00000,105
38.00833,104
38.01667,104
38.02500,105
38.03333,105
38.04167,105
38.05000,105
38.05833,105
38.06667,105
38.07500,105
38.08333,105
38.09167,104
38.10000,104
38.10833,104
38.11667,104
38.12500,105
38.13333,105
38.14167,105
38.15000,105
38.15833,105
38.16667,105
38.17500,105
38.18333,105
38.19167,105
38.20000,105
38.20833,105
38.21667,105
38.22500,105
38.23333,105
38.24167,106
38.25000,106
38.25833,106
38.26667,106
38.27500,106
38.28333,106
38.29167,105
38.30000,105
38.30833,105
38.31667,105
38.32500,105
38.33333,105
38.34167,105
38.35000,105
38.35833,105
38.36667,105
38.37500,105
38.38333,106
38.39167,106
38.40000,106
38.40833,106
38.41667,106
38.42500,106
38.43333,106
38.44167,106
38.45000,106
38.45833,106
38.46667,106
38.47500,106
38.48333,107
38.49167,107
38.50000,107
38.50833,107
38.51667,107
38.52500,107
38.53333,107
38.54167,107
38.55000,107
38.55833,107
38.56667,107
38.57500,107
38.58333,107
38.59167,106
38.60000,106
38.60833,106
38.61667,106
38.62500,107
38.63333,107
38.64167,107
38.65000,107
38.65833,107
38.66667,107
38.67500,106
38.68333,106
38.69167,106
38.70000,107
38.70833,107
38.71667,107
38.72500,106
38.73333,106
38.74167,106
38.75000,106
38.75833,106
38.76667,105
38.77500,105
38.78333,105
38.79167,105
38.80000,105
38.80833,105
38.81667,106
38.82500,106
38.83333,106
38.84167,106
38.85000,106
38.85833,107
38.86667,107
38.87500,107
38.88333,107
38.89167,106
38.90000,106
38.90833,106
38.91667,106
38.92500,106
38.93333,106
38.94167,106
38.95000,106
38.95833,106
38.96667,106
38.97500,105
38.98333,105
38.99167,105
39.00000,105
39.00833,105
39.01667,105
39.02500,105
39.03333,105
39.04167,105
39.05000,105
39.05833,105
39.06667,105
39.07500,105
39.08333,105
39.09167,105
39.10000,105
39.10833,106
39.11667,106
39.12500,106
39.13333,107
39.14167,107
39.15000,106
39.15833,106
39.16667,106
39.17500,106
39.18333,105
39.19167,105
39.20000,105
39.20833,104
39.21667,104
39.22500,105
39.23333,105
39.24167,105
39.25000,105
39.25833,105
39.26667,105
39.27500,105
39.28333,105
39.29167,105
39.30000,106
39.30833,106
39.31667,106
39.32500,106
39.33333,106
39.34167,106
39.35000,106
39.35833,106
39.36667,106
39.37500,106
39.38333,106
39.39167,106
39.40000,106
39.40833,106
39.41667,106
39.42500,106
39.43333,106
39.44167,106
39.45000,106
39.45833,106
39.46667,106
39.47500,106
39.48333,106
39.49167,106
39.50000,106
39.50833,106
39.51667,106
39.52500,106
39.53333,106
39.54167,105
39.55000,106
39.55833,106
39.56667,106
39.57500,106
39.58333,105
39.59167,106
39.60000,106
39.60833,105
39.61667,105
39.62500,106
39.63333,106
39.64167,105
39.65000,105
39.65833,105
39.66667,105
39.67500,105
39.68333,105
39.69167,106
39.70000,105
39.70833,105
39.71667,105
39.72500,105
39.73333,106
39.74167,106
39.75000,106
39.75833,106
39.76667,106
39.77500,106
39.78333,106
39.79167,106
39.80000,106
39.80833,105
39.81667,105
39.82500,105
39.83333,105
39.84167,105
39.85000,105
39.85833,105
39.86667,105
39.87500,105
39.88333,106
39.89167,106
39.90000,106
39.90833,107
39.91667,107
39.92500,107
39.93333,107
39.94167,108
39.95000,107
39.95833,107
39.96667,107
39.97500,107
39.98333,107
39.99167,106
40.00000,106

