[Header]
Application Name,LabSolutions
Version,5.97 SP1
Data File Name,C:\Users\cremerlab\Desktop\griffin\2021-03-31_NCM3722_NCglucose_turnover\2021-03-31_NCM3722_turnover_batch_3312021_003_003.lcd
Output Date,3/31/2021
Output Time,8:34:00 PM

[File Information]
Type,Data File
Generated,3/31/2021 7:53:40 PM
Generated by,System Administrator
Modified,3/31/2021 8:34:00 PM
Modified by,System Administrator

[Sample Information]
Operator Name,System Administrator
Acquired,3/31/2021 7:53:59 PM
Sample Type,1:Standard
Level,3
Sample Name,2021-03-31_NCM3722_NCglucose_replicate_01_timepoint_003
Sample ID,003
ISTD Amount1,1
ISTD Amount2,1
ISTD Amount3,1
ISTD Amount4,1
ISTD Amount5,1
ISTD Amount6,1
ISTD Amount7,1
ISTD Amount8,1
ISTD Amount9,1
ISTD Amount10,1
ISTD Amount11,1
ISTD Amount12,1
ISTD Amount13,1
ISTD Amount14,1
ISTD Amount15,1
ISTD Amount16,1
ISTD Amount17,1
ISTD Amount18,1
ISTD Amount19,1
ISTD Amount20,1
ISTD Amount21,1
ISTD Amount22,1
ISTD Amount23,1
ISTD Amount24,1
ISTD Amount25,1
ISTD Amount26,1
ISTD Amount27,1
ISTD Amount28,1
ISTD Amount29,1
ISTD Amount30,1
ISTD Amount31,1
ISTD Amount32,1
Sample Amount,1
Dilution Factor,1
Vial#,12
Injection Volume,20

[Original Files]
Data File,C:\Users\cremerlab\Desktop\griffin\2021-03-31_NCM3722_NCglucose_turnover\2021-03-31_NCM3722_turnover_batch_3312021_003_003.lcd
Method File,C:\LabSolutions\Data\Project1\organicacidsetc2.lcm
Batch File,C:\Users\cremerlab\Desktop\griffin\2021-03-31_NCM3722_NCglucose_turnover\2021-03-31_NCM3722_turnover_batch.lcb
Report Format File,c:\LabSolutions\System\DEFAULT.lsr

[File Description]


[Configuration]
Instrument Name,HPLC-PC-Instrument1
Instrument #,1
Line #,1
# of Detectors,2
Detector ID,Detector A,Detector B
Detector Name,Detector A,Detector B
# of Channels,1,1

[Peak Table(Detector A)]
# of Peaks,0

[Peak Table(Detector B)]
# of Peaks,4
Peak#,R.Time,I.Time,F.Time,Area,Height,A/H,Conc.,Mark,ID#,Name,k',Plate #,Plate Ht.,Tailing,Resolution,Sep.Factor,Area Ratio,Height Ratio,Conc. %,Norm Conc.
1,11.056,10.750,12.458,1230284,71110,17.301,0.000,   ,,,0.000,10709,14.006,1.259,0.000,0.000,0,0,0.000,0.000
2,15.097,14.083,15.383,3166033,118638,26.687,0.000,   ,,,0.365,6976,21.504,0.000,7.025,0.000,0,0,0.000,0.000
3,15.629,15.383,18.533,980815,39373,24.911,0.000, V ,,,0.414,7792,19.250,0.000,0.743,1.132,0,0,0.000,0.000
4,25.049,24.592,25.625,5188,188,27.536,0.000,   ,,,1.266,17945,8.359,1.071,12.939,3.060,0,0,0.000,0.000

[LC Chromatogram(Detector B-Ch1)]
Interval(msec),500
# of Points,4801
Start Time(min),0.000
End Time(min),40.000
Intensity Units,mV
Intensity Multiplier,0.001
R.Time (min),Intensity
0.00000,0
0.00833,0
0.01667,0
0.02500,0
0.03333,0
0.04167,-0
0.05000,0
0.05833,0
0.06667,0
0.07500,0
0.08333,0
0.09167,1
0.10000,1
0.10833,1
0.11667,1
0.12500,0
0.13333,1
0.14167,1
0.15000,1
0.15833,1
0.16667,1
0.17500,1
0.18333,1
0.19167,1
0.20000,1
0.20833,1
0.21667,1
0.22500,1
0.23333,1
0.24167,1
0.25000,1
0.25833,2
0.26667,2
0.27500,2
0.28333,2
0.29167,1
0.30000,1
0.30833,2
0.31667,2
0.32500,2
0.33333,2
0.34167,1
0.35000,1
0.35833,1
0.36667,1
0.37500,1
0.38333,1
0.39167,1
0.40000,1
0.40833,1
0.41667,1
0.42500,1
0.43333,1
0.44167,1
0.45000,1
0.45833,1
0.46667,1
0.47500,1
0.48333,1
0.49167,2
0.50000,2
0.50833,2
0.51667,2
0.52500,2
0.53333,2
0.54167,2
0.55000,2
0.55833,2
0.56667,2
0.57500,2
0.58333,2
0.59167,2
0.60000,2
0.60833,2
0.61667,2
0.62500,1
0.63333,2
0.64167,2
0.65000,2
0.65833,2
0.66667,1
0.67500,1
0.68333,1
0.69167,0
0.70000,0
0.70833,-0
0.71667,-0
0.72500,0
0.73333,0
0.74167,0
0.75000,0
0.75833,1
0.76667,1
0.77500,1
0.78333,1
0.79167,1
0.80000,0
0.80833,0
0.81667,0
0.82500,0
0.83333,0
0.84167,1
0.85000,1
0.85833,1
0.86667,1
0.87500,1
0.88333,1
0.89167,1
0.90000,1
0.90833,1
0.91667,1
0.92500,1
0.93333,1
0.94167,0
0.95000,0
0.95833,0
0.96667,-0
0.97500,0
0.98333,0
0.99167,0
1.00000,0
1.00833,0
1.01667,0
1.02500,0
1.03333,0
1.04167,0
1.05000,0
1.05833,-0
1.06667,-0
1.07500,-0
1.08333,-0
1.09167,-0
1.10000,-0
1.10833,-0
1.11667,-0
1.12500,-0
1.13333,-0
1.14167,0
1.15000,0
1.15833,-0
1.16667,-0
1.17500,-1
1.18333,-0
1.19167,0
1.20000,0
1.20833,0
1.21667,1
1.22500,1
1.23333,1
1.24167,1
1.25000,1
1.25833,1
1.26667,1
1.27500,1
1.28333,1
1.29167,1
1.30000,0
1.30833,-0
1.31667,-0
1.32500,0
1.33333,0
1.34167,-0
1.35000,-0
1.35833,-0
1.36667,-0
1.37500,-0
1.38333,0
1.39167,0
1.40000,1
1.40833,0
1.41667,0
1.42500,0
1.43333,0
1.44167,0
1.45000,0
1.45833,1
1.46667,1
1.47500,1
1.48333,0
1.49167,0
1.50000,0
1.50833,0
1.51667,0
1.52500,0
1.53333,0
1.54167,0
1.55000,1
1.55833,1
1.56667,1
1.57500,1
1.58333,1
1.59167,0
1.60000,0
1.60833,0
1.61667,0
1.62500,0
1.63333,0
1.64167,0
1.65000,1
1.65833,1
1.66667,1
1.67500,0
1.68333,1
1.69167,1
1.70000,1
1.70833,1
1.71667,1
1.72500,1
1.73333,1
1.74167,1
1.75000,2
1.75833,1
1.76667,1
1.77500,2
1.78333,2
1.79167,2
1.80000,2
1.80833,2
1.81667,2
1.82500,2
1.83333,2
1.84167,2
1.85000,2
1.85833,2
1.86667,2
1.87500,2
1.88333,2
1.89167,2
1.90000,3
1.90833,3
1.91667,3
1.92500,3
1.93333,3
1.94167,3
1.95000,3
1.95833,3
1.96667,3
1.97500,3
1.98333,3
1.99167,3
2.00000,3
2.00833,3
2.01667,4
2.02500,4
2.03333,4
2.04167,5
2.05000,5
2.05833,4
2.06667,4
2.07500,4
2.08333,4
2.09167,3
2.10000,3
2.10833,3
2.11667,3
2.12500,3
2.13333,3
2.14167,3
2.15000,3
2.15833,3
2.16667,3
2.17500,3
2.18333,3
2.19167,3
2.20000,3
2.20833,3
2.21667,3
2.22500,3
2.23333,2
2.24167,2
2.25000,3
2.25833,3
2.26667,3
2.27500,3
2.28333,4
2.29167,4
2.30000,4
2.30833,4
2.31667,4
2.32500,3
2.33333,3
2.34167,3
2.35000,3
2.35833,3
2.36667,3
2.37500,3
2.38333,3
2.39167,4
2.40000,3
2.40833,3
2.41667,3
2.42500,3
2.43333,2
2.44167,2
2.45000,2
2.45833,2
2.46667,2
2.47500,2
2.48333,2
2.49167,2
2.50000,2
2.50833,2
2.51667,1
2.52500,1
2.53333,1
2.54167,1
2.55000,1
2.55833,1
2.56667,1
2.57500,1
2.58333,1
2.59167,1
2.60000,1
2.60833,1
2.61667,1
2.62500,1
2.63333,1
2.64167,1
2.65000,1
2.65833,1
2.66667,1
2.67500,1
2.68333,1
2.69167,1
2.70000,1
2.70833,0
2.71667,0
2.72500,0
2.73333,0
2.74167,0
2.75000,0
2.75833,0
2.76667,0
2.77500,0
2.78333,-0
2.79167,-0
2.80000,-1
2.80833,-1
2.81667,-1
2.82500,-1
2.83333,-1
2.84167,-1
2.85000,-1
2.85833,-1
2.86667,-1
2.87500,-0
2.88333,-0
2.89167,-0
2.90000,-0
2.90833,-1
2.91667,-1
2.92500,-1
2.93333,-1
2.94167,-1
2.95000,-1
2.95833,-1
2.96667,-1
2.97500,-1
2.98333,-1
2.99167,-1
3.00000,-1
3.00833,-1
3.01667,-1
3.02500,-1
3.03333,-2
3.04167,-2
3.05000,-2
3.05833,-2
3.06667,-2
3.07500,-2
3.08333,-2
3.09167,-2
3.10000,-2
3.10833,-2
3.11667,-2
3.12500,-2
3.13333,-3
3.14167,-2
3.15000,-2
3.15833,-2
3.16667,-2
3.17500,-2
3.18333,-2
3.19167,-2
3.20000,-2
3.20833,-2
3.21667,-2
3.22500,-2
3.23333,-2
3.24167,-1
3.25000,-1
3.25833,-1
3.26667,-1
3.27500,-2
3.28333,-2
3.29167,-2
3.30000,-2
3.30833,-3
3.31667,-3
3.32500,-3
3.33333,-3
3.34167,-2
3.35000,-2
3.35833,-2
3.36667,-3
3.37500,-3
3.38333,-3
3.39167,-3
3.40000,-3
3.40833,-3
3.41667,-3
3.42500,-3
3.43333,-3
3.44167,-3
3.45000,-3
3.45833,-3
3.46667,-3
3.47500,-3
3.48333,-2
3.49167,-2
3.50000,-2
3.50833,-2
3.51667,-1
3.52500,-1
3.53333,-1
3.54167,-1
3.55000,-1
3.55833,-1
3.56667,-1
3.57500,-1
3.58333,-1
3.59167,-1
3.60000,-1
3.60833,-1
3.61667,-1
3.62500,-1
3.63333,-2
3.64167,-2
3.65000,-2
3.65833,-1
3.66667,-1
3.67500,-1
3.68333,-1
3.69167,-1
3.70000,-1
3.70833,-1
3.71667,-1
3.72500,-1
3.73333,-1
3.74167,-1
3.75000,-1
3.75833,-1
3.76667,-1
3.77500,-1
3.78333,-1
3.79167,-1
3.80000,-1
3.80833,-1
3.81667,-1
3.82500,-1
3.83333,-1
3.84167,-1
3.85000,-1
3.85833,-1
3.86667,-1
3.87500,-1
3.88333,-1
3.89167,-0
3.90000,-0
3.90833,-0
3.91667,-0
3.92500,-0
3.93333,-0
3.94167,-0
3.95000,-0
3.95833,-0
3.96667,0
3.97500,1
3.98333,1
3.99167,1
4.00000,1
4.00833,1
4.01667,1
4.02500,1
4.03333,1
4.04167,1
4.05000,0
4.05833,-0
4.06667,-0
4.07500,0
4.08333,0
4.09167,0
4.10000,0
4.10833,0
4.11667,0
4.12500,0
4.13333,0
4.14167,0
4.15000,0
4.15833,1
4.16667,1
4.17500,1
4.18333,0
4.19167,-0
4.20000,0
4.20833,0
4.21667,0
4.22500,0
4.23333,1
4.24167,1
4.25000,0
4.25833,0
4.26667,0
4.27500,0
4.28333,0
4.29167,0
4.30000,0
4.30833,-0
4.31667,-0
4.32500,-1
4.33333,-0
4.34167,-0
4.35000,-1
4.35833,-1
4.36667,-1
4.37500,-1
4.38333,-1
4.39167,-1
4.40000,-1
4.40833,-1
4.41667,-1
4.42500,-1
4.43333,-1
4.44167,-1
4.45000,-1
4.45833,-1
4.46667,-2
4.47500,-2
4.48333,-2
4.49167,-2
4.50000,-2
4.50833,-2
4.51667,-2
4.52500,-2
4.53333,-2
4.54167,-2
4.55000,-2
4.55833,-2
4.56667,-2
4.57500,-2
4.58333,-2
4.59167,-3
4.60000,-3
4.60833,-3
4.61667,-4
4.62500,-3
4.63333,-3
4.64167,-3
4.65000,-3
4.65833,-4
4.66667,-4
4.67500,-4
4.68333,-4
4.69167,-4
4.70000,-4
4.70833,-4
4.71667,-4
4.72500,-4
4.73333,-4
4.74167,-4
4.75000,-4
4.75833,-4
4.76667,-3
4.77500,-4
4.78333,-4
4.79167,-4
4.80000,-4
4.80833,-4
4.81667,-4
4.82500,-4
4.83333,-4
4.84167,-4
4.85000,-5
4.85833,-4
4.86667,-4
4.87500,-4
4.88333,-5
4.89167,-5
4.90000,-5
4.90833,-5
4.91667,-5
4.92500,-5
4.93333,-5
4.94167,-6
4.95000,-6
4.95833,-6
4.96667,-6
4.97500,-5
4.98333,-5
4.99167,-5
5.00000,-5
5.00833,-5
5.01667,-5
5.02500,-5
5.03333,-5
5.04167,-5
5.05000,-5
5.05833,-6
5.06667,-6
5.07500,-6
5.08333,-6
5.09167,-6
5.10000,-6
5.10833,-6
5.11667,-6
5.12500,-6
5.13333,-6
5.14167,-6
5.15000,-6
5.15833,-6
5.16667,-6
5.17500,-6
5.18333,-5
5.19167,-5
5.20000,-5
5.20833,-5
5.21667,-5
5.22500,-5
5.23333,-5
5.24167,-5
5.25000,-5
5.25833,-6
5.26667,-6
5.27500,-6
5.28333,-6
5.29167,-6
5.30000,-6
5.30833,-6
5.31667,-6
5.32500,-7
5.33333,-7
5.34167,-6
5.35000,-6
5.35833,-6
5.36667,-6
5.37500,-6
5.38333,-6
5.39167,-6
5.40000,-5
5.40833,-5
5.41667,-5
5.42500,-5
5.43333,-4
5.44167,-4
5.45000,-4
5.45833,-4
5.46667,-5
5.47500,-5
5.48333,-5
5.49167,-5
5.50000,-5
5.50833,-5
5.51667,-6
5.52500,-6
5.53333,-6
5.54167,-6
5.55000,-6
5.55833,-6
5.56667,-6
5.57500,-5
5.58333,-5
5.59167,-6
5.60000,-6
5.60833,-6
5.61667,-6
5.62500,-6
5.63333,-6
5.64167,-6
5.65000,-6
5.65833,-6
5.66667,-6
5.67500,-6
5.68333,-6
5.69167,-6
5.70000,-6
5.70833,-5
5.71667,-5
5.72500,-5
5.73333,-5
5.74167,-5
5.75000,-5
5.75833,-5
5.76667,-5
5.77500,-5
5.78333,-5
5.79167,-5
5.80000,-5
5.80833,-6
5.81667,-6
5.82500,-6
5.83333,-6
5.84167,-6
5.85000,-7
5.85833,-6
5.86667,-6
5.87500,-6
5.88333,-5
5.89167,-5
5.90000,-5
5.90833,-5
5.91667,-5
5.92500,-5
5.93333,-5
5.94167,-5
5.95000,-5
5.95833,-6
5.96667,-6
5.97500,-6
5.98333,-6
5.99167,-6
6.00000,-6
6.00833,-6
6.01667,-6
6.02500,-6
6.03333,-6
6.04167,-6
6.05000,-6
6.05833,-6
6.06667,-6
6.07500,-5
6.08333,-6
6.09167,-6
6.10000,-6
6.10833,-6
6.11667,-6
6.12500,-6
6.13333,-6
6.14167,-6
6.15000,-6
6.15833,-6
6.16667,-6
6.17500,-6
6.18333,-6
6.19167,-6
6.20000,-6
6.20833,-6
6.21667,-6
6.22500,-6
6.23333,-6
6.24167,-6
6.25000,-6
6.25833,-6
6.26667,-6
6.27500,-6
6.28333,-6
6.29167,-6
6.30000,-6
6.30833,-6
6.31667,-6
6.32500,-6
6.33333,-6
6.34167,-6
6.35000,-6
6.35833,-6
6.36667,-6
6.37500,-6
6.38333,-6
6.39167,-6
6.40000,-6
6.40833,-6
6.41667,-6
6.42500,-6
6.43333,-7
6.44167,-7
6.45000,-7
6.45833,-6
6.46667,-6
6.47500,-6
6.48333,-6
6.49167,-6
6.50000,-6
6.50833,-6
6.51667,-6
6.52500,-6
6.53333,-6
6.54167,-6
6.55000,-6
6.55833,-6
6.56667,-6
6.57500,-7
6.58333,-7
6.59167,-6
6.60000,-6
6.60833,-6
6.61667,-6
6.62500,-6
6.63333,-6
6.64167,-6
6.65000,-7
6.65833,-6
6.66667,-6
6.67500,-6
6.68333,-7
6.69167,-7
6.70000,-7
6.70833,-7
6.71667,-7
6.72500,-7
6.73333,-7
6.74167,-8
6.75000,-8
6.75833,-8
6.76667,-8
6.77500,-8
6.78333,-7
6.79167,-7
6.80000,-7
6.80833,-7
6.81667,-7
6.82500,-7
6.83333,-7
6.84167,-7
6.85000,-7
6.85833,-7
6.86667,-7
6.87500,-7
6.88333,-7
6.89167,-7
6.90000,-7
6.90833,-7
6.91667,-7
6.92500,-7
6.93333,-7
6.94167,-7
6.95000,-7
6.95833,-7
6.96667,-7
6.97500,-7
6.98333,-7
6.99167,-7
7.00000,-8
7.00833,-8
7.01667,-8
7.02500,-8
7.03333,-8
7.04167,-8
7.05000,-8
7.05833,-8
7.06667,-8
7.07500,-7
7.08333,-7
7.09167,-7
7.10000,-7
7.10833,-7
7.11667,-7
7.12500,-7
7.13333,-8
7.14167,-8
7.15000,-8
7.15833,-8
7.16667,-8
7.17500,-8
7.18333,-8
7.19167,-8
7.20000,-8
7.20833,-8
7.21667,-7
7.22500,-8
7.23333,-7
7.24167,-7
7.25000,-7
7.25833,-7
7.26667,-7
7.27500,-7
7.28333,-7
7.29167,-7
7.30000,-7
7.30833,-7
7.31667,-7
7.32500,-7
7.33333,-7
7.34167,-7
7.35000,-7
7.35833,-7
7.36667,-7
7.37500,-8
7.38333,-8
7.39167,-8
7.40000,-8
7.40833,-8
7.41667,-8
7.42500,-8
7.43333,-8
7.44167,-8
7.45000,-8
7.45833,-8
7.46667,-8
7.47500,-8
7.48333,-8
7.49167,-9
7.50000,-9
7.50833,-9
7.51667,-9
7.52500,-8
7.53333,-8
7.54167,-8
7.55000,-8
7.55833,-8
7.56667,-8
7.57500,-8
7.58333,-8
7.59167,-8
7.60000,-8
7.60833,-8
7.61667,-8
7.62500,-8
7.63333,-7
7.64167,-7
7.65000,-6
7.65833,-6
7.66667,-6
7.67500,-6
7.68333,-6
7.69167,-7
7.70000,-7
7.70833,-7
7.71667,-7
7.72500,-7
7.73333,-7
7.74167,-7
7.75000,-7
7.75833,-7
7.76667,-8
7.77500,-8
7.78333,-8
7.79167,-9
7.80000,-9
7.80833,-9
7.81667,-9
7.82500,-9
7.83333,-9
7.84167,-9
7.85000,-8
7.85833,-8
7.86667,-8
7.87500,-8
7.88333,-8
7.89167,-8
7.90000,-8
7.90833,-8
7.91667,-8
7.92500,-8
7.93333,-8
7.94167,-8
7.95000,-8
7.95833,-8
7.96667,-8
7.97500,-7
7.98333,-7
7.99167,-8
8.00000,-8
8.00833,-8
8.01667,-8
8.02500,-8
8.03333,-8
8.04167,-8
8.05000,-8
8.05833,-8
8.06667,-8
8.07500,-8
8.08333,-9
8.09167,-9
8.10000,-9
8.10833,-9
8.11667,-8
8.12500,-8
8.13333,-8
8.14167,-7
8.15000,-7
8.15833,-7
8.16667,-7
8.17500,-7
8.18333,-8
8.19167,-8
8.20000,-8
8.20833,-8
8.21667,-8
8.22500,-8
8.23333,-8
8.24167,-8
8.25000,-8
8.25833,-8
8.26667,-8
8.27500,-9
8.28333,-8
8.29167,-8
8.30000,-8
8.30833,-8
8.31667,-8
8.32500,-8
8.33333,-7
8.34167,-7
8.35000,-7
8.35833,-7
8.36667,-7
8.37500,-7
8.38333,-8
8.39167,-8
8.40000,-8
8.40833,-8
8.41667,-7
8.42500,-7
8.43333,-7
8.44167,-8
8.45000,-8
8.45833,-8
8.46667,-8
8.47500,-9
8.48333,-9
8.49167,-8
8.50000,-8
8.50833,-8
8.51667,-8
8.52500,-8
8.53333,-8
8.54167,-8
8.55000,-8
8.55833,-8
8.56667,-8
8.57500,-8
8.58333,-8
8.59167,-8
8.60000,-8
8.60833,-8
8.61667,-9
8.62500,-9
8.63333,-8
8.64167,-8
8.65000,-8
8.65833,-8
8.66667,-9
8.67500,-9
8.68333,-8
8.69167,-8
8.70000,-8
8.70833,-7
8.71667,-7
8.72500,-8
8.73333,-8
8.74167,-8
8.75000,-8
8.75833,-8
8.76667,-8
8.77500,-8
8.78333,-8
8.79167,-8
8.80000,-8
8.80833,-8
8.81667,-8
8.82500,-8
8.83333,-8
8.84167,-8
8.85000,-8
8.85833,-8
8.86667,-8
8.87500,-8
8.88333,-8
8.89167,-8
8.90000,-8
8.90833,-8
8.91667,-8
8.92500,-8
8.93333,-8
8.94167,-8
8.95000,-8
8.95833,-8
8.96667,-8
8.97500,-8
8.98333,-9
8.99167,-9
9.00000,-9
9.00833,-9
9.01667,-9
9.02500,-9
9.03333,-9
9.04167,-9
9.05000,-9
9.05833,-9
9.06667,-10
9.07500,-9
9.08333,-9
9.09167,-9
9.10000,-9
9.10833,-9
9.11667,-9
9.12500,-9
9.13333,-9
9.14167,-10
9.15000,-10
9.15833,-10
9.16667,-10
9.17500,-10
9.18333,-9
9.19167,-9
9.20000,-9
9.20833,-9
9.21667,-9
9.22500,-8
9.23333,-8
9.24167,-9
9.25000,-9
9.25833,-8
9.26667,-8
9.27500,-8
9.28333,-8
9.29167,-8
9.30000,-8
9.30833,-9
9.31667,-9
9.32500,-9
9.33333,-9
9.34167,-9
9.35000,-9
9.35833,-8
9.36667,-8
9.37500,-9
9.38333,-9
9.39167,-9
9.40000,-9
9.40833,-9
9.41667,-9
9.42500,-9
9.43333,-9
9.44167,-10
9.45000,-10
9.45833,-10
9.46667,-10
9.47500,-10
9.48333,-9
9.49167,-9
9.50000,-9
9.50833,-9
9.51667,-9
9.52500,-9
9.53333,-9
9.54167,-9
9.55000,-9
9.55833,-9
9.56667,-9
9.57500,-9
9.58333,-9
9.59167,-9
9.60000,-9
9.60833,-9
9.61667,-9
9.62500,-9
9.63333,-9
9.64167,-9
9.65000,-9
9.65833,-9
9.66667,-9
9.67500,-9
9.68333,-10
9.69167,-10
9.70000,-9
9.70833,-9
9.71667,-9
9.72500,-9
9.73333,-9
9.74167,-9
9.75000,-9
9.75833,-9
9.76667,-9
9.77500,-9
9.78333,-8
9.79167,-8
9.80000,-8
9.80833,-8
9.81667,-8
9.82500,-7
9.83333,-7
9.84167,-7
9.85000,-7
9.85833,-7
9.86667,-7
9.87500,-8
9.88333,-8
9.89167,-8
9.90000,-9
9.90833,-9
9.91667,-9
9.92500,-9
9.93333,-9
9.94167,-9
9.95000,-9
9.95833,-9
9.96667,-9
9.97500,-9
9.98333,-9
9.99167,-9
10.00000,-9
10.00833,-9
10.01667,-9
10.02500,-9
10.03333,-9
10.04167,-9
10.05000,-9
10.05833,-9
10.06667,-8
10.07500,-8
10.08333,-8
10.09167,-8
10.10000,-8
10.10833,-8
10.11667,-7
10.12500,-7
10.13333,-8
10.14167,-8
10.15000,-8
10.15833,-7
10.16667,-7
10.17500,-7
10.18333,-7
10.19167,-8
10.20000,-8
10.20833,-8
10.21667,-7
10.22500,-7
10.23333,-7
10.24167,-7
10.25000,-7
10.25833,-7
10.26667,-7
10.27500,-7
10.28333,-7
10.29167,-7
10.30000,-7
10.30833,-7
10.31667,-7
10.32500,-7
10.33333,-8
10.34167,-8
10.35000,-7
10.35833,-7
10.36667,-6
10.37500,-6
10.38333,-5
10.39167,-5
10.40000,-4
10.40833,-4
10.41667,-4
10.42500,-4
10.43333,-3
10.44167,-3
10.45000,-3
10.45833,-3
10.46667,-3
10.47500,-3
10.48333,-3
10.49167,-4
10.50000,-6
10.50833,-9
10.51667,-14
10.52500,-20
10.53333,-29
10.54167,-41
10.55000,-58
10.55833,-81
10.56667,-111
10.57500,-151
10.58333,-201
10.59167,-265
10.60000,-344
10.60833,-440
10.61667,-555
10.62500,-692
10.63333,-852
10.64167,-1035
10.65000,-1241
10.65833,-1468
10.66667,-1715
10.67500,-1978
10.68333,-2251
10.69167,-2528
10.70000,-2801
10.70833,-3059
10.71667,-3293
10.72500,-3491
10.73333,-3640
10.74167,-3726
10.75000,-3738
10.75833,-3660
10.76667,-3481
10.77500,-3186
10.78333,-2764
10.79167,-2206
10.80000,-1499
10.80833,-637
10.81667,388
10.82500,1582
10.83333,2949
10.84167,4491
10.85000,6210
10.85833,8105
10.86667,10174
10.87500,12415
10.88333,14822
10.89167,17388
10.90000,20106
10.90833,22965
10.91667,25952
10.92500,29052
10.93333,32248
10.94167,35517
10.95000,38836
10.95833,42175
10.96667,45500
10.97500,48774
10.98333,51954
10.99167,54992
11.00000,57836
11.00833,60434
11.01667,62732
11.02500,64675
11.03333,66217
11.04167,67315
11.05000,67936
11.05833,68061
11.06667,67681
11.07500,66804
11.08333,65452
11.09167,63657
11.10000,61467
11.10833,58935
11.11667,56123
11.12500,53095
11.13333,49916
11.14167,46647
11.15000,43347
11.15833,40068
11.16667,36855
11.17500,33746
11.18333,30769
11.19167,27947
11.20000,25297
11.20833,22826
11.21667,20539
11.22500,18435
11.23333,16512
11.24167,14762
11.25000,13176
11.25833,11746
11.26667,10461
11.27500,9311
11.28333,8283
11.29167,7367
11.30000,6553
11.30833,5832
11.31667,5192
11.32500,4627
11.33333,4128
11.34167,3687
11.35000,3298
11.35833,2956
11.36667,2654
11.37500,2388
11.38333,2154
11.39167,1948
11.40000,1766
11.40833,1606
11.41667,1464
11.42500,1339
11.43333,1229
11.44167,1131
11.45000,1043
11.45833,966
11.46667,896
11.47500,834
11.48333,779
11.49167,729
11.50000,684
11.50833,644
11.51667,607
11.52500,574
11.53333,543
11.54167,515
11.55000,490
11.55833,466
11.56667,445
11.57500,425
11.58333,407
11.59167,390
11.60000,374
11.60833,360
11.61667,346
11.62500,333
11.63333,320
11.64167,309
11.65000,298
11.65833,288
11.66667,279
11.67500,270
11.68333,262
11.69167,254
11.70000,247
11.70833,240
11.71667,234
11.72500,228
11.73333,222
11.74167,217
11.75000,212
11.75833,207
11.76667,203
11.77500,198
11.78333,194
11.79167,191
11.80000,187
11.80833,183
11.81667,180
11.82500,177
11.83333,175
11.84167,172
11.85000,170
11.85833,168
11.86667,167
11.87500,165
11.88333,164
11.89167,162
11.90000,161
11.90833,159
11.91667,158
11.92500,157
11.93333,156
11.94167,155
11.95000,154
11.95833,153
11.96667,152
11.97500,151
11.98333,151
11.99167,150
12.00000,149
12.00833,148
12.01667,147
12.02500,146
12.03333,145
12.04167,144
12.05000,143
12.05833,142
12.06667,141
12.07500,140
12.08333,139
12.09167,138
12.10000,138
12.10833,137
12.11667,136
12.12500,135
12.13333,134
12.14167,133
12.15000,132
12.15833,131
12.16667,130
12.17500,130
12.18333,129
12.19167,128
12.20000,127
12.20833,126
12.21667,125
12.22500,124
12.23333,123
12.24167,123
12.25000,122
12.25833,121
12.26667,120
12.27500,120
12.28333,119
12.29167,118
12.30000,117
12.30833,117
12.31667,116
12.32500,115
12.33333,114
12.34167,113
12.35000,113
12.35833,112
12.36667,111
12.37500,111
12.38333,110
12.39167,109
12.40000,109
12.40833,108
12.41667,107
12.42500,106
12.43333,106
12.44167,105
12.45000,105
12.45833,105
12.46667,104
12.47500,103
12.48333,103
12.49167,102
12.50000,101
12.50833,101
12.51667,100
12.52500,100
12.53333,99
12.54167,98
12.55000,98
12.55833,97
12.56667,97
12.57500,96
12.58333,96
12.59167,95
12.60000,95
12.60833,95
12.61667,94
12.62500,94
12.63333,93
12.64167,93
12.65000,92
12.65833,91
12.66667,90
12.67500,90
12.68333,89
12.69167,89
12.70000,88
12.70833,87
12.71667,87
12.72500,87
12.73333,86
12.74167,86
12.75000,85
12.75833,85
12.76667,85
12.77500,84
12.78333,84
12.79167,84
12.80000,84
12.80833,83
12.81667,83
12.82500,83
12.83333,83
12.84167,83
12.85000,83
12.85833,83
12.86667,82
12.87500,82
12.88333,82
12.89167,82
12.90000,83
12.90833,83
12.91667,83
12.92500,83
12.93333,83
12.94167,83
12.95000,84
12.95833,84
12.96667,83
12.97500,83
12.98333,83
12.99167,84
13.00000,84
13.00833,84
13.01667,84
13.02500,85
13.03333,85
13.04167,85
13.05000,85
13.05833,85
13.06667,85
13.07500,85
13.08333,85
13.09167,85
13.10000,85
13.10833,85
13.11667,85
13.12500,85
13.13333,84
13.14167,84
13.15000,84
13.15833,84
13.16667,83
13.17500,83
13.18333,83
13.19167,83
13.20000,82
13.20833,82
13.21667,82
13.22500,81
13.23333,81
13.24167,80
13.25000,80
13.25833,79
13.26667,78
13.27500,78
13.28333,77
13.29167,77
13.30000,76
13.30833,75
13.31667,75
13.32500,74
13.33333,73
13.34167,72
13.35000,71
13.35833,70
13.36667,69
13.37500,68
13.38333,67
13.39167,66
13.40000,65
13.40833,64
13.41667,63
13.42500,62
13.43333,61
13.44167,60
13.45000,59
13.45833,58
13.46667,57
13.47500,56
13.48333,55
13.49167,54
13.50000,53
13.50833,53
13.51667,52
13.52500,51
13.53333,50
13.54167,49
13.55000,49
13.55833,48
13.56667,48
13.57500,47
13.58333,46
13.59167,46
13.60000,45
13.60833,45
13.61667,44
13.62500,43
13.63333,43
13.64167,43
13.65000,43
13.65833,42
13.66667,42
13.67500,43
13.68333,43
13.69167,43
13.70000,43
13.70833,43
13.71667,42
13.72500,43
13.73333,43
13.74167,42
13.75000,42
13.75833,42
13.76667,42
13.77500,42
13.78333,43
13.79167,43
13.80000,43
13.80833,44
13.81667,44
13.82500,44
13.83333,45
13.84167,45
13.85000,45
13.85833,45
13.86667,46
13.87500,46
13.88333,46
13.89167,47
13.90000,47
13.90833,47
13.91667,48
13.92500,48
13.93333,49
13.94167,49
13.95000,50
13.95833,50
13.96667,51
13.97500,52
13.98333,52
13.99167,53
14.00000,53
14.00833,54
14.01667,55
14.02500,56
14.03333,57
14.04167,58
14.05000,59
14.05833,59
14.06667,60
14.07500,61
14.08333,62
14.09167,63
14.10000,64
14.10833,65
14.11667,66
14.12500,68
14.13333,70
14.14167,71
14.15000,74
14.15833,76
14.16667,79
14.17500,82
14.18333,86
14.19167,91
14.20000,97
14.20833,103
14.21667,112
14.22500,121
14.23333,133
14.24167,148
14.25000,166
14.25833,186
14.26667,211
14.27500,241
14.28333,278
14.29167,321
14.30000,372
14.30833,432
14.31667,503
14.32500,586
14.33333,683
14.34167,794
14.35000,922
14.35833,1068
14.36667,1234
14.37500,1422
14.38333,1634
14.39167,1870
14.40000,2134
14.40833,2425
14.41667,2747
14.42500,3100
14.43333,3486
14.44167,3906
14.45000,4360
14.45833,4849
14.46667,5374
14.47500,5936
14.48333,6534
14.49167,7170
14.50000,7843
14.50833,8554
14.51667,9301
14.52500,10086
14.53333,10907
14.54167,11764
14.55000,12658
14.55833,13587
14.56667,14550
14.57500,15548
14.58333,16580
14.59167,17644
14.60000,18741
14.60833,19870
14.61667,21029
14.62500,22220
14.63333,23440
14.64167,24690
14.65000,25969
14.65833,27276
14.66667,28611
14.67500,29974
14.68333,31363
14.69167,32779
14.70000,34221
14.70833,35689
14.71667,37181
14.72500,38699
14.73333,40242
14.74167,41808
14.75000,43399
14.75833,45014
14.76667,46653
14.77500,48314
14.78333,49999
14.79167,51707
14.80000,53437
14.80833,55190
14.81667,56965
14.82500,58763
14.83333,60582
14.84167,62422
14.85000,64284
14.85833,66168
14.86667,68073
14.87500,69999
14.88333,71946
14.89167,73912
14.90000,75898
14.90833,77903
14.91667,79926
14.92500,81967
14.93333,84025
14.94167,86100
14.95000,88190
14.95833,90293
14.96667,92408
14.97500,94532
14.98333,96663
14.99167,98796
15.00000,100926
15.00833,103047
15.01667,105146
15.02500,107210
15.03333,109218
15.04167,111144
15.05000,112956
15.05833,114613
15.06667,116067
15.07500,117264
15.08333,118143
15.09167,118644
15.10000,118707
15.10833,118276
15.11667,117305
15.12500,115762
15.13333,113629
15.14167,110909
15.15000,107623
15.15833,103814
15.16667,99538
15.17500,94870
15.18333,89894
15.19167,84700
15.20000,79382
15.20833,74030
15.21667,68728
15.22500,63553
15.23333,58570
15.24167,53833
15.25000,49383
15.25833,45248
15.26667,41447
15.27500,37988
15.28333,34871
15.29167,32090
15.30000,29635
15.30833,27492
15.31667,25643
15.32500,24070
15.33333,22757
15.34167,21685
15.35000,20837
15.35833,20197
15.36667,19751
15.37500,19482
15.38333,19380
15.39167,19431
15.40000,19623
15.40833,19946
15.41667,20388
15.42500,20940
15.43333,21591
15.44167,22330
15.45000,23147
15.45833,24032
15.46667,24973
15.47500,25960
15.48333,26981
15.49167,28026
15.50000,29082
15.50833,30139
15.51667,31185
15.52500,32210
15.53333,33201
15.54167,34149
15.55000,35044
15.55833,35876
15.56667,36637
15.57500,37319
15.58333,37916
15.59167,38421
15.60000,38830
15.60833,39139
15.61667,39345
15.62500,39446
15.63333,39442
15.64167,39334
15.65000,39124
15.65833,38812
15.66667,38404
15.67500,37903
15.68333,37314
15.69167,36643
15.70000,35895
15.70833,35078
15.71667,34198
15.72500,33262
15.73333,32278
15.74167,31252
15.75000,30192
15.75833,29106
15.76667,27999
15.77500,26879
15.78333,25752
15.79167,24624
15.80000,23500
15.80833,22385
15.81667,21286
15.82500,20205
15.83333,19146
15.84167,18114
15.85000,17110
15.85833,16139
15.86667,15200
15.87500,14295
15.88333,13427
15.89167,12596
15.90000,11802
15.90833,11047
15.91667,10329
15.92500,9649
15.93333,9006
15.94167,8400
15.95000,7829
15.95833,7292
15.96667,6789
15.97500,6318
15.98333,5878
15.99167,5467
16.00000,5084
16.00833,4728
16.01667,4398
16.02500,4091
16.03333,3807
16.04167,3545
16.05000,3302
16.05833,3078
16.06667,2871
16.07500,2680
16.08333,2505
16.09167,2343
16.10000,2195
16.10833,2058
16.11667,1933
16.12500,1818
16.13333,1712
16.14167,1615
16.15000,1526
16.15833,1444
16.16667,1369
16.17500,1301
16.18333,1238
16.19167,1180
16.20000,1127
16.20833,1077
16.21667,1032
16.22500,991
16.23333,952
16.24167,917
16.25000,884
16.25833,853
16.26667,825
16.27500,799
16.28333,775
16.29167,752
16.30000,732
16.30833,712
16.31667,694
16.32500,677
16.33333,661
16.34167,646
16.35000,633
16.35833,620
16.36667,607
16.37500,596
16.38333,585
16.39167,574
16.40000,564
16.40833,555
16.41667,546
16.42500,537
16.43333,529
16.44167,521
16.45000,514
16.45833,507
16.46667,500
16.47500,494
16.48333,487
16.49167,481
16.50000,475
16.50833,470
16.51667,465
16.52500,459
16.53333,454
16.54167,450
16.55000,445
16.55833,440
16.56667,436
16.57500,432
16.58333,427
16.59167,423
16.60000,420
16.60833,416
16.61667,412
16.62500,408
16.63333,404
16.64167,400
16.65000,397
16.65833,393
16.66667,390
16.67500,387
16.68333,384
16.69167,381
16.70000,378
16.70833,375
16.71667,373
16.72500,370
16.73333,367
16.74167,364
16.75000,361
16.75833,358
16.76667,355
16.77500,352
16.78333,350
16.79167,347
16.80000,345
16.80833,342
16.81667,340
16.82500,338
16.83333,335
16.84167,333
16.85000,330
16.85833,328
16.86667,325
16.87500,323
16.88333,321
16.89167,319
16.90000,316
16.90833,314
16.91667,312
16.92500,310
16.93333,307
16.94167,305
16.95000,303
16.95833,302
16.96667,300
16.97500,298
16.98333,296
16.99167,294
17.00000,291
17.00833,289
17.01667,287
17.02500,285
17.03333,283
17.04167,281
17.05000,279
17.05833,278
17.06667,276
17.07500,275
17.08333,273
17.09167,271
17.10000,270
17.10833,268
17.11667,266
17.12500,264
17.13333,262
17.14167,260
17.15000,258
17.15833,256
17.16667,255
17.17500,253
17.18333,252
17.19167,250
17.20000,248
17.20833,247
17.21667,245
17.22500,244
17.23333,242
17.24167,240
17.25000,239
17.25833,237
17.26667,236
17.27500,234
17.28333,233
17.29167,231
17.30000,230
17.30833,228
17.31667,227
17.32500,225
17.33333,223
17.34167,222
17.35000,220
17.35833,219
17.36667,218
17.37500,216
17.38333,215
17.39167,213
17.40000,212
17.40833,211
17.41667,209
17.42500,208
17.43333,207
17.44167,206
17.45000,205
17.45833,204
17.46667,202
17.47500,201
17.48333,199
17.49167,198
17.50000,197
17.50833,196
17.51667,194
17.52500,193
17.53333,191
17.54167,190
17.55000,189
17.55833,188
17.56667,186
17.57500,185
17.58333,184
17.59167,183
17.60000,182
17.60833,181
17.61667,179
17.62500,179
17.63333,178
17.64167,177
17.65000,176
17.65833,175
17.66667,174
17.67500,173
17.68333,172
17.69167,171
17.70000,170
17.70833,170
17.71667,169
17.72500,168
17.73333,167
17.74167,166
17.75000,164
17.75833,163
17.76667,162
17.77500,161
17.78333,160
17.79167,159
17.80000,158
17.80833,158
17.81667,157
17.82500,157
17.83333,156
17.84167,155
17.85000,154
17.85833,152
17.86667,151
17.87500,150
17.88333,149
17.89167,148
17.90000,147
17.90833,147
17.91667,146
17.92500,145
17.93333,144
17.94167,143
17.95000,142
17.95833,142
17.96667,141
17.97500,140
17.98333,139
17.99167,139
18.00000,138
18.00833,137
18.01667,136
18.02500,136
18.03333,135
18.04167,135
18.05000,134
18.05833,133
18.06667,132
18.07500,131
18.08333,130
18.09167,129
18.10000,128
18.10833,128
18.11667,127
18.12500,125
18.13333,125
18.14167,124
18.15000,124
18.15833,123
18.16667,123
18.17500,122
18.18333,121
18.19167,120
18.20000,119
18.20833,119
18.21667,118
18.22500,118
18.23333,117
18.24167,116
18.25000,116
18.25833,115
18.26667,114
18.27500,113
18.28333,112
18.29167,111
18.30000,110
18.30833,110
18.31667,109
18.32500,109
18.33333,108
18.34167,108
18.35000,107
18.35833,106
18.36667,106
18.37500,105
18.38333,104
18.39167,104
18.40000,103
18.40833,102
18.41667,101
18.42500,101
18.43333,100
18.44167,100
18.45000,99
18.45833,98
18.46667,98
18.47500,97
18.48333,97
18.49167,96
18.50000,96
18.50833,95
18.51667,95
18.52500,94
18.53333,94
18.54167,94
18.55000,94
18.55833,94
18.56667,93
18.57500,93
18.58333,92
18.59167,92
18.60000,92
18.60833,92
18.61667,92
18.62500,91
18.63333,91
18.64167,91
18.65000,91
18.65833,91
18.66667,91
18.67500,91
18.68333,91
18.69167,92
18.70000,92
18.70833,93
18.71667,94
18.72500,95
18.73333,96
18.74167,97
18.75000,98
18.75833,99
18.76667,100
18.77500,101
18.78333,103
18.79167,104
18.80000,106
18.80833,108
18.81667,110
18.82500,111
18.83333,113
18.84167,115
18.85000,116
18.85833,118
18.86667,120
18.87500,121
18.88333,123
18.89167,124
18.90000,125
18.90833,126
18.91667,127
18.92500,128
18.93333,129
18.94167,129
18.95000,130
18.95833,131
18.96667,131
18.97500,131
18.98333,131
18.99167,131
19.00000,130
19.00833,129
19.01667,129
19.02500,128
19.03333,127
19.04167,126
19.05000,124
19.05833,123
19.06667,121
19.07500,119
19.08333,118
19.09167,115
19.10000,113
19.10833,111
19.11667,109
19.12500,107
19.13333,105
19.14167,102
19.15000,100
19.15833,98
19.16667,96
19.17500,94
19.18333,92
19.19167,90
19.20000,88
19.20833,87
19.21667,85
19.22500,83
19.23333,81
19.24167,78
19.25000,77
19.25833,75
19.26667,73
19.27500,71
19.28333,70
19.29167,69
19.30000,67
19.30833,67
19.31667,66
19.32500,64
19.33333,63
19.34167,63
19.35000,62
19.35833,60
19.36667,59
19.37500,58
19.38333,58
19.39167,57
19.40000,57
19.40833,56
19.41667,56
19.42500,55
19.43333,54
19.44167,54
19.45000,53
19.45833,53
19.46667,52
19.47500,52
19.48333,51
19.49167,50
19.50000,50
19.50833,49
19.51667,49
19.52500,49
19.53333,49
19.54167,48
19.55000,48
19.55833,48
19.56667,47
19.57500,47
19.58333,46
19.59167,46
19.60000,46
19.60833,46
19.61667,45
19.62500,44
19.63333,44
19.64167,44
19.65000,44
19.65833,44
19.66667,43
19.67500,43
19.68333,43
19.69167,42
19.70000,42
19.70833,42
19.71667,41
19.72500,41
19.73333,40
19.74167,40
19.75000,39
19.75833,39
19.76667,38
19.77500,38
19.78333,38
19.79167,38
19.80000,38
19.80833,38
19.81667,37
19.82500,37
19.83333,37
19.84167,36
19.85000,36
19.85833,36
19.86667,36
19.87500,36
19.88333,35
19.89167,35
19.90000,35
19.90833,34
19.91667,34
19.92500,34
19.93333,34
19.94167,34
19.95000,34
19.95833,34
19.96667,34
19.97500,34
19.98333,34
19.99167,34
20.00000,33
20.00833,33
20.01667,32
20.02500,32
20.03333,32
20.04167,31
20.05000,31
20.05833,31
20.06667,30
20.07500,30
20.08333,30
20.09167,29
20.10000,29
20.10833,28
20.11667,28
20.12500,28
20.13333,27
20.14167,27
20.15000,27
20.15833,27
20.16667,27
20.17500,27
20.18333,27
20.19167,27
20.20000,26
20.20833,26
20.21667,26
20.22500,26
20.23333,26
20.24167,25
20.25000,24
20.25833,24
20.26667,24
20.27500,24
20.28333,24
20.29167,24
20.30000,24
20.30833,24
20.31667,23
20.32500,23
20.33333,23
20.34167,23
20.35000,23
20.35833,23
20.36667,23
20.37500,23
20.38333,23
20.39167,23
20.40000,22
20.40833,22
20.41667,22
20.42500,21
20.43333,21
20.44167,21
20.45000,21
20.45833,21
20.46667,21
20.47500,20
20.48333,20
20.49167,20
20.50000,20
20.50833,20
20.51667,20
20.52500,20
20.53333,20
20.54167,20
20.55000,20
20.55833,20
20.56667,19
20.57500,19
20.58333,19
20.59167,19
20.60000,19
20.60833,18
20.61667,18
20.62500,18
20.63333,18
20.64167,18
20.65000,18
20.65833,18
20.66667,18
20.67500,18
20.68333,18
20.69167,17
20.70000,17
20.70833,16
20.71667,16
20.72500,16
20.73333,16
20.74167,16
20.75000,15
20.75833,15
20.76667,15
20.77500,14
20.78333,14
20.79167,14
20.80000,14
20.80833,14
20.81667,14
20.82500,14
20.83333,14
20.84167,15
20.85000,14
20.85833,14
20.86667,14
20.87500,14
20.88333,14
20.89167,14
20.90000,14
20.90833,14
20.91667,13
20.92500,13
20.93333,13
20.94167,13
20.95000,13
20.95833,14
20.96667,14
20.97500,14
20.98333,13
20.99167,13
21.00000,12
21.00833,12
21.01667,12
21.02500,12
21.03333,12
21.04167,12
21.05000,12
21.05833,12
21.06667,11
21.07500,12
21.08333,12
21.09167,12
21.10000,12
21.10833,11
21.11667,11
21.12500,11
21.13333,10
21.14167,10
21.15000,10
21.15833,10
21.16667,10
21.17500,10
21.18333,9
21.19167,10
21.20000,10
21.20833,10
21.21667,10
21.22500,9
21.23333,9
21.24167,9
21.25000,9
21.25833,9
21.26667,9
21.27500,9
21.28333,9
21.29167,9
21.30000,9
21.30833,9
21.31667,9
21.32500,9
21.33333,8
21.34167,8
21.35000,8
21.35833,8
21.36667,8
21.37500,8
21.38333,8
21.39167,8
21.40000,9
21.40833,8
21.41667,8
21.42500,8
21.43333,8
21.44167,8
21.45000,8
21.45833,8
21.46667,8
21.47500,8
21.48333,8
21.49167,7
21.50000,7
21.50833,7
21.51667,7
21.52500,7
21.53333,7
21.54167,7
21.55000,7
21.55833,7
21.56667,7
21.57500,7
21.58333,6
21.59167,6
21.60000,6
21.60833,6
21.61667,5
21.62500,5
21.63333,5
21.64167,6
21.65000,6
21.65833,6
21.66667,6
21.67500,6
21.68333,6
21.69167,7
21.70000,7
21.70833,6
21.71667,6
21.72500,7
21.73333,7
21.74167,7
21.75000,7
21.75833,7
21.76667,7
21.77500,7
21.78333,7
21.79167,7
21.80000,7
21.80833,7
21.81667,8
21.82500,7
21.83333,7
21.84167,7
21.85000,7
21.85833,7
21.86667,6
21.87500,6
21.88333,6
21.89167,6
21.90000,6
21.90833,6
21.91667,6
21.92500,6
21.93333,6
21.94167,7
21.95000,7
21.95833,6
21.96667,6
21.97500,6
21.98333,6
21.99167,6
22.00000,6
22.00833,6
22.01667,6
22.02500,6
22.03333,6
22.04167,6
22.05000,5
22.05833,5
22.06667,6
22.07500,6
22.08333,6
22.09167,6
22.10000,5
22.10833,4
22.11667,4
22.12500,4
22.13333,4
22.14167,4
22.15000,4
22.15833,4
22.16667,4
22.17500,4
22.18333,4
22.19167,4
22.20000,3
22.20833,3
22.21667,3
22.22500,3
22.23333,3
22.24167,3
22.25000,2
22.25833,2
22.26667,2
22.27500,2
22.28333,2
22.29167,2
22.30000,2
22.30833,1
22.31667,1
22.32500,1
22.33333,1
22.34167,2
22.35000,1
22.35833,1
22.36667,2
22.37500,1
22.38333,1
22.39167,1
22.40000,1
22.40833,0
22.41667,0
22.42500,-0
22.43333,-0
22.44167,-0
22.45000,-0
22.45833,-0
22.46667,-1
22.47500,-1
22.48333,-1
22.49167,-1
22.50000,-1
22.50833,-1
22.51667,-1
22.52500,-1
22.53333,-1
22.54167,-1
22.55000,-1
22.55833,-1
22.56667,-0
22.57500,0
22.58333,-0
22.59167,-0
22.60000,-0
22.60833,-0
22.61667,-0
22.62500,-0
22.63333,-0
22.64167,-0
22.65000,-1
22.65833,-0
22.66667,-0
22.67500,-1
22.68333,-1
22.69167,-1
22.70000,-1
22.70833,-1
22.71667,-1
22.72500,-1
22.73333,-1
22.74167,-0
22.75000,-0
22.75833,-1
22.76667,-1
22.77500,-1
22.78333,-0
22.79167,-0
22.80000,-0
22.80833,-0
22.81667,-0
22.82500,-0
22.83333,0
22.84167,1
22.85000,1
22.85833,1
22.86667,1
22.87500,1
22.88333,1
22.89167,1
22.90000,2
22.90833,2
22.91667,3
22.92500,4
22.93333,4
22.94167,5
22.95000,6
22.95833,6
22.96667,6
22.97500,7
22.98333,7
22.99167,8
23.00000,8
23.00833,9
23.01667,9
23.02500,10
23.03333,11
23.04167,11
23.05000,12
23.05833,13
23.06667,13
23.07500,14
23.08333,15
23.09167,16
23.10000,17
23.10833,17
23.11667,18
23.12500,18
23.13333,19
23.14167,19
23.15000,20
23.15833,21
23.16667,21
23.17500,22
23.18333,22
23.19167,22
23.20000,22
23.20833,22
23.21667,22
23.22500,22
23.23333,22
23.24167,22
23.25000,22
23.25833,22
23.26667,22
23.27500,22
23.28333,21
23.29167,21
23.30000,21
23.30833,20
23.31667,20
23.32500,19
23.33333,18
23.34167,17
23.35000,17
23.35833,16
23.36667,15
23.37500,15
23.38333,15
23.39167,14
23.40000,13
23.40833,12
23.41667,11
23.42500,10
23.43333,9
23.44167,8
23.45000,7
23.45833,7
23.46667,6
23.47500,6
23.48333,5
23.49167,5
23.50000,4
23.50833,3
23.51667,3
23.52500,2
23.53333,2
23.54167,2
23.55000,1
23.55833,1
23.56667,-0
23.57500,-1
23.58333,-1
23.59167,-2
23.60000,-2
23.60833,-3
23.61667,-3
23.62500,-3
23.63333,-3
23.64167,-4
23.65000,-4
23.65833,-4
23.66667,-4
23.67500,-3
23.68333,-3
23.69167,-4
23.70000,-4
23.70833,-4
23.71667,-5
23.72500,-5
23.73333,-5
23.74167,-5
23.75000,-6
23.75833,-6
23.76667,-6
23.77500,-6
23.78333,-6
23.79167,-7
23.80000,-6
23.80833,-6
23.81667,-6
23.82500,-7
23.83333,-7
23.84167,-7
23.85000,-7
23.85833,-7
23.86667,-7
23.87500,-7
23.88333,-7
23.89167,-7
23.90000,-7
23.90833,-7
23.91667,-7
23.92500,-7
23.93333,-7
23.94167,-7
23.95000,-7
23.95833,-7
23.96667,-7
23.97500,-8
23.98333,-8
23.99167,-8
24.00000,-8
24.00833,-8
24.01667,-8
24.02500,-9
24.03333,-8
24.04167,-8
24.05000,-8
24.05833,-8
24.06667,-8
24.07500,-8
24.08333,-8
24.09167,-8
24.10000,-8
24.10833,-8
24.11667,-8
24.12500,-9
24.13333,-9
24.14167,-9
24.15000,-9
24.15833,-9
24.16667,-9
24.17500,-9
24.18333,-9
24.19167,-9
24.20000,-9
24.20833,-9
24.21667,-9
24.22500,-9
24.23333,-9
24.24167,-9
24.25000,-9
24.25833,-9
24.26667,-9
24.27500,-9
24.28333,-8
24.29167,-8
24.30000,-8
24.30833,-8
24.31667,-8
24.32500,-8
24.33333,-8
24.34167,-8
24.35000,-8
24.35833,-8
24.36667,-8
24.37500,-8
24.38333,-8
24.39167,-8
24.40000,-8
24.40833,-8
24.41667,-7
24.42500,-7
24.43333,-7
24.44167,-7
24.45000,-7
24.45833,-7
24.46667,-7
24.47500,-7
24.48333,-6
24.49167,-6
24.50000,-6
24.50833,-5
24.51667,-5
24.52500,-4
24.53333,-4
24.54167,-3
24.55000,-2
24.55833,-2
24.56667,-1
24.57500,-0
24.58333,1
24.59167,2
24.60000,3
24.60833,4
24.61667,5
24.62500,7
24.63333,9
24.64167,11
24.65000,13
24.65833,15
24.66667,17
24.67500,19
24.68333,21
24.69167,23
24.70000,26
24.70833,29
24.71667,32
24.72500,35
24.73333,39
24.74167,43
24.75000,47
24.75833,51
24.76667,55
24.77500,59
24.78333,63
24.79167,68
24.80000,73
24.80833,78
24.81667,83
24.82500,87
24.83333,92
24.84167,98
24.85000,103
24.85833,109
24.86667,114
24.87500,119
24.88333,124
24.89167,130
24.90000,135
24.90833,140
24.91667,145
24.92500,150
24.93333,154
24.94167,158
24.95000,162
24.95833,166
24.96667,170
24.97500,174
24.98333,177
24.99167,180
25.00000,182
25.00833,184
25.01667,186
25.02500,187
25.03333,187
25.04167,188
25.05000,188
25.05833,188
25.06667,187
25.07500,186
25.08333,184
25.09167,182
25.10000,180
25.10833,178
25.11667,176
25.12500,173
25.13333,170
25.14167,167
25.15000,163
25.15833,159
25.16667,155
25.17500,150
25.18333,146
25.19167,141
25.20000,136
25.20833,132
25.21667,127
25.22500,122
25.23333,117
25.24167,112
25.25000,107
25.25833,102
25.26667,97
25.27500,93
25.28333,88
25.29167,84
25.30000,80
25.30833,75
25.31667,71
25.32500,66
25.33333,62
25.34167,58
25.35000,54
25.35833,50
25.36667,47
25.37500,43
25.38333,40
25.39167,37
25.40000,34
25.40833,32
25.41667,29
25.42500,26
25.43333,24
25.44167,21
25.45000,19
25.45833,17
25.46667,15
25.47500,14
25.48333,12
25.49167,11
25.50000,9
25.50833,8
25.51667,6
25.52500,5
25.53333,4
25.54167,3
25.55000,2
25.55833,2
25.56667,1
25.57500,-0
25.58333,-1
25.59167,-2
25.60000,-2
25.60833,-3
25.61667,-3
25.62500,-3
25.63333,-3
25.64167,-4
25.65000,-4
25.65833,-4
25.66667,-5
25.67500,-5
25.68333,-5
25.69167,-5
25.70000,-5
25.70833,-5
25.71667,-6
25.72500,-6
25.73333,-6
25.74167,-7
25.75000,-7
25.75833,-7
25.76667,-8
25.77500,-7
25.78333,-7
25.79167,-7
25.80000,-7
25.80833,-7
25.81667,-6
25.82500,-6
25.83333,-7
25.84167,-7
25.85000,-7
25.85833,-8
25.86667,-8
25.87500,-8
25.88333,-8
25.89167,-8
25.90000,-8
25.90833,-8
25.91667,-8
25.92500,-9
25.93333,-9
25.94167,-9
25.95000,-9
25.95833,-8
25.96667,-8
25.97500,-8
25.98333,-8
25.99167,-8
26.00000,-8
26.00833,-8
26.01667,-8
26.02500,-8
26.03333,-8
26.04167,-9
26.05000,-9
26.05833,-9
26.06667,-9
26.07500,-9
26.08333,-9
26.09167,-8
26.10000,-8
26.10833,-9
26.11667,-9
26.12500,-9
26.13333,-9
26.14167,-9
26.15000,-9
26.15833,-8
26.16667,-8
26.17500,-8
26.18333,-8
26.19167,-8
26.20000,-8
26.20833,-8
26.21667,-8
26.22500,-8
26.23333,-8
26.24167,-8
26.25000,-8
26.25833,-7
26.26667,-7
26.27500,-7
26.28333,-7
26.29167,-8
26.30000,-8
26.30833,-8
26.31667,-8
26.32500,-8
26.33333,-8
26.34167,-9
26.35000,-9
26.35833,-9
26.36667,-9
26.37500,-8
26.38333,-8
26.39167,-8
26.40000,-8
26.40833,-8
26.41667,-8
26.42500,-8
26.43333,-8
26.44167,-7
26.45000,-7
26.45833,-7
26.46667,-7
26.47500,-8
26.48333,-8
26.49167,-8
26.50000,-8
26.50833,-9
26.51667,-9
26.52500,-9
26.53333,-9
26.54167,-9
26.55000,-9
26.55833,-8
26.56667,-8
26.57500,-8
26.58333,-8
26.59167,-8
26.60000,-7
26.60833,-7
26.61667,-7
26.62500,-7
26.63333,-7
26.64167,-8
26.65000,-8
26.65833,-8
26.66667,-7
26.67500,-7
26.68333,-8
26.69167,-8
26.70000,-7
26.70833,-7
26.71667,-7
26.72500,-7
26.73333,-7
26.74167,-8
26.75000,-8
26.75833,-8
26.76667,-8
26.77500,-8
26.78333,-8
26.79167,-8
26.80000,-7
26.80833,-7
26.81667,-7
26.82500,-8
26.83333,-8
26.84167,-8
26.85000,-8
26.85833,-8
26.86667,-7
26.87500,-7
26.88333,-7
26.89167,-7
26.90000,-7
26.90833,-7
26.91667,-7
26.92500,-7
26.93333,-7
26.94167,-7
26.95000,-6
26.95833,-7
26.96667,-7
26.97500,-7
26.98333,-7
26.99167,-7
27.00000,-7
27.00833,-7
27.01667,-7
27.02500,-7
27.03333,-7
27.04167,-7
27.05000,-7
27.05833,-7
27.06667,-7
27.07500,-7
27.08333,-7
27.09167,-7
27.10000,-7
27.10833,-7
27.11667,-7
27.12500,-7
27.13333,-7
27.14167,-7
27.15000,-6
27.15833,-6
27.16667,-6
27.17500,-6
27.18333,-6
27.19167,-6
27.20000,-6
27.20833,-6
27.21667,-6
27.22500,-6
27.23333,-6
27.24167,-6
27.25000,-6
27.25833,-6
27.26667,-5
27.27500,-5
27.28333,-5
27.29167,-5
27.30000,-5
27.30833,-5
27.31667,-5
27.32500,-5
27.33333,-5
27.34167,-5
27.35000,-6
27.35833,-6
27.36667,-6
27.37500,-6
27.38333,-5
27.39167,-5
27.40000,-5
27.40833,-5
27.41667,-4
27.42500,-4
27.43333,-5
27.44167,-5
27.45000,-5
27.45833,-5
27.46667,-5
27.47500,-5
27.48333,-5
27.49167,-5
27.50000,-5
27.50833,-5
27.51667,-5
27.52500,-5
27.53333,-5
27.54167,-5
27.55000,-5
27.55833,-5
27.56667,-5
27.57500,-5
27.58333,-5
27.59167,-5
27.60000,-5
27.60833,-5
27.61667,-5
27.62500,-5
27.63333,-5
27.64167,-5
27.65000,-5
27.65833,-5
27.66667,-5
27.67500,-5
27.68333,-5
27.69167,-6
27.70000,-6
27.70833,-6
27.71667,-6
27.72500,-6
27.73333,-7
27.74167,-7
27.75000,-7
27.75833,-7
27.76667,-6
27.77500,-6
27.78333,-7
27.79167,-6
27.80000,-6
27.80833,-6
27.81667,-7
27.82500,-7
27.83333,-7
27.84167,-8
27.85000,-8
27.85833,-8
27.86667,-9
27.87500,-9
27.88333,-10
27.89167,-11
27.90000,-11
27.90833,-13
27.91667,-14
27.92500,-14
27.93333,-15
27.94167,-16
27.95000,-17
27.95833,-18
27.96667,-19
27.97500,-20
27.98333,-22
27.99167,-22
28.00000,-23
28.00833,-24
28.01667,-26
28.02500,-27
28.03333,-28
28.04167,-30
28.05000,-32
28.05833,-34
28.06667,-36
28.07500,-38
28.08333,-40
28.09167,-43
28.10000,-45
28.10833,-47
28.11667,-49
28.12500,-52
28.13333,-54
28.14167,-57
28.15000,-60
28.15833,-63
28.16667,-66
28.17500,-69
28.18333,-72
28.19167,-75
28.20000,-78
28.20833,-81
28.21667,-84
28.22500,-88
28.23333,-91
28.24167,-94
28.25000,-98
28.25833,-101
28.26667,-104
28.27500,-107
28.28333,-110
28.29167,-113
28.30000,-116
28.30833,-119
28.31667,-121
28.32500,-124
28.33333,-127
28.34167,-130
28.35000,-132
28.35833,-135
28.36667,-137
28.37500,-140
28.38333,-142
28.39167,-144
28.40000,-146
28.40833,-148
28.41667,-150
28.42500,-152
28.43333,-153
28.44167,-154
28.45000,-156
28.45833,-157
28.46667,-157
28.47500,-158
28.48333,-158
28.49167,-158
28.50000,-158
28.50833,-157
28.51667,-157
28.52500,-156
28.53333,-155
28.54167,-154
28.55000,-153
28.55833,-152
28.56667,-151
28.57500,-150
28.58333,-148
28.59167,-147
28.60000,-145
28.60833,-143
28.61667,-141
28.62500,-139
28.63333,-137
28.64167,-134
28.65000,-132
28.65833,-129
28.66667,-126
28.67500,-124
28.68333,-121
28.69167,-119
28.70000,-116
28.70833,-113
28.71667,-110
28.72500,-107
28.73333,-105
28.74167,-102
28.75000,-99
28.75833,-97
28.76667,-94
28.77500,-91
28.78333,-88
28.79167,-86
28.80000,-83
28.80833,-80
28.81667,-78
28.82500,-76
28.83333,-74
28.84167,-71
28.85000,-69
28.85833,-67
28.86667,-65
28.87500,-63
28.88333,-61
28.89167,-59
28.90000,-57
28.90833,-54
28.91667,-52
28.92500,-50
28.93333,-48
28.94167,-47
28.95000,-45
28.95833,-44
28.96667,-42
28.97500,-41
28.98333,-40
28.99167,-38
29.00000,-38
29.00833,-37
29.01667,-36
29.02500,-34
29.03333,-33
29.04167,-32
29.05000,-31
29.05833,-30
29.06667,-29
29.07500,-29
29.08333,-28
29.09167,-27
29.10000,-27
29.10833,-26
29.11667,-25
29.12500,-24
29.13333,-23
29.14167,-23
29.15000,-22
29.15833,-22
29.16667,-22
29.17500,-22
29.18333,-21
29.19167,-21
29.20000,-21
29.20833,-20
29.21667,-20
29.22500,-20
29.23333,-20
29.24167,-19
29.25000,-19
29.25833,-19
29.26667,-18
29.27500,-18
29.28333,-18
29.29167,-18
29.30000,-18
29.30833,-17
29.31667,-17
29.32500,-17
29.33333,-16
29.34167,-16
29.35000,-16
29.35833,-16
29.36667,-17
29.37500,-17
29.38333,-17
29.39167,-17
29.40000,-16
29.40833,-16
29.41667,-16
29.42500,-17
29.43333,-17
29.44167,-17
29.45000,-17
29.45833,-17
29.46667,-17
29.47500,-17
29.48333,-17
29.49167,-17
29.50000,-17
29.50833,-17
29.51667,-17
29.52500,-18
29.53333,-18
29.54167,-18
29.55000,-18
29.55833,-18
29.56667,-18
29.57500,-18
29.58333,-18
29.59167,-18
29.60000,-19
29.60833,-19
29.61667,-20
29.62500,-20
29.63333,-21
29.64167,-22
29.65000,-22
29.65833,-21
29.66667,-21
29.67500,-21
29.68333,-21
29.69167,-22
29.70000,-22
29.70833,-23
29.71667,-24
29.72500,-24
29.73333,-25
29.74167,-25
29.75000,-26
29.75833,-27
29.76667,-27
29.77500,-28
29.78333,-29
29.79167,-29
29.80000,-30
29.80833,-31
29.81667,-32
29.82500,-33
29.83333,-34
29.84167,-35
29.85000,-36
29.85833,-37
29.86667,-37
29.87500,-38
29.88333,-39
29.89167,-40
29.90000,-41
29.90833,-42
29.91667,-43
29.92500,-44
29.93333,-45
29.94167,-46
29.95000,-47
29.95833,-49
29.96667,-50
29.97500,-51
29.98333,-52
29.99167,-53
30.00000,-54
30.00833,-55
30.01667,-56
30.02500,-57
30.03333,-59
30.04167,-60
30.05000,-60
30.05833,-61
30.06667,-61
30.07500,-62
30.08333,-63
30.09167,-65
30.10000,-66
30.10833,-66
30.11667,-67
30.12500,-68
30.13333,-69
30.14167,-69
30.15000,-70
30.15833,-71
30.16667,-71
30.17500,-71
30.18333,-72
30.19167,-72
30.20000,-73
30.20833,-73
30.21667,-73
30.22500,-73
30.23333,-74
30.24167,-74
30.25000,-74
30.25833,-73
30.26667,-73
30.27500,-73
30.28333,-73
30.29167,-73
30.30000,-72
30.30833,-72
30.31667,-71
30.32500,-71
30.33333,-71
30.34167,-70
30.35000,-70
30.35833,-69
30.36667,-68
30.37500,-68
30.38333,-67
30.39167,-67
30.40000,-66
30.40833,-66
30.41667,-65
30.42500,-64
30.43333,-63
30.44167,-62
30.45000,-61
30.45833,-60
30.46667,-58
30.47500,-57
30.48333,-56
30.49167,-55
30.50000,-55
30.50833,-54
30.51667,-53
30.52500,-53
30.53333,-52
30.54167,-51
30.55000,-50
30.55833,-49
30.56667,-48
30.57500,-47
30.58333,-46
30.59167,-45
30.60000,-45
30.60833,-44
30.61667,-43
30.62500,-43
30.63333,-43
30.64167,-42
30.65000,-41
30.65833,-41
30.66667,-40
30.67500,-39
30.68333,-39
30.69167,-38
30.70000,-38
30.70833,-38
30.71667,-38
30.72500,-38
30.73333,-38
30.74167,-38
30.75000,-38
30.75833,-38
30.76667,-38
30.77500,-38
30.78333,-37
30.79167,-37
30.80000,-37
30.80833,-37
30.81667,-37
30.82500,-37
30.83333,-37
30.84167,-37
30.85000,-37
30.85833,-37
30.86667,-37
30.87500,-38
30.88333,-38
30.89167,-38
30.90000,-38
30.90833,-38
30.91667,-38
30.92500,-39
30.93333,-39
30.94167,-39
30.95000,-39
30.95833,-40
30.96667,-40
30.97500,-40
30.98333,-40
30.99167,-41
31.00000,-41
31.00833,-41
31.01667,-41
31.02500,-41
31.03333,-41
31.04167,-41
31.05000,-42
31.05833,-42
31.06667,-42
31.07500,-42
31.08333,-42
31.09167,-42
31.10000,-42
31.10833,-42
31.11667,-42
31.12500,-42
31.13333,-42
31.14167,-42
31.15000,-42
31.15833,-42
31.16667,-41
31.17500,-41
31.18333,-41
31.19167,-41
31.20000,-40
31.20833,-40
31.21667,-40
31.22500,-40
31.23333,-40
31.24167,-40
31.25000,-40
31.25833,-40
31.26667,-40
31.27500,-39
31.28333,-38
31.29167,-38
31.30000,-37
31.30833,-36
31.31667,-36
31.32500,-35
31.33333,-35
31.34167,-35
31.35000,-34
31.35833,-34
31.36667,-33
31.37500,-33
31.38333,-32
31.39167,-32
31.40000,-31
31.40833,-30
31.41667,-30
31.42500,-29
31.43333,-29
31.44167,-28
31.45000,-28
31.45833,-27
31.46667,-27
31.47500,-26
31.48333,-26
31.49167,-25
31.50000,-25
31.50833,-24
31.51667,-24
31.52500,-23
31.53333,-23
31.54167,-22
31.55000,-22
31.55833,-21
31.56667,-20
31.57500,-20
31.58333,-20
31.59167,-19
31.60000,-19
31.60833,-19
31.61667,-18
31.62500,-18
31.63333,-17
31.64167,-17
31.65000,-17
31.65833,-16
31.66667,-16
31.67500,-16
31.68333,-16
31.69167,-16
31.70000,-15
31.70833,-15
31.71667,-15
31.72500,-15
31.73333,-14
31.74167,-14
31.75000,-14
31.75833,-13
31.76667,-13
31.77500,-13
31.78333,-14
31.79167,-13
31.80000,-13
31.80833,-13
31.81667,-13
31.82500,-13
31.83333,-13
31.84167,-13
31.85000,-13
31.85833,-13
31.86667,-14
31.87500,-14
31.88333,-14
31.89167,-14
31.90000,-14
31.90833,-14
31.91667,-14
31.92500,-14
31.93333,-14
31.94167,-13
31.95000,-14
31.95833,-14
31.96667,-14
31.97500,-14
31.98333,-14
31.99167,-14
32.00000,-14
32.00833,-15
32.01667,-15
32.02500,-15
32.03333,-15
32.04167,-15
32.05000,-15
32.05833,-15
32.06667,-16
32.07500,-16
32.08333,-16
32.09167,-16
32.10000,-16
32.10833,-16
32.11667,-16
32.12500,-17
32.13333,-17
32.14167,-17
32.15000,-17
32.15833,-17
32.16667,-17
32.17500,-17
32.18333,-18
32.19167,-18
32.20000,-18
32.20833,-18
32.21667,-18
32.22500,-18
32.23333,-19
32.24167,-18
32.25000,-18
32.25833,-18
32.26667,-18
32.27500,-18
32.28333,-18
32.29167,-18
32.30000,-18
32.30833,-18
32.31667,-19
32.32500,-19
32.33333,-19
32.34167,-19
32.35000,-19
32.35833,-20
32.36667,-20
32.37500,-20
32.38333,-19
32.39167,-19
32.40000,-19
32.40833,-20
32.41667,-20
32.42500,-20
32.43333,-20
32.44167,-20
32.45000,-20
32.45833,-20
32.46667,-20
32.47500,-20
32.48333,-20
32.49167,-20
32.50000,-20
32.50833,-20
32.51667,-20
32.52500,-20
32.53333,-20
32.54167,-20
32.55000,-20
32.55833,-20
32.56667,-20
32.57500,-21
32.58333,-20
32.59167,-20
32.60000,-20
32.60833,-20
32.61667,-20
32.62500,-21
32.63333,-21
32.64167,-21
32.65000,-21
32.65833,-21
32.66667,-21
32.67500,-20
32.68333,-20
32.69167,-20
32.70000,-20
32.70833,-20
32.71667,-20
32.72500,-20
32.73333,-20
32.74167,-20
32.75000,-20
32.75833,-21
32.76667,-21
32.77500,-21
32.78333,-20
32.79167,-20
32.80000,-21
32.80833,-21
32.81667,-21
32.82500,-21
32.83333,-21
32.84167,-20
32.85000,-20
32.85833,-20
32.86667,-20
32.87500,-20
32.88333,-20
32.89167,-21
32.90000,-21
32.90833,-21
32.91667,-21
32.92500,-20
32.93333,-20
32.94167,-20
32.95000,-20
32.95833,-21
32.96667,-21
32.97500,-21
32.98333,-21
32.99167,-21
33.00000,-21
33.00833,-21
33.01667,-21
33.02500,-20
33.03333,-20
33.04167,-20
33.05000,-20
33.05833,-20
33.06667,-20
33.07500,-20
33.08333,-20
33.09167,-20
33.10000,-20
33.10833,-21
33.11667,-21
33.12500,-21
33.13333,-21
33.14167,-21
33.15000,-21
33.15833,-21
33.16667,-21
33.17500,-21
33.18333,-21
33.19167,-21
33.20000,-21
33.20833,-21
33.21667,-20
33.22500,-20
33.23333,-21
33.24167,-21
33.25000,-21
33.25833,-20
33.26667,-20
33.27500,-20
33.28333,-20
33.29167,-21
33.30000,-21
33.30833,-20
33.31667,-20
33.32500,-21
33.33333,-21
33.34167,-21
33.35000,-21
33.35833,-21
33.36667,-21
33.37500,-21
33.38333,-21
33.39167,-21
33.40000,-21
33.40833,-21
33.41667,-21
33.42500,-21
33.43333,-21
33.44167,-21
33.45000,-21
33.45833,-21
33.46667,-21
33.47500,-21
33.48333,-21
33.49167,-21
33.50000,-20
33.50833,-21
33.51667,-21
33.52500,-21
33.53333,-21
33.54167,-21
33.55000,-22
33.55833,-22
33.56667,-22
33.57500,-22
33.58333,-22
33.59167,-22
33.60000,-22
33.60833,-23
33.61667,-23
33.62500,-23
33.63333,-23
33.64167,-22
33.65000,-22
33.65833,-22
33.66667,-22
33.67500,-22
33.68333,-22
33.69167,-23
33.70000,-23
33.70833,-23
33.71667,-23
33.72500,-23
33.73333,-23
33.74167,-23
33.75000,-23
33.75833,-23
33.76667,-23
33.77500,-22
33.78333,-22
33.79167,-23
33.80000,-23
33.80833,-23
33.81667,-23
33.82500,-23
33.83333,-23
33.84167,-24
33.85000,-24
33.85833,-24
33.86667,-24
33.87500,-24
33.88333,-24
33.89167,-24
33.90000,-23
33.90833,-23
33.91667,-23
33.92500,-23
33.93333,-23
33.94167,-23
33.95000,-23
33.95833,-23
33.96667,-24
33.97500,-24
33.98333,-24
33.99167,-24
34.00000,-24
34.00833,-23
34.01667,-23
34.02500,-23
34.03333,-23
34.04167,-23
34.05000,-23
34.05833,-23
34.06667,-24
34.07500,-24
34.08333,-24
34.09167,-23
34.10000,-23
34.10833,-23
34.11667,-23
34.12500,-23
34.13333,-23
34.14167,-23
34.15000,-23
34.15833,-23
34.16667,-23
34.17500,-23
34.18333,-24
34.19167,-23
34.20000,-23
34.20833,-24
34.21667,-24
34.22500,-24
34.23333,-24
34.24167,-24
34.25000,-24
34.25833,-24
34.26667,-23
34.27500,-23
34.28333,-23
34.29167,-23
34.30000,-23
34.30833,-23
34.31667,-23
34.32500,-23
34.33333,-23
34.34167,-24
34.35000,-24
34.35833,-24
34.36667,-24
34.37500,-24
34.38333,-24
34.39167,-24
34.40000,-24
34.40833,-24
34.41667,-24
34.42500,-24
34.43333,-24
34.44167,-24
34.45000,-24
34.45833,-24
34.46667,-24
34.47500,-23
34.48333,-23
34.49167,-23
34.50000,-23
34.50833,-23
34.51667,-23
34.52500,-23
34.53333,-23
34.54167,-23
34.55000,-23
34.55833,-23
34.56667,-23
34.57500,-23
34.58333,-23
34.59167,-23
34.60000,-24
34.60833,-24
34.61667,-24
34.62500,-23
34.63333,-23
34.64167,-23
34.65000,-23
34.65833,-23
34.66667,-23
34.67500,-23
34.68333,-23
34.69167,-23
34.70000,-23
34.70833,-24
34.71667,-24
34.72500,-24
34.73333,-24
34.74167,-24
34.75000,-24
34.75833,-24
34.76667,-23
34.77500,-23
34.78333,-23
34.79167,-24
34.80000,-24
34.80833,-24
34.81667,-24
34.82500,-24
34.83333,-24
34.84167,-24
34.85000,-25
34.85833,-25
34.86667,-25
34.87500,-25
34.88333,-25
34.89167,-25
34.90000,-24
34.90833,-24
34.91667,-24
34.92500,-24
34.93333,-24
34.94167,-24
34.95000,-24
34.95833,-24
34.96667,-24
34.97500,-24
34.98333,-24
34.99167,-24
35.00000,-24
35.00833,-24
35.01667,-24
35.02500,-24
35.03333,-24
35.04167,-24
35.05000,-24
35.05833,-24
35.06667,-24
35.07500,-24
35.08333,-24
35.09167,-24
35.10000,-25
35.10833,-25
35.11667,-25
35.12500,-24
35.13333,-24
35.14167,-25
35.15000,-25
35.15833,-25
35.16667,-25
35.17500,-26
35.18333,-26
35.19167,-26
35.20000,-25
35.20833,-25
35.21667,-25
35.22500,-24
35.23333,-24
35.24167,-25
35.25000,-24
35.25833,-24
35.26667,-24
35.27500,-24
35.28333,-24
35.29167,-24
35.30000,-24
35.30833,-24
35.31667,-24
35.32500,-24
35.33333,-25
35.34167,-25
35.35000,-25
35.35833,-25
35.36667,-25
35.37500,-25
35.38333,-24
35.39167,-24
35.40000,-25
35.40833,-25
35.41667,-25
35.42500,-25
35.43333,-25
35.44167,-25
35.45000,-24
35.45833,-24
35.46667,-24
35.47500,-24
35.48333,-24
35.49167,-24
35.50000,-24
35.50833,-24
35.51667,-24
35.52500,-24
35.53333,-24
35.54167,-25
35.55000,-25
35.55833,-25
35.56667,-25
35.57500,-26
35.58333,-26
35.59167,-26
35.60000,-26
35.60833,-26
35.61667,-25
35.62500,-25
35.63333,-25
35.64167,-25
35.65000,-25
35.65833,-25
35.66667,-25
35.67500,-25
35.68333,-25
35.69167,-25
35.70000,-25
35.70833,-25
35.71667,-25
35.72500,-25
35.73333,-25
35.74167,-25
35.75000,-25
35.75833,-24
35.76667,-24
35.77500,-24
35.78333,-24
35.79167,-25
35.80000,-25
35.80833,-25
35.81667,-25
35.82500,-25
35.83333,-25
35.84167,-25
35.85000,-25
35.85833,-25
35.86667,-25
35.87500,-25
35.88333,-25
35.89167,-25
35.90000,-25
35.90833,-25
35.91667,-25
35.92500,-25
35.93333,-25
35.94167,-25
35.95000,-25
35.95833,-25
35.96667,-25
35.97500,-25
35.98333,-25
35.99167,-25
36.00000,-25
36.00833,-25
36.01667,-25
36.02500,-25
36.03333,-25
36.04167,-25
36.05000,-25
36.05833,-25
36.06667,-26
36.07500,-26
36.08333,-26
36.09167,-25
36.10000,-25
36.10833,-25
36.11667,-25
36.12500,-25
36.13333,-25
36.14167,-25
36.15000,-26
36.15833,-26
36.16667,-26
36.17500,-26
36.18333,-26
36.19167,-26
36.20000,-27
36.20833,-27
36.21667,-27
36.22500,-27
36.23333,-27
36.24167,-27
36.25000,-27
36.25833,-27
36.26667,-26
36.27500,-27
36.28333,-27
36.29167,-27
36.30000,-27
36.30833,-27
36.31667,-27
36.32500,-27
36.33333,-26
36.34167,-26
36.35000,-26
36.35833,-26
36.36667,-26
36.37500,-27
36.38333,-27
36.39167,-27
36.40000,-27
36.40833,-27
36.41667,-27
36.42500,-27
36.43333,-27
36.44167,-27
36.45000,-27
36.45833,-27
36.46667,-27
36.47500,-27
36.48333,-27
36.49167,-27
36.50000,-27
36.50833,-27
36.51667,-27
36.52500,-28
36.53333,-28
36.54167,-28
36.55000,-27
36.55833,-27
36.56667,-27
36.57500,-27
36.58333,-27
36.59167,-27
36.60000,-27
36.60833,-27
36.61667,-27
36.62500,-27
36.63333,-27
36.64167,-27
36.65000,-27
36.65833,-27
36.66667,-27
36.67500,-27
36.68333,-27
36.69167,-27
36.70000,-27
36.70833,-27
36.71667,-26
36.72500,-26
36.73333,-26
36.74167,-26
36.75000,-26
36.75833,-26
36.76667,-27
36.77500,-27
36.78333,-27
36.79167,-27
36.80000,-27
36.80833,-26
36.81667,-26
36.82500,-26
36.83333,-27
36.84167,-27
36.85000,-27
36.85833,-27
36.86667,-27
36.87500,-27
36.88333,-27
36.89167,-27
36.90000,-27
36.90833,-27
36.91667,-26
36.92500,-26
36.93333,-26
36.94167,-26
36.95000,-26
36.95833,-26
36.96667,-27
36.97500,-27
36.98333,-27
36.99167,-27
37.00000,-27
37.00833,-27
37.01667,-26
37.02500,-26
37.03333,-26
37.04167,-26
37.05000,-27
37.05833,-27
37.06667,-27
37.07500,-28
37.08333,-28
37.09167,-28
37.10000,-28
37.10833,-28
37.11667,-27
37.12500,-27
37.13333,-27
37.14167,-27
37.15000,-27
37.15833,-26
37.16667,-27
37.17500,-27
37.18333,-27
37.19167,-27
37.20000,-28
37.20833,-28
37.21667,-28
37.22500,-28
37.23333,-28
37.24167,-28
37.25000,-28
37.25833,-28
37.26667,-28
37.27500,-27
37.28333,-27
37.29167,-27
37.30000,-28
37.30833,-27
37.31667,-27
37.32500,-27
37.33333,-28
37.34167,-28
37.35000,-28
37.35833,-28
37.36667,-28
37.37500,-28
37.38333,-28
37.39167,-28
37.40000,-27
37.40833,-27
37.41667,-27
37.42500,-27
37.43333,-27
37.44167,-27
37.45000,-28
37.45833,-27
37.46667,-27
37.47500,-27
37.48333,-27
37.49167,-27
37.50000,-27
37.50833,-27
37.51667,-27
37.52500,-28
37.53333,-28
37.54167,-28
37.55000,-28
37.55833,-28
37.56667,-28
37.57500,-28
37.58333,-28
37.59167,-28
37.60000,-29
37.60833,-29
37.61667,-29
37.62500,-29
37.63333,-28
37.64167,-28
37.65000,-28
37.65833,-28
37.66667,-28
37.67500,-28
37.68333,-28
37.69167,-28
37.70000,-28
37.70833,-28
37.71667,-28
37.72500,-28
37.73333,-28
37.74167,-28
37.75000,-28
37.75833,-28
37.76667,-28
37.77500,-28
37.78333,-28
37.79167,-28
37.80000,-28
37.80833,-28
37.81667,-28
37.82500,-28
37.83333,-28
37.84167,-28
37.85000,-28
37.85833,-28
37.86667,-28
37.87500,-29
37.88333,-29
37.89167,-29
37.90000,-29
37.90833,-29
37.91667,-28
37.92500,-29
37.93333,-29
37.94167,-29
37.95000,-29
37.95833,-29
37.96667,-29
37.97500,-29
37.98333,-29
37.99167,-28
38.00000,-28
38.00833,-28
38.01667,-28
38.02500,-28
38.03333,-28
38.04167,-28
38.05000,-28
38.05833,-29
38.06667,-29
38.07500,-29
38.08333,-29
38.09167,-29
38.10000,-29
38.10833,-29
38.11667,-29
38.12500,-29
38.13333,-29
38.14167,-29
38.15000,-29
38.15833,-29
38.16667,-29
38.17500,-29
38.18333,-29
38.19167,-29
38.20000,-29
38.20833,-29
38.21667,-29
38.22500,-29
38.23333,-29
38.24167,-29
38.25000,-30
38.25833,-30
38.26667,-29
38.27500,-29
38.28333,-29
38.29167,-30
38.30000,-30
38.30833,-30
38.31667,-30
38.32500,-30
38.33333,-30
38.34167,-29
38.35000,-29
38.35833,-30
38.36667,-30
38.37500,-30
38.38333,-30
38.39167,-30
38.40000,-30
38.40833,-30
38.41667,-30
38.42500,-30
38.43333,-30
38.44167,-30
38.45000,-30
38.45833,-30
38.46667,-30
38.47500,-30
38.48333,-30
38.49167,-30
38.50000,-30
38.50833,-30
38.51667,-30
38.52500,-30
38.53333,-29
38.54167,-29
38.55000,-29
38.55833,-30
38.56667,-30
38.57500,-30
38.58333,-30
38.59167,-30
38.60000,-30
38.60833,-30
38.61667,-29
38.62500,-30
38.63333,-30
38.64167,-30
38.65000,-30
38.65833,-30
38.66667,-30
38.67500,-30
38.68333,-30
38.69167,-30
38.70000,-30
38.70833,-30
38.71667,-30
38.72500,-30
38.73333,-30
38.74167,-30
38.75000,-31
38.75833,-31
38.76667,-31
38.77500,-31
38.78333,-31
38.79167,-31
38.80000,-31
38.80833,-31
38.81667,-31
38.82500,-31
38.83333,-31
38.84167,-31
38.85000,-31
38.85833,-31
38.86667,-31
38.87500,-31
38.88333,-31
38.89167,-30
38.90000,-30
38.90833,-30
38.91667,-30
38.92500,-30
38.93333,-30
38.94167,-30
38.95000,-31
38.95833,-32
38.96667,-32
38.97500,-32
38.98333,-32
38.99167,-31
39.00000,-31
39.00833,-31
39.01667,-31
39.02500,-31
39.03333,-31
39.04167,-31
39.05000,-31
39.05833,-31
39.06667,-31
39.07500,-31
39.08333,-32
39.09167,-32
39.10000,-32
39.10833,-32
39.11667,-32
39.12500,-32
39.13333,-31
39.14167,-31
39.15000,-31
39.15833,-31
39.16667,-31
39.17500,-31
39.18333,-31
39.19167,-31
39.20000,-31
39.20833,-31
39.21667,-31
39.22500,-31
39.23333,-31
39.24167,-31
39.25000,-31
39.25833,-31
39.26667,-31
39.27500,-31
39.28333,-31
39.29167,-30
39.30000,-30
39.30833,-30
39.31667,-30
39.32500,-30
39.33333,-30
39.34167,-31
39.35000,-31
39.35833,-31
39.36667,-31
39.37500,-31
39.38333,-31
39.39167,-31
39.40000,-31
39.40833,-31
39.41667,-31
39.42500,-31
39.43333,-31
39.44167,-31
39.45000,-31
39.45833,-31
39.46667,-31
39.47500,-31
39.48333,-32
39.49167,-32
39.50000,-32
39.50833,-32
39.51667,-32
39.52500,-31
39.53333,-31
39.54167,-31
39.55000,-31
39.55833,-31
39.56667,-31
39.57500,-31
39.58333,-32
39.59167,-32
39.60000,-32
39.60833,-32
39.61667,-32
39.62500,-31
39.63333,-31
39.64167,-32
39.65000,-32
39.65833,-32
39.66667,-32
39.67500,-31
39.68333,-31
39.69167,-31
39.70000,-31
39.70833,-31
39.71667,-31
39.72500,-31
39.73333,-32
39.74167,-32
39.75000,-31
39.75833,-31
39.76667,-31
39.77500,-31
39.78333,-31
39.79167,-32
39.80000,-32
39.80833,-32
39.81667,-32
39.82500,-32
39.83333,-31
39.84167,-31
39.85000,-31
39.85833,-31
39.86667,-31
39.87500,-31
39.88333,-31
39.89167,-32
39.90000,-32
39.90833,-32
39.91667,-32
39.92500,-32
39.93333,-32
39.94167,-32
39.95000,-32
39.95833,-31
39.96667,-31
39.97500,-31
39.98333,-31
39.99167,-31
40.00000,-31

