[Header]
Application Name,LabSolutions
Version,5.97 SP1
Data File Name,C:\Users\cremerlab\Desktop\griffin\2021-03-31_NCM3722_NCglucose_turnover\2021-03-31_NCM3722_turnover_batch_3312021_008_036.lcd
Output Date,4/1/2021
Output Time,9:27:42 PM

[File Information]
Type,Data File
Generated,4/1/2021 8:47:21 PM
Generated by,System Administrator
Modified,4/1/2021 9:27:42 PM
Modified by,System Administrator

[Sample Information]
Operator Name,System Administrator
Acquired,4/1/2021 8:47:41 PM
Sample Type,1:Standard
Level,8
Sample Name,2021-03-31_glucose_glycerol_acetate_calibration_02mM
Sample ID,008
ISTD Amount1,1
ISTD Amount2,1
ISTD Amount3,1
ISTD Amount4,1
ISTD Amount5,1
ISTD Amount6,1
ISTD Amount7,1
ISTD Amount8,1
ISTD Amount9,1
ISTD Amount10,1
ISTD Amount11,1
ISTD Amount12,1
ISTD Amount13,1
ISTD Amount14,1
ISTD Amount15,1
ISTD Amount16,1
ISTD Amount17,1
ISTD Amount18,1
ISTD Amount19,1
ISTD Amount20,1
ISTD Amount21,1
ISTD Amount22,1
ISTD Amount23,1
ISTD Amount24,1
ISTD Amount25,1
ISTD Amount26,1
ISTD Amount27,1
ISTD Amount28,1
ISTD Amount29,1
ISTD Amount30,1
ISTD Amount31,1
ISTD Amount32,1
Sample Amount,1
Dilution Factor,1
Vial#,8
Injection Volume,20

[Original Files]
Data File,C:\Users\cremerlab\Desktop\griffin\2021-03-31_NCM3722_NCglucose_turnover\2021-03-31_NCM3722_turnover_batch_3312021_008_036.lcd
Method File,C:\LabSolutions\Data\Project1\organicacidsetc2.lcm
Batch File,C:\Users\cremerlab\Desktop\griffin\2021-03-31_NCM3722_NCglucose_turnover\2021-03-31_NCM3722_turnover_batch.lcb
Report Format File,c:\LabSolutions\System\DEFAULT.lsr

[File Description]


[Configuration]
Instrument Name,HPLC-PC-Instrument1
Instrument #,1
Line #,1
# of Detectors,2
Detector ID,Detector A,Detector B
Detector Name,Detector A,Detector B
# of Channels,1,1

[Peak Table(Detector A)]
# of Peaks,0

[Peak Table(Detector B)]
# of Peaks,3
Peak#,R.Time,I.Time,F.Time,Area,Height,A/H,Conc.,Mark,ID#,Name,k',Plate #,Plate Ht.,Tailing,Resolution,Sep.Factor,Area Ratio,Height Ratio,Conc. %,Norm Conc.
1,15.647,15.017,16.592,187374,7787,24.062,70.522,   ,,,0.000,9743,15.395,1.149,0.000,0.000,0,0,0.000,0.000
2,22.077,21.483,22.842,55250,2063,26.777,20.795,   ,,,0.411,15457,9.705,1.086,9.565,0.000,0,0,0.000,0.000
3,25.065,24.483,25.800,23070,798,28.924,8.683,   ,,,0.602,16968,8.840,1.068,4.038,1.465,0,0,0.000,0.000

[LC Chromatogram(Detector B-Ch1)]
Interval(msec),500
# of Points,4801
Start Time(min),0.000
End Time(min),40.000
Intensity Units,mV
Intensity Multiplier,0.001
R.Time (min),Intensity
0.00000,0
0.00833,0
0.01667,0
0.02500,0
0.03333,1
0.04167,1
0.05000,1
0.05833,1
0.06667,0
0.07500,0
0.08333,0
0.09167,0
0.10000,0
0.10833,0
0.11667,0
0.12500,0
0.13333,0
0.14167,0
0.15000,-0
0.15833,-0
0.16667,-0
0.17500,-0
0.18333,0
0.19167,0
0.20000,1
0.20833,1
0.21667,1
0.22500,1
0.23333,1
0.24167,1
0.25000,1
0.25833,1
0.26667,1
0.27500,1
0.28333,1
0.29167,1
0.30000,1
0.30833,1
0.31667,1
0.32500,1
0.33333,1
0.34167,0
0.35000,0
0.35833,0
0.36667,0
0.37500,1
0.38333,1
0.39167,1
0.40000,1
0.40833,1
0.41667,1
0.42500,1
0.43333,1
0.44167,1
0.45000,1
0.45833,1
0.46667,1
0.47500,0
0.48333,0
0.49167,0
0.50000,-0
0.50833,-0
0.51667,-0
0.52500,-0
0.53333,-0
0.54167,-0
0.55000,0
0.55833,0
0.56667,1
0.57500,1
0.58333,1
0.59167,1
0.60000,1
0.60833,1
0.61667,1
0.62500,1
0.63333,1
0.64167,0
0.65000,0
0.65833,0
0.66667,0
0.67500,-0
0.68333,-1
0.69167,-0
0.70000,-0
0.70833,0
0.71667,0
0.72500,1
0.73333,1
0.74167,0
0.75000,0
0.75833,0
0.76667,0
0.77500,0
0.78333,0
0.79167,0
0.80000,0
0.80833,0
0.81667,0
0.82500,0
0.83333,0
0.84167,0
0.85000,1
0.85833,1
0.86667,1
0.87500,1
0.88333,1
0.89167,1
0.90000,0
0.90833,0
0.91667,1
0.92500,1
0.93333,1
0.94167,2
0.95000,2
0.95833,2
0.96667,2
0.97500,1
0.98333,2
0.99167,2
1.00000,2
1.00833,3
1.01667,3
1.02500,3
1.03333,3
1.04167,3
1.05000,3
1.05833,3
1.06667,3
1.07500,2
1.08333,2
1.09167,2
1.10000,2
1.10833,2
1.11667,2
1.12500,2
1.13333,1
1.14167,1
1.15000,1
1.15833,1
1.16667,1
1.17500,1
1.18333,1
1.19167,1
1.20000,1
1.20833,1
1.21667,2
1.22500,2
1.23333,1
1.24167,1
1.25000,1
1.25833,2
1.26667,2
1.27500,2
1.28333,3
1.29167,3
1.30000,3
1.30833,3
1.31667,3
1.32500,3
1.33333,3
1.34167,3
1.35000,3
1.35833,3
1.36667,3
1.37500,3
1.38333,3
1.39167,2
1.40000,2
1.40833,3
1.41667,3
1.42500,3
1.43333,3
1.44167,3
1.45000,3
1.45833,3
1.46667,3
1.47500,3
1.48333,3
1.49167,3
1.50000,4
1.50833,4
1.51667,4
1.52500,4
1.53333,4
1.54167,4
1.55000,4
1.55833,4
1.56667,4
1.57500,4
1.58333,3
1.59167,4
1.60000,3
1.60833,3
1.61667,3
1.62500,3
1.63333,3
1.64167,2
1.65000,2
1.65833,3
1.66667,3
1.67500,3
1.68333,3
1.69167,4
1.70000,4
1.70833,4
1.71667,4
1.72500,4
1.73333,4
1.74167,4
1.75000,4
1.75833,4
1.76667,4
1.77500,5
1.78333,5
1.79167,5
1.80000,5
1.80833,5
1.81667,4
1.82500,4
1.83333,4
1.84167,4
1.85000,4
1.85833,4
1.86667,4
1.87500,4
1.88333,4
1.89167,4
1.90000,4
1.90833,4
1.91667,4
1.92500,4
1.93333,4
1.94167,4
1.95000,5
1.95833,5
1.96667,4
1.97500,4
1.98333,4
1.99167,5
2.00000,5
2.00833,5
2.01667,5
2.02500,5
2.03333,5
2.04167,5
2.05000,5
2.05833,5
2.06667,5
2.07500,5
2.08333,4
2.09167,4
2.10000,3
2.10833,3
2.11667,3
2.12500,4
2.13333,4
2.14167,4
2.15000,5
2.15833,5
2.16667,4
2.17500,5
2.18333,5
2.19167,5
2.20000,5
2.20833,6
2.21667,6
2.22500,6
2.23333,5
2.24167,5
2.25000,5
2.25833,5
2.26667,5
2.27500,5
2.28333,5
2.29167,5
2.30000,6
2.30833,6
2.31667,5
2.32500,5
2.33333,5
2.34167,4
2.35000,4
2.35833,4
2.36667,4
2.37500,4
2.38333,3
2.39167,3
2.40000,3
2.40833,3
2.41667,3
2.42500,3
2.43333,3
2.44167,3
2.45000,3
2.45833,3
2.46667,4
2.47500,4
2.48333,4
2.49167,4
2.50000,4
2.50833,4
2.51667,4
2.52500,5
2.53333,5
2.54167,5
2.55000,5
2.55833,5
2.56667,4
2.57500,4
2.58333,4
2.59167,4
2.60000,4
2.60833,4
2.61667,4
2.62500,4
2.63333,4
2.64167,4
2.65000,5
2.65833,5
2.66667,5
2.67500,5
2.68333,5
2.69167,5
2.70000,5
2.70833,5
2.71667,5
2.72500,5
2.73333,5
2.74167,4
2.75000,5
2.75833,5
2.76667,6
2.77500,5
2.78333,5
2.79167,5
2.80000,5
2.80833,5
2.81667,5
2.82500,5
2.83333,5
2.84167,5
2.85000,5
2.85833,5
2.86667,5
2.87500,5
2.88333,5
2.89167,5
2.90000,5
2.90833,5
2.91667,4
2.92500,5
2.93333,5
2.94167,5
2.95000,6
2.95833,6
2.96667,5
2.97500,5
2.98333,5
2.99167,5
3.00000,5
3.00833,6
3.01667,6
3.02500,5
3.03333,5
3.04167,5
3.05000,5
3.05833,5
3.06667,6
3.07500,6
3.08333,6
3.09167,6
3.10000,6
3.10833,6
3.11667,6
3.12500,6
3.13333,6
3.14167,6
3.15000,6
3.15833,6
3.16667,6
3.17500,6
3.18333,6
3.19167,6
3.20000,7
3.20833,7
3.21667,6
3.22500,6
3.23333,6
3.24167,6
3.25000,7
3.25833,7
3.26667,7
3.27500,6
3.28333,6
3.29167,5
3.30000,5
3.30833,5
3.31667,5
3.32500,5
3.33333,6
3.34167,6
3.35000,6
3.35833,6
3.36667,6
3.37500,6
3.38333,6
3.39167,6
3.40000,7
3.40833,7
3.41667,7
3.42500,7
3.43333,7
3.44167,7
3.45000,7
3.45833,7
3.46667,7
3.47500,7
3.48333,7
3.49167,7
3.50000,7
3.50833,7
3.51667,7
3.52500,7
3.53333,7
3.54167,6
3.55000,6
3.55833,6
3.56667,6
3.57500,6
3.58333,6
3.59167,6
3.60000,6
3.60833,6
3.61667,6
3.62500,7
3.63333,7
3.64167,7
3.65000,7
3.65833,7
3.66667,7
3.67500,7
3.68333,8
3.69167,8
3.70000,8
3.70833,8
3.71667,8
3.72500,8
3.73333,8
3.74167,8
3.75000,8
3.75833,8
3.76667,7
3.77500,7
3.78333,7
3.79167,7
3.80000,7
3.80833,7
3.81667,7
3.82500,7
3.83333,6
3.84167,6
3.85000,6
3.85833,6
3.86667,6
3.87500,6
3.88333,6
3.89167,7
3.90000,7
3.90833,7
3.91667,7
3.92500,7
3.93333,8
3.94167,8
3.95000,9
3.95833,9
3.96667,9
3.97500,9
3.98333,9
3.99167,9
4.00000,9
4.00833,8
4.01667,8
4.02500,8
4.03333,8
4.04167,8
4.05000,7
4.05833,8
4.06667,7
4.07500,7
4.08333,7
4.09167,8
4.10000,8
4.10833,7
4.11667,8
4.12500,8
4.13333,7
4.14167,7
4.15000,7
4.15833,7
4.16667,8
4.17500,8
4.18333,9
4.19167,9
4.20000,8
4.20833,8
4.21667,8
4.22500,8
4.23333,8
4.24167,8
4.25000,8
4.25833,8
4.26667,7
4.27500,7
4.28333,7
4.29167,7
4.30000,8
4.30833,8
4.31667,8
4.32500,9
4.33333,9
4.34167,9
4.35000,9
4.35833,9
4.36667,9
4.37500,9
4.38333,9
4.39167,9
4.40000,9
4.40833,9
4.41667,9
4.42500,9
4.43333,9
4.44167,9
4.45000,9
4.45833,9
4.46667,9
4.47500,9
4.48333,9
4.49167,10
4.50000,10
4.50833,10
4.51667,10
4.52500,10
4.53333,10
4.54167,9
4.55000,9
4.55833,9
4.56667,8
4.57500,8
4.58333,8
4.59167,8
4.60000,8
4.60833,8
4.61667,8
4.62500,9
4.63333,9
4.64167,9
4.65000,9
4.65833,9
4.66667,10
4.67500,10
4.68333,10
4.69167,10
4.70000,10
4.70833,10
4.71667,10
4.72500,10
4.73333,10
4.74167,10
4.75000,10
4.75833,10
4.76667,10
4.77500,10
4.78333,10
4.79167,9
4.80000,9
4.80833,10
4.81667,10
4.82500,10
4.83333,10
4.84167,10
4.85000,10
4.85833,10
4.86667,10
4.87500,10
4.88333,11
4.89167,11
4.90000,10
4.90833,11
4.91667,11
4.92500,11
4.93333,11
4.94167,10
4.95000,10
4.95833,10
4.96667,10
4.97500,10
4.98333,10
4.99167,10
5.00000,10
5.00833,10
5.01667,10
5.02500,10
5.03333,10
5.04167,10
5.05000,10
5.05833,9
5.06667,9
5.07500,10
5.08333,10
5.09167,10
5.10000,10
5.10833,10
5.11667,11
5.12500,11
5.13333,11
5.14167,10
5.15000,10
5.15833,11
5.16667,11
5.17500,11
5.18333,11
5.19167,11
5.20000,11
5.20833,11
5.21667,11
5.22500,11
5.23333,11
5.24167,11
5.25000,11
5.25833,11
5.26667,11
5.27500,10
5.28333,10
5.29167,10
5.30000,10
5.30833,10
5.31667,10
5.32500,10
5.33333,10
5.34167,10
5.35000,10
5.35833,11
5.36667,11
5.37500,12
5.38333,12
5.39167,12
5.40000,11
5.40833,11
5.41667,12
5.42500,12
5.43333,12
5.44167,11
5.45000,11
5.45833,12
5.46667,12
5.47500,12
5.48333,12
5.49167,12
5.50000,12
5.50833,11
5.51667,11
5.52500,11
5.53333,11
5.54167,10
5.55000,11
5.55833,11
5.56667,11
5.57500,11
5.58333,11
5.59167,11
5.60000,11
5.60833,11
5.61667,11
5.62500,11
5.63333,11
5.64167,11
5.65000,11
5.65833,12
5.66667,12
5.67500,12
5.68333,12
5.69167,12
5.70000,12
5.70833,12
5.71667,12
5.72500,12
5.73333,12
5.74167,12
5.75000,12
5.75833,12
5.76667,11
5.77500,11
5.78333,11
5.79167,11
5.80000,11
5.80833,11
5.81667,11
5.82500,11
5.83333,11
5.84167,11
5.85000,12
5.85833,12
5.86667,12
5.87500,13
5.88333,13
5.89167,13
5.90000,12
5.90833,12
5.91667,12
5.92500,12
5.93333,12
5.94167,12
5.95000,12
5.95833,12
5.96667,12
5.97500,12
5.98333,12
5.99167,12
6.00000,12
6.00833,11
6.01667,11
6.02500,11
6.03333,11
6.04167,11
6.05000,11
6.05833,12
6.06667,12
6.07500,12
6.08333,12
6.09167,12
6.10000,12
6.10833,12
6.11667,12
6.12500,12
6.13333,13
6.14167,13
6.15000,13
6.15833,13
6.16667,13
6.17500,12
6.18333,12
6.19167,12
6.20000,12
6.20833,12
6.21667,12
6.22500,12
6.23333,12
6.24167,12
6.25000,11
6.25833,11
6.26667,11
6.27500,11
6.28333,11
6.29167,12
6.30000,12
6.30833,12
6.31667,11
6.32500,11
6.33333,12
6.34167,12
6.35000,12
6.35833,13
6.36667,13
6.37500,12
6.38333,12
6.39167,12
6.40000,12
6.40833,12
6.41667,13
6.42500,13
6.43333,13
6.44167,12
6.45000,12
6.45833,12
6.46667,12
6.47500,12
6.48333,12
6.49167,12
6.50000,12
6.50833,12
6.51667,11
6.52500,11
6.53333,11
6.54167,12
6.55000,12
6.55833,11
6.56667,12
6.57500,12
6.58333,12
6.59167,12
6.60000,13
6.60833,13
6.61667,12
6.62500,12
6.63333,12
6.64167,12
6.65000,12
6.65833,13
6.66667,13
6.67500,13
6.68333,13
6.69167,13
6.70000,13
6.70833,13
6.71667,13
6.72500,12
6.73333,12
6.74167,12
6.75000,12
6.75833,12
6.76667,12
6.77500,12
6.78333,12
6.79167,12
6.80000,12
6.80833,12
6.81667,12
6.82500,13
6.83333,13
6.84167,13
6.85000,13
6.85833,13
6.86667,13
6.87500,13
6.88333,13
6.89167,14
6.90000,14
6.90833,14
6.91667,14
6.92500,14
6.93333,14
6.94167,14
6.95000,14
6.95833,14
6.96667,14
6.97500,13
6.98333,13
6.99167,13
7.00000,13
7.00833,12
7.01667,12
7.02500,12
7.03333,12
7.04167,12
7.05000,12
7.05833,12
7.06667,13
7.07500,13
7.08333,13
7.09167,13
7.10000,13
7.10833,13
7.11667,13
7.12500,13
7.13333,13
7.14167,13
7.15000,13
7.15833,14
7.16667,14
7.17500,14
7.18333,13
7.19167,13
7.20000,13
7.20833,13
7.21667,12
7.22500,12
7.23333,13
7.24167,13
7.25000,13
7.25833,13
7.26667,14
7.27500,14
7.28333,14
7.29167,15
7.30000,15
7.30833,14
7.31667,14
7.32500,14
7.33333,14
7.34167,14
7.35000,13
7.35833,13
7.36667,13
7.37500,13
7.38333,13
7.39167,13
7.40000,14
7.40833,14
7.41667,14
7.42500,14
7.43333,14
7.44167,14
7.45000,15
7.45833,15
7.46667,15
7.47500,15
7.48333,15
7.49167,15
7.50000,15
7.50833,15
7.51667,15
7.52500,15
7.53333,14
7.54167,14
7.55000,14
7.55833,15
7.56667,15
7.57500,15
7.58333,15
7.59167,14
7.60000,14
7.60833,14
7.61667,14
7.62500,14
7.63333,15
7.64167,15
7.65000,15
7.65833,15
7.66667,15
7.67500,15
7.68333,15
7.69167,15
7.70000,15
7.70833,15
7.71667,15
7.72500,15
7.73333,15
7.74167,14
7.75000,14
7.75833,14
7.76667,14
7.77500,14
7.78333,14
7.79167,14
7.80000,14
7.80833,14
7.81667,14
7.82500,14
7.83333,14
7.84167,14
7.85000,15
7.85833,15
7.86667,15
7.87500,14
7.88333,14
7.89167,14
7.90000,15
7.90833,15
7.91667,15
7.92500,15
7.93333,15
7.94167,15
7.95000,15
7.95833,15
7.96667,15
7.97500,15
7.98333,15
7.99167,15
8.00000,15
8.00833,15
8.01667,15
8.02500,15
8.03333,15
8.04167,15
8.05000,15
8.05833,15
8.06667,15
8.07500,15
8.08333,16
8.09167,16
8.10000,16
8.10833,16
8.11667,16
8.12500,16
8.13333,16
8.14167,16
8.15000,16
8.15833,16
8.16667,15
8.17500,15
8.18333,15
8.19167,15
8.20000,15
8.20833,15
8.21667,15
8.22500,14
8.23333,14
8.24167,15
8.25000,15
8.25833,15
8.26667,15
8.27500,15
8.28333,15
8.29167,16
8.30000,16
8.30833,16
8.31667,16
8.32500,16
8.33333,16
8.34167,17
8.35000,17
8.35833,16
8.36667,16
8.37500,16
8.38333,16
8.39167,16
8.40000,16
8.40833,16
8.41667,16
8.42500,16
8.43333,16
8.44167,16
8.45000,16
8.45833,16
8.46667,16
8.47500,16
8.48333,16
8.49167,16
8.50000,15
8.50833,15
8.51667,15
8.52500,15
8.53333,15
8.54167,15
8.55000,15
8.55833,15
8.56667,15
8.57500,15
8.58333,15
8.59167,15
8.60000,15
8.60833,15
8.61667,15
8.62500,15
8.63333,15
8.64167,16
8.65000,16
8.65833,16
8.66667,16
8.67500,15
8.68333,15
8.69167,15
8.70000,15
8.70833,15
8.71667,16
8.72500,16
8.73333,15
8.74167,15
8.75000,16
8.75833,16
8.76667,16
8.77500,16
8.78333,16
8.79167,16
8.80000,15
8.80833,15
8.81667,16
8.82500,16
8.83333,16
8.84167,16
8.85000,16
8.85833,16
8.86667,16
8.87500,16
8.88333,15
8.89167,15
8.90000,15
8.90833,15
8.91667,15
8.92500,15
8.93333,15
8.94167,15
8.95000,15
8.95833,16
8.96667,16
8.97500,16
8.98333,16
8.99167,16
9.00000,16
9.00833,16
9.01667,16
9.02500,16
9.03333,16
9.04167,16
9.05000,16
9.05833,17
9.06667,17
9.07500,17
9.08333,16
9.09167,16
9.10000,16
9.10833,16
9.11667,16
9.12500,16
9.13333,16
9.14167,16
9.15000,16
9.15833,16
9.16667,16
9.17500,16
9.18333,16
9.19167,16
9.20000,16
9.20833,16
9.21667,16
9.22500,17
9.23333,17
9.24167,17
9.25000,17
9.25833,17
9.26667,17
9.27500,17
9.28333,17
9.29167,17
9.30000,17
9.30833,17
9.31667,17
9.32500,17
9.33333,17
9.34167,17
9.35000,18
9.35833,18
9.36667,18
9.37500,18
9.38333,17
9.39167,17
9.40000,17
9.40833,17
9.41667,16
9.42500,16
9.43333,16
9.44167,16
9.45000,16
9.45833,16
9.46667,16
9.47500,16
9.48333,16
9.49167,17
9.50000,17
9.50833,17
9.51667,18
9.52500,18
9.53333,18
9.54167,18
9.55000,18
9.55833,18
9.56667,18
9.57500,18
9.58333,18
9.59167,17
9.60000,17
9.60833,17
9.61667,17
9.62500,16
9.63333,16
9.64167,16
9.65000,17
9.65833,16
9.66667,16
9.67500,16
9.68333,16
9.69167,16
9.70000,16
9.70833,16
9.71667,16
9.72500,16
9.73333,16
9.74167,16
9.75000,17
9.75833,17
9.76667,17
9.77500,17
9.78333,18
9.79167,18
9.80000,19
9.80833,19
9.81667,19
9.82500,19
9.83333,19
9.84167,18
9.85000,18
9.85833,18
9.86667,18
9.87500,17
9.88333,17
9.89167,17
9.90000,17
9.90833,17
9.91667,17
9.92500,17
9.93333,17
9.94167,17
9.95000,17
9.95833,18
9.96667,18
9.97500,18
9.98333,18
9.99167,18
10.00000,18
10.00833,18
10.01667,18
10.02500,18
10.03333,19
10.04167,19
10.05000,19
10.05833,19
10.06667,19
10.07500,19
10.08333,18
10.09167,18
10.10000,18
10.10833,18
10.11667,17
10.12500,17
10.13333,17
10.14167,17
10.15000,17
10.15833,17
10.16667,16
10.17500,16
10.18333,16
10.19167,16
10.20000,17
10.20833,17
10.21667,17
10.22500,17
10.23333,17
10.24167,17
10.25000,18
10.25833,18
10.26667,18
10.27500,18
10.28333,18
10.29167,18
10.30000,18
10.30833,17
10.31667,17
10.32500,17
10.33333,17
10.34167,17
10.35000,17
10.35833,17
10.36667,17
10.37500,17
10.38333,17
10.39167,16
10.40000,16
10.40833,17
10.41667,17
10.42500,17
10.43333,17
10.44167,17
10.45000,17
10.45833,16
10.46667,16
10.47500,16
10.48333,16
10.49167,15
10.50000,15
10.50833,15
10.51667,15
10.52500,14
10.53333,13
10.54167,12
10.55000,11
10.55833,9
10.56667,7
10.57500,4
10.58333,0
10.59167,-5
10.60000,-11
10.60833,-20
10.61667,-32
10.62500,-49
10.63333,-70
10.64167,-98
10.65000,-135
10.65833,-184
10.66667,-246
10.67500,-326
10.68333,-427
10.69167,-554
10.70000,-711
10.70833,-904
10.71667,-1137
10.72500,-1418
10.73333,-1751
10.74167,-2143
10.75000,-2598
10.75833,-3120
10.76667,-3714
10.77500,-4379
10.78333,-5117
10.79167,-5925
10.80000,-6799
10.80833,-7733
10.81667,-8717
10.82500,-9743
10.83333,-10796
10.84167,-11865
10.85000,-12934
10.85833,-13986
10.86667,-15008
10.87500,-15983
10.88333,-16898
10.89167,-17738
10.90000,-18491
10.90833,-19149
10.91667,-19702
10.92500,-20146
10.93333,-20476
10.94167,-20692
10.95000,-20793
10.95833,-20782
10.96667,-20664
10.97500,-20444
10.98333,-20128
10.99167,-19725
11.00000,-19243
11.00833,-18692
11.01667,-18079
11.02500,-17415
11.03333,-16710
11.04167,-15972
11.05000,-15210
11.05833,-14433
11.06667,-13648
11.07500,-12862
11.08333,-12082
11.09167,-11314
11.10000,-10563
11.10833,-9833
11.11667,-9127
11.12500,-8449
11.13333,-7801
11.14167,-7186
11.15000,-6603
11.15833,-6054
11.16667,-5538
11.17500,-5057
11.18333,-4610
11.19167,-4195
11.20000,-3811
11.20833,-3459
11.21667,-3135
11.22500,-2840
11.23333,-2570
11.24167,-2324
11.25000,-2101
11.25833,-1900
11.26667,-1717
11.27500,-1552
11.28333,-1404
11.29167,-1271
11.30000,-1152
11.30833,-1044
11.31667,-948
11.32500,-862
11.33333,-785
11.34167,-716
11.35000,-655
11.35833,-600
11.36667,-551
11.37500,-507
11.38333,-468
11.39167,-432
11.40000,-400
11.40833,-371
11.41667,-345
11.42500,-322
11.43333,-301
11.44167,-282
11.45000,-265
11.45833,-250
11.46667,-235
11.47500,-222
11.48333,-210
11.49167,-199
11.50000,-189
11.50833,-180
11.51667,-171
11.52500,-163
11.53333,-156
11.54167,-150
11.55000,-143
11.55833,-137
11.56667,-132
11.57500,-127
11.58333,-122
11.59167,-117
11.60000,-113
11.60833,-108
11.61667,-104
11.62500,-100
11.63333,-96
11.64167,-93
11.65000,-89
11.65833,-87
11.66667,-84
11.67500,-81
11.68333,-79
11.69167,-77
11.70000,-75
11.70833,-73
11.71667,-71
11.72500,-69
11.73333,-67
11.74167,-66
11.75000,-64
11.75833,-62
11.76667,-61
11.77500,-59
11.78333,-58
11.79167,-56
11.80000,-55
11.80833,-54
11.81667,-53
11.82500,-52
11.83333,-52
11.84167,-51
11.85000,-49
11.85833,-48
11.86667,-47
11.87500,-45
11.88333,-44
11.89167,-43
11.90000,-42
11.90833,-42
11.91667,-41
11.92500,-41
11.93333,-40
11.94167,-40
11.95000,-39
11.95833,-39
11.96667,-38
11.97500,-37
11.98333,-36
11.99167,-35
12.00000,-35
12.00833,-34
12.01667,-33
12.02500,-33
12.03333,-32
12.04167,-32
12.05000,-32
12.05833,-32
12.06667,-32
12.07500,-32
12.08333,-32
12.09167,-32
12.10000,-32
12.10833,-31
12.11667,-31
12.12500,-30
12.13333,-30
12.14167,-29
12.15000,-28
12.15833,-28
12.16667,-28
12.17500,-27
12.18333,-27
12.19167,-27
12.20000,-27
12.20833,-26
12.21667,-26
12.22500,-25
12.23333,-25
12.24167,-24
12.25000,-24
12.25833,-24
12.26667,-23
12.27500,-23
12.28333,-23
12.29167,-23
12.30000,-24
12.30833,-24
12.31667,-23
12.32500,-23
12.33333,-23
12.34167,-22
12.35000,-22
12.35833,-21
12.36667,-21
12.37500,-20
12.38333,-19
12.39167,-19
12.40000,-19
12.40833,-19
12.41667,-19
12.42500,-19
12.43333,-19
12.44167,-18
12.45000,-18
12.45833,-18
12.46667,-17
12.47500,-16
12.48333,-16
12.49167,-16
12.50000,-16
12.50833,-15
12.51667,-15
12.52500,-14
12.53333,-14
12.54167,-15
12.55000,-15
12.55833,-15
12.56667,-14
12.57500,-14
12.58333,-14
12.59167,-13
12.60000,-13
12.60833,-13
12.61667,-13
12.62500,-13
12.63333,-12
12.64167,-12
12.65000,-12
12.65833,-11
12.66667,-11
12.67500,-11
12.68333,-11
12.69167,-10
12.70000,-10
12.70833,-9
12.71667,-9
12.72500,-9
12.73333,-8
12.74167,-8
12.75000,-8
12.75833,-8
12.76667,-8
12.77500,-8
12.78333,-8
12.79167,-8
12.80000,-8
12.80833,-8
12.81667,-8
12.82500,-7
12.83333,-7
12.84167,-7
12.85000,-7
12.85833,-7
12.86667,-6
12.87500,-6
12.88333,-6
12.89167,-5
12.90000,-4
12.90833,-4
12.91667,-3
12.92500,-3
12.93333,-2
12.94167,-2
12.95000,-1
12.95833,-1
12.96667,-1
12.97500,-0
12.98333,-0
12.99167,-0
13.00000,0
13.00833,0
13.01667,0
13.02500,0
13.03333,1
13.04167,0
13.05000,0
13.05833,0
13.06667,0
13.07500,1
13.08333,1
13.09167,1
13.10000,2
13.10833,2
13.11667,3
13.12500,3
13.13333,3
13.14167,3
13.15000,3
13.15833,3
13.16667,4
13.17500,4
13.18333,4
13.19167,5
13.20000,5
13.20833,5
13.21667,5
13.22500,5
13.23333,5
13.24167,5
13.25000,5
13.25833,5
13.26667,5
13.27500,6
13.28333,6
13.29167,6
13.30000,6
13.30833,6
13.31667,7
13.32500,7
13.33333,6
13.34167,6
13.35000,7
13.35833,7
13.36667,7
13.37500,7
13.38333,8
13.39167,8
13.40000,8
13.40833,8
13.41667,7
13.42500,7
13.43333,7
13.44167,7
13.45000,7
13.45833,7
13.46667,7
13.47500,7
13.48333,6
13.49167,6
13.50000,6
13.50833,6
13.51667,6
13.52500,7
13.53333,7
13.54167,7
13.55000,7
13.55833,6
13.56667,6
13.57500,6
13.58333,6
13.59167,6
13.60000,6
13.60833,6
13.61667,6
13.62500,6
13.63333,7
13.64167,7
13.65000,8
13.65833,8
13.66667,8
13.67500,8
13.68333,8
13.69167,8
13.70000,8
13.70833,8
13.71667,9
13.72500,9
13.73333,9
13.74167,9
13.75000,9
13.75833,9
13.76667,9
13.77500,9
13.78333,9
13.79167,9
13.80000,9
13.80833,8
13.81667,8
13.82500,8
13.83333,8
13.84167,8
13.85000,8
13.85833,9
13.86667,9
13.87500,9
13.88333,10
13.89167,10
13.90000,10
13.90833,10
13.91667,10
13.92500,11
13.93333,11
13.94167,11
13.95000,11
13.95833,11
13.96667,11
13.97500,11
13.98333,11
13.99167,11
14.00000,11
14.00833,11
14.01667,11
14.02500,10
14.03333,10
14.04167,10
14.05000,10
14.05833,10
14.06667,10
14.07500,11
14.08333,10
14.09167,10
14.10000,10
14.10833,11
14.11667,11
14.12500,11
14.13333,11
14.14167,11
14.15000,12
14.15833,12
14.16667,12
14.17500,12
14.18333,12
14.19167,12
14.20000,12
14.20833,12
14.21667,12
14.22500,12
14.23333,12
14.24167,13
14.25000,13
14.25833,13
14.26667,12
14.27500,12
14.28333,12
14.29167,12
14.30000,12
14.30833,12
14.31667,12
14.32500,12
14.33333,12
14.34167,12
14.35000,12
14.35833,12
14.36667,12
14.37500,13
14.38333,13
14.39167,13
14.40000,13
14.40833,13
14.41667,13
14.42500,13
14.43333,14
14.44167,14
14.45000,14
14.45833,15
14.46667,15
14.47500,15
14.48333,16
14.49167,16
14.50000,16
14.50833,16
14.51667,16
14.52500,15
14.53333,15
14.54167,15
14.55000,15
14.55833,15
14.56667,15
14.57500,15
14.58333,15
14.59167,14
14.60000,15
14.60833,15
14.61667,15
14.62500,15
14.63333,15
14.64167,15
14.65000,16
14.65833,16
14.66667,16
14.67500,16
14.68333,16
14.69167,16
14.70000,16
14.70833,16
14.71667,16
14.72500,16
14.73333,16
14.74167,17
14.75000,17
14.75833,18
14.76667,18
14.77500,18
14.78333,18
14.79167,17
14.80000,17
14.80833,17
14.81667,17
14.82500,17
14.83333,17
14.84167,17
14.85000,18
14.85833,18
14.86667,19
14.87500,19
14.88333,20
14.89167,20
14.90000,21
14.90833,22
14.91667,22
14.92500,23
14.93333,24
14.94167,25
14.95000,26
14.95833,27
14.96667,28
14.97500,29
14.98333,31
14.99167,32
15.00000,33
15.00833,34
15.01667,36
15.02500,38
15.03333,39
15.04167,41
15.05000,42
15.05833,44
15.06667,46
15.07500,48
15.08333,49
15.09167,51
15.10000,54
15.10833,56
15.11667,58
15.12500,61
15.13333,64
15.14167,67
15.15000,71
15.15833,75
15.16667,80
15.17500,86
15.18333,93
15.19167,100
15.20000,110
15.20833,120
15.21667,132
15.22500,147
15.23333,164
15.24167,184
15.25000,208
15.25833,235
15.26667,267
15.27500,304
15.28333,346
15.29167,394
15.30000,449
15.30833,511
15.31667,582
15.32500,662
15.33333,751
15.34167,850
15.35000,961
15.35833,1082
15.36667,1216
15.37500,1360
15.38333,1518
15.39167,1688
15.40000,1870
15.40833,2064
15.41667,2271
15.42500,2489
15.43333,2718
15.44167,2958
15.45000,3207
15.45833,3464
15.46667,3728
15.47500,3997
15.48333,4270
15.49167,4545
15.50000,4821
15.50833,5095
15.51667,5365
15.52500,5630
15.53333,5888
15.54167,6136
15.55000,6374
15.55833,6598
15.56667,6808
15.57500,7001
15.58333,7177
15.59167,7334
15.60000,7470
15.60833,7586
15.61667,7680
15.62500,7751
15.63333,7800
15.64167,7827
15.65000,7831
15.65833,7813
15.66667,7774
15.67500,7713
15.68333,7632
15.69167,7532
15.70000,7414
15.70833,7280
15.71667,7130
15.72500,6965
15.73333,6788
15.74167,6600
15.75000,6402
15.75833,6196
15.76667,5983
15.77500,5765
15.78333,5543
15.79167,5318
15.80000,5092
15.80833,4865
15.81667,4640
15.82500,4417
15.83333,4197
15.84167,3981
15.85000,3770
15.85833,3564
15.86667,3363
15.87500,3169
15.88333,2981
15.89167,2801
15.90000,2628
15.90833,2462
15.91667,2304
15.92500,2153
15.93333,2010
15.94167,1874
15.95000,1745
15.95833,1624
15.96667,1510
15.97500,1403
15.98333,1302
15.99167,1208
16.00000,1120
16.00833,1038
16.01667,961
16.02500,890
16.03333,824
16.04167,763
16.05000,706
16.05833,654
16.06667,606
16.07500,561
16.08333,520
16.09167,482
16.10000,448
16.10833,416
16.11667,387
16.12500,360
16.13333,335
16.14167,311
16.15000,290
16.15833,271
16.16667,254
16.17500,238
16.18333,223
16.19167,209
16.20000,197
16.20833,186
16.21667,176
16.22500,167
16.23333,159
16.24167,151
16.25000,143
16.25833,137
16.26667,130
16.27500,124
16.28333,119
16.29167,114
16.30000,109
16.30833,105
16.31667,102
16.32500,98
16.33333,95
16.34167,92
16.35000,90
16.35833,88
16.36667,85
16.37500,83
16.38333,81
16.39167,79
16.40000,78
16.40833,76
16.41667,75
16.42500,73
16.43333,72
16.44167,70
16.45000,69
16.45833,68
16.46667,67
16.47500,66
16.48333,65
16.49167,65
16.50000,64
16.50833,63
16.51667,62
16.52500,62
16.53333,61
16.54167,60
16.55000,60
16.55833,59
16.56667,58
16.57500,58
16.58333,57
16.59167,57
16.60000,57
16.60833,57
16.61667,57
16.62500,57
16.63333,57
16.64167,57
16.65000,56
16.65833,56
16.66667,55
16.67500,55
16.68333,55
16.69167,55
16.70000,55
16.70833,55
16.71667,54
16.72500,54
16.73333,54
16.74167,53
16.75000,52
16.75833,52
16.76667,51
16.77500,51
16.78333,51
16.79167,51
16.80000,50
16.80833,50
16.81667,50
16.82500,50
16.83333,50
16.84167,50
16.85000,50
16.85833,50
16.86667,50
16.87500,50
16.88333,50
16.89167,50
16.90000,50
16.90833,50
16.91667,50
16.92500,49
16.93333,49
16.94167,49
16.95000,49
16.95833,49
16.96667,49
16.97500,48
16.98333,48
16.99167,48
17.00000,47
17.00833,47
17.01667,47
17.02500,47
17.03333,47
17.04167,46
17.05000,46
17.05833,46
17.06667,45
17.07500,45
17.08333,45
17.09167,45
17.10000,45
17.10833,45
17.11667,44
17.12500,44
17.13333,44
17.14167,44
17.15000,44
17.15833,44
17.16667,44
17.17500,44
17.18333,43
17.19167,43
17.20000,43
17.20833,43
17.21667,44
17.22500,44
17.23333,44
17.24167,44
17.25000,43
17.25833,43
17.26667,42
17.27500,42
17.28333,42
17.29167,42
17.30000,42
17.30833,42
17.31667,42
17.32500,42
17.33333,42
17.34167,42
17.35000,42
17.35833,42
17.36667,42
17.37500,42
17.38333,42
17.39167,42
17.40000,41
17.40833,41
17.41667,41
17.42500,41
17.43333,41
17.44167,40
17.45000,40
17.45833,41
17.46667,41
17.47500,41
17.48333,41
17.49167,41
17.50000,41
17.50833,41
17.51667,41
17.52500,41
17.53333,41
17.54167,40
17.55000,40
17.55833,40
17.56667,40
17.57500,40
17.58333,40
17.59167,40
17.60000,40
17.60833,40
17.61667,40
17.62500,40
17.63333,40
17.64167,40
17.65000,40
17.65833,40
17.66667,40
17.67500,40
17.68333,40
17.69167,40
17.70000,39
17.70833,39
17.71667,39
17.72500,39
17.73333,39
17.74167,39
17.75000,38
17.75833,38
17.76667,38
17.77500,38
17.78333,38
17.79167,38
17.80000,38
17.80833,38
17.81667,38
17.82500,38
17.83333,38
17.84167,38
17.85000,38
17.85833,38
17.86667,38
17.87500,38
17.88333,38
17.89167,38
17.90000,38
17.90833,38
17.91667,38
17.92500,38
17.93333,38
17.94167,39
17.95000,39
17.95833,39
17.96667,38
17.97500,38
17.98333,38
17.99167,38
18.00000,37
18.00833,38
18.01667,38
18.02500,38
18.03333,38
18.04167,38
18.05000,38
18.05833,38
18.06667,39
18.07500,38
18.08333,38
18.09167,38
18.10000,38
18.10833,37
18.11667,37
18.12500,37
18.13333,37
18.14167,37
18.15000,36
18.15833,37
18.16667,37
18.17500,37
18.18333,37
18.19167,37
18.20000,37
18.20833,37
18.21667,37
18.22500,37
18.23333,37
18.24167,37
18.25000,37
18.25833,37
18.26667,37
18.27500,36
18.28333,36
18.29167,36
18.30000,36
18.30833,35
18.31667,35
18.32500,35
18.33333,35
18.34167,35
18.35000,36
18.35833,36
18.36667,37
18.37500,37
18.38333,38
18.39167,38
18.40000,38
18.40833,38
18.41667,37
18.42500,37
18.43333,36
18.44167,36
18.45000,36
18.45833,36
18.46667,36
18.47500,35
18.48333,35
18.49167,35
18.50000,35
18.50833,35
18.51667,35
18.52500,36
18.53333,36
18.54167,36
18.55000,36
18.55833,36
18.56667,36
18.57500,36
18.58333,36
18.59167,36
18.60000,36
18.60833,36
18.61667,37
18.62500,37
18.63333,37
18.64167,37
18.65000,38
18.65833,38
18.66667,38
18.67500,38
18.68333,38
18.69167,38
18.70000,39
18.70833,39
18.71667,39
18.72500,40
18.73333,40
18.74167,41
18.75000,42
18.75833,42
18.76667,43
18.77500,44
18.78333,45
18.79167,46
18.80000,47
18.80833,48
18.81667,49
18.82500,51
18.83333,52
18.84167,54
18.85000,56
18.85833,57
18.86667,59
18.87500,60
18.88333,61
18.89167,62
18.90000,64
18.90833,65
18.91667,66
18.92500,67
18.93333,68
18.94167,68
18.95000,69
18.95833,70
18.96667,71
18.97500,72
18.98333,72
18.99167,71
19.00000,71
19.00833,71
19.01667,71
19.02500,71
19.03333,71
19.04167,71
19.05000,71
19.05833,71
19.06667,71
19.07500,70
19.08333,69
19.09167,68
19.10000,67
19.10833,66
19.11667,65
19.12500,64
19.13333,64
19.14167,63
19.15000,62
19.15833,61
19.16667,60
19.17500,58
19.18333,57
19.19167,56
19.20000,54
19.20833,53
19.21667,52
19.22500,51
19.23333,50
19.24167,49
19.25000,48
19.25833,47
19.26667,47
19.27500,46
19.28333,45
19.29167,44
19.30000,43
19.30833,42
19.31667,42
19.32500,41
19.33333,41
19.34167,40
19.35000,40
19.35833,40
19.36667,40
19.37500,39
19.38333,39
19.39167,39
19.40000,38
19.40833,38
19.41667,38
19.42500,38
19.43333,38
19.44167,37
19.45000,37
19.45833,37
19.46667,36
19.47500,36
19.48333,35
19.49167,35
19.50000,35
19.50833,35
19.51667,35
19.52500,35
19.53333,35
19.54167,35
19.55000,35
19.55833,35
19.56667,35
19.57500,34
19.58333,34
19.59167,34
19.60000,34
19.60833,34
19.61667,35
19.62500,35
19.63333,35
19.64167,35
19.65000,35
19.65833,35
19.66667,35
19.67500,35
19.68333,35
19.69167,35
19.70000,35
19.70833,35
19.71667,35
19.72500,35
19.73333,35
19.74167,35
19.75000,35
19.75833,35
19.76667,35
19.77500,35
19.78333,35
19.79167,35
19.80000,35
19.80833,35
19.81667,34
19.82500,34
19.83333,34
19.84167,34
19.85000,34
19.85833,34
19.86667,34
19.87500,34
19.88333,34
19.89167,34
19.90000,34
19.90833,34
19.91667,34
19.92500,34
19.93333,34
19.94167,34
19.95000,34
19.95833,33
19.96667,33
19.97500,33
19.98333,33
19.99167,33
20.00000,32
20.00833,33
20.01667,33
20.02500,33
20.03333,33
20.04167,33
20.05000,33
20.05833,33
20.06667,33
20.07500,33
20.08333,34
20.09167,34
20.10000,34
20.10833,34
20.11667,34
20.12500,34
20.13333,34
20.14167,34
20.15000,34
20.15833,34
20.16667,34
20.17500,34
20.18333,34
20.19167,33
20.20000,33
20.20833,33
20.21667,33
20.22500,32
20.23333,32
20.24167,32
20.25000,32
20.25833,33
20.26667,32
20.27500,32
20.28333,32
20.29167,33
20.30000,33
20.30833,33
20.31667,33
20.32500,33
20.33333,33
20.34167,33
20.35000,33
20.35833,34
20.36667,34
20.37500,34
20.38333,34
20.39167,34
20.40000,34
20.40833,34
20.41667,34
20.42500,34
20.43333,34
20.44167,34
20.45000,34
20.45833,33
20.46667,33
20.47500,33
20.48333,33
20.49167,33
20.50000,33
20.50833,33
20.51667,33
20.52500,33
20.53333,33
20.54167,33
20.55000,34
20.55833,34
20.56667,34
20.57500,33
20.58333,33
20.59167,33
20.60000,34
20.60833,34
20.61667,34
20.62500,34
20.63333,34
20.64167,34
20.65000,33
20.65833,33
20.66667,33
20.67500,33
20.68333,33
20.69167,34
20.70000,34
20.70833,34
20.71667,33
20.72500,33
20.73333,33
20.74167,33
20.75000,33
20.75833,33
20.76667,33
20.77500,33
20.78333,34
20.79167,34
20.80000,34
20.80833,34
20.81667,33
20.82500,33
20.83333,34
20.84167,34
20.85000,34
20.85833,34
20.86667,33
20.87500,33
20.88333,33
20.89167,33
20.90000,33
20.90833,33
20.91667,33
20.92500,33
20.93333,33
20.94167,33
20.95000,33
20.95833,34
20.96667,34
20.97500,34
20.98333,34
20.99167,34
21.00000,34
21.00833,34
21.01667,34
21.02500,33
21.03333,33
21.04167,33
21.05000,33
21.05833,33
21.06667,34
21.07500,34
21.08333,35
21.09167,35
21.10000,35
21.10833,34
21.11667,34
21.12500,34
21.13333,34
21.14167,34
21.15000,34
21.15833,34
21.16667,34
21.17500,34
21.18333,34
21.19167,34
21.20000,34
21.20833,34
21.21667,34
21.22500,34
21.23333,34
21.24167,34
21.25000,34
21.25833,34
21.26667,33
21.27500,34
21.28333,34
21.29167,34
21.30000,35
21.30833,35
21.31667,35
21.32500,35
21.33333,35
21.34167,36
21.35000,36
21.35833,37
21.36667,37
21.37500,37
21.38333,37
21.39167,37
21.40000,37
21.40833,37
21.41667,37
21.42500,38
21.43333,38
21.44167,39
21.45000,39
21.45833,40
21.46667,40
21.47500,41
21.48333,42
21.49167,44
21.50000,45
21.50833,45
21.51667,47
21.52500,48
21.53333,51
21.54167,53
21.55000,56
21.55833,59
21.56667,62
21.57500,65
21.58333,70
21.59167,74
21.60000,80
21.60833,85
21.61667,91
21.62500,98
21.63333,106
21.64167,115
21.65000,125
21.65833,136
21.66667,148
21.67500,161
21.68333,176
21.69167,192
21.70000,210
21.70833,230
21.71667,251
21.72500,274
21.73333,300
21.74167,327
21.75000,357
21.75833,388
21.76667,422
21.77500,458
21.78333,497
21.79167,538
21.80000,582
21.80833,628
21.81667,676
21.82500,726
21.83333,778
21.84167,832
21.85000,888
21.85833,945
21.86667,1004
21.87500,1064
21.88333,1126
21.89167,1188
21.90000,1250
21.90833,1313
21.91667,1375
21.92500,1437
21.93333,1498
21.94167,1558
21.95000,1616
21.95833,1672
21.96667,1726
21.97500,1778
21.98333,1827
21.99167,1873
22.00000,1915
22.00833,1954
22.01667,1989
22.02500,2019
22.03333,2046
22.04167,2068
22.05000,2086
22.05833,2099
22.06667,2107
22.07500,2111
22.08333,2109
22.09167,2103
22.10000,2093
22.10833,2078
22.11667,2059
22.12500,2035
22.13333,2008
22.14167,1976
22.15000,1942
22.15833,1904
22.16667,1862
22.17500,1819
22.18333,1773
22.19167,1724
22.20000,1674
22.20833,1623
22.21667,1570
22.22500,1516
22.23333,1462
22.24167,1407
22.25000,1352
22.25833,1297
22.26667,1242
22.27500,1187
22.28333,1133
22.29167,1080
22.30000,1027
22.30833,976
22.31667,926
22.32500,878
22.33333,831
22.34167,786
22.35000,743
22.35833,701
22.36667,660
22.37500,622
22.38333,584
22.39167,549
22.40000,516
22.40833,485
22.41667,455
22.42500,426
22.43333,400
22.44167,375
22.45000,351
22.45833,329
22.46667,309
22.47500,289
22.48333,271
22.49167,254
22.50000,238
22.50833,224
22.51667,210
22.52500,197
22.53333,185
22.54167,174
22.55000,164
22.55833,154
22.56667,146
22.57500,138
22.58333,131
22.59167,124
22.60000,118
22.60833,112
22.61667,107
22.62500,102
22.63333,97
22.64167,93
22.65000,89
22.65833,86
22.66667,83
22.67500,80
22.68333,77
22.69167,75
22.70000,73
22.70833,71
22.71667,69
22.72500,68
22.73333,66
22.74167,64
22.75000,63
22.75833,62
22.76667,60
22.77500,59
22.78333,58
22.79167,57
22.80000,56
22.80833,55
22.81667,54
22.82500,54
22.83333,54
22.84167,53
22.85000,53
22.85833,52
22.86667,51
22.87500,51
22.88333,50
22.89167,50
22.90000,49
22.90833,49
22.91667,49
22.92500,48
22.93333,48
22.94167,48
22.95000,48
22.95833,47
22.96667,47
22.97500,47
22.98333,47
22.99167,47
23.00000,47
23.00833,47
23.01667,47
23.02500,47
23.03333,47
23.04167,46
23.05000,46
23.05833,46
23.06667,46
23.07500,46
23.08333,46
23.09167,46
23.10000,46
23.10833,46
23.11667,46
23.12500,45
23.13333,45
23.14167,44
23.15000,44
23.15833,45
23.16667,45
23.17500,45
23.18333,44
23.19167,44
23.20000,43
23.20833,43
23.21667,44
23.22500,44
23.23333,43
23.24167,43
23.25000,43
23.25833,43
23.26667,43
23.27500,43
23.28333,44
23.29167,44
23.30000,44
23.30833,44
23.31667,43
23.32500,43
23.33333,43
23.34167,43
23.35000,43
23.35833,43
23.36667,43
23.37500,43
23.38333,42
23.39167,42
23.40000,42
23.40833,42
23.41667,42
23.42500,42
23.43333,43
23.44167,43
23.45000,43
23.45833,43
23.46667,43
23.47500,43
23.48333,43
23.49167,42
23.50000,42
23.50833,42
23.51667,42
23.52500,42
23.53333,42
23.54167,42
23.55000,42
23.55833,42
23.56667,42
23.57500,42
23.58333,42
23.59167,41
23.60000,41
23.60833,41
23.61667,40
23.62500,40
23.63333,40
23.64167,41
23.65000,41
23.65833,41
23.66667,40
23.67500,40
23.68333,41
23.69167,41
23.70000,41
23.70833,41
23.71667,41
23.72500,41
23.73333,41
23.74167,41
23.75000,40
23.75833,41
23.76667,41
23.77500,41
23.78333,42
23.79167,42
23.80000,42
23.80833,42
23.81667,42
23.82500,42
23.83333,41
23.84167,41
23.85000,40
23.85833,40
23.86667,40
23.87500,40
23.88333,40
23.89167,41
23.90000,40
23.90833,40
23.91667,40
23.92500,40
23.93333,41
23.94167,41
23.95000,40
23.95833,40
23.96667,40
23.97500,41
23.98333,41
23.99167,41
24.00000,41
24.00833,41
24.01667,41
24.02500,41
24.03333,41
24.04167,41
24.05000,41
24.05833,41
24.06667,41
24.07500,41
24.08333,41
24.09167,41
24.10000,41
24.10833,40
24.11667,40
24.12500,40
24.13333,40
24.14167,40
24.15000,40
24.15833,40
24.16667,40
24.17500,40
24.18333,40
24.19167,40
24.20000,40
24.20833,40
24.21667,41
24.22500,41
24.23333,41
24.24167,41
24.25000,41
24.25833,41
24.26667,41
24.27500,40
24.28333,41
24.29167,41
24.30000,40
24.30833,40
24.31667,41
24.32500,41
24.33333,41
24.34167,41
24.35000,41
24.35833,42
24.36667,42
24.37500,42
24.38333,42
24.39167,43
24.40000,43
24.40833,44
24.41667,44
24.42500,45
24.43333,45
24.44167,45
24.45000,46
24.45833,46
24.46667,47
24.47500,47
24.48333,48
24.49167,49
24.50000,50
24.50833,52
24.51667,53
24.52500,55
24.53333,57
24.54167,59
24.55000,61
24.55833,63
24.56667,65
24.57500,68
24.58333,71
24.59167,74
24.60000,78
24.60833,83
24.61667,87
24.62500,92
24.63333,97
24.64167,103
24.65000,109
24.65833,116
24.66667,124
24.67500,132
24.68333,141
24.69167,150
24.70000,160
24.70833,171
24.71667,182
24.72500,194
24.73333,207
24.74167,220
24.75000,235
24.75833,250
24.76667,265
24.77500,281
24.78333,298
24.79167,316
24.80000,334
24.80833,353
24.81667,372
24.82500,392
24.83333,412
24.84167,433
24.85000,454
24.85833,475
24.86667,497
24.87500,519
24.88333,541
24.89167,563
24.90000,585
24.90833,606
24.91667,627
24.92500,647
24.93333,667
24.94167,686
24.95000,705
24.95833,723
24.96667,740
24.97500,756
24.98333,771
24.99167,785
25.00000,798
25.00833,809
25.01667,819
25.02500,827
25.03333,834
25.04167,839
25.05000,843
25.05833,845
25.06667,846
25.07500,845
25.08333,842
25.09167,838
25.10000,832
25.10833,826
25.11667,818
25.12500,808
25.13333,798
25.14167,787
25.15000,774
25.15833,760
25.16667,746
25.17500,730
25.18333,714
25.19167,697
25.20000,679
25.20833,661
25.21667,642
25.22500,622
25.23333,603
25.24167,583
25.25000,562
25.25833,542
25.26667,522
25.27500,502
25.28333,482
25.29167,463
25.30000,444
25.30833,425
25.31667,406
25.32500,388
25.33333,370
25.34167,353
25.35000,336
25.35833,319
25.36667,304
25.37500,289
25.38333,274
25.39167,260
25.40000,247
25.40833,235
25.41667,223
25.42500,212
25.43333,201
25.44167,190
25.45000,181
25.45833,171
25.46667,162
25.47500,154
25.48333,147
25.49167,140
25.50000,133
25.50833,126
25.51667,119
25.52500,114
25.53333,108
25.54167,103
25.55000,99
25.55833,94
25.56667,90
25.57500,87
25.58333,83
25.59167,80
25.60000,77
25.60833,74
25.61667,72
25.62500,70
25.63333,68
25.64167,66
25.65000,64
25.65833,63
25.66667,62
25.67500,60
25.68333,59
25.69167,57
25.70000,56
25.70833,55
25.71667,55
25.72500,54
25.73333,53
25.74167,52
25.75000,51
25.75833,51
25.76667,50
25.77500,49
25.78333,49
25.79167,49
25.80000,49
25.80833,48
25.81667,48
25.82500,47
25.83333,47
25.84167,47
25.85000,47
25.85833,47
25.86667,46
25.87500,46
25.88333,46
25.89167,46
25.90000,46
25.90833,46
25.91667,46
25.92500,47
25.93333,46
25.94167,46
25.95000,46
25.95833,47
25.96667,47
25.97500,46
25.98333,46
25.99167,46
26.00000,45
26.00833,45
26.01667,45
26.02500,45
26.03333,45
26.04167,44
26.05000,44
26.05833,43
26.06667,43
26.07500,44
26.08333,44
26.09167,44
26.10000,44
26.10833,44
26.11667,44
26.12500,44
26.13333,44
26.14167,43
26.15000,44
26.15833,44
26.16667,44
26.17500,45
26.18333,45
26.19167,45
26.20000,45
26.20833,45
26.21667,44
26.22500,44
26.23333,44
26.24167,44
26.25000,44
26.25833,44
26.26667,44
26.27500,44
26.28333,44
26.29167,44
26.30000,44
26.30833,44
26.31667,44
26.32500,44
26.33333,43
26.34167,43
26.35000,44
26.35833,44
26.36667,44
26.37500,44
26.38333,44
26.39167,43
26.40000,43
26.40833,43
26.41667,43
26.42500,43
26.43333,43
26.44167,43
26.45000,43
26.45833,44
26.46667,44
26.47500,44
26.48333,43
26.49167,43
26.50000,43
26.50833,43
26.51667,43
26.52500,43
26.53333,43
26.54167,43
26.55000,43
26.55833,43
26.56667,44
26.57500,44
26.58333,44
26.59167,44
26.60000,44
26.60833,44
26.61667,44
26.62500,44
26.63333,44
26.64167,44
26.65000,44
26.65833,44
26.66667,43
26.67500,43
26.68333,44
26.69167,44
26.70000,44
26.70833,44
26.71667,44
26.72500,44
26.73333,44
26.74167,44
26.75000,43
26.75833,43
26.76667,43
26.77500,43
26.78333,43
26.79167,44
26.80000,44
26.80833,44
26.81667,44
26.82500,44
26.83333,44
26.84167,45
26.85000,45
26.85833,44
26.86667,44
26.87500,44
26.88333,44
26.89167,44
26.90000,44
26.90833,44
26.91667,44
26.92500,44
26.93333,44
26.94167,44
26.95000,44
26.95833,44
26.96667,43
26.97500,43
26.98333,43
26.99167,43
27.00000,43
27.00833,43
27.01667,43
27.02500,43
27.03333,43
27.04167,43
27.05000,43
27.05833,43
27.06667,43
27.07500,43
27.08333,43
27.09167,43
27.10000,43
27.10833,43
27.11667,44
27.12500,44
27.13333,44
27.14167,45
27.15000,44
27.15833,44
27.16667,43
27.17500,43
27.18333,43
27.19167,43
27.20000,43
27.20833,43
27.21667,43
27.22500,44
27.23333,44
27.24167,44
27.25000,44
27.25833,43
27.26667,43
27.27500,43
27.28333,43
27.29167,43
27.30000,43
27.30833,43
27.31667,44
27.32500,44
27.33333,44
27.34167,44
27.35000,44
27.35833,44
27.36667,44
27.37500,44
27.38333,44
27.39167,44
27.40000,44
27.40833,44
27.41667,44
27.42500,45
27.43333,44
27.44167,44
27.45000,44
27.45833,44
27.46667,43
27.47500,43
27.48333,43
27.49167,43
27.50000,43
27.50833,43
27.51667,43
27.52500,43
27.53333,43
27.54167,43
27.55000,43
27.55833,43
27.56667,43
27.57500,43
27.58333,43
27.59167,43
27.60000,43
27.60833,43
27.61667,43
27.62500,44
27.63333,44
27.64167,44
27.65000,44
27.65833,44
27.66667,44
27.67500,44
27.68333,43
27.69167,44
27.70000,44
27.70833,44
27.71667,43
27.72500,43
27.73333,42
27.74167,42
27.75000,42
27.75833,41
27.76667,41
27.77500,40
27.78333,40
27.79167,40
27.80000,39
27.80833,39
27.81667,39
27.82500,39
27.83333,39
27.84167,38
27.85000,38
27.85833,38
27.86667,37
27.87500,37
27.88333,36
27.89167,35
27.90000,34
27.90833,33
27.91667,32
27.92500,32
27.93333,31
27.94167,30
27.95000,29
27.95833,27
27.96667,26
27.97500,24
27.98333,23
27.99167,21
28.00000,20
28.00833,18
28.01667,16
28.02500,14
28.03333,12
28.04167,10
28.05000,7
28.05833,5
28.06667,3
28.07500,1
28.08333,-2
28.09167,-4
28.10000,-7
28.10833,-9
28.11667,-12
28.12500,-15
28.13333,-18
28.14167,-21
28.15000,-24
28.15833,-27
28.16667,-30
28.17500,-33
28.18333,-37
28.19167,-40
28.20000,-44
28.20833,-48
28.21667,-51
28.22500,-55
28.23333,-58
28.24167,-62
28.25000,-65
28.25833,-69
28.26667,-72
28.27500,-75
28.28333,-78
28.29167,-81
28.30000,-84
28.30833,-87
28.31667,-89
28.32500,-92
28.33333,-95
28.34167,-98
28.35000,-100
28.35833,-103
28.36667,-105
28.37500,-107
28.38333,-108
28.39167,-110
28.40000,-111
28.40833,-112
28.41667,-113
28.42500,-114
28.43333,-115
28.44167,-115
28.45000,-116
28.45833,-116
28.46667,-116
28.47500,-117
28.48333,-117
28.49167,-116
28.50000,-116
28.50833,-115
28.51667,-113
28.52500,-112
28.53333,-111
28.54167,-110
28.55000,-108
28.55833,-106
28.56667,-104
28.57500,-102
28.58333,-100
28.59167,-97
28.60000,-95
28.60833,-92
28.61667,-90
28.62500,-87
28.63333,-84
28.64167,-82
28.65000,-79
28.65833,-76
28.66667,-73
28.67500,-70
28.68333,-67
28.69167,-64
28.70000,-61
28.70833,-59
28.71667,-56
28.72500,-53
28.73333,-49
28.74167,-46
28.75000,-43
28.75833,-41
28.76667,-38
28.77500,-35
28.78333,-33
28.79167,-30
28.80000,-28
28.80833,-25
28.81667,-23
28.82500,-20
28.83333,-18
28.84167,-16
28.85000,-13
28.85833,-11
28.86667,-9
28.87500,-6
28.88333,-4
28.89167,-2
28.90000,0
28.90833,2
28.91667,4
28.92500,5
28.93333,6
28.94167,8
28.95000,9
28.95833,11
28.96667,12
28.97500,12
28.98333,14
28.99167,15
29.00000,16
29.00833,17
29.01667,18
29.02500,19
29.03333,19
29.04167,20
29.05000,21
29.05833,22
29.06667,23
29.07500,24
29.08333,25
29.09167,26
29.10000,27
29.10833,28
29.11667,29
29.12500,29
29.13333,29
29.14167,30
29.15000,30
29.15833,30
29.16667,31
29.17500,31
29.18333,32
29.19167,33
29.20000,33
29.20833,34
29.21667,34
29.22500,34
29.23333,34
29.24167,34
29.25000,34
29.25833,34
29.26667,34
29.27500,34
29.28333,34
29.29167,34
29.30000,34
29.30833,35
29.31667,35
29.32500,35
29.33333,36
29.34167,36
29.35000,36
29.35833,36
29.36667,36
29.37500,37
29.38333,37
29.39167,37
29.40000,37
29.40833,37
29.41667,37
29.42500,37
29.43333,37
29.44167,38
29.45000,38
29.45833,37
29.46667,37
29.47500,37
29.48333,37
29.49167,37
29.50000,37
29.50833,36
29.51667,36
29.52500,36
29.53333,37
29.54167,37
29.55000,36
29.55833,36
29.56667,36
29.57500,36
29.58333,36
29.59167,36
29.60000,36
29.60833,36
29.61667,35
29.62500,35
29.63333,35
29.64167,35
29.65000,34
29.65833,34
29.66667,33
29.67500,33
29.68333,32
29.69167,32
29.70000,32
29.70833,32
29.71667,31
29.72500,30
29.73333,30
29.74167,29
29.75000,28
29.75833,27
29.76667,26
29.77500,25
29.78333,24
29.79167,23
29.80000,22
29.80833,22
29.81667,21
29.82500,20
29.83333,19
29.84167,18
29.85000,17
29.85833,16
29.86667,15
29.87500,14
29.88333,13
29.89167,12
29.90000,11
29.90833,10
29.91667,9
29.92500,8
29.93333,6
29.94167,5
29.95000,4
29.95833,3
29.96667,1
29.97500,0
29.98333,-1
29.99167,-2
30.00000,-3
30.00833,-5
30.01667,-6
30.02500,-8
30.03333,-9
30.04167,-10
30.05000,-11
30.05833,-11
30.06667,-12
30.07500,-13
30.08333,-14
30.09167,-15
30.10000,-16
30.10833,-17
30.11667,-17
30.12500,-17
30.13333,-18
30.14167,-18
30.15000,-19
30.15833,-19
30.16667,-20
30.17500,-20
30.18333,-20
30.19167,-20
30.20000,-20
30.20833,-19
30.21667,-19
30.22500,-20
30.23333,-20
30.24167,-19
30.25000,-19
30.25833,-19
30.26667,-19
30.27500,-19
30.28333,-18
30.29167,-18
30.30000,-18
30.30833,-17
30.31667,-16
30.32500,-15
30.33333,-14
30.34167,-13
30.35000,-12
30.35833,-12
30.36667,-11
30.37500,-10
30.38333,-9
30.39167,-8
30.40000,-6
30.40833,-6
30.41667,-5
30.42500,-4
30.43333,-3
30.44167,-2
30.45000,-1
30.45833,-0
30.46667,1
30.47500,2
30.48333,3
30.49167,4
30.50000,5
30.50833,6
30.51667,8
30.52500,9
30.53333,10
30.54167,10
30.55000,11
30.55833,12
30.56667,13
30.57500,14
30.58333,15
30.59167,16
30.60000,17
30.60833,18
30.61667,19
30.62500,20
30.63333,21
30.64167,22
30.65000,23
30.65833,24
30.66667,24
30.67500,25
30.68333,26
30.69167,26
30.70000,27
30.70833,27
30.71667,28
30.72500,28
30.73333,28
30.74167,28
30.75000,29
30.75833,29
30.76667,29
30.77500,30
30.78333,30
30.79167,31
30.80000,32
30.80833,32
30.81667,33
30.82500,33
30.83333,34
30.84167,34
30.85000,34
30.85833,35
30.86667,35
30.87500,36
30.88333,36
30.89167,36
30.90000,36
30.90833,36
30.91667,37
30.92500,37
30.93333,38
30.94167,37
30.95000,37
30.95833,37
30.96667,37
30.97500,36
30.98333,36
30.99167,36
31.00000,36
31.00833,36
31.01667,36
31.02500,37
31.03333,37
31.04167,37
31.05000,37
31.05833,37
31.06667,37
31.07500,37
31.08333,37
31.09167,38
31.10000,38
31.10833,39
31.11667,39
31.12500,39
31.13333,40
31.14167,40
31.15000,40
31.15833,40
31.16667,40
31.17500,40
31.18333,40
31.19167,40
31.20000,40
31.20833,40
31.21667,40
31.22500,40
31.23333,40
31.24167,40
31.25000,40
31.25833,40
31.26667,40
31.27500,40
31.28333,41
31.29167,40
31.30000,40
31.30833,40
31.31667,40
31.32500,41
31.33333,41
31.34167,42
31.35000,42
31.35833,42
31.36667,42
31.37500,43
31.38333,43
31.39167,43
31.40000,44
31.40833,43
31.41667,43
31.42500,43
31.43333,43
31.44167,43
31.45000,43
31.45833,44
31.46667,44
31.47500,44
31.48333,44
31.49167,44
31.50000,44
31.50833,44
31.51667,43
31.52500,43
31.53333,44
31.54167,44
31.55000,44
31.55833,44
31.56667,44
31.57500,44
31.58333,44
31.59167,44
31.60000,45
31.60833,45
31.61667,45
31.62500,45
31.63333,45
31.64167,45
31.65000,45
31.65833,45
31.66667,45
31.67500,45
31.68333,45
31.69167,45
31.70000,45
31.70833,45
31.71667,45
31.72500,46
31.73333,46
31.74167,46
31.75000,46
31.75833,46
31.76667,46
31.77500,46
31.78333,46
31.79167,46
31.80000,46
31.80833,46
31.81667,46
31.82500,46
31.83333,46
31.84167,46
31.85000,46
31.85833,47
31.86667,47
31.87500,47
31.88333,47
31.89167,47
31.90000,47
31.90833,47
31.91667,47
31.92500,46
31.93333,46
31.94167,46
31.95000,46
31.95833,46
31.96667,47
31.97500,47
31.98333,46
31.99167,46
32.00000,46
32.00833,46
32.01667,46
32.02500,46
32.03333,46
32.04167,46
32.05000,47
32.05833,47
32.06667,48
32.07500,48
32.08333,48
32.09167,48
32.10000,48
32.10833,47
32.11667,47
32.12500,47
32.13333,47
32.14167,48
32.15000,48
32.15833,48
32.16667,48
32.17500,48
32.18333,48
32.19167,48
32.20000,49
32.20833,49
32.21667,49
32.22500,48
32.23333,48
32.24167,48
32.25000,48
32.25833,47
32.26667,47
32.27500,47
32.28333,47
32.29167,48
32.30000,48
32.30833,48
32.31667,48
32.32500,48
32.33333,48
32.34167,48
32.35000,48
32.35833,48
32.36667,48
32.37500,48
32.38333,48
32.39167,49
32.40000,49
32.40833,49
32.41667,49
32.42500,49
32.43333,48
32.44167,49
32.45000,49
32.45833,48
32.46667,48
32.47500,48
32.48333,48
32.49167,48
32.50000,48
32.50833,48
32.51667,48
32.52500,48
32.53333,48
32.54167,48
32.55000,49
32.55833,49
32.56667,49
32.57500,49
32.58333,49
32.59167,49
32.60000,49
32.60833,49
32.61667,49
32.62500,48
32.63333,49
32.64167,49
32.65000,49
32.65833,49
32.66667,49
32.67500,49
32.68333,49
32.69167,49
32.70000,49
32.70833,49
32.71667,49
32.72500,49
32.73333,49
32.74167,48
32.75000,48
32.75833,48
32.76667,48
32.77500,48
32.78333,48
32.79167,48
32.80000,48
32.80833,49
32.81667,49
32.82500,49
32.83333,49
32.84167,49
32.85000,49
32.85833,49
32.86667,49
32.87500,49
32.88333,48
32.89167,48
32.90000,49
32.90833,49
32.91667,49
32.92500,49
32.93333,49
32.94167,49
32.95000,49
32.95833,49
32.96667,49
32.97500,49
32.98333,48
32.99167,48
33.00000,48
33.00833,48
33.01667,49
33.02500,49
33.03333,49
33.04167,49
33.05000,48
33.05833,49
33.06667,49
33.07500,49
33.08333,49
33.09167,49
33.10000,49
33.10833,49
33.11667,50
33.12500,50
33.13333,50
33.14167,50
33.15000,50
33.15833,50
33.16667,50
33.17500,50
33.18333,50
33.19167,50
33.20000,50
33.20833,50
33.21667,50
33.22500,50
33.23333,50
33.24167,50
33.25000,50
33.25833,49
33.26667,49
33.27500,49
33.28333,49
33.29167,50
33.30000,50
33.30833,50
33.31667,50
33.32500,50
33.33333,50
33.34167,50
33.35000,50
33.35833,50
33.36667,50
33.37500,50
33.38333,50
33.39167,50
33.40000,50
33.40833,50
33.41667,50
33.42500,50
33.43333,49
33.44167,49
33.45000,48
33.45833,48
33.46667,48
33.47500,48
33.48333,49
33.49167,49
33.50000,49
33.50833,49
33.51667,49
33.52500,49
33.53333,49
33.54167,49
33.55000,49
33.55833,49
33.56667,49
33.57500,50
33.58333,50
33.59167,50
33.60000,50
33.60833,50
33.61667,51
33.62500,51
33.63333,51
33.64167,51
33.65000,51
33.65833,51
33.66667,51
33.67500,51
33.68333,51
33.69167,51
33.70000,51
33.70833,51
33.71667,51
33.72500,51
33.73333,51
33.74167,51
33.75000,50
33.75833,50
33.76667,50
33.77500,50
33.78333,50
33.79167,50
33.80000,50
33.80833,51
33.81667,51
33.82500,51
33.83333,51
33.84167,51
33.85000,52
33.85833,52
33.86667,52
33.87500,51
33.88333,51
33.89167,52
33.90000,51
33.90833,51
33.91667,51
33.92500,51
33.93333,52
33.94167,52
33.95000,52
33.95833,52
33.96667,51
33.97500,51
33.98333,51
33.99167,51
34.00000,51
34.00833,51
34.01667,51
34.02500,51
34.03333,51
34.04167,51
34.05000,51
34.05833,51
34.06667,51
34.07500,51
34.08333,51
34.09167,52
34.10000,52
34.10833,52
34.11667,52
34.12500,53
34.13333,53
34.14167,52
34.15000,52
34.15833,52
34.16667,52
34.17500,52
34.18333,52
34.19167,52
34.20000,52
34.20833,52
34.21667,52
34.22500,53
34.23333,53
34.24167,52
34.25000,52
34.25833,52
34.26667,52
34.27500,51
34.28333,51
34.29167,51
34.30000,52
34.30833,52
34.31667,52
34.32500,51
34.33333,51
34.34167,52
34.35000,52
34.35833,52
34.36667,52
34.37500,52
34.38333,52
34.39167,52
34.40000,52
34.40833,52
34.41667,53
34.42500,53
34.43333,52
34.44167,52
34.45000,53
34.45833,53
34.46667,53
34.47500,52
34.48333,52
34.49167,52
34.50000,52
34.50833,52
34.51667,52
34.52500,52
34.53333,52
34.54167,52
34.55000,52
34.55833,52
34.56667,53
34.57500,53
34.58333,53
34.59167,53
34.60000,53
34.60833,54
34.61667,54
34.62500,54
34.63333,54
34.64167,54
34.65000,54
34.65833,54
34.66667,54
34.67500,53
34.68333,53
34.69167,54
34.70000,54
34.70833,54
34.71667,54
34.72500,54
34.73333,54
34.74167,53
34.75000,53
34.75833,53
34.76667,53
34.77500,54
34.78333,54
34.79167,54
34.80000,54
34.80833,54
34.81667,54
34.82500,54
34.83333,54
34.84167,54
34.85000,54
34.85833,54
34.86667,54
34.87500,54
34.88333,54
34.89167,54
34.90000,55
34.90833,55
34.91667,55
34.92500,55
34.93333,55
34.94167,54
34.95000,54
34.95833,54
34.96667,53
34.97500,53
34.98333,53
34.99167,53
35.00000,53
35.00833,53
35.01667,53
35.02500,54
35.03333,54
35.04167,54
35.05000,54
35.05833,55
35.06667,54
35.07500,54
35.08333,54
35.09167,54
35.10000,54
35.10833,54
35.11667,54
35.12500,54
35.13333,54
35.14167,54
35.15000,54
35.15833,55
35.16667,55
35.17500,55
35.18333,55
35.19167,54
35.20000,54
35.20833,54
35.21667,53
35.22500,53
35.23333,53
35.24167,53
35.25000,53
35.25833,54
35.26667,54
35.27500,54
35.28333,54
35.29167,54
35.30000,54
35.30833,54
35.31667,54
35.32500,53
35.33333,53
35.34167,53
35.35000,54
35.35833,54
35.36667,54
35.37500,54
35.38333,54
35.39167,54
35.40000,54
35.40833,54
35.41667,54
35.42500,54
35.43333,54
35.44167,54
35.45000,53
35.45833,53
35.46667,53
35.47500,53
35.48333,53
35.49167,53
35.50000,53
35.50833,53
35.51667,54
35.52500,54
35.53333,54
35.54167,54
35.55000,54
35.55833,54
35.56667,54
35.57500,54
35.58333,54
35.59167,54
35.60000,54
35.60833,54
35.61667,54
35.62500,54
35.63333,54
35.64167,54
35.65000,54
35.65833,54
35.66667,54
35.67500,55
35.68333,55
35.69167,55
35.70000,54
35.70833,54
35.71667,53
35.72500,53
35.73333,54
35.74167,54
35.75000,54
35.75833,54
35.76667,54
35.77500,55
35.78333,55
35.79167,55
35.80000,55
35.80833,55
35.81667,55
35.82500,55
35.83333,55
35.84167,54
35.85000,54
35.85833,55
35.86667,55
35.87500,55
35.88333,55
35.89167,55
35.90000,54
35.90833,54
35.91667,54
35.92500,54
35.93333,54
35.94167,54
35.95000,54
35.95833,54
35.96667,54
35.97500,54
35.98333,54
35.99167,54
36.00000,54
36.00833,54
36.01667,54
36.02500,54
36.03333,54
36.04167,54
36.05000,54
36.05833,54
36.06667,54
36.07500,54
36.08333,54
36.09167,54
36.10000,54
36.10833,54
36.11667,54
36.12500,54
36.13333,54
36.14167,54
36.15000,53
36.15833,53
36.16667,53
36.17500,53
36.18333,53
36.19167,53
36.20000,53
36.20833,53
36.21667,53
36.22500,53
36.23333,53
36.24167,53
36.25000,53
36.25833,53
36.26667,54
36.27500,54
36.28333,54
36.29167,54
36.30000,54
36.30833,53
36.31667,53
36.32500,53
36.33333,53
36.34167,53
36.35000,53
36.35833,53
36.36667,53
36.37500,53
36.38333,53
36.39167,53
36.40000,53
36.40833,53
36.41667,53
36.42500,53
36.43333,53
36.44167,53
36.45000,53
36.45833,53
36.46667,53
36.47500,53
36.48333,53
36.49167,53
36.50000,54
36.50833,54
36.51667,54
36.52500,54
36.53333,54
36.54167,54
36.55000,54
36.55833,54
36.56667,55
36.57500,55
36.58333,55
36.59167,55
36.60000,55
36.60833,55
36.61667,54
36.62500,54
36.63333,54
36.64167,54
36.65000,54
36.65833,54
36.66667,54
36.67500,54
36.68333,54
36.69167,54
36.70000,54
36.70833,54
36.71667,54
36.72500,55
36.73333,55
36.74167,56
36.75000,56
36.75833,56
36.76667,56
36.77500,56
36.78333,56
36.79167,56
36.80000,56
36.80833,56
36.81667,56
36.82500,56
36.83333,55
36.84167,55
36.85000,55
36.85833,55
36.86667,55
36.87500,55
36.88333,55
36.89167,55
36.90000,55
36.90833,55
36.91667,55
36.92500,55
36.93333,56
36.94167,55
36.95000,56
36.95833,56
36.96667,56
36.97500,56
36.98333,57
36.99167,57
37.00000,57
37.00833,57
37.01667,57
37.02500,57
37.03333,57
37.04167,57
37.05000,57
37.05833,57
37.06667,57
37.07500,57
37.08333,57
37.09167,57
37.10000,57
37.10833,56
37.11667,56
37.12500,56
37.13333,56
37.14167,56
37.15000,56
37.15833,56
37.16667,56
37.17500,56
37.18333,56
37.19167,56
37.20000,56
37.20833,56
37.21667,56
37.22500,56
37.23333,56
37.24167,56
37.25000,56
37.25833,57
37.26667,57
37.27500,57
37.28333,57
37.29167,58
37.30000,57
37.30833,57
37.31667,57
37.32500,57
37.33333,57
37.34167,57
37.35000,58
37.35833,58
37.36667,58
37.37500,58
37.38333,57
37.39167,57
37.40000,58
37.40833,58
37.41667,57
37.42500,57
37.43333,57
37.44167,56
37.45000,56
37.45833,56
37.46667,56
37.47500,56
37.48333,56
37.49167,56
37.50000,57
37.50833,57
37.51667,57
37.52500,57
37.53333,58
37.54167,58
37.55000,58
37.55833,58
37.56667,58
37.57500,58
37.58333,58
37.59167,58
37.60000,58
37.60833,58
37.61667,58
37.62500,57
37.63333,57
37.64167,57
37.65000,57
37.65833,57
37.66667,57
37.67500,57
37.68333,57
37.69167,57
37.70000,58
37.70833,58
37.71667,58
37.72500,58
37.73333,58
37.74167,58
37.75000,58
37.75833,57
37.76667,57
37.77500,57
37.78333,57
37.79167,57
37.80000,57
37.80833,58
37.81667,58
37.82500,58
37.83333,58
37.84167,58
37.85000,58
37.85833,58
37.86667,58
37.87500,58
37.88333,57
37.89167,57
37.90000,57
37.90833,57
37.91667,57
37.92500,57
37.93333,57
37.94167,57
37.95000,57
37.95833,57
37.96667,57
37.97500,57
37.98333,58
37.99167,58
38.00000,58
38.00833,58
38.01667,59
38.02500,59
38.03333,59
38.04167,58
38.05000,58
38.05833,58
38.06667,58
38.07500,59
38.08333,59
38.09167,59
38.10000,59
38.10833,59
38.11667,59
38.12500,59
38.13333,58
38.14167,58
38.15000,58
38.15833,58
38.16667,58
38.17500,58
38.18333,59
38.19167,59
38.20000,59
38.20833,59
38.21667,59
38.22500,59
38.23333,59
38.24167,59
38.25000,59
38.25833,59
38.26667,59
38.27500,60
38.28333,60
38.29167,59
38.30000,59
38.30833,59
38.31667,59
38.32500,59
38.33333,60
38.34167,60
38.35000,60
38.35833,60
38.36667,60
38.37500,60
38.38333,59
38.39167,59
38.40000,59
38.40833,60
38.41667,60
38.42500,60
38.43333,60
38.44167,60
38.45000,60
38.45833,60
38.46667,60
38.47500,60
38.48333,60
38.49167,59
38.50000,59
38.50833,59
38.51667,59
38.52500,60
38.53333,60
38.54167,60
38.55000,60
38.55833,60
38.56667,60
38.57500,60
38.58333,60
38.59167,60
38.60000,60
38.60833,60
38.61667,60
38.62500,59
38.63333,60
38.64167,60
38.65000,60
38.65833,60
38.66667,60
38.67500,60
38.68333,60
38.69167,60
38.70000,59
38.70833,59
38.71667,59
38.72500,59
38.73333,60
38.74167,60
38.75000,60
38.75833,59
38.76667,60
38.77500,60
38.78333,60
38.79167,60
38.80000,60
38.80833,60
38.81667,60
38.82500,60
38.83333,60
38.84167,60
38.85000,59
38.85833,59
38.86667,59
38.87500,59
38.88333,58
38.89167,58
38.90000,58
38.90833,58
38.91667,59
38.92500,59
38.93333,59
38.94167,59
38.95000,59
38.95833,59
38.96667,59
38.97500,59
38.98333,59
38.99167,59
39.00000,59
39.00833,59
39.01667,60
39.02500,59
39.03333,59
39.04167,59
39.05000,59
39.05833,59
39.06667,59
39.07500,59
39.08333,59
39.09167,59
39.10000,59
39.10833,59
39.11667,59
39.12500,59
39.13333,59
39.14167,59
39.15000,59
39.15833,59
39.16667,59
39.17500,59
39.18333,59
39.19167,59
39.20000,59
39.20833,59
39.21667,59
39.22500,59
39.23333,59
39.24167,60
39.25000,60
39.25833,60
39.26667,59
39.27500,59
39.28333,59
39.29167,59
39.30000,58
39.30833,58
39.31667,59
39.32500,59
39.33333,58
39.34167,59
39.35000,59
39.35833,59
39.36667,59
39.37500,59
39.38333,59
39.39167,58
39.40000,58
39.40833,58
39.41667,58
39.42500,58
39.43333,59
39.44167,59
39.45000,59
39.45833,59
39.46667,60
39.47500,60
39.48333,60
39.49167,60
39.50000,60
39.50833,60
39.51667,60
39.52500,60
39.53333,60
39.54167,60
39.55000,60
39.55833,60
39.56667,60
39.57500,60
39.58333,60
39.59167,59
39.60000,59
39.60833,59
39.61667,60
39.62500,60
39.63333,60
39.64167,60
39.65000,60
39.65833,60
39.66667,60
39.67500,60
39.68333,60
39.69167,60
39.70000,60
39.70833,60
39.71667,60
39.72500,60
39.73333,59
39.74167,60
39.75000,60
39.75833,60
39.76667,60
39.77500,60
39.78333,60
39.79167,60
39.80000,60
39.80833,60
39.81667,59
39.82500,59
39.83333,59
39.84167,59
39.85000,59
39.85833,59
39.86667,59
39.87500,59
39.88333,59
39.89167,59
39.90000,60
39.90833,60
39.91667,60
39.92500,60
39.93333,60
39.94167,60
39.95000,60
39.95833,60
39.96667,60
39.97500,60
39.98333,60
39.99167,60
40.00000,60

