[Header]
Application Name,LabSolutions
Version,5.97 SP1
Data File Name,C:\Users\cremerlab\Desktop\griffin\2021-03-31_NCM3722_NCglucose_turnover\2021-03-31_NCM3722_turnover_batch_3312021_006_027.lcd
Output Date,4/1/2021
Output Time,2:43:59 PM

[File Information]
Type,Data File
Generated,4/1/2021 2:03:38 PM
Generated by,System Administrator
Modified,4/1/2021 2:43:59 PM
Modified by,System Administrator

[Sample Information]
Operator Name,System Administrator
Acquired,4/1/2021 2:03:57 PM
Sample Type,1:Standard
Level,6
Sample Name,2021-03-31_NCM3722_NCglucose_replicate_04_timepoint_006
Sample ID,006
ISTD Amount1,1
ISTD Amount2,1
ISTD Amount3,1
ISTD Amount4,1
ISTD Amount5,1
ISTD Amount6,1
ISTD Amount7,1
ISTD Amount8,1
ISTD Amount9,1
ISTD Amount10,1
ISTD Amount11,1
ISTD Amount12,1
ISTD Amount13,1
ISTD Amount14,1
ISTD Amount15,1
ISTD Amount16,1
ISTD Amount17,1
ISTD Amount18,1
ISTD Amount19,1
ISTD Amount20,1
ISTD Amount21,1
ISTD Amount22,1
ISTD Amount23,1
ISTD Amount24,1
ISTD Amount25,1
ISTD Amount26,1
ISTD Amount27,1
ISTD Amount28,1
ISTD Amount29,1
ISTD Amount30,1
ISTD Amount31,1
ISTD Amount32,1
Sample Amount,1
Dilution Factor,1
Vial#,42
Injection Volume,20

[Original Files]
Data File,C:\Users\cremerlab\Desktop\griffin\2021-03-31_NCM3722_NCglucose_turnover\2021-03-31_NCM3722_turnover_batch_3312021_006_027.lcd
Method File,C:\LabSolutions\Data\Project1\organicacidsetc2.lcm
Batch File,C:\Users\cremerlab\Desktop\griffin\2021-03-31_NCM3722_NCglucose_turnover\2021-03-31_NCM3722_turnover_batch.lcb
Report Format File,c:\LabSolutions\System\DEFAULT.lsr

[File Description]


[Configuration]
Instrument Name,HPLC-PC-Instrument1
Instrument #,1
Line #,1
# of Detectors,2
Detector ID,Detector A,Detector B
Detector Name,Detector A,Detector B
# of Channels,1,1

[Peak Table(Detector A)]
# of Peaks,0

[Peak Table(Detector B)]
# of Peaks,5
Peak#,R.Time,I.Time,F.Time,Area,Height,A/H,Conc.,Mark,ID#,Name,k',Plate #,Plate Ht.,Tailing,Resolution,Sep.Factor,Area Ratio,Height Ratio,Conc. %,Norm Conc.
1,11.058,10.750,12.583,1217922,69527,17.517,23.074,   ,,,0.000,10731,13.978,1.291,0.000,0.000,0,0,0.000,0.000
2,15.106,14.108,15.400,3155223,118861,26.546,59.777,   ,,,0.366,7072,21.209,0.000,7.067,0.000,0,0,0.000,0.000
3,15.644,15.400,18.467,893707,36345,24.589,16.932, V ,,,0.415,8215,18.260,0.000,0.764,1.133,0,0,0.000,0.000
4,19.005,18.683,19.567,2347,106,22.201,0.044,   ,,,0.719,15681,9.566,1.184,5.181,1.733,0,0,0.000,0.000
5,25.062,24.558,25.700,9128,324,28.147,0.173,   ,,,1.266,17489,8.577,1.070,8.875,1.762,0,0,0.000,0.000

[LC Chromatogram(Detector B-Ch1)]
Interval(msec),500
# of Points,4801
Start Time(min),0.000
End Time(min),40.000
Intensity Units,mV
Intensity Multiplier,0.001
R.Time (min),Intensity
0.00000,1
0.00833,1
0.01667,0
0.02500,0
0.03333,0
0.04167,0
0.05000,0
0.05833,0
0.06667,0
0.07500,0
0.08333,1
0.09167,1
0.10000,1
0.10833,1
0.11667,1
0.12500,1
0.13333,0
0.14167,-0
0.15000,-0
0.15833,-1
0.16667,-0
0.17500,-0
0.18333,0
0.19167,0
0.20000,1
0.20833,1
0.21667,1
0.22500,1
0.23333,1
0.24167,1
0.25000,1
0.25833,1
0.26667,1
0.27500,1
0.28333,1
0.29167,1
0.30000,1
0.30833,1
0.31667,1
0.32500,1
0.33333,1
0.34167,1
0.35000,0
0.35833,0
0.36667,0
0.37500,0
0.38333,0
0.39167,-0
0.40000,-0
0.40833,-0
0.41667,-0
0.42500,0
0.43333,0
0.44167,1
0.45000,1
0.45833,1
0.46667,2
0.47500,2
0.48333,2
0.49167,2
0.50000,1
0.50833,1
0.51667,1
0.52500,1
0.53333,2
0.54167,2
0.55000,3
0.55833,3
0.56667,3
0.57500,3
0.58333,3
0.59167,3
0.60000,3
0.60833,2
0.61667,2
0.62500,2
0.63333,1
0.64167,1
0.65000,1
0.65833,1
0.66667,1
0.67500,1
0.68333,1
0.69167,1
0.70000,1
0.70833,1
0.71667,2
0.72500,2
0.73333,2
0.74167,2
0.75000,1
0.75833,1
0.76667,1
0.77500,1
0.78333,2
0.79167,2
0.80000,2
0.80833,2
0.81667,2
0.82500,2
0.83333,3
0.84167,2
0.85000,2
0.85833,2
0.86667,2
0.87500,2
0.88333,2
0.89167,2
0.90000,2
0.90833,2
0.91667,2
0.92500,2
0.93333,3
0.94167,3
0.95000,3
0.95833,3
0.96667,3
0.97500,3
0.98333,3
0.99167,2
1.00000,2
1.00833,2
1.01667,2
1.02500,2
1.03333,3
1.04167,3
1.05000,3
1.05833,3
1.06667,2
1.07500,2
1.08333,2
1.09167,2
1.10000,2
1.10833,2
1.11667,2
1.12500,2
1.13333,2
1.14167,2
1.15000,3
1.15833,3
1.16667,3
1.17500,3
1.18333,4
1.19167,4
1.20000,4
1.20833,4
1.21667,3
1.22500,3
1.23333,4
1.24167,4
1.25000,4
1.25833,4
1.26667,4
1.27500,4
1.28333,4
1.29167,4
1.30000,4
1.30833,4
1.31667,3
1.32500,3
1.33333,4
1.34167,3
1.35000,3
1.35833,3
1.36667,4
1.37500,4
1.38333,4
1.39167,4
1.40000,4
1.40833,4
1.41667,4
1.42500,4
1.43333,4
1.44167,4
1.45000,4
1.45833,4
1.46667,4
1.47500,4
1.48333,4
1.49167,4
1.50000,4
1.50833,3
1.51667,3
1.52500,4
1.53333,4
1.54167,4
1.55000,5
1.55833,5
1.56667,5
1.57500,5
1.58333,5
1.59167,5
1.60000,6
1.60833,6
1.61667,5
1.62500,5
1.63333,6
1.64167,6
1.65000,6
1.65833,7
1.66667,7
1.67500,7
1.68333,7
1.69167,7
1.70000,7
1.70833,7
1.71667,7
1.72500,7
1.73333,6
1.74167,6
1.75000,6
1.75833,6
1.76667,6
1.77500,6
1.78333,7
1.79167,7
1.80000,7
1.80833,8
1.81667,8
1.82500,9
1.83333,9
1.84167,9
1.85000,9
1.85833,10
1.86667,10
1.87500,10
1.88333,9
1.89167,9
1.90000,9
1.90833,9
1.91667,9
1.92500,8
1.93333,8
1.94167,8
1.95000,8
1.95833,8
1.96667,8
1.97500,8
1.98333,9
1.99167,9
2.00000,9
2.00833,9
2.01667,9
2.02500,9
2.03333,9
2.04167,9
2.05000,9
2.05833,9
2.06667,10
2.07500,10
2.08333,9
2.09167,9
2.10000,9
2.10833,9
2.11667,9
2.12500,9
2.13333,10
2.14167,10
2.15000,9
2.15833,10
2.16667,9
2.17500,9
2.18333,9
2.19167,9
2.20000,8
2.20833,8
2.21667,8
2.22500,9
2.23333,9
2.24167,9
2.25000,9
2.25833,9
2.26667,9
2.27500,9
2.28333,9
2.29167,9
2.30000,9
2.30833,9
2.31667,9
2.32500,10
2.33333,10
2.34167,10
2.35000,9
2.35833,9
2.36667,8
2.37500,8
2.38333,8
2.39167,8
2.40000,8
2.40833,8
2.41667,8
2.42500,7
2.43333,7
2.44167,7
2.45000,7
2.45833,7
2.46667,7
2.47500,8
2.48333,8
2.49167,8
2.50000,8
2.50833,8
2.51667,8
2.52500,8
2.53333,8
2.54167,8
2.55000,8
2.55833,8
2.56667,8
2.57500,8
2.58333,8
2.59167,8
2.60000,8
2.60833,8
2.61667,8
2.62500,8
2.63333,7
2.64167,6
2.65000,6
2.65833,6
2.66667,6
2.67500,6
2.68333,6
2.69167,6
2.70000,7
2.70833,7
2.71667,7
2.72500,7
2.73333,7
2.74167,7
2.75000,7
2.75833,7
2.76667,7
2.77500,7
2.78333,7
2.79167,8
2.80000,8
2.80833,8
2.81667,7
2.82500,8
2.83333,8
2.84167,8
2.85000,8
2.85833,8
2.86667,7
2.87500,7
2.88333,7
2.89167,6
2.90000,6
2.90833,6
2.91667,6
2.92500,6
2.93333,6
2.94167,6
2.95000,6
2.95833,6
2.96667,6
2.97500,6
2.98333,6
2.99167,6
3.00000,6
3.00833,6
3.01667,6
3.02500,6
3.03333,7
3.04167,7
3.05000,7
3.05833,7
3.06667,7
3.07500,8
3.08333,7
3.09167,7
3.10000,7
3.10833,7
3.11667,6
3.12500,6
3.13333,6
3.14167,6
3.15000,7
3.15833,8
3.16667,8
3.17500,8
3.18333,8
3.19167,8
3.20000,8
3.20833,7
3.21667,7
3.22500,7
3.23333,8
3.24167,8
3.25000,8
3.25833,8
3.26667,8
3.27500,8
3.28333,8
3.29167,8
3.30000,7
3.30833,7
3.31667,7
3.32500,7
3.33333,7
3.34167,7
3.35000,7
3.35833,7
3.36667,7
3.37500,7
3.38333,7
3.39167,7
3.40000,8
3.40833,8
3.41667,8
3.42500,8
3.43333,8
3.44167,8
3.45000,8
3.45833,8
3.46667,8
3.47500,8
3.48333,8
3.49167,8
3.50000,8
3.50833,8
3.51667,8
3.52500,8
3.53333,8
3.54167,8
3.55000,7
3.55833,7
3.56667,7
3.57500,7
3.58333,8
3.59167,8
3.60000,8
3.60833,7
3.61667,7
3.62500,7
3.63333,8
3.64167,9
3.65000,9
3.65833,9
3.66667,10
3.67500,10
3.68333,10
3.69167,10
3.70000,11
3.70833,11
3.71667,10
3.72500,10
3.73333,10
3.74167,10
3.75000,10
3.75833,9
3.76667,9
3.77500,9
3.78333,10
3.79167,9
3.80000,9
3.80833,9
3.81667,10
3.82500,10
3.83333,11
3.84167,11
3.85000,11
3.85833,11
3.86667,11
3.87500,11
3.88333,12
3.89167,12
3.90000,12
3.90833,12
3.91667,12
3.92500,12
3.93333,12
3.94167,12
3.95000,12
3.95833,12
3.96667,11
3.97500,12
3.98333,12
3.99167,11
4.00000,11
4.00833,11
4.01667,11
4.02500,11
4.03333,11
4.04167,11
4.05000,11
4.05833,12
4.06667,12
4.07500,12
4.08333,12
4.09167,13
4.10000,13
4.10833,13
4.11667,13
4.12500,13
4.13333,13
4.14167,13
4.15000,13
4.15833,13
4.16667,13
4.17500,13
4.18333,13
4.19167,13
4.20000,12
4.20833,12
4.21667,12
4.22500,12
4.23333,12
4.24167,12
4.25000,12
4.25833,12
4.26667,12
4.27500,12
4.28333,13
4.29167,13
4.30000,13
4.30833,13
4.31667,13
4.32500,13
4.33333,13
4.34167,13
4.35000,12
4.35833,12
4.36667,12
4.37500,12
4.38333,12
4.39167,12
4.40000,12
4.40833,12
4.41667,12
4.42500,11
4.43333,11
4.44167,11
4.45000,12
4.45833,12
4.46667,12
4.47500,12
4.48333,12
4.49167,12
4.50000,12
4.50833,12
4.51667,12
4.52500,12
4.53333,12
4.54167,12
4.55000,11
4.55833,11
4.56667,10
4.57500,10
4.58333,11
4.59167,11
4.60000,11
4.60833,11
4.61667,11
4.62500,11
4.63333,11
4.64167,11
4.65000,11
4.65833,11
4.66667,11
4.67500,11
4.68333,11
4.69167,11
4.70000,11
4.70833,11
4.71667,11
4.72500,11
4.73333,11
4.74167,11
4.75000,11
4.75833,11
4.76667,11
4.77500,11
4.78333,11
4.79167,10
4.80000,10
4.80833,11
4.81667,11
4.82500,11
4.83333,11
4.84167,11
4.85000,11
4.85833,11
4.86667,11
4.87500,11
4.88333,11
4.89167,11
4.90000,11
4.90833,11
4.91667,11
4.92500,11
4.93333,11
4.94167,11
4.95000,11
4.95833,11
4.96667,11
4.97500,11
4.98333,11
4.99167,12
5.00000,12
5.00833,11
5.01667,11
5.02500,11
5.03333,11
5.04167,12
5.05000,12
5.05833,12
5.06667,12
5.07500,12
5.08333,12
5.09167,12
5.10000,12
5.10833,11
5.11667,12
5.12500,12
5.13333,12
5.14167,12
5.15000,12
5.15833,12
5.16667,12
5.17500,13
5.18333,13
5.19167,13
5.20000,13
5.20833,13
5.21667,13
5.22500,13
5.23333,13
5.24167,13
5.25000,13
5.25833,14
5.26667,14
5.27500,14
5.28333,14
5.29167,13
5.30000,13
5.30833,13
5.31667,12
5.32500,12
5.33333,12
5.34167,12
5.35000,12
5.35833,12
5.36667,12
5.37500,12
5.38333,13
5.39167,13
5.40000,13
5.40833,13
5.41667,13
5.42500,13
5.43333,13
5.44167,13
5.45000,13
5.45833,13
5.46667,13
5.47500,13
5.48333,13
5.49167,13
5.50000,13
5.50833,13
5.51667,13
5.52500,13
5.53333,13
5.54167,13
5.55000,13
5.55833,13
5.56667,13
5.57500,13
5.58333,13
5.59167,13
5.60000,13
5.60833,13
5.61667,13
5.62500,12
5.63333,12
5.64167,12
5.65000,12
5.65833,12
5.66667,12
5.67500,12
5.68333,12
5.69167,13
5.70000,13
5.70833,13
5.71667,13
5.72500,13
5.73333,13
5.74167,13
5.75000,13
5.75833,13
5.76667,13
5.77500,13
5.78333,13
5.79167,13
5.80000,13
5.80833,12
5.81667,12
5.82500,12
5.83333,12
5.84167,12
5.85000,13
5.85833,14
5.86667,14
5.87500,14
5.88333,14
5.89167,14
5.90000,14
5.90833,14
5.91667,14
5.92500,14
5.93333,14
5.94167,14
5.95000,14
5.95833,14
5.96667,14
5.97500,14
5.98333,14
5.99167,14
6.00000,14
6.00833,14
6.01667,14
6.02500,14
6.03333,13
6.04167,14
6.05000,14
6.05833,13
6.06667,14
6.07500,14
6.08333,14
6.09167,14
6.10000,14
6.10833,14
6.11667,14
6.12500,14
6.13333,14
6.14167,15
6.15000,15
6.15833,15
6.16667,14
6.17500,14
6.18333,14
6.19167,14
6.20000,14
6.20833,13
6.21667,13
6.22500,13
6.23333,13
6.24167,13
6.25000,13
6.25833,12
6.26667,12
6.27500,12
6.28333,12
6.29167,12
6.30000,13
6.30833,13
6.31667,13
6.32500,13
6.33333,14
6.34167,14
6.35000,14
6.35833,15
6.36667,15
6.37500,15
6.38333,15
6.39167,15
6.40000,15
6.40833,15
6.41667,15
6.42500,14
6.43333,14
6.44167,14
6.45000,14
6.45833,14
6.46667,14
6.47500,14
6.48333,14
6.49167,14
6.50000,15
6.50833,15
6.51667,15
6.52500,15
6.53333,15
6.54167,14
6.55000,14
6.55833,14
6.56667,14
6.57500,14
6.58333,13
6.59167,14
6.60000,14
6.60833,14
6.61667,14
6.62500,14
6.63333,14
6.64167,14
6.65000,14
6.65833,14
6.66667,13
6.67500,13
6.68333,13
6.69167,14
6.70000,14
6.70833,14
6.71667,14
6.72500,14
6.73333,14
6.74167,14
6.75000,14
6.75833,15
6.76667,15
6.77500,15
6.78333,15
6.79167,15
6.80000,15
6.80833,15
6.81667,16
6.82500,16
6.83333,16
6.84167,16
6.85000,16
6.85833,15
6.86667,15
6.87500,15
6.88333,14
6.89167,15
6.90000,15
6.90833,15
6.91667,15
6.92500,15
6.93333,15
6.94167,14
6.95000,14
6.95833,15
6.96667,15
6.97500,15
6.98333,15
6.99167,15
7.00000,15
7.00833,15
7.01667,15
7.02500,15
7.03333,15
7.04167,15
7.05000,15
7.05833,15
7.06667,16
7.07500,16
7.08333,16
7.09167,15
7.10000,15
7.10833,15
7.11667,15
7.12500,15
7.13333,15
7.14167,15
7.15000,15
7.15833,15
7.16667,14
7.17500,14
7.18333,14
7.19167,14
7.20000,15
7.20833,15
7.21667,16
7.22500,16
7.23333,16
7.24167,16
7.25000,16
7.25833,16
7.26667,16
7.27500,16
7.28333,16
7.29167,16
7.30000,16
7.30833,16
7.31667,16
7.32500,16
7.33333,15
7.34167,15
7.35000,14
7.35833,14
7.36667,14
7.37500,15
7.38333,15
7.39167,15
7.40000,15
7.40833,15
7.41667,15
7.42500,15
7.43333,16
7.44167,16
7.45000,16
7.45833,16
7.46667,16
7.47500,16
7.48333,16
7.49167,16
7.50000,16
7.50833,16
7.51667,16
7.52500,16
7.53333,16
7.54167,16
7.55000,16
7.55833,16
7.56667,17
7.57500,17
7.58333,16
7.59167,16
7.60000,16
7.60833,16
7.61667,16
7.62500,16
7.63333,16
7.64167,16
7.65000,15
7.65833,15
7.66667,15
7.67500,16
7.68333,16
7.69167,16
7.70000,16
7.70833,17
7.71667,17
7.72500,18
7.73333,18
7.74167,18
7.75000,18
7.75833,18
7.76667,18
7.77500,17
7.78333,17
7.79167,17
7.80000,17
7.80833,17
7.81667,17
7.82500,17
7.83333,17
7.84167,17
7.85000,17
7.85833,17
7.86667,17
7.87500,17
7.88333,17
7.89167,17
7.90000,17
7.90833,16
7.91667,17
7.92500,17
7.93333,17
7.94167,17
7.95000,17
7.95833,17
7.96667,17
7.97500,17
7.98333,17
7.99167,17
8.00000,17
8.00833,17
8.01667,16
8.02500,16
8.03333,16
8.04167,16
8.05000,16
8.05833,16
8.06667,17
8.07500,16
8.08333,16
8.09167,16
8.10000,17
8.10833,17
8.11667,17
8.12500,17
8.13333,17
8.14167,17
8.15000,17
8.15833,18
8.16667,18
8.17500,18
8.18333,17
8.19167,17
8.20000,17
8.20833,17
8.21667,17
8.22500,17
8.23333,17
8.24167,16
8.25000,16
8.25833,17
8.26667,17
8.27500,17
8.28333,17
8.29167,17
8.30000,17
8.30833,17
8.31667,17
8.32500,18
8.33333,18
8.34167,18
8.35000,18
8.35833,18
8.36667,18
8.37500,18
8.38333,18
8.39167,18
8.40000,18
8.40833,18
8.41667,18
8.42500,18
8.43333,18
8.44167,18
8.45000,18
8.45833,18
8.46667,18
8.47500,18
8.48333,18
8.49167,19
8.50000,19
8.50833,19
8.51667,19
8.52500,19
8.53333,19
8.54167,19
8.55000,19
8.55833,18
8.56667,18
8.57500,18
8.58333,18
8.59167,18
8.60000,18
8.60833,18
8.61667,18
8.62500,18
8.63333,18
8.64167,18
8.65000,19
8.65833,19
8.66667,19
8.67500,19
8.68333,19
8.69167,19
8.70000,19
8.70833,19
8.71667,18
8.72500,18
8.73333,19
8.74167,19
8.75000,19
8.75833,20
8.76667,20
8.77500,20
8.78333,20
8.79167,20
8.80000,20
8.80833,20
8.81667,20
8.82500,20
8.83333,20
8.84167,20
8.85000,20
8.85833,20
8.86667,20
8.87500,20
8.88333,20
8.89167,19
8.90000,19
8.90833,19
8.91667,19
8.92500,20
8.93333,20
8.94167,20
8.95000,20
8.95833,20
8.96667,19
8.97500,19
8.98333,20
8.99167,20
9.00000,20
9.00833,20
9.01667,19
9.02500,20
9.03333,20
9.04167,20
9.05000,20
9.05833,20
9.06667,20
9.07500,20
9.08333,20
9.09167,20
9.10000,20
9.10833,20
9.11667,19
9.12500,19
9.13333,19
9.14167,19
9.15000,19
9.15833,19
9.16667,19
9.17500,19
9.18333,19
9.19167,19
9.20000,20
9.20833,20
9.21667,19
9.22500,19
9.23333,19
9.24167,19
9.25000,19
9.25833,19
9.26667,19
9.27500,20
9.28333,20
9.29167,20
9.30000,20
9.30833,20
9.31667,20
9.32500,20
9.33333,19
9.34167,19
9.35000,19
9.35833,19
9.36667,19
9.37500,19
9.38333,19
9.39167,19
9.40000,19
9.40833,19
9.41667,19
9.42500,20
9.43333,20
9.44167,20
9.45000,20
9.45833,21
9.46667,21
9.47500,21
9.48333,21
9.49167,21
9.50000,21
9.50833,21
9.51667,21
9.52500,21
9.53333,21
9.54167,21
9.55000,21
9.55833,21
9.56667,20
9.57500,20
9.58333,20
9.59167,20
9.60000,20
9.60833,20
9.61667,21
9.62500,21
9.63333,21
9.64167,21
9.65000,21
9.65833,21
9.66667,21
9.67500,21
9.68333,21
9.69167,21
9.70000,22
9.70833,22
9.71667,22
9.72500,22
9.73333,22
9.74167,22
9.75000,21
9.75833,21
9.76667,21
9.77500,21
9.78333,21
9.79167,21
9.80000,21
9.80833,21
9.81667,21
9.82500,21
9.83333,21
9.84167,21
9.85000,21
9.85833,21
9.86667,21
9.87500,22
9.88333,22
9.89167,22
9.90000,22
9.90833,22
9.91667,22
9.92500,22
9.93333,22
9.94167,22
9.95000,22
9.95833,22
9.96667,22
9.97500,22
9.98333,21
9.99167,21
10.00000,21
10.00833,21
10.01667,22
10.02500,22
10.03333,22
10.04167,22
10.05000,22
10.05833,22
10.06667,23
10.07500,23
10.08333,23
10.09167,23
10.10000,23
10.10833,23
10.11667,23
10.12500,23
10.13333,23
10.14167,22
10.15000,23
10.15833,23
10.16667,23
10.17500,23
10.18333,23
10.19167,23
10.20000,23
10.20833,23
10.21667,23
10.22500,23
10.23333,23
10.24167,23
10.25000,24
10.25833,24
10.26667,24
10.27500,24
10.28333,24
10.29167,24
10.30000,25
10.30833,25
10.31667,25
10.32500,25
10.33333,25
10.34167,25
10.35000,25
10.35833,25
10.36667,25
10.37500,25
10.38333,26
10.39167,26
10.40000,26
10.40833,26
10.41667,26
10.42500,26
10.43333,26
10.44167,26
10.45000,27
10.45833,27
10.46667,27
10.47500,28
10.48333,27
10.49167,27
10.50000,25
10.50833,23
10.51667,19
10.52500,14
10.53333,6
10.54167,-4
10.55000,-19
10.55833,-40
10.56667,-66
10.57500,-101
10.58333,-146
10.59167,-202
10.60000,-274
10.60833,-361
10.61667,-467
10.62500,-593
10.63333,-742
10.64167,-914
10.65000,-1108
10.65833,-1326
10.66667,-1564
10.67500,-1820
10.68333,-2090
10.69167,-2366
10.70000,-2643
10.70833,-2911
10.71667,-3160
10.72500,-3379
10.73333,-3556
10.74167,-3677
10.75000,-3731
10.75833,-3702
10.76667,-3578
10.77500,-3346
10.78333,-2993
10.79167,-2508
10.80000,-1881
10.80833,-1103
10.81667,-166
10.82500,937
10.83333,2211
10.84167,3658
10.85000,5281
10.85833,7080
10.86667,9055
10.87500,11201
10.88333,13515
10.89167,15991
10.90000,18620
10.90833,21393
10.91667,24298
10.92500,27321
10.93333,30444
10.94167,33646
10.95000,36905
10.95833,40191
10.96667,43472
10.97500,46712
10.98333,49869
10.99167,52896
11.00000,55744
11.00833,58361
11.01667,60693
11.02500,62689
11.03333,64299
11.04167,65483
11.05000,66206
11.05833,66445
11.06667,66193
11.07500,65452
11.08333,64241
11.09167,62590
11.10000,60543
11.10833,58151
11.11667,55473
11.12500,52570
11.13333,49505
11.14167,46339
11.15000,43129
11.15833,39928
11.16667,36781
11.17500,33725
11.18333,30791
11.19167,28004
11.20000,25379
11.20833,22927
11.21667,20653
11.22500,18558
11.23333,16639
11.24167,14891
11.25000,13305
11.25833,11873
11.26667,10584
11.27500,9428
11.28333,8394
11.29167,7473
11.30000,6653
11.30833,5925
11.31667,5280
11.32500,4710
11.33333,4205
11.34167,3760
11.35000,3368
11.35833,3022
11.36667,2717
11.37500,2449
11.38333,2213
11.39167,2004
11.40000,1821
11.40833,1659
11.41667,1516
11.42500,1390
11.43333,1278
11.44167,1179
11.45000,1091
11.45833,1013
11.46667,943
11.47500,881
11.48333,826
11.49167,776
11.50000,731
11.50833,691
11.51667,654
11.52500,620
11.53333,590
11.54167,562
11.55000,537
11.55833,514
11.56667,493
11.57500,473
11.58333,455
11.59167,438
11.60000,422
11.60833,408
11.61667,395
11.62500,382
11.63333,370
11.64167,360
11.65000,349
11.65833,340
11.66667,331
11.67500,322
11.68333,313
11.69167,306
11.70000,298
11.70833,291
11.71667,285
11.72500,279
11.73333,273
11.74167,267
11.75000,262
11.75833,257
11.76667,253
11.77500,248
11.78333,244
11.79167,240
11.80000,237
11.80833,233
11.81667,230
11.82500,227
11.83333,225
11.84167,222
11.85000,220
11.85833,217
11.86667,215
11.87500,213
11.88333,211
11.89167,209
11.90000,207
11.90833,206
11.91667,204
11.92500,202
11.93333,200
11.94167,199
11.95000,197
11.95833,196
11.96667,195
11.97500,194
11.98333,193
11.99167,191
12.00000,190
12.00833,188
12.01667,187
12.02500,185
12.03333,184
12.04167,183
12.05000,182
12.05833,181
12.06667,180
12.07500,179
12.08333,177
12.09167,176
12.10000,175
12.10833,174
12.11667,173
12.12500,172
12.13333,171
12.14167,171
12.15000,170
12.15833,169
12.16667,168
12.17500,167
12.18333,166
12.19167,165
12.20000,164
12.20833,162
12.21667,161
12.22500,160
12.23333,159
12.24167,158
12.25000,157
12.25833,157
12.26667,156
12.27500,155
12.28333,154
12.29167,153
12.30000,152
12.30833,152
12.31667,151
12.32500,150
12.33333,149
12.34167,148
12.35000,147
12.35833,147
12.36667,146
12.37500,146
12.38333,145
12.39167,145
12.40000,144
12.40833,143
12.41667,142
12.42500,142
12.43333,141
12.44167,141
12.45000,140
12.45833,139
12.46667,138
12.47500,137
12.48333,137
12.49167,136
12.50000,136
12.50833,135
12.51667,135
12.52500,135
12.53333,134
12.54167,133
12.55000,133
12.55833,132
12.56667,132
12.57500,132
12.58333,131
12.59167,131
12.60000,130
12.60833,130
12.61667,129
12.62500,129
12.63333,129
12.64167,128
12.65000,127
12.65833,126
12.66667,126
12.67500,125
12.68333,125
12.69167,124
12.70000,123
12.70833,123
12.71667,122
12.72500,122
12.73333,121
12.74167,120
12.75000,120
12.75833,120
12.76667,120
12.77500,120
12.78333,120
12.79167,120
12.80000,119
12.80833,119
12.81667,118
12.82500,118
12.83333,117
12.84167,118
12.85000,118
12.85833,118
12.86667,118
12.87500,118
12.88333,119
12.89167,119
12.90000,119
12.90833,119
12.91667,119
12.92500,119
12.93333,119
12.94167,119
12.95000,119
12.95833,118
12.96667,118
12.97500,118
12.98333,118
12.99167,118
13.00000,118
13.00833,118
13.01667,118
13.02500,119
13.03333,119
13.04167,119
13.05000,120
13.05833,120
13.06667,120
13.07500,120
13.08333,120
13.09167,119
13.10000,119
13.10833,118
13.11667,118
13.12500,118
13.13333,118
13.14167,118
13.15000,117
13.15833,117
13.16667,117
13.17500,116
13.18333,116
13.19167,115
13.20000,115
13.20833,115
13.21667,114
13.22500,114
13.23333,114
13.24167,114
13.25000,114
13.25833,114
13.26667,113
13.27500,112
13.28333,112
13.29167,111
13.30000,111
13.30833,110
13.31667,109
13.32500,109
13.33333,108
13.34167,107
13.35000,107
13.35833,106
13.36667,104
13.37500,103
13.38333,102
13.39167,101
13.40000,101
13.40833,100
13.41667,99
13.42500,98
13.43333,97
13.44167,96
13.45000,95
13.45833,95
13.46667,94
13.47500,93
13.48333,92
13.49167,91
13.50000,91
13.50833,90
13.51667,89
13.52500,88
13.53333,88
13.54167,87
13.55000,87
13.55833,86
13.56667,86
13.57500,85
13.58333,85
13.59167,84
13.60000,84
13.60833,83
13.61667,83
13.62500,82
13.63333,81
13.64167,81
13.65000,81
13.65833,81
13.66667,80
13.67500,80
13.68333,81
13.69167,80
13.70000,80
13.70833,80
13.71667,80
13.72500,80
13.73333,80
13.74167,80
13.75000,80
13.75833,80
13.76667,80
13.77500,80
13.78333,80
13.79167,80
13.80000,80
13.80833,81
13.81667,81
13.82500,81
13.83333,81
13.84167,81
13.85000,82
13.85833,82
13.86667,82
13.87500,82
13.88333,82
13.89167,83
13.90000,83
13.90833,84
13.91667,85
13.92500,85
13.93333,86
13.94167,87
13.95000,87
13.95833,87
13.96667,87
13.97500,88
13.98333,88
13.99167,88
14.00000,89
14.00833,89
14.01667,90
14.02500,91
14.03333,92
14.04167,93
14.05000,93
14.05833,94
14.06667,94
14.07500,95
14.08333,96
14.09167,96
14.10000,97
14.10833,98
14.11667,99
14.12500,101
14.13333,102
14.14167,104
14.15000,106
14.15833,108
14.16667,110
14.17500,113
14.18333,117
14.19167,121
14.20000,126
14.20833,132
14.21667,139
14.22500,147
14.23333,157
14.24167,169
14.25000,183
14.25833,201
14.26667,222
14.27500,248
14.28333,279
14.29167,316
14.30000,359
14.30833,410
14.31667,470
14.32500,541
14.33333,624
14.34167,721
14.35000,832
14.35833,961
14.36667,1107
14.37500,1274
14.38333,1462
14.39167,1674
14.40000,1912
14.40833,2176
14.41667,2468
14.42500,2790
14.43333,3143
14.44167,3529
14.45000,3948
14.45833,4402
14.46667,4891
14.47500,5416
14.48333,5977
14.49167,6575
14.50000,7210
14.50833,7882
14.51667,8591
14.52500,9338
14.53333,10121
14.54167,10941
14.55000,11797
14.55833,12688
14.56667,13615
14.57500,14577
14.58333,15573
14.59167,16603
14.60000,17666
14.60833,18762
14.61667,19889
14.62500,21047
14.63333,22236
14.64167,23455
14.65000,24704
14.65833,25981
14.66667,27286
14.67500,28620
14.68333,29980
14.69167,31367
14.70000,32781
14.70833,34221
14.71667,35686
14.72500,37177
14.73333,38692
14.74167,40233
14.75000,41798
14.75833,43387
14.76667,45000
14.77500,46636
14.78333,48296
14.79167,49978
14.80000,51684
14.80833,53413
14.81667,55164
14.82500,56938
14.83333,58735
14.84167,60553
14.85000,62393
14.85833,64255
14.86667,66139
14.87500,68044
14.88333,69969
14.89167,71915
14.90000,73882
14.90833,75868
14.91667,77873
14.92500,79898
14.93333,81940
14.94167,83999
14.95000,86076
14.95833,88167
14.96667,90272
14.97500,92389
14.98333,94516
14.99167,96650
15.00000,98787
15.00833,100923
15.01667,103050
15.02500,105158
15.03333,107233
15.04167,109256
15.05000,111201
15.05833,113037
15.06667,114721
15.07500,116206
15.08333,117435
15.09167,118349
15.10000,118882
15.10833,118970
15.11667,118557
15.12500,117593
15.13333,116043
15.14167,113888
15.15000,111129
15.15833,107789
15.16667,103907
15.17500,99546
15.18333,94780
15.19167,89696
15.20000,84388
15.20833,78951
15.21667,73476
15.22500,68053
15.23333,62758
15.24167,57658
15.25000,52806
15.25833,48245
15.26667,44003
15.27500,40099
15.28333,36540
15.29167,33327
15.30000,30454
15.30833,27909
15.31667,25678
15.32500,23744
15.33333,22088
15.34167,20694
15.35000,19542
15.35833,18616
15.36667,17899
15.37500,17375
15.38333,17030
15.39167,16852
15.40000,16827
15.40833,16945
15.41667,17194
15.42500,17564
15.43333,18045
15.44167,18626
15.45000,19298
15.45833,20051
15.46667,20874
15.47500,21758
15.48333,22693
15.49167,23667
15.50000,24670
15.50833,25691
15.51667,26718
15.52500,27742
15.53333,28751
15.54167,29734
15.55000,30682
15.55833,31584
15.56667,32431
15.57500,33216
15.58333,33929
15.59167,34564
15.60000,35115
15.60833,35576
15.61667,35944
15.62500,36216
15.63333,36388
15.64167,36461
15.65000,36433
15.65833,36307
15.66667,36084
15.67500,35767
15.68333,35359
15.69167,34866
15.70000,34291
15.70833,33641
15.71667,32921
15.72500,32138
15.73333,31299
15.74167,30409
15.75000,29477
15.75833,28510
15.76667,27513
15.77500,26494
15.78333,25459
15.79167,24414
15.80000,23366
15.80833,22319
15.81667,21278
15.82500,20248
15.83333,19235
15.84167,18241
15.85000,17269
15.85833,16324
15.86667,15407
15.87500,14520
15.88333,13665
15.89167,12844
15.90000,12057
15.90833,11304
15.91667,10587
15.92500,9905
15.93333,9259
15.94167,8648
15.95000,8070
15.95833,7526
15.96667,7014
15.97500,6534
15.98333,6085
15.99167,5665
16.00000,5273
16.00833,4908
16.01667,4568
16.02500,4253
16.03333,3960
16.04167,3689
16.05000,3438
16.05833,3206
16.06667,2992
16.07500,2794
16.08333,2612
16.09167,2444
16.10000,2289
16.10833,2147
16.11667,2016
16.12500,1896
16.13333,1786
16.14167,1685
16.15000,1592
16.15833,1506
16.16667,1428
16.17500,1356
16.18333,1290
16.19167,1230
16.20000,1174
16.20833,1123
16.21667,1077
16.22500,1034
16.23333,995
16.24167,958
16.25000,924
16.25833,893
16.26667,864
16.27500,837
16.28333,812
16.29167,789
16.30000,767
16.30833,747
16.31667,729
16.32500,711
16.33333,695
16.34167,679
16.35000,665
16.35833,651
16.36667,638
16.37500,626
16.38333,615
16.39167,604
16.40000,594
16.40833,585
16.41667,576
16.42500,568
16.43333,560
16.44167,552
16.45000,545
16.45833,539
16.46667,532
16.47500,526
16.48333,520
16.49167,514
16.50000,508
16.50833,502
16.51667,497
16.52500,492
16.53333,488
16.54167,483
16.55000,478
16.55833,474
16.56667,469
16.57500,465
16.58333,461
16.59167,457
16.60000,453
16.60833,449
16.61667,445
16.62500,442
16.63333,439
16.64167,436
16.65000,432
16.65833,429
16.66667,426
16.67500,423
16.68333,420
16.69167,417
16.70000,414
16.70833,411
16.71667,408
16.72500,405
16.73333,403
16.74167,400
16.75000,398
16.75833,396
16.76667,393
16.77500,391
16.78333,389
16.79167,386
16.80000,383
16.80833,381
16.81667,378
16.82500,376
16.83333,374
16.84167,372
16.85000,369
16.85833,367
16.86667,366
16.87500,364
16.88333,362
16.89167,360
16.90000,357
16.90833,355
16.91667,353
16.92500,350
16.93333,348
16.94167,347
16.95000,345
16.95833,343
16.96667,341
16.97500,339
16.98333,337
16.99167,335
17.00000,333
17.00833,331
17.01667,329
17.02500,327
17.03333,326
17.04167,324
17.05000,322
17.05833,320
17.06667,318
17.07500,316
17.08333,315
17.09167,313
17.10000,311
17.10833,310
17.11667,309
17.12500,307
17.13333,306
17.14167,305
17.15000,303
17.15833,302
17.16667,300
17.17500,298
17.18333,296
17.19167,295
17.20000,293
17.20833,292
17.21667,291
17.22500,290
17.23333,288
17.24167,287
17.25000,285
17.25833,283
17.26667,282
17.27500,280
17.28333,279
17.29167,277
17.30000,276
17.30833,274
17.31667,272
17.32500,271
17.33333,270
17.34167,268
17.35000,267
17.35833,266
17.36667,265
17.37500,264
17.38333,262
17.39167,261
17.40000,259
17.40833,258
17.41667,257
17.42500,255
17.43333,254
17.44167,252
17.45000,252
17.45833,251
17.46667,250
17.47500,249
17.48333,248
17.49167,246
17.50000,245
17.50833,243
17.51667,242
17.52500,240
17.53333,239
17.54167,238
17.55000,237
17.55833,235
17.56667,234
17.57500,233
17.58333,232
17.59167,231
17.60000,230
17.60833,229
17.61667,228
17.62500,227
17.63333,226
17.64167,225
17.65000,224
17.65833,223
17.66667,222
17.67500,221
17.68333,220
17.69167,219
17.70000,218
17.70833,217
17.71667,216
17.72500,215
17.73333,214
17.74167,213
17.75000,212
17.75833,211
17.76667,210
17.77500,209
17.78333,208
17.79167,207
17.80000,206
17.80833,206
17.81667,205
17.82500,204
17.83333,203
17.84167,202
17.85000,202
17.85833,201
17.86667,200
17.87500,199
17.88333,198
17.89167,197
17.90000,196
17.90833,196
17.91667,195
17.92500,194
17.93333,193
17.94167,192
17.95000,191
17.95833,190
17.96667,190
17.97500,189
17.98333,188
17.99167,187
18.00000,186
18.00833,186
18.01667,185
18.02500,184
18.03333,184
18.04167,183
18.05000,182
18.05833,182
18.06667,181
18.07500,180
18.08333,180
18.09167,179
18.10000,178
18.10833,177
18.11667,177
18.12500,176
18.13333,175
18.14167,175
18.15000,174
18.15833,173
18.16667,172
18.17500,171
18.18333,170
18.19167,169
18.20000,168
18.20833,168
18.21667,167
18.22500,167
18.23333,166
18.24167,165
18.25000,164
18.25833,164
18.26667,163
18.27500,162
18.28333,161
18.29167,160
18.30000,159
18.30833,159
18.31667,158
18.32500,158
18.33333,157
18.34167,157
18.35000,156
18.35833,156
18.36667,155
18.37500,155
18.38333,154
18.39167,153
18.40000,153
18.40833,152
18.41667,151
18.42500,150
18.43333,149
18.44167,149
18.45000,149
18.45833,148
18.46667,148
18.47500,147
18.48333,147
18.49167,147
18.50000,146
18.50833,146
18.51667,146
18.52500,146
18.53333,146
18.54167,145
18.55000,145
18.55833,144
18.56667,144
18.57500,144
18.58333,144
18.59167,144
18.60000,144
18.60833,143
18.61667,143
18.62500,143
18.63333,143
18.64167,143
18.65000,143
18.65833,143
18.66667,144
18.67500,144
18.68333,145
18.69167,146
18.70000,147
18.70833,149
18.71667,150
18.72500,152
18.73333,154
18.74167,156
18.75000,158
18.75833,159
18.76667,161
18.77500,164
18.78333,166
18.79167,169
18.80000,172
18.80833,175
18.81667,178
18.82500,181
18.83333,184
18.84167,187
18.85000,190
18.85833,194
18.86667,197
18.87500,201
18.88333,204
18.89167,208
18.90000,211
18.90833,214
18.91667,217
18.92500,220
18.93333,223
18.94167,225
18.95000,227
18.95833,230
18.96667,231
18.97500,232
18.98333,233
18.99167,234
19.00000,234
19.00833,234
19.01667,234
19.02500,233
19.03333,232
19.04167,231
19.05000,230
19.05833,228
19.06667,226
19.07500,223
19.08333,220
19.09167,217
19.10000,214
19.10833,211
19.11667,208
19.12500,205
19.13333,201
19.14167,198
19.15000,195
19.15833,191
19.16667,187
19.17500,184
19.18333,180
19.19167,176
19.20000,173
19.20833,169
19.21667,166
19.22500,163
19.23333,159
19.24167,156
19.25000,153
19.25833,150
19.26667,147
19.27500,144
19.28333,141
19.29167,139
19.30000,136
19.30833,134
19.31667,131
19.32500,129
19.33333,127
19.34167,125
19.35000,123
19.35833,122
19.36667,120
19.37500,119
19.38333,117
19.39167,116
19.40000,115
19.40833,114
19.41667,113
19.42500,112
19.43333,111
19.44167,110
19.45000,110
19.45833,109
19.46667,108
19.47500,107
19.48333,106
19.49167,105
19.50000,105
19.50833,104
19.51667,103
19.52500,102
19.53333,102
19.54167,101
19.55000,101
19.55833,101
19.56667,100
19.57500,100
19.58333,99
19.59167,99
19.60000,99
19.60833,99
19.61667,98
19.62500,98
19.63333,98
19.64167,98
19.65000,97
19.65833,97
19.66667,96
19.67500,96
19.68333,96
19.69167,96
19.70000,96
19.70833,96
19.71667,95
19.72500,95
19.73333,95
19.74167,95
19.75000,94
19.75833,93
19.76667,93
19.77500,92
19.78333,92
19.79167,92
19.80000,91
19.80833,91
19.81667,91
19.82500,91
19.83333,90
19.84167,90
19.85000,90
19.85833,90
19.86667,90
19.87500,89
19.88333,89
19.89167,89
19.90000,89
19.90833,89
19.91667,89
19.92500,88
19.93333,88
19.94167,87
19.95000,87
19.95833,87
19.96667,87
19.97500,87
19.98333,86
19.99167,86
20.00000,85
20.00833,85
20.01667,85
20.02500,85
20.03333,85
20.04167,84
20.05000,84
20.05833,84
20.06667,84
20.07500,84
20.08333,84
20.09167,83
20.10000,83
20.10833,83
20.11667,83
20.12500,83
20.13333,83
20.14167,83
20.15000,83
20.15833,83
20.16667,82
20.17500,82
20.18333,82
20.19167,82
20.20000,81
20.20833,81
20.21667,80
20.22500,80
20.23333,80
20.24167,80
20.25000,80
20.25833,80
20.26667,80
20.27500,80
20.28333,80
20.29167,80
20.30000,80
20.30833,80
20.31667,80
20.32500,79
20.33333,79
20.34167,79
20.35000,79
20.35833,79
20.36667,79
20.37500,79
20.38333,79
20.39167,79
20.40000,79
20.40833,79
20.41667,78
20.42500,78
20.43333,77
20.44167,77
20.45000,77
20.45833,77
20.46667,77
20.47500,77
20.48333,76
20.49167,77
20.50000,77
20.50833,77
20.51667,77
20.52500,77
20.53333,77
20.54167,77
20.55000,76
20.55833,76
20.56667,76
20.57500,76
20.58333,75
20.59167,75
20.60000,75
20.60833,76
20.61667,76
20.62500,76
20.63333,75
20.64167,75
20.65000,75
20.65833,75
20.66667,75
20.67500,75
20.68333,75
20.69167,75
20.70000,75
20.70833,75
20.71667,74
20.72500,74
20.73333,74
20.74167,73
20.75000,73
20.75833,73
20.76667,73
20.77500,73
20.78333,73
20.79167,73
20.80000,73
20.80833,73
20.81667,73
20.82500,73
20.83333,72
20.84167,72
20.85000,71
20.85833,71
20.86667,71
20.87500,70
20.88333,70
20.89167,70
20.90000,70
20.90833,70
20.91667,70
20.92500,70
20.93333,70
20.94167,70
20.95000,71
20.95833,71
20.96667,71
20.97500,71
20.98333,71
20.99167,71
21.00000,70
21.00833,70
21.01667,70
21.02500,70
21.03333,70
21.04167,70
21.05000,69
21.05833,69
21.06667,69
21.07500,68
21.08333,68
21.09167,68
21.10000,67
21.10833,67
21.11667,67
21.12500,67
21.13333,67
21.14167,67
21.15000,67
21.15833,67
21.16667,67
21.17500,67
21.18333,67
21.19167,67
21.20000,67
21.20833,67
21.21667,66
21.22500,66
21.23333,67
21.24167,67
21.25000,67
21.25833,67
21.26667,67
21.27500,67
21.28333,67
21.29167,66
21.30000,66
21.30833,65
21.31667,65
21.32500,65
21.33333,65
21.34167,65
21.35000,65
21.35833,64
21.36667,64
21.37500,64
21.38333,64
21.39167,64
21.40000,65
21.40833,65
21.41667,65
21.42500,64
21.43333,65
21.44167,65
21.45000,65
21.45833,66
21.46667,66
21.47500,65
21.48333,65
21.49167,65
21.50000,65
21.50833,65
21.51667,65
21.52500,65
21.53333,65
21.54167,65
21.55000,65
21.55833,65
21.56667,65
21.57500,64
21.58333,64
21.59167,64
21.60000,64
21.60833,64
21.61667,65
21.62500,65
21.63333,66
21.64167,66
21.65000,66
21.65833,65
21.66667,65
21.67500,65
21.68333,66
21.69167,66
21.70000,67
21.70833,67
21.71667,67
21.72500,67
21.73333,67
21.74167,67
21.75000,68
21.75833,68
21.76667,68
21.77500,68
21.78333,68
21.79167,68
21.80000,68
21.80833,68
21.81667,68
21.82500,68
21.83333,68
21.84167,69
21.85000,69
21.85833,69
21.86667,69
21.87500,69
21.88333,70
21.89167,70
21.90000,70
21.90833,70
21.91667,70
21.92500,70
21.93333,70
21.94167,70
21.95000,70
21.95833,70
21.96667,70
21.97500,69
21.98333,69
21.99167,69
22.00000,68
22.00833,68
22.01667,68
22.02500,68
22.03333,68
22.04167,68
22.05000,68
22.05833,68
22.06667,68
22.07500,67
22.08333,67
22.09167,67
22.10000,67
22.10833,67
22.11667,67
22.12500,66
22.13333,66
22.14167,66
22.15000,66
22.15833,65
22.16667,65
22.17500,65
22.18333,65
22.19167,65
22.20000,64
22.20833,64
22.21667,63
22.22500,63
22.23333,63
22.24167,62
22.25000,62
22.25833,61
22.26667,61
22.27500,61
22.28333,61
22.29167,61
22.30000,61
22.30833,61
22.31667,61
22.32500,61
22.33333,61
22.34167,60
22.35000,60
22.35833,60
22.36667,60
22.37500,60
22.38333,60
22.39167,60
22.40000,60
22.40833,60
22.41667,59
22.42500,59
22.43333,59
22.44167,59
22.45000,59
22.45833,59
22.46667,59
22.47500,59
22.48333,59
22.49167,59
22.50000,59
22.50833,59
22.51667,59
22.52500,59
22.53333,59
22.54167,58
22.55000,58
22.55833,58
22.56667,59
22.57500,59
22.58333,59
22.59167,59
22.60000,59
22.60833,59
22.61667,59
22.62500,59
22.63333,58
22.64167,58
22.65000,57
22.65833,58
22.66667,58
22.67500,58
22.68333,57
22.69167,57
22.70000,57
22.70833,57
22.71667,58
22.72500,58
22.73333,58
22.74167,58
22.75000,57
22.75833,57
22.76667,58
22.77500,58
22.78333,58
22.79167,58
22.80000,59
22.80833,59
22.81667,59
22.82500,59
22.83333,59
22.84167,59
22.85000,60
22.85833,60
22.86667,60
22.87500,60
22.88333,60
22.89167,61
22.90000,61
22.90833,61
22.91667,62
22.92500,62
22.93333,62
22.94167,63
22.95000,63
22.95833,64
22.96667,64
22.97500,65
22.98333,66
22.99167,67
23.00000,67
23.00833,68
23.01667,69
23.02500,70
23.03333,70
23.04167,71
23.05000,72
23.05833,72
23.06667,73
23.07500,74
23.08333,75
23.09167,76
23.10000,76
23.10833,77
23.11667,78
23.12500,78
23.13333,78
23.14167,79
23.15000,79
23.15833,80
23.16667,81
23.17500,82
23.18333,82
23.19167,83
23.20000,83
23.20833,84
23.21667,84
23.22500,84
23.23333,84
23.24167,84
23.25000,84
23.25833,83
23.26667,83
23.27500,83
23.28333,83
23.29167,83
23.30000,83
23.30833,83
23.31667,82
23.32500,82
23.33333,81
23.34167,81
23.35000,80
23.35833,80
23.36667,79
23.37500,78
23.38333,78
23.39167,77
23.40000,77
23.40833,76
23.41667,75
23.42500,75
23.43333,74
23.44167,73
23.45000,72
23.45833,71
23.46667,70
23.47500,69
23.48333,69
23.49167,68
23.50000,68
23.50833,68
23.51667,67
23.52500,66
23.53333,65
23.54167,64
23.55000,64
23.55833,63
23.56667,63
23.57500,62
23.58333,62
23.59167,62
23.60000,61
23.60833,61
23.61667,60
23.62500,60
23.63333,60
23.64167,60
23.65000,60
23.65833,60
23.66667,59
23.67500,59
23.68333,59
23.69167,59
23.70000,59
23.70833,59
23.71667,59
23.72500,59
23.73333,59
23.74167,58
23.75000,58
23.75833,58
23.76667,58
23.77500,58
23.78333,58
23.79167,58
23.80000,57
23.80833,57
23.81667,57
23.82500,56
23.83333,56
23.84167,56
23.85000,56
23.85833,56
23.86667,56
23.87500,56
23.88333,56
23.89167,56
23.90000,56
23.90833,56
23.91667,56
23.92500,56
23.93333,56
23.94167,56
23.95000,56
23.95833,56
23.96667,56
23.97500,56
23.98333,56
23.99167,56
24.00000,56
24.00833,56
24.01667,56
24.02500,56
24.03333,56
24.04167,56
24.05000,56
24.05833,56
24.06667,56
24.07500,56
24.08333,57
24.09167,56
24.10000,56
24.10833,56
24.11667,56
24.12500,56
24.13333,56
24.14167,56
24.15000,57
24.15833,57
24.16667,57
24.17500,57
24.18333,57
24.19167,57
24.20000,57
24.20833,57
24.21667,57
24.22500,56
24.23333,56
24.24167,55
24.25000,55
24.25833,55
24.26667,55
24.27500,55
24.28333,56
24.29167,56
24.30000,56
24.30833,57
24.31667,57
24.32500,57
24.33333,57
24.34167,57
24.35000,57
24.35833,57
24.36667,57
24.37500,57
24.38333,58
24.39167,58
24.40000,58
24.40833,59
24.41667,59
24.42500,59
24.43333,59
24.44167,59
24.45000,59
24.45833,59
24.46667,59
24.47500,59
24.48333,60
24.49167,60
24.50000,61
24.50833,62
24.51667,62
24.52500,63
24.53333,64
24.54167,65
24.55000,66
24.55833,68
24.56667,69
24.57500,70
24.58333,72
24.59167,73
24.60000,75
24.60833,77
24.61667,79
24.62500,81
24.63333,83
24.64167,85
24.65000,87
24.65833,90
24.66667,94
24.67500,98
24.68333,102
24.69167,106
24.70000,110
24.70833,115
24.71667,120
24.72500,125
24.73333,130
24.74167,136
24.75000,142
24.75833,148
24.76667,154
24.77500,161
24.78333,168
24.79167,176
24.80000,183
24.80833,192
24.81667,200
24.82500,209
24.83333,217
24.84167,226
24.85000,235
24.85833,244
24.86667,253
24.87500,262
24.88333,271
24.89167,280
24.90000,289
24.90833,298
24.91667,306
24.92500,315
24.93333,323
24.94167,330
24.95000,338
24.95833,345
24.96667,352
24.97500,358
24.98333,364
24.99167,370
25.00000,374
25.00833,379
25.01667,382
25.02500,385
25.03333,388
25.04167,390
25.05000,391
25.05833,391
25.06667,391
25.07500,391
25.08333,390
25.09167,388
25.10000,385
25.10833,382
25.11667,378
25.12500,373
25.13333,368
25.14167,363
25.15000,357
25.15833,351
25.16667,345
25.17500,338
25.18333,331
25.19167,324
25.20000,317
25.20833,309
25.21667,301
25.22500,293
25.23333,285
25.24167,276
25.25000,268
25.25833,260
25.26667,251
25.27500,243
25.28333,235
25.29167,226
25.30000,218
25.30833,210
25.31667,203
25.32500,195
25.33333,188
25.34167,181
25.35000,174
25.35833,168
25.36667,162
25.37500,156
25.38333,150
25.39167,145
25.40000,139
25.40833,134
25.41667,129
25.42500,125
25.43333,120
25.44167,116
25.45000,112
25.45833,109
25.46667,106
25.47500,103
25.48333,100
25.49167,97
25.50000,94
25.50833,92
25.51667,89
25.52500,87
25.53333,85
25.54167,84
25.55000,82
25.55833,80
25.56667,79
25.57500,77
25.58333,76
25.59167,74
25.60000,73
25.60833,72
25.61667,71
25.62500,71
25.63333,70
25.64167,69
25.65000,69
25.65833,68
25.66667,68
25.67500,67
25.68333,67
25.69167,67
25.70000,66
25.70833,66
25.71667,65
25.72500,65
25.73333,64
25.74167,64
25.75000,64
25.75833,64
25.76667,63
25.77500,63
25.78333,63
25.79167,63
25.80000,63
25.80833,63
25.81667,62
25.82500,62
25.83333,63
25.84167,63
25.85000,63
25.85833,63
25.86667,64
25.87500,64
25.88333,64
25.89167,63
25.90000,64
25.90833,63
25.91667,63
25.92500,63
25.93333,63
25.94167,64
25.95000,63
25.95833,63
25.96667,63
25.97500,63
25.98333,63
25.99167,64
26.00000,64
26.00833,64
26.01667,64
26.02500,64
26.03333,64
26.04167,64
26.05000,64
26.05833,64
26.06667,64
26.07500,64
26.08333,64
26.09167,64
26.10000,63
26.10833,64
26.11667,64
26.12500,64
26.13333,64
26.14167,65
26.15000,65
26.15833,65
26.16667,65
26.17500,64
26.18333,64
26.19167,64
26.20000,64
26.20833,64
26.21667,63
26.22500,63
26.23333,63
26.24167,63
26.25000,63
26.25833,63
26.26667,63
26.27500,63
26.28333,64
26.29167,64
26.30000,64
26.30833,64
26.31667,64
26.32500,64
26.33333,64
26.34167,64
26.35000,64
26.35833,64
26.36667,64
26.37500,64
26.38333,64
26.39167,64
26.40000,65
26.40833,65
26.41667,65
26.42500,65
26.43333,65
26.44167,65
26.45000,65
26.45833,64
26.46667,64
26.47500,64
26.48333,64
26.49167,65
26.50000,65
26.50833,65
26.51667,64
26.52500,64
26.53333,64
26.54167,64
26.55000,64
26.55833,65
26.56667,64
26.57500,64
26.58333,64
26.59167,64
26.60000,64
26.60833,64
26.61667,65
26.62500,65
26.63333,65
26.64167,65
26.65000,65
26.65833,65
26.66667,65
26.67500,64
26.68333,64
26.69167,65
26.70000,65
26.70833,64
26.71667,64
26.72500,64
26.73333,65
26.74167,65
26.75000,65
26.75833,65
26.76667,65
26.77500,65
26.78333,65
26.79167,66
26.80000,66
26.80833,66
26.81667,66
26.82500,66
26.83333,66
26.84167,66
26.85000,66
26.85833,66
26.86667,66
26.87500,66
26.88333,66
26.89167,66
26.90000,66
26.90833,66
26.91667,66
26.92500,66
26.93333,66
26.94167,66
26.95000,66
26.95833,66
26.96667,66
26.97500,66
26.98333,66
26.99167,66
27.00000,66
27.00833,67
27.01667,67
27.02500,67
27.03333,67
27.04167,67
27.05000,68
27.05833,68
27.06667,68
27.07500,68
27.08333,68
27.09167,68
27.10000,68
27.10833,68
27.11667,68
27.12500,68
27.13333,68
27.14167,67
27.15000,67
27.15833,68
27.16667,68
27.17500,68
27.18333,68
27.19167,68
27.20000,68
27.20833,68
27.21667,69
27.22500,69
27.23333,69
27.24167,69
27.25000,69
27.25833,69
27.26667,69
27.27500,69
27.28333,69
27.29167,69
27.30000,69
27.30833,69
27.31667,69
27.32500,69
27.33333,69
27.34167,68
27.35000,68
27.35833,68
27.36667,68
27.37500,69
27.38333,69
27.39167,69
27.40000,69
27.40833,69
27.41667,70
27.42500,70
27.43333,70
27.44167,70
27.45000,70
27.45833,70
27.46667,70
27.47500,70
27.48333,70
27.49167,71
27.50000,71
27.50833,71
27.51667,72
27.52500,72
27.53333,72
27.54167,72
27.55000,72
27.55833,71
27.56667,71
27.57500,71
27.58333,71
27.59167,71
27.60000,71
27.60833,71
27.61667,70
27.62500,70
27.63333,70
27.64167,70
27.65000,70
27.65833,70
27.66667,70
27.67500,70
27.68333,70
27.69167,70
27.70000,69
27.70833,69
27.71667,69
27.72500,69
27.73333,69
27.74167,69
27.75000,69
27.75833,69
27.76667,69
27.77500,69
27.78333,69
27.79167,68
27.80000,68
27.80833,68
27.81667,67
27.82500,67
27.83333,67
27.84167,66
27.85000,66
27.85833,66
27.86667,65
27.87500,64
27.88333,64
27.89167,63
27.90000,62
27.90833,61
27.91667,60
27.92500,59
27.93333,58
27.94167,57
27.95000,56
27.95833,55
27.96667,54
27.97500,52
27.98333,51
27.99167,50
28.00000,48
28.00833,46
28.01667,45
28.02500,43
28.03333,42
28.04167,40
28.05000,38
28.05833,35
28.06667,33
28.07500,30
28.08333,27
28.09167,25
28.10000,23
28.10833,20
28.11667,17
28.12500,15
28.13333,12
28.14167,9
28.15000,6
28.15833,3
28.16667,0
28.17500,-3
28.18333,-6
28.19167,-9
28.20000,-12
28.20833,-15
28.21667,-18
28.22500,-22
28.23333,-25
28.24167,-28
28.25000,-31
28.25833,-34
28.26667,-37
28.27500,-41
28.28333,-44
28.29167,-48
28.30000,-50
28.30833,-53
28.31667,-55
28.32500,-58
28.33333,-61
28.34167,-63
28.35000,-65
28.35833,-67
28.36667,-69
28.37500,-70
28.38333,-72
28.39167,-74
28.40000,-75
28.40833,-76
28.41667,-77
28.42500,-77
28.43333,-78
28.44167,-78
28.45000,-78
28.45833,-78
28.46667,-78
28.47500,-78
28.48333,-78
28.49167,-77
28.50000,-76
28.50833,-76
28.51667,-75
28.52500,-74
28.53333,-73
28.54167,-72
28.55000,-70
28.55833,-68
28.56667,-66
28.57500,-64
28.58333,-62
28.59167,-59
28.60000,-57
28.60833,-54
28.61667,-52
28.62500,-49
28.63333,-47
28.64167,-45
28.65000,-42
28.65833,-39
28.66667,-36
28.67500,-34
28.68333,-31
28.69167,-28
28.70000,-26
28.70833,-23
28.71667,-20
28.72500,-18
28.73333,-16
28.74167,-13
28.75000,-10
28.75833,-8
28.76667,-5
28.77500,-2
28.78333,0
28.79167,2
28.80000,5
28.80833,7
28.81667,9
28.82500,11
28.83333,14
28.84167,16
28.85000,19
28.85833,21
28.86667,23
28.87500,25
28.88333,27
28.89167,29
28.90000,31
28.90833,33
28.91667,34
28.92500,36
28.93333,38
28.94167,39
28.95000,40
28.95833,42
28.96667,42
28.97500,43
28.98333,44
28.99167,45
29.00000,46
29.00833,46
29.01667,47
29.02500,48
29.03333,49
29.04167,50
29.05000,51
29.05833,51
29.06667,52
29.07500,53
29.08333,53
29.09167,54
29.10000,54
29.10833,55
29.11667,56
29.12500,56
29.13333,57
29.14167,58
29.15000,58
29.15833,59
29.16667,59
29.17500,59
29.18333,60
29.19167,60
29.20000,61
29.20833,61
29.21667,61
29.22500,61
29.23333,61
29.24167,62
29.25000,62
29.25833,63
29.26667,63
29.27500,63
29.28333,63
29.29167,63
29.30000,63
29.30833,64
29.31667,64
29.32500,64
29.33333,65
29.34167,65
29.35000,65
29.35833,65
29.36667,65
29.37500,65
29.38333,65
29.39167,65
29.40000,65
29.40833,65
29.41667,65
29.42500,65
29.43333,65
29.44167,64
29.45000,64
29.45833,64
29.46667,64
29.47500,64
29.48333,64
29.49167,64
29.50000,64
29.50833,64
29.51667,64
29.52500,63
29.53333,63
29.54167,63
29.55000,63
29.55833,63
29.56667,63
29.57500,63
29.58333,63
29.59167,63
29.60000,63
29.60833,63
29.61667,62
29.62500,62
29.63333,61
29.64167,61
29.65000,60
29.65833,60
29.66667,60
29.67500,59
29.68333,59
29.69167,58
29.70000,57
29.70833,56
29.71667,56
29.72500,55
29.73333,54
29.74167,54
29.75000,53
29.75833,53
29.76667,52
29.77500,51
29.78333,50
29.79167,49
29.80000,48
29.80833,48
29.81667,47
29.82500,46
29.83333,46
29.84167,45
29.85000,44
29.85833,43
29.86667,42
29.87500,41
29.88333,40
29.89167,39
29.90000,37
29.90833,36
29.91667,34
29.92500,33
29.93333,32
29.94167,31
29.95000,30
29.95833,29
29.96667,28
29.97500,27
29.98333,26
29.99167,25
30.00000,24
30.00833,24
30.01667,23
30.02500,22
30.03333,21
30.04167,20
30.05000,20
30.05833,19
30.06667,18
30.07500,16
30.08333,16
30.09167,15
30.10000,14
30.10833,14
30.11667,13
30.12500,12
30.13333,11
30.14167,11
30.15000,10
30.15833,10
30.16667,10
30.17500,9
30.18333,9
30.19167,9
30.20000,9
30.20833,9
30.21667,10
30.22500,10
30.23333,10
30.24167,10
30.25000,10
30.25833,11
30.26667,11
30.27500,12
30.28333,12
30.29167,12
30.30000,12
30.30833,13
30.31667,13
30.32500,14
30.33333,15
30.34167,15
30.35000,16
30.35833,17
30.36667,17
30.37500,18
30.38333,19
30.39167,20
30.40000,21
30.40833,23
30.41667,24
30.42500,25
30.43333,26
30.44167,27
30.45000,28
30.45833,28
30.46667,29
30.47500,30
30.48333,31
30.49167,32
30.50000,33
30.50833,34
30.51667,35
30.52500,35
30.53333,36
30.54167,37
30.55000,38
30.55833,39
30.56667,40
30.57500,40
30.58333,41
30.59167,41
30.60000,42
30.60833,42
30.61667,43
30.62500,44
30.63333,44
30.64167,45
30.65000,45
30.65833,45
30.66667,46
30.67500,46
30.68333,47
30.69167,47
30.70000,47
30.70833,48
30.71667,48
30.72500,48
30.73333,48
30.74167,47
30.75000,47
30.75833,47
30.76667,47
30.77500,47
30.78333,47
30.79167,48
30.80000,47
30.80833,47
30.81667,47
30.82500,47
30.83333,47
30.84167,46
30.85000,46
30.85833,46
30.86667,46
30.87500,46
30.88333,46
30.89167,45
30.90000,45
30.90833,45
30.91667,45
30.92500,44
30.93333,44
30.94167,44
30.95000,43
30.95833,43
30.96667,43
30.97500,43
30.98333,42
30.99167,42
31.00000,41
31.00833,41
31.01667,41
31.02500,41
31.03333,40
31.04167,40
31.05000,40
31.05833,39
31.06667,39
31.07500,39
31.08333,39
31.09167,39
31.10000,39
31.10833,39
31.11667,40
31.12500,40
31.13333,40
31.14167,40
31.15000,40
31.15833,41
31.16667,41
31.17500,41
31.18333,41
31.19167,42
31.20000,42
31.20833,43
31.21667,43
31.22500,44
31.23333,44
31.24167,44
31.25000,44
31.25833,45
31.26667,45
31.27500,45
31.28333,46
31.29167,46
31.30000,47
31.30833,48
31.31667,48
31.32500,49
31.33333,49
31.34167,50
31.35000,50
31.35833,51
31.36667,52
31.37500,52
31.38333,53
31.39167,54
31.40000,55
31.40833,55
31.41667,56
31.42500,56
31.43333,57
31.44167,58
31.45000,58
31.45833,59
31.46667,60
31.47500,60
31.48333,60
31.49167,61
31.50000,62
31.50833,62
31.51667,63
31.52500,63
31.53333,64
31.54167,64
31.55000,65
31.55833,65
31.56667,66
31.57500,67
31.58333,67
31.59167,67
31.60000,68
31.60833,68
31.61667,69
31.62500,70
31.63333,70
31.64167,71
31.65000,71
31.65833,71
31.66667,71
31.67500,71
31.68333,72
31.69167,72
31.70000,72
31.70833,72
31.71667,72
31.72500,72
31.73333,73
31.74167,73
31.75000,73
31.75833,73
31.76667,73
31.77500,73
31.78333,73
31.79167,74
31.80000,74
31.80833,74
31.81667,75
31.82500,75
31.83333,75
31.84167,75
31.85000,75
31.85833,75
31.86667,75
31.87500,75
31.88333,75
31.89167,75
31.90000,75
31.90833,74
31.91667,74
31.92500,73
31.93333,73
31.94167,73
31.95000,73
31.95833,73
31.96667,73
31.97500,73
31.98333,73
31.99167,73
32.00000,73
32.00833,73
32.01667,73
32.02500,73
32.03333,73
32.04167,73
32.05000,74
32.05833,74
32.06667,74
32.07500,73
32.08333,73
32.09167,73
32.10000,73
32.10833,73
32.11667,73
32.12500,73
32.13333,73
32.14167,72
32.15000,72
32.15833,72
32.16667,72
32.17500,72
32.18333,72
32.19167,71
32.20000,71
32.20833,71
32.21667,71
32.22500,71
32.23333,71
32.24167,71
32.25000,71
32.25833,71
32.26667,71
32.27500,71
32.28333,71
32.29167,71
32.30000,71
32.30833,71
32.31667,71
32.32500,71
32.33333,71
32.34167,71
32.35000,71
32.35833,71
32.36667,71
32.37500,71
32.38333,72
32.39167,72
32.40000,72
32.40833,72
32.41667,71
32.42500,70
32.43333,70
32.44167,70
32.45000,70
32.45833,70
32.46667,70
32.47500,70
32.48333,70
32.49167,70
32.50000,71
32.50833,71
32.51667,71
32.52500,71
32.53333,71
32.54167,70
32.55000,70
32.55833,70
32.56667,70
32.57500,70
32.58333,70
32.59167,70
32.60000,71
32.60833,71
32.61667,71
32.62500,71
32.63333,71
32.64167,71
32.65000,71
32.65833,71
32.66667,71
32.67500,71
32.68333,71
32.69167,72
32.70000,72
32.70833,72
32.71667,72
32.72500,72
32.73333,72
32.74167,72
32.75000,72
32.75833,72
32.76667,72
32.77500,72
32.78333,72
32.79167,72
32.80000,72
32.80833,72
32.81667,72
32.82500,72
32.83333,72
32.84167,72
32.85000,72
32.85833,72
32.86667,72
32.87500,72
32.88333,72
32.89167,72
32.90000,72
32.90833,72
32.91667,72
32.92500,72
32.93333,72
32.94167,72
32.95000,72
32.95833,71
32.96667,71
32.97500,71
32.98333,71
32.99167,72
33.00000,72
33.00833,72
33.01667,72
33.02500,72
33.03333,73
33.04167,73
33.05000,73
33.05833,73
33.06667,73
33.07500,73
33.08333,73
33.09167,73
33.10000,73
33.10833,74
33.11667,73
33.12500,73
33.13333,73
33.14167,73
33.15000,73
33.15833,73
33.16667,73
33.17500,73
33.18333,73
33.19167,73
33.20000,73
33.20833,73
33.21667,73
33.22500,73
33.23333,73
33.24167,73
33.25000,73
33.25833,73
33.26667,73
33.27500,74
33.28333,74
33.29167,74
33.30000,74
33.30833,74
33.31667,74
33.32500,73
33.33333,73
33.34167,73
33.35000,73
33.35833,73
33.36667,73
33.37500,73
33.38333,73
33.39167,73
33.40000,73
33.40833,73
33.41667,73
33.42500,73
33.43333,72
33.44167,72
33.45000,72
33.45833,72
33.46667,72
33.47500,73
33.48333,73
33.49167,72
33.50000,73
33.50833,73
33.51667,73
33.52500,73
33.53333,73
33.54167,73
33.55000,73
33.55833,72
33.56667,72
33.57500,72
33.58333,72
33.59167,72
33.60000,72
33.60833,72
33.61667,72
33.62500,72
33.63333,72
33.64167,72
33.65000,72
33.65833,72
33.66667,72
33.67500,72
33.68333,72
33.69167,72
33.70000,72
33.70833,71
33.71667,71
33.72500,71
33.73333,71
33.74167,72
33.75000,72
33.75833,72
33.76667,72
33.77500,72
33.78333,71
33.79167,71
33.80000,71
33.80833,71
33.81667,72
33.82500,72
33.83333,72
33.84167,72
33.85000,72
33.85833,71
33.86667,71
33.87500,71
33.88333,72
33.89167,72
33.90000,73
33.90833,73
33.91667,73
33.92500,73
33.93333,73
33.94167,73
33.95000,73
33.95833,73
33.96667,73
33.97500,73
33.98333,73
33.99167,73
34.00000,72
34.00833,72
34.01667,72
34.02500,72
34.03333,71
34.04167,71
34.05000,71
34.05833,71
34.06667,71
34.07500,72
34.08333,72
34.09167,72
34.10000,72
34.10833,72
34.11667,72
34.12500,72
34.13333,72
34.14167,72
34.15000,72
34.15833,72
34.16667,72
34.17500,72
34.18333,72
34.19167,73
34.20000,72
34.20833,72
34.21667,72
34.22500,71
34.23333,71
34.24167,72
34.25000,72
34.25833,72
34.26667,72
34.27500,72
34.28333,72
34.29167,72
34.30000,72
34.30833,72
34.31667,72
34.32500,72
34.33333,72
34.34167,72
34.35000,72
34.35833,72
34.36667,73
34.37500,73
34.38333,73
34.39167,73
34.40000,73
34.40833,73
34.41667,73
34.42500,73
34.43333,73
34.44167,73
34.45000,73
34.45833,73
34.46667,74
34.47500,74
34.48333,74
34.49167,74
34.50000,74
34.50833,74
34.51667,74
34.52500,74
34.53333,74
34.54167,73
34.55000,74
34.55833,74
34.56667,74
34.57500,74
34.58333,74
34.59167,74
34.60000,74
34.60833,74
34.61667,74
34.62500,74
34.63333,74
34.64167,74
34.65000,74
34.65833,74
34.66667,73
34.67500,73
34.68333,73
34.69167,73
34.70000,73
34.70833,73
34.71667,73
34.72500,73
34.73333,74
34.74167,74
34.75000,74
34.75833,74
34.76667,74
34.77500,74
34.78333,74
34.79167,74
34.80000,74
34.80833,74
34.81667,74
34.82500,74
34.83333,74
34.84167,74
34.85000,74
34.85833,74
34.86667,74
34.87500,74
34.88333,74
34.89167,73
34.90000,73
34.90833,73
34.91667,73
34.92500,73
34.93333,73
34.94167,73
34.95000,73
34.95833,73
34.96667,73
34.97500,74
34.98333,74
34.99167,74
35.00000,73
35.00833,73
35.01667,73
35.02500,73
35.03333,73
35.04167,74
35.05000,74
35.05833,74
35.06667,74
35.07500,74
35.08333,74
35.09167,74
35.10000,73
35.10833,73
35.11667,73
35.12500,73
35.13333,73
35.14167,73
35.15000,73
35.15833,73
35.16667,73
35.17500,72
35.18333,72
35.19167,72
35.20000,72
35.20833,72
35.21667,73
35.22500,73
35.23333,73
35.24167,74
35.25000,74
35.25833,74
35.26667,75
35.27500,75
35.28333,75
35.29167,75
35.30000,75
35.30833,75
35.31667,74
35.32500,74
35.33333,74
35.34167,73
35.35000,73
35.35833,73
35.36667,73
35.37500,73
35.38333,73
35.39167,73
35.40000,74
35.40833,74
35.41667,74
35.42500,74
35.43333,74
35.44167,74
35.45000,74
35.45833,75
35.46667,75
35.47500,75
35.48333,75
35.49167,75
35.50000,75
35.50833,75
35.51667,75
35.52500,75
35.53333,75
35.54167,75
35.55000,75
35.55833,75
35.56667,74
35.57500,74
35.58333,74
35.59167,74
35.60000,74
35.60833,74
35.61667,75
35.62500,75
35.63333,75
35.64167,75
35.65000,75
35.65833,75
35.66667,75
35.67500,75
35.68333,76
35.69167,76
35.70000,76
35.70833,76
35.71667,76
35.72500,76
35.73333,76
35.74167,75
35.75000,75
35.75833,75
35.76667,75
35.77500,75
35.78333,76
35.79167,76
35.80000,76
35.80833,76
35.81667,75
35.82500,76
35.83333,76
35.84167,76
35.85000,76
35.85833,76
35.86667,76
35.87500,76
35.88333,76
35.89167,76
35.90000,76
35.90833,76
35.91667,76
35.92500,75
35.93333,75
35.94167,76
35.95000,76
35.95833,76
35.96667,76
35.97500,76
35.98333,76
35.99167,76
36.00000,76
36.00833,75
36.01667,75
36.02500,75
36.03333,75
36.04167,75
36.05000,75
36.05833,75
36.06667,75
36.07500,75
36.08333,75
36.09167,75
36.10000,76
36.10833,76
36.11667,76
36.12500,76
36.13333,76
36.14167,76
36.15000,76
36.15833,76
36.16667,76
36.17500,76
36.18333,76
36.19167,76
36.20000,75
36.20833,75
36.21667,75
36.22500,75
36.23333,75
36.24167,75
36.25000,75
36.25833,75
36.26667,74
36.27500,74
36.28333,74
36.29167,74
36.30000,75
36.30833,75
36.31667,75
36.32500,75
36.33333,75
36.34167,75
36.35000,75
36.35833,75
36.36667,75
36.37500,75
36.38333,75
36.39167,75
36.40000,76
36.40833,76
36.41667,76
36.42500,76
36.43333,76
36.44167,76
36.45000,75
36.45833,75
36.46667,75
36.47500,74
36.48333,74
36.49167,74
36.50000,74
36.50833,74
36.51667,74
36.52500,74
36.53333,75
36.54167,75
36.55000,75
36.55833,76
36.56667,76
36.57500,76
36.58333,77
36.59167,77
36.60000,77
36.60833,77
36.61667,77
36.62500,77
36.63333,77
36.64167,77
36.65000,77
36.65833,77
36.66667,77
36.67500,76
36.68333,76
36.69167,76
36.70000,75
36.70833,75
36.71667,75
36.72500,75
36.73333,75
36.74167,75
36.75000,76
36.75833,76
36.76667,76
36.77500,76
36.78333,76
36.79167,76
36.80000,76
36.80833,76
36.81667,76
36.82500,76
36.83333,77
36.84167,77
36.85000,78
36.85833,78
36.86667,78
36.87500,78
36.88333,77
36.89167,77
36.90000,77
36.90833,77
36.91667,77
36.92500,77
36.93333,77
36.94167,77
36.95000,77
36.95833,76
36.96667,76
36.97500,76
36.98333,76
36.99167,76
37.00000,76
37.00833,77
37.01667,77
37.02500,77
37.03333,77
37.04167,78
37.05000,78
37.05833,78
37.06667,78
37.07500,78
37.08333,77
37.09167,77
37.10000,77
37.10833,77
37.11667,77
37.12500,77
37.13333,77
37.14167,77
37.15000,77
37.15833,77
37.16667,77
37.17500,76
37.18333,76
37.19167,76
37.20000,76
37.20833,76
37.21667,77
37.22500,77
37.23333,77
37.24167,77
37.25000,77
37.25833,77
37.26667,77
37.27500,77
37.28333,78
37.29167,78
37.30000,78
37.30833,78
37.31667,77
37.32500,77
37.33333,77
37.34167,77
37.35000,77
37.35833,77
37.36667,76
37.37500,76
37.38333,76
37.39167,76
37.40000,76
37.40833,76
37.41667,76
37.42500,76
37.43333,77
37.44167,77
37.45000,77
37.45833,77
37.46667,76
37.47500,77
37.48333,77
37.49167,77
37.50000,77
37.50833,78
37.51667,78
37.52500,78
37.53333,77
37.54167,78
37.55000,78
37.55833,78
37.56667,78
37.57500,79
37.58333,78
37.59167,78
37.60000,77
37.60833,77
37.61667,77
37.62500,77
37.63333,76
37.64167,76
37.65000,76
37.65833,76
37.66667,77
37.67500,77
37.68333,77
37.69167,77
37.70000,77
37.70833,77
37.71667,77
37.72500,77
37.73333,77
37.74167,77
37.75000,77
37.75833,77
37.76667,77
37.77500,77
37.78333,78
37.79167,78
37.80000,77
37.80833,77
37.81667,77
37.82500,76
37.83333,76
37.84167,76
37.85000,77
37.85833,77
37.86667,77
37.87500,77
37.88333,77
37.89167,78
37.90000,78
37.90833,77
37.91667,77
37.92500,77
37.93333,77
37.94167,77
37.95000,77
37.95833,78
37.96667,78
37.97500,78
37.98333,78
37.99167,78
38.00000,79
38.00833,79
38.01667,78
38.02500,78
38.03333,78
38.04167,78
38.05000,77
38.05833,77
38.06667,77
38.07500,77
38.08333,77
38.09167,77
38.10000,77
38.10833,78
38.11667,78
38.12500,78
38.13333,78
38.14167,78
38.15000,78
38.15833,77
38.16667,77
38.17500,77
38.18333,77
38.19167,77
38.20000,77
38.20833,77
38.21667,77
38.22500,77
38.23333,77
38.24167,77
38.25000,77
38.25833,77
38.26667,77
38.27500,77
38.28333,77
38.29167,77
38.30000,78
38.30833,78
38.31667,78
38.32500,77
38.33333,77
38.34167,77
38.35000,78
38.35833,78
38.36667,78
38.37500,78
38.38333,78
38.39167,78
38.40000,78
38.40833,78
38.41667,78
38.42500,78
38.43333,78
38.44167,78
38.45000,78
38.45833,77
38.46667,78
38.47500,78
38.48333,78
38.49167,77
38.50000,77
38.50833,77
38.51667,77
38.52500,77
38.53333,77
38.54167,77
38.55000,77
38.55833,77
38.56667,78
38.57500,78
38.58333,78
38.59167,78
38.60000,78
38.60833,78
38.61667,78
38.62500,78
38.63333,78
38.64167,78
38.65000,78
38.65833,78
38.66667,77
38.67500,77
38.68333,77
38.69167,77
38.70000,77
38.70833,78
38.71667,78
38.72500,78
38.73333,78
38.74167,77
38.75000,77
38.75833,77
38.76667,77
38.77500,77
38.78333,77
38.79167,77
38.80000,78
38.80833,78
38.81667,78
38.82500,78
38.83333,78
38.84167,78
38.85000,78
38.85833,79
38.86667,79
38.87500,79
38.88333,79
38.89167,79
38.90000,78
38.90833,78
38.91667,78
38.92500,78
38.93333,78
38.94167,78
38.95000,78
38.95833,78
38.96667,78
38.97500,79
38.98333,79
38.99167,79
39.00000,78
39.00833,78
39.01667,78
39.02500,78
39.03333,78
39.04167,79
39.05000,79
39.05833,79
39.06667,79
39.07500,79
39.08333,79
39.09167,79
39.10000,79
39.10833,79
39.11667,79
39.12500,79
39.13333,79
39.14167,79
39.15000,78
39.15833,78
39.16667,78
39.17500,78
39.18333,78
39.19167,78
39.20000,78
39.20833,78
39.21667,78
39.22500,78
39.23333,79
39.24167,79
39.25000,79
39.25833,79
39.26667,79
39.27500,79
39.28333,79
39.29167,80
39.30000,80
39.30833,80
39.31667,80
39.32500,80
39.33333,80
39.34167,80
39.35000,79
39.35833,79
39.36667,79
39.37500,79
39.38333,79
39.39167,79
39.40000,79
39.40833,79
39.41667,80
39.42500,80
39.43333,80
39.44167,80
39.45000,80
39.45833,80
39.46667,81
39.47500,81
39.48333,81
39.49167,81
39.50000,80
39.50833,80
39.51667,80
39.52500,80
39.53333,79
39.54167,79
39.55000,80
39.55833,80
39.56667,80
39.57500,80
39.58333,80
39.59167,80
39.60000,80
39.60833,80
39.61667,80
39.62500,80
39.63333,80
39.64167,80
39.65000,80
39.65833,80
39.66667,80
39.67500,80
39.68333,80
39.69167,81
39.70000,80
39.70833,80
39.71667,80
39.72500,80
39.73333,80
39.74167,80
39.75000,80
39.75833,80
39.76667,80
39.77500,80
39.78333,80
39.79167,80
39.80000,80
39.80833,80
39.81667,80
39.82500,80
39.83333,80
39.84167,80
39.85000,80
39.85833,80
39.86667,80
39.87500,80
39.88333,80
39.89167,80
39.90000,80
39.90833,80
39.91667,80
39.92500,81
39.93333,81
39.94167,81
39.95000,80
39.95833,80
39.96667,80
39.97500,81
39.98333,81
39.99167,81
40.00000,81

