[Header]
Application Name,LabSolutions
Version,5.97 SP1
Data File Name,C:\Users\cremerlab\Desktop\griffin\2021-03-31_NCM3722_NCglucose_turnover\2021-03-31_NCM3722_turnover_batch_3312021_006_034.lcd
Output Date,4/1/2021
Output Time,8:07:00 PM

[File Information]
Type,Data File
Generated,4/1/2021 7:26:42 PM
Generated by,System Administrator
Modified,4/1/2021 8:07:00 PM
Modified by,System Administrator

[Sample Information]
Operator Name,System Administrator
Acquired,4/1/2021 7:27:00 PM
Sample Type,1:Standard
Level,6
Sample Name,2021-03-31_glucose_glycerol_acetate_calibration_05mM
Sample ID,006
ISTD Amount1,1
ISTD Amount2,1
ISTD Amount3,1
ISTD Amount4,1
ISTD Amount5,1
ISTD Amount6,1
ISTD Amount7,1
ISTD Amount8,1
ISTD Amount9,1
ISTD Amount10,1
ISTD Amount11,1
ISTD Amount12,1
ISTD Amount13,1
ISTD Amount14,1
ISTD Amount15,1
ISTD Amount16,1
ISTD Amount17,1
ISTD Amount18,1
ISTD Amount19,1
ISTD Amount20,1
ISTD Amount21,1
ISTD Amount22,1
ISTD Amount23,1
ISTD Amount24,1
ISTD Amount25,1
ISTD Amount26,1
ISTD Amount27,1
ISTD Amount28,1
ISTD Amount29,1
ISTD Amount30,1
ISTD Amount31,1
ISTD Amount32,1
Sample Amount,1
Dilution Factor,1
Vial#,6
Injection Volume,20

[Original Files]
Data File,C:\Users\cremerlab\Desktop\griffin\2021-03-31_NCM3722_NCglucose_turnover\2021-03-31_NCM3722_turnover_batch_3312021_006_034.lcd
Method File,C:\LabSolutions\Data\Project1\organicacidsetc2.lcm
Batch File,C:\Users\cremerlab\Desktop\griffin\2021-03-31_NCM3722_NCglucose_turnover\2021-03-31_NCM3722_turnover_batch.lcb
Report Format File,c:\LabSolutions\System\DEFAULT.lsr

[File Description]


[Configuration]
Instrument Name,HPLC-PC-Instrument1
Instrument #,1
Line #,1
# of Detectors,2
Detector ID,Detector A,Detector B
Detector Name,Detector A,Detector B
# of Channels,1,1

[Peak Table(Detector A)]
# of Peaks,0

[Peak Table(Detector B)]
# of Peaks,3
Peak#,R.Time,I.Time,F.Time,Area,Height,A/H,Conc.,Mark,ID#,Name,k',Plate #,Plate Ht.,Tailing,Resolution,Sep.Factor,Area Ratio,Height Ratio,Conc. %,Norm Conc.
1,15.651,14.992,16.908,516403,21409,24.120,71.582,   ,,,0.000,9738,15.404,1.153,0.000,0.000,0,0,0.000,0.000
2,22.081,21.425,23.092,145501,5391,26.988,20.169,   ,,,0.411,15385,9.750,1.091,9.551,0.000,0,0,0.000,0.000
3,25.071,24.425,25.892,59509,2043,29.133,8.249,   ,,,0.602,16853,8.900,1.061,4.028,1.465,0,0,0.000,0.000

[LC Chromatogram(Detector B-Ch1)]
Interval(msec),500
# of Points,4801
Start Time(min),0.000
End Time(min),40.000
Intensity Units,mV
Intensity Multiplier,0.001
R.Time (min),Intensity
0.00000,1
0.00833,1
0.01667,0
0.02500,0
0.03333,0
0.04167,1
0.05000,1
0.05833,1
0.06667,0
0.07500,1
0.08333,1
0.09167,1
0.10000,1
0.10833,1
0.11667,1
0.12500,1
0.13333,1
0.14167,1
0.15000,1
0.15833,1
0.16667,1
0.17500,1
0.18333,1
0.19167,1
0.20000,1
0.20833,1
0.21667,1
0.22500,1
0.23333,1
0.24167,1
0.25000,1
0.25833,1
0.26667,1
0.27500,1
0.28333,1
0.29167,1
0.30000,1
0.30833,2
0.31667,2
0.32500,2
0.33333,2
0.34167,1
0.35000,1
0.35833,1
0.36667,1
0.37500,1
0.38333,1
0.39167,1
0.40000,0
0.40833,0
0.41667,0
0.42500,0
0.43333,0
0.44167,0
0.45000,1
0.45833,1
0.46667,1
0.47500,1
0.48333,1
0.49167,1
0.50000,1
0.50833,1
0.51667,1
0.52500,1
0.53333,1
0.54167,2
0.55000,2
0.55833,3
0.56667,3
0.57500,3
0.58333,3
0.59167,3
0.60000,2
0.60833,2
0.61667,2
0.62500,2
0.63333,1
0.64167,1
0.65000,1
0.65833,0
0.66667,0
0.67500,-0
0.68333,-0
0.69167,-1
0.70000,-1
0.70833,-1
0.71667,-1
0.72500,-0
0.73333,0
0.74167,1
0.75000,1
0.75833,1
0.76667,1
0.77500,1
0.78333,1
0.79167,1
0.80000,1
0.80833,2
0.81667,2
0.82500,2
0.83333,2
0.84167,2
0.85000,2
0.85833,3
0.86667,3
0.87500,3
0.88333,3
0.89167,3
0.90000,3
0.90833,3
0.91667,3
0.92500,3
0.93333,2
0.94167,2
0.95000,2
0.95833,2
0.96667,2
0.97500,3
0.98333,3
0.99167,3
1.00000,3
1.00833,3
1.01667,4
1.02500,4
1.03333,4
1.04167,4
1.05000,4
1.05833,4
1.06667,3
1.07500,3
1.08333,3
1.09167,3
1.10000,3
1.10833,3
1.11667,3
1.12500,3
1.13333,3
1.14167,3
1.15000,2
1.15833,2
1.16667,2
1.17500,2
1.18333,2
1.19167,2
1.20000,2
1.20833,3
1.21667,3
1.22500,3
1.23333,3
1.24167,3
1.25000,3
1.25833,3
1.26667,2
1.27500,2
1.28333,3
1.29167,3
1.30000,3
1.30833,3
1.31667,3
1.32500,4
1.33333,4
1.34167,4
1.35000,4
1.35833,4
1.36667,4
1.37500,4
1.38333,4
1.39167,3
1.40000,3
1.40833,3
1.41667,3
1.42500,2
1.43333,2
1.44167,3
1.45000,3
1.45833,3
1.46667,3
1.47500,3
1.48333,4
1.49167,4
1.50000,5
1.50833,5
1.51667,4
1.52500,4
1.53333,4
1.54167,4
1.55000,4
1.55833,4
1.56667,4
1.57500,4
1.58333,4
1.59167,4
1.60000,4
1.60833,5
1.61667,5
1.62500,5
1.63333,4
1.64167,4
1.65000,3
1.65833,3
1.66667,3
1.67500,3
1.68333,3
1.69167,4
1.70000,4
1.70833,5
1.71667,5
1.72500,6
1.73333,6
1.74167,6
1.75000,6
1.75833,6
1.76667,6
1.77500,6
1.78333,6
1.79167,6
1.80000,6
1.80833,5
1.81667,5
1.82500,5
1.83333,5
1.84167,5
1.85000,5
1.85833,5
1.86667,5
1.87500,5
1.88333,5
1.89167,5
1.90000,5
1.90833,5
1.91667,4
1.92500,4
1.93333,4
1.94167,4
1.95000,4
1.95833,5
1.96667,5
1.97500,5
1.98333,5
1.99167,5
2.00000,5
2.00833,5
2.01667,6
2.02500,5
2.03333,5
2.04167,5
2.05000,6
2.05833,6
2.06667,6
2.07500,6
2.08333,6
2.09167,6
2.10000,6
2.10833,6
2.11667,5
2.12500,6
2.13333,6
2.14167,6
2.15000,6
2.15833,6
2.16667,6
2.17500,6
2.18333,6
2.19167,6
2.20000,6
2.20833,6
2.21667,6
2.22500,6
2.23333,6
2.24167,6
2.25000,6
2.25833,6
2.26667,6
2.27500,6
2.28333,6
2.29167,6
2.30000,6
2.30833,6
2.31667,6
2.32500,6
2.33333,6
2.34167,7
2.35000,7
2.35833,7
2.36667,7
2.37500,7
2.38333,6
2.39167,6
2.40000,7
2.40833,7
2.41667,7
2.42500,7
2.43333,7
2.44167,7
2.45000,7
2.45833,7
2.46667,7
2.47500,7
2.48333,7
2.49167,7
2.50000,8
2.50833,8
2.51667,8
2.52500,8
2.53333,7
2.54167,7
2.55000,7
2.55833,6
2.56667,6
2.57500,7
2.58333,7
2.59167,7
2.60000,7
2.60833,7
2.61667,7
2.62500,7
2.63333,7
2.64167,7
2.65000,7
2.65833,7
2.66667,7
2.67500,7
2.68333,7
2.69167,7
2.70000,7
2.70833,7
2.71667,7
2.72500,6
2.73333,6
2.74167,6
2.75000,6
2.75833,7
2.76667,7
2.77500,7
2.78333,7
2.79167,7
2.80000,6
2.80833,7
2.81667,7
2.82500,7
2.83333,7
2.84167,7
2.85000,7
2.85833,7
2.86667,7
2.87500,7
2.88333,7
2.89167,7
2.90000,7
2.90833,7
2.91667,7
2.92500,7
2.93333,7
2.94167,7
2.95000,7
2.95833,7
2.96667,7
2.97500,7
2.98333,7
2.99167,7
3.00000,8
3.00833,8
3.01667,8
3.02500,8
3.03333,8
3.04167,8
3.05000,8
3.05833,8
3.06667,8
3.07500,8
3.08333,8
3.09167,8
3.10000,8
3.10833,8
3.11667,8
3.12500,8
3.13333,7
3.14167,7
3.15000,7
3.15833,8
3.16667,8
3.17500,8
3.18333,8
3.19167,8
3.20000,8
3.20833,8
3.21667,8
3.22500,9
3.23333,9
3.24167,9
3.25000,9
3.25833,9
3.26667,9
3.27500,9
3.28333,9
3.29167,9
3.30000,9
3.30833,9
3.31667,9
3.32500,8
3.33333,8
3.34167,8
3.35000,8
3.35833,8
3.36667,8
3.37500,8
3.38333,8
3.39167,8
3.40000,8
3.40833,8
3.41667,9
3.42500,9
3.43333,9
3.44167,8
3.45000,8
3.45833,8
3.46667,8
3.47500,9
3.48333,9
3.49167,9
3.50000,9
3.50833,9
3.51667,9
3.52500,9
3.53333,9
3.54167,9
3.55000,8
3.55833,8
3.56667,9
3.57500,9
3.58333,9
3.59167,9
3.60000,9
3.60833,9
3.61667,9
3.62500,9
3.63333,9
3.64167,9
3.65000,9
3.65833,9
3.66667,10
3.67500,10
3.68333,10
3.69167,10
3.70000,10
3.70833,9
3.71667,9
3.72500,9
3.73333,9
3.74167,9
3.75000,9
3.75833,9
3.76667,9
3.77500,9
3.78333,9
3.79167,9
3.80000,9
3.80833,9
3.81667,9
3.82500,8
3.83333,8
3.84167,8
3.85000,8
3.85833,8
3.86667,8
3.87500,8
3.88333,8
3.89167,8
3.90000,9
3.90833,9
3.91667,9
3.92500,9
3.93333,9
3.94167,9
3.95000,9
3.95833,9
3.96667,9
3.97500,9
3.98333,9
3.99167,9
4.00000,9
4.00833,9
4.01667,9
4.02500,9
4.03333,9
4.04167,9
4.05000,9
4.05833,9
4.06667,8
4.07500,8
4.08333,8
4.09167,8
4.10000,9
4.10833,9
4.11667,9
4.12500,9
4.13333,10
4.14167,10
4.15000,10
4.15833,10
4.16667,10
4.17500,10
4.18333,10
4.19167,10
4.20000,10
4.20833,10
4.21667,9
4.22500,9
4.23333,9
4.24167,9
4.25000,9
4.25833,9
4.26667,9
4.27500,9
4.28333,9
4.29167,9
4.30000,9
4.30833,9
4.31667,9
4.32500,9
4.33333,9
4.34167,9
4.35000,9
4.35833,9
4.36667,10
4.37500,10
4.38333,10
4.39167,10
4.40000,10
4.40833,10
4.41667,10
4.42500,10
4.43333,10
4.44167,10
4.45000,10
4.45833,10
4.46667,11
4.47500,11
4.48333,11
4.49167,11
4.50000,11
4.50833,11
4.51667,11
4.52500,10
4.53333,10
4.54167,10
4.55000,10
4.55833,10
4.56667,10
4.57500,10
4.58333,10
4.59167,10
4.60000,10
4.60833,10
4.61667,11
4.62500,11
4.63333,11
4.64167,11
4.65000,11
4.65833,11
4.66667,11
4.67500,11
4.68333,11
4.69167,11
4.70000,11
4.70833,11
4.71667,11
4.72500,10
4.73333,10
4.74167,10
4.75000,10
4.75833,11
4.76667,11
4.77500,11
4.78333,10
4.79167,10
4.80000,10
4.80833,10
4.81667,10
4.82500,10
4.83333,10
4.84167,10
4.85000,10
4.85833,10
4.86667,10
4.87500,11
4.88333,11
4.89167,11
4.90000,10
4.90833,10
4.91667,10
4.92500,10
4.93333,10
4.94167,10
4.95000,10
4.95833,10
4.96667,10
4.97500,10
4.98333,10
4.99167,10
5.00000,10
5.00833,10
5.01667,11
5.02500,10
5.03333,10
5.04167,10
5.05000,10
5.05833,10
5.06667,10
5.07500,10
5.08333,10
5.09167,11
5.10000,11
5.10833,11
5.11667,11
5.12500,11
5.13333,12
5.14167,12
5.15000,12
5.15833,12
5.16667,12
5.17500,12
5.18333,12
5.19167,12
5.20000,12
5.20833,12
5.21667,12
5.22500,12
5.23333,12
5.24167,12
5.25000,12
5.25833,12
5.26667,12
5.27500,11
5.28333,11
5.29167,11
5.30000,12
5.30833,12
5.31667,12
5.32500,12
5.33333,12
5.34167,12
5.35000,12
5.35833,12
5.36667,12
5.37500,12
5.38333,12
5.39167,13
5.40000,13
5.40833,13
5.41667,13
5.42500,13
5.43333,13
5.44167,13
5.45000,12
5.45833,12
5.46667,12
5.47500,13
5.48333,13
5.49167,13
5.50000,13
5.50833,13
5.51667,13
5.52500,13
5.53333,13
5.54167,13
5.55000,12
5.55833,12
5.56667,12
5.57500,12
5.58333,12
5.59167,12
5.60000,13
5.60833,13
5.61667,12
5.62500,12
5.63333,13
5.64167,12
5.65000,12
5.65833,12
5.66667,12
5.67500,12
5.68333,12
5.69167,12
5.70000,12
5.70833,12
5.71667,12
5.72500,12
5.73333,12
5.74167,12
5.75000,12
5.75833,12
5.76667,11
5.77500,11
5.78333,11
5.79167,12
5.80000,12
5.80833,12
5.81667,12
5.82500,13
5.83333,13
5.84167,13
5.85000,13
5.85833,13
5.86667,14
5.87500,13
5.88333,13
5.89167,13
5.90000,14
5.90833,14
5.91667,14
5.92500,13
5.93333,13
5.94167,13
5.95000,13
5.95833,12
5.96667,12
5.97500,12
5.98333,12
5.99167,12
6.00000,12
6.00833,12
6.01667,12
6.02500,12
6.03333,12
6.04167,12
6.05000,12
6.05833,12
6.06667,13
6.07500,13
6.08333,13
6.09167,13
6.10000,13
6.10833,14
6.11667,14
6.12500,14
6.13333,14
6.14167,14
6.15000,14
6.15833,14
6.16667,14
6.17500,14
6.18333,14
6.19167,13
6.20000,13
6.20833,13
6.21667,13
6.22500,13
6.23333,13
6.24167,13
6.25000,12
6.25833,13
6.26667,13
6.27500,13
6.28333,13
6.29167,14
6.30000,14
6.30833,14
6.31667,14
6.32500,13
6.33333,14
6.34167,14
6.35000,14
6.35833,14
6.36667,14
6.37500,14
6.38333,14
6.39167,14
6.40000,14
6.40833,14
6.41667,14
6.42500,14
6.43333,14
6.44167,13
6.45000,13
6.45833,13
6.46667,13
6.47500,13
6.48333,13
6.49167,13
6.50000,13
6.50833,13
6.51667,14
6.52500,14
6.53333,14
6.54167,14
6.55000,14
6.55833,14
6.56667,14
6.57500,14
6.58333,14
6.59167,14
6.60000,14
6.60833,14
6.61667,14
6.62500,14
6.63333,14
6.64167,14
6.65000,14
6.65833,14
6.66667,14
6.67500,14
6.68333,14
6.69167,14
6.70000,14
6.70833,14
6.71667,14
6.72500,14
6.73333,14
6.74167,14
6.75000,14
6.75833,15
6.76667,15
6.77500,15
6.78333,15
6.79167,15
6.80000,15
6.80833,15
6.81667,16
6.82500,16
6.83333,15
6.84167,15
6.85000,15
6.85833,15
6.86667,15
6.87500,15
6.88333,15
6.89167,15
6.90000,14
6.90833,14
6.91667,14
6.92500,14
6.93333,14
6.94167,14
6.95000,14
6.95833,14
6.96667,14
6.97500,13
6.98333,14
6.99167,14
7.00000,14
7.00833,14
7.01667,15
7.02500,15
7.03333,16
7.04167,15
7.05000,15
7.05833,15
7.06667,15
7.07500,16
7.08333,16
7.09167,16
7.10000,16
7.10833,16
7.11667,15
7.12500,14
7.13333,14
7.14167,14
7.15000,14
7.15833,14
7.16667,15
7.17500,15
7.18333,15
7.19167,15
7.20000,15
7.20833,15
7.21667,15
7.22500,15
7.23333,15
7.24167,15
7.25000,14
7.25833,15
7.26667,15
7.27500,15
7.28333,15
7.29167,15
7.30000,15
7.30833,16
7.31667,16
7.32500,16
7.33333,16
7.34167,16
7.35000,16
7.35833,16
7.36667,16
7.37500,16
7.38333,15
7.39167,16
7.40000,16
7.40833,15
7.41667,15
7.42500,15
7.43333,15
7.44167,15
7.45000,15
7.45833,16
7.46667,16
7.47500,16
7.48333,16
7.49167,16
7.50000,16
7.50833,16
7.51667,17
7.52500,17
7.53333,17
7.54167,17
7.55000,16
7.55833,16
7.56667,16
7.57500,16
7.58333,16
7.59167,17
7.60000,17
7.60833,16
7.61667,16
7.62500,16
7.63333,16
7.64167,16
7.65000,16
7.65833,16
7.66667,16
7.67500,16
7.68333,16
7.69167,16
7.70000,16
7.70833,16
7.71667,15
7.72500,15
7.73333,16
7.74167,16
7.75000,16
7.75833,16
7.76667,16
7.77500,17
7.78333,17
7.79167,17
7.80000,17
7.80833,17
7.81667,17
7.82500,17
7.83333,17
7.84167,17
7.85000,17
7.85833,17
7.86667,17
7.87500,17
7.88333,17
7.89167,17
7.90000,17
7.90833,16
7.91667,17
7.92500,17
7.93333,17
7.94167,17
7.95000,17
7.95833,17
7.96667,17
7.97500,17
7.98333,17
7.99167,17
8.00000,17
8.00833,17
8.01667,17
8.02500,18
8.03333,18
8.04167,18
8.05000,18
8.05833,18
8.06667,18
8.07500,18
8.08333,18
8.09167,17
8.10000,17
8.10833,17
8.11667,17
8.12500,16
8.13333,17
8.14167,16
8.15000,16
8.15833,17
8.16667,17
8.17500,17
8.18333,17
8.19167,17
8.20000,17
8.20833,18
8.21667,18
8.22500,18
8.23333,17
8.24167,17
8.25000,17
8.25833,17
8.26667,17
8.27500,17
8.28333,17
8.29167,17
8.30000,17
8.30833,17
8.31667,16
8.32500,16
8.33333,16
8.34167,16
8.35000,16
8.35833,16
8.36667,16
8.37500,16
8.38333,17
8.39167,17
8.40000,17
8.40833,17
8.41667,17
8.42500,17
8.43333,17
8.44167,17
8.45000,17
8.45833,17
8.46667,17
8.47500,17
8.48333,17
8.49167,17
8.50000,18
8.50833,18
8.51667,18
8.52500,18
8.53333,19
8.54167,19
8.55000,18
8.55833,18
8.56667,18
8.57500,18
8.58333,18
8.59167,18
8.60000,17
8.60833,17
8.61667,17
8.62500,17
8.63333,17
8.64167,17
8.65000,17
8.65833,17
8.66667,18
8.67500,18
8.68333,18
8.69167,18
8.70000,18
8.70833,18
8.71667,18
8.72500,18
8.73333,18
8.74167,19
8.75000,19
8.75833,19
8.76667,19
8.77500,18
8.78333,18
8.79167,18
8.80000,18
8.80833,18
8.81667,18
8.82500,18
8.83333,18
8.84167,18
8.85000,17
8.85833,17
8.86667,17
8.87500,18
8.88333,18
8.89167,18
8.90000,18
8.90833,18
8.91667,18
8.92500,18
8.93333,18
8.94167,18
8.95000,18
8.95833,18
8.96667,18
8.97500,19
8.98333,19
8.99167,19
9.00000,19
9.00833,19
9.01667,20
9.02500,20
9.03333,20
9.04167,19
9.05000,19
9.05833,19
9.06667,18
9.07500,18
9.08333,18
9.09167,18
9.10000,18
9.10833,18
9.11667,18
9.12500,18
9.13333,18
9.14167,18
9.15000,19
9.15833,19
9.16667,19
9.17500,19
9.18333,20
9.19167,20
9.20000,20
9.20833,20
9.21667,20
9.22500,20
9.23333,20
9.24167,20
9.25000,20
9.25833,19
9.26667,19
9.27500,19
9.28333,18
9.29167,18
9.30000,18
9.30833,19
9.31667,19
9.32500,19
9.33333,19
9.34167,19
9.35000,20
9.35833,20
9.36667,20
9.37500,20
9.38333,20
9.39167,19
9.40000,20
9.40833,20
9.41667,20
9.42500,19
9.43333,19
9.44167,19
9.45000,19
9.45833,20
9.46667,20
9.47500,20
9.48333,20
9.49167,20
9.50000,20
9.50833,20
9.51667,19
9.52500,19
9.53333,19
9.54167,19
9.55000,19
9.55833,19
9.56667,19
9.57500,19
9.58333,19
9.59167,19
9.60000,19
9.60833,20
9.61667,20
9.62500,20
9.63333,20
9.64167,21
9.65000,20
9.65833,20
9.66667,20
9.67500,20
9.68333,20
9.69167,21
9.70000,21
9.70833,21
9.71667,21
9.72500,21
9.73333,21
9.74167,21
9.75000,21
9.75833,20
9.76667,20
9.77500,20
9.78333,19
9.79167,19
9.80000,19
9.80833,20
9.81667,20
9.82500,20
9.83333,20
9.84167,20
9.85000,20
9.85833,20
9.86667,21
9.87500,21
9.88333,22
9.89167,22
9.90000,21
9.90833,21
9.91667,21
9.92500,21
9.93333,21
9.94167,21
9.95000,21
9.95833,21
9.96667,22
9.97500,22
9.98333,21
9.99167,21
10.00000,20
10.00833,20
10.01667,20
10.02500,20
10.03333,20
10.04167,20
10.05000,20
10.05833,21
10.06667,21
10.07500,21
10.08333,21
10.09167,21
10.10000,21
10.10833,21
10.11667,21
10.12500,20
10.13333,20
10.14167,20
10.15000,20
10.15833,20
10.16667,20
10.17500,20
10.18333,20
10.19167,20
10.20000,20
10.20833,20
10.21667,20
10.22500,20
10.23333,20
10.24167,20
10.25000,20
10.25833,20
10.26667,20
10.27500,20
10.28333,20
10.29167,20
10.30000,20
10.30833,20
10.31667,20
10.32500,20
10.33333,20
10.34167,20
10.35000,20
10.35833,20
10.36667,20
10.37500,20
10.38333,20
10.39167,20
10.40000,21
10.40833,21
10.41667,21
10.42500,21
10.43333,21
10.44167,20
10.45000,20
10.45833,20
10.46667,19
10.47500,19
10.48333,19
10.49167,18
10.50000,18
10.50833,17
10.51667,17
10.52500,16
10.53333,16
10.54167,15
10.55000,14
10.55833,13
10.56667,11
10.57500,8
10.58333,5
10.59167,1
10.60000,-5
10.60833,-13
10.61667,-23
10.62500,-38
10.63333,-57
10.64167,-83
10.65000,-116
10.65833,-160
10.66667,-216
10.67500,-288
10.68333,-380
10.69167,-497
10.70000,-642
10.70833,-821
10.71667,-1039
10.72500,-1303
10.73333,-1619
10.74167,-1993
10.75000,-2430
10.75833,-2934
10.76667,-3511
10.77500,-4161
10.78333,-4886
10.79167,-5684
10.80000,-6553
10.80833,-7485
10.81667,-8474
10.82500,-9509
10.83333,-10577
10.84167,-11666
10.85000,-12760
10.85833,-13842
10.86667,-14898
10.87500,-15909
10.88333,-16862
10.89167,-17741
10.90000,-18534
10.90833,-19230
10.91667,-19820
10.92500,-20297
10.93333,-20658
10.94167,-20900
10.95000,-21024
10.95833,-21032
10.96667,-20927
10.97500,-20716
10.98333,-20404
10.99167,-20001
11.00000,-19515
11.00833,-18956
11.01667,-18333
11.02500,-17656
11.03333,-16935
11.04167,-16180
11.05000,-15400
11.05833,-14604
11.06667,-13800
11.07500,-12994
11.08333,-12195
11.09167,-11408
11.10000,-10637
11.10833,-9890
11.11667,-9168
11.12500,-8476
11.13333,-7815
11.14167,-7187
11.15000,-6594
11.15833,-6037
11.16667,-5515
11.17500,-5028
11.18333,-4576
11.19167,-4157
11.20000,-3772
11.20833,-3418
11.21667,-3094
11.22500,-2798
11.23333,-2528
11.24167,-2283
11.25000,-2061
11.25833,-1860
11.26667,-1679
11.27500,-1516
11.28333,-1370
11.29167,-1238
11.30000,-1121
11.30833,-1016
11.31667,-922
11.32500,-838
11.33333,-763
11.34167,-697
11.35000,-637
11.35833,-584
11.36667,-536
11.37500,-493
11.38333,-455
11.39167,-421
11.40000,-390
11.40833,-363
11.41667,-338
11.42500,-316
11.43333,-296
11.44167,-277
11.45000,-261
11.45833,-245
11.46667,-231
11.47500,-218
11.48333,-206
11.49167,-195
11.50000,-185
11.50833,-176
11.51667,-168
11.52500,-161
11.53333,-153
11.54167,-147
11.55000,-140
11.55833,-134
11.56667,-129
11.57500,-124
11.58333,-119
11.59167,-114
11.60000,-110
11.60833,-106
11.61667,-102
11.62500,-99
11.63333,-95
11.64167,-92
11.65000,-89
11.65833,-86
11.66667,-83
11.67500,-81
11.68333,-78
11.69167,-76
11.70000,-75
11.70833,-73
11.71667,-71
11.72500,-68
11.73333,-66
11.74167,-64
11.75000,-62
11.75833,-60
11.76667,-59
11.77500,-57
11.78333,-55
11.79167,-54
11.80000,-52
11.80833,-51
11.81667,-49
11.82500,-48
11.83333,-47
11.84167,-46
11.85000,-45
11.85833,-44
11.86667,-43
11.87500,-42
11.88333,-41
11.89167,-40
11.90000,-39
11.90833,-39
11.91667,-38
11.92500,-37
11.93333,-37
11.94167,-37
11.95000,-36
11.95833,-35
11.96667,-34
11.97500,-33
11.98333,-32
11.99167,-31
12.00000,-31
12.00833,-31
12.01667,-30
12.02500,-30
12.03333,-29
12.04167,-29
12.05000,-28
12.05833,-28
12.06667,-27
12.07500,-27
12.08333,-26
12.09167,-26
12.10000,-26
12.10833,-26
12.11667,-25
12.12500,-25
12.13333,-25
12.14167,-25
12.15000,-25
12.15833,-25
12.16667,-24
12.17500,-24
12.18333,-24
12.19167,-23
12.20000,-23
12.20833,-22
12.21667,-22
12.22500,-22
12.23333,-22
12.24167,-22
12.25000,-21
12.25833,-21
12.26667,-20
12.27500,-20
12.28333,-19
12.29167,-19
12.30000,-19
12.30833,-19
12.31667,-19
12.32500,-18
12.33333,-18
12.34167,-18
12.35000,-18
12.35833,-18
12.36667,-18
12.37500,-18
12.38333,-18
12.39167,-18
12.40000,-18
12.40833,-18
12.41667,-17
12.42500,-17
12.43333,-16
12.44167,-16
12.45000,-16
12.45833,-15
12.46667,-14
12.47500,-13
12.48333,-13
12.49167,-13
12.50000,-13
12.50833,-13
12.51667,-13
12.52500,-13
12.53333,-13
12.54167,-12
12.55000,-12
12.55833,-12
12.56667,-12
12.57500,-11
12.58333,-11
12.59167,-10
12.60000,-10
12.60833,-10
12.61667,-9
12.62500,-10
12.63333,-10
12.64167,-9
12.65000,-9
12.65833,-9
12.66667,-9
12.67500,-8
12.68333,-8
12.69167,-8
12.70000,-7
12.70833,-7
12.71667,-6
12.72500,-6
12.73333,-5
12.74167,-5
12.75000,-4
12.75833,-4
12.76667,-4
12.77500,-4
12.78333,-4
12.79167,-3
12.80000,-3
12.80833,-3
12.81667,-2
12.82500,-2
12.83333,-2
12.84167,-2
12.85000,-1
12.85833,-1
12.86667,-0
12.87500,0
12.88333,0
12.89167,1
12.90000,1
12.90833,2
12.91667,3
12.92500,4
12.93333,4
12.94167,5
12.95000,5
12.95833,6
12.96667,6
12.97500,7
12.98333,7
12.99167,8
13.00000,8
13.00833,9
13.01667,9
13.02500,10
13.03333,10
13.04167,11
13.05000,11
13.05833,11
13.06667,11
13.07500,12
13.08333,12
13.09167,12
13.10000,13
13.10833,13
13.11667,13
13.12500,13
13.13333,14
13.14167,14
13.15000,15
13.15833,15
13.16667,16
13.17500,16
13.18333,17
13.19167,17
13.20000,17
13.20833,17
13.21667,17
13.22500,18
13.23333,18
13.24167,18
13.25000,18
13.25833,18
13.26667,18
13.27500,19
13.28333,19
13.29167,19
13.30000,18
13.30833,18
13.31667,18
13.32500,17
13.33333,18
13.34167,18
13.35000,18
13.35833,17
13.36667,17
13.37500,17
13.38333,16
13.39167,16
13.40000,17
13.40833,17
13.41667,17
13.42500,16
13.43333,16
13.44167,16
13.45000,16
13.45833,15
13.46667,15
13.47500,14
13.48333,14
13.49167,13
13.50000,13
13.50833,13
13.51667,13
13.52500,13
13.53333,13
13.54167,12
13.55000,12
13.55833,12
13.56667,12
13.57500,12
13.58333,12
13.59167,12
13.60000,12
13.60833,12
13.61667,12
13.62500,12
13.63333,12
13.64167,12
13.65000,12
13.65833,12
13.66667,12
13.67500,12
13.68333,13
13.69167,13
13.70000,13
13.70833,12
13.71667,12
13.72500,12
13.73333,12
13.74167,12
13.75000,12
13.75833,12
13.76667,12
13.77500,12
13.78333,12
13.79167,12
13.80000,12
13.80833,11
13.81667,12
13.82500,12
13.83333,12
13.84167,12
13.85000,13
13.85833,13
13.86667,13
13.87500,13
13.88333,13
13.89167,13
13.90000,13
13.90833,13
13.91667,13
13.92500,14
13.93333,14
13.94167,14
13.95000,14
13.95833,14
13.96667,14
13.97500,14
13.98333,14
13.99167,14
14.00000,14
14.00833,14
14.01667,14
14.02500,14
14.03333,14
14.04167,14
14.05000,14
14.05833,14
14.06667,13
14.07500,13
14.08333,13
14.09167,13
14.10000,13
14.10833,13
14.11667,14
14.12500,14
14.13333,14
14.14167,15
14.15000,16
14.15833,16
14.16667,16
14.17500,16
14.18333,16
14.19167,16
14.20000,16
14.20833,16
14.21667,16
14.22500,16
14.23333,16
14.24167,16
14.25000,17
14.25833,17
14.26667,18
14.27500,18
14.28333,17
14.29167,17
14.30000,17
14.30833,17
14.31667,17
14.32500,17
14.33333,17
14.34167,17
14.35000,17
14.35833,17
14.36667,17
14.37500,17
14.38333,17
14.39167,17
14.40000,17
14.40833,17
14.41667,18
14.42500,18
14.43333,18
14.44167,18
14.45000,18
14.45833,18
14.46667,18
14.47500,18
14.48333,18
14.49167,18
14.50000,18
14.50833,19
14.51667,19
14.52500,19
14.53333,19
14.54167,19
14.55000,19
14.55833,19
14.56667,19
14.57500,19
14.58333,19
14.59167,19
14.60000,19
14.60833,19
14.61667,19
14.62500,19
14.63333,18
14.64167,19
14.65000,19
14.65833,19
14.66667,20
14.67500,20
14.68333,20
14.69167,20
14.70000,20
14.70833,20
14.71667,20
14.72500,19
14.73333,20
14.74167,20
14.75000,20
14.75833,20
14.76667,20
14.77500,20
14.78333,21
14.79167,21
14.80000,21
14.80833,21
14.81667,21
14.82500,21
14.83333,21
14.84167,21
14.85000,21
14.85833,21
14.86667,22
14.87500,23
14.88333,23
14.89167,24
14.90000,24
14.90833,25
14.91667,25
14.92500,26
14.93333,27
14.94167,28
14.95000,28
14.95833,30
14.96667,31
14.97500,32
14.98333,33
14.99167,34
15.00000,36
15.00833,37
15.01667,39
15.02500,40
15.03333,42
15.04167,44
15.05000,46
15.05833,49
15.06667,51
15.07500,54
15.08333,57
15.09167,61
15.10000,65
15.10833,69
15.11667,74
15.12500,80
15.13333,86
15.14167,93
15.15000,102
15.15833,113
15.16667,125
15.17500,139
15.18333,155
15.19167,175
15.20000,199
15.20833,226
15.21667,259
15.22500,298
15.23333,343
15.24167,396
15.25000,458
15.25833,530
15.26667,614
15.27500,711
15.28333,822
15.29167,950
15.30000,1095
15.30833,1261
15.31667,1447
15.32500,1657
15.33333,1893
15.34167,2155
15.35000,2445
15.35833,2766
15.36667,3119
15.37500,3503
15.38333,3922
15.39167,4373
15.40000,4859
15.40833,5379
15.41667,5933
15.42500,6518
15.43333,7135
15.44167,7781
15.45000,8453
15.45833,9149
15.46667,9865
15.47500,10598
15.48333,11343
15.49167,12097
15.50000,12853
15.50833,13608
15.51667,14356
15.52500,15092
15.53333,15809
15.54167,16504
15.55000,17170
15.55833,17802
15.56667,18397
15.57500,18949
15.58333,19455
15.59167,19909
15.60000,20309
15.60833,20653
15.61667,20938
15.62500,21162
15.63333,21325
15.64167,21425
15.65000,21463
15.65833,21440
15.66667,21356
15.67500,21214
15.68333,21016
15.69167,20763
15.70000,20460
15.70833,20109
15.71667,19714
15.72500,19278
15.73333,18806
15.74167,18301
15.75000,17768
15.75833,17211
15.76667,16633
15.77500,16039
15.78333,15433
15.79167,14819
15.80000,14199
15.80833,13578
15.81667,12958
15.82500,12343
15.83333,11736
15.84167,11138
15.85000,10551
15.85833,9978
15.86667,9420
15.87500,8880
15.88333,8357
15.89167,7853
15.90000,7369
15.90833,6905
15.91667,6461
15.92500,6038
15.93333,5636
15.94167,5255
15.95000,4894
15.95833,4554
15.96667,4233
15.97500,3931
15.98333,3647
15.99167,3381
16.00000,3133
16.00833,2901
16.01667,2685
16.02500,2484
16.03333,2298
16.04167,2124
16.05000,1963
16.05833,1814
16.06667,1677
16.07500,1550
16.08333,1433
16.09167,1325
16.10000,1227
16.10833,1136
16.11667,1053
16.12500,976
16.13333,905
16.14167,841
16.15000,781
16.15833,727
16.16667,677
16.17500,631
16.18333,590
16.19167,551
16.20000,517
16.20833,485
16.21667,456
16.22500,430
16.23333,405
16.24167,382
16.25000,362
16.25833,343
16.26667,325
16.27500,309
16.28333,295
16.29167,281
16.30000,268
16.30833,257
16.31667,246
16.32500,236
16.33333,228
16.34167,220
16.35000,212
16.35833,205
16.36667,199
16.37500,193
16.38333,188
16.39167,183
16.40000,178
16.40833,173
16.41667,169
16.42500,165
16.43333,161
16.44167,158
16.45000,155
16.45833,152
16.46667,149
16.47500,146
16.48333,143
16.49167,141
16.50000,138
16.50833,135
16.51667,134
16.52500,132
16.53333,130
16.54167,128
16.55000,126
16.55833,125
16.56667,123
16.57500,122
16.58333,121
16.59167,120
16.60000,119
16.60833,118
16.61667,117
16.62500,115
16.63333,114
16.64167,113
16.65000,112
16.65833,111
16.66667,110
16.67500,109
16.68333,108
16.69167,108
16.70000,107
16.70833,107
16.71667,106
16.72500,105
16.73333,105
16.74167,104
16.75000,103
16.75833,102
16.76667,101
16.77500,100
16.78333,100
16.79167,100
16.80000,99
16.80833,99
16.81667,98
16.82500,97
16.83333,96
16.84167,95
16.85000,95
16.85833,94
16.86667,94
16.87500,93
16.88333,93
16.89167,92
16.90000,92
16.90833,91
16.91667,91
16.92500,91
16.93333,90
16.94167,89
16.95000,89
16.95833,89
16.96667,88
16.97500,88
16.98333,87
16.99167,87
17.00000,86
17.00833,86
17.01667,85
17.02500,84
17.03333,84
17.04167,83
17.05000,83
17.05833,82
17.06667,82
17.07500,81
17.08333,80
17.09167,79
17.10000,79
17.10833,78
17.11667,78
17.12500,78
17.13333,78
17.14167,77
17.15000,76
17.15833,76
17.16667,76
17.17500,76
17.18333,75
17.19167,75
17.20000,74
17.20833,74
17.21667,73
17.22500,73
17.23333,73
17.24167,72
17.25000,72
17.25833,71
17.26667,71
17.27500,70
17.28333,70
17.29167,70
17.30000,70
17.30833,69
17.31667,69
17.32500,69
17.33333,69
17.34167,69
17.35000,69
17.35833,68
17.36667,68
17.37500,68
17.38333,68
17.39167,67
17.40000,67
17.40833,67
17.41667,67
17.42500,67
17.43333,67
17.44167,66
17.45000,66
17.45833,66
17.46667,65
17.47500,65
17.48333,64
17.49167,64
17.50000,64
17.50833,64
17.51667,63
17.52500,63
17.53333,63
17.54167,64
17.55000,64
17.55833,64
17.56667,64
17.57500,63
17.58333,63
17.59167,63
17.60000,63
17.60833,63
17.61667,63
17.62500,63
17.63333,62
17.64167,62
17.65000,62
17.65833,62
17.66667,62
17.67500,61
17.68333,61
17.69167,61
17.70000,61
17.70833,61
17.71667,60
17.72500,60
17.73333,60
17.74167,59
17.75000,59
17.75833,58
17.76667,58
17.77500,58
17.78333,58
17.79167,58
17.80000,58
17.80833,59
17.81667,59
17.82500,59
17.83333,59
17.84167,59
17.85000,59
17.85833,59
17.86667,58
17.87500,58
17.88333,58
17.89167,58
17.90000,59
17.90833,59
17.91667,59
17.92500,59
17.93333,59
17.94167,59
17.95000,58
17.95833,58
17.96667,58
17.97500,57
17.98333,57
17.99167,57
18.00000,56
18.00833,56
18.01667,55
18.02500,55
18.03333,55
18.04167,55
18.05000,55
18.05833,55
18.06667,55
18.07500,55
18.08333,55
18.09167,56
18.10000,56
18.10833,56
18.11667,56
18.12500,56
18.13333,55
18.14167,55
18.15000,55
18.15833,55
18.16667,55
18.17500,56
18.18333,56
18.19167,55
18.20000,55
18.20833,54
18.21667,54
18.22500,53
18.23333,53
18.24167,53
18.25000,53
18.25833,53
18.26667,52
18.27500,53
18.28333,53
18.29167,53
18.30000,53
18.30833,52
18.31667,52
18.32500,52
18.33333,52
18.34167,52
18.35000,52
18.35833,51
18.36667,51
18.37500,52
18.38333,52
18.39167,52
18.40000,52
18.40833,53
18.41667,52
18.42500,52
18.43333,51
18.44167,51
18.45000,51
18.45833,51
18.46667,50
18.47500,50
18.48333,50
18.49167,50
18.50000,49
18.50833,49
18.51667,49
18.52500,49
18.53333,49
18.54167,50
18.55000,50
18.55833,51
18.56667,51
18.57500,51
18.58333,51
18.59167,51
18.60000,51
18.60833,51
18.61667,51
18.62500,50
18.63333,51
18.64167,51
18.65000,51
18.65833,52
18.66667,52
18.67500,52
18.68333,52
18.69167,53
18.70000,53
18.70833,53
18.71667,53
18.72500,53
18.73333,54
18.74167,55
18.75000,55
18.75833,56
18.76667,57
18.77500,58
18.78333,59
18.79167,60
18.80000,61
18.80833,62
18.81667,63
18.82500,64
18.83333,65
18.84167,67
18.85000,68
18.85833,69
18.86667,70
18.87500,72
18.88333,73
18.89167,74
18.90000,76
18.90833,77
18.91667,78
18.92500,79
18.93333,80
18.94167,80
18.95000,81
18.95833,82
18.96667,83
18.97500,84
18.98333,84
18.99167,85
19.00000,85
19.00833,85
19.01667,85
19.02500,85
19.03333,85
19.04167,85
19.05000,85
19.05833,84
19.06667,84
19.07500,83
19.08333,83
19.09167,82
19.10000,81
19.10833,80
19.11667,80
19.12500,79
19.13333,78
19.14167,77
19.15000,75
19.15833,74
19.16667,73
19.17500,71
19.18333,70
19.19167,69
19.20000,68
19.20833,66
19.21667,65
19.22500,64
19.23333,63
19.24167,62
19.25000,61
19.25833,60
19.26667,59
19.27500,58
19.28333,57
19.29167,56
19.30000,56
19.30833,55
19.31667,54
19.32500,54
19.33333,53
19.34167,53
19.35000,52
19.35833,52
19.36667,52
19.37500,51
19.38333,51
19.39167,50
19.40000,50
19.40833,49
19.41667,48
19.42500,47
19.43333,47
19.44167,46
19.45000,46
19.45833,46
19.46667,46
19.47500,46
19.48333,46
19.49167,46
19.50000,46
19.50833,46
19.51667,46
19.52500,46
19.53333,45
19.54167,45
19.55000,45
19.55833,45
19.56667,45
19.57500,45
19.58333,45
19.59167,46
19.60000,46
19.60833,46
19.61667,46
19.62500,46
19.63333,45
19.64167,45
19.65000,44
19.65833,44
19.66667,44
19.67500,44
19.68333,44
19.69167,44
19.70000,44
19.70833,44
19.71667,43
19.72500,44
19.73333,44
19.74167,44
19.75000,44
19.75833,44
19.76667,44
19.77500,44
19.78333,44
19.79167,44
19.80000,43
19.80833,43
19.81667,44
19.82500,44
19.83333,44
19.84167,44
19.85000,44
19.85833,44
19.86667,44
19.87500,44
19.88333,44
19.89167,44
19.90000,44
19.90833,43
19.91667,43
19.92500,43
19.93333,43
19.94167,42
19.95000,42
19.95833,42
19.96667,42
19.97500,42
19.98333,42
19.99167,42
20.00000,42
20.00833,42
20.01667,42
20.02500,42
20.03333,42
20.04167,42
20.05000,43
20.05833,43
20.06667,43
20.07500,43
20.08333,43
20.09167,43
20.10000,43
20.10833,43
20.11667,43
20.12500,43
20.13333,43
20.14167,43
20.15000,42
20.15833,42
20.16667,42
20.17500,42
20.18333,41
20.19167,41
20.20000,42
20.20833,42
20.21667,42
20.22500,42
20.23333,42
20.24167,42
20.25000,42
20.25833,42
20.26667,42
20.27500,42
20.28333,42
20.29167,42
20.30000,43
20.30833,43
20.31667,43
20.32500,43
20.33333,43
20.34167,43
20.35000,43
20.35833,43
20.36667,43
20.37500,42
20.38333,42
20.39167,43
20.40000,43
20.40833,42
20.41667,42
20.42500,42
20.43333,42
20.44167,41
20.45000,41
20.45833,41
20.46667,42
20.47500,42
20.48333,42
20.49167,42
20.50000,42
20.50833,43
20.51667,43
20.52500,43
20.53333,43
20.54167,42
20.55000,42
20.55833,42
20.56667,42
20.57500,42
20.58333,42
20.59167,42
20.60000,42
20.60833,42
20.61667,42
20.62500,42
20.63333,42
20.64167,42
20.65000,42
20.65833,42
20.66667,41
20.67500,40
20.68333,40
20.69167,40
20.70000,40
20.70833,40
20.71667,41
20.72500,41
20.73333,41
20.74167,41
20.75000,41
20.75833,41
20.76667,41
20.77500,41
20.78333,41
20.79167,41
20.80000,41
20.80833,41
20.81667,41
20.82500,41
20.83333,41
20.84167,41
20.85000,40
20.85833,40
20.86667,40
20.87500,40
20.88333,39
20.89167,40
20.90000,40
20.90833,40
20.91667,40
20.92500,40
20.93333,40
20.94167,40
20.95000,41
20.95833,41
20.96667,41
20.97500,41
20.98333,41
20.99167,41
21.00000,41
21.00833,41
21.01667,42
21.02500,42
21.03333,42
21.04167,42
21.05000,42
21.05833,41
21.06667,41
21.07500,41
21.08333,41
21.09167,41
21.10000,41
21.10833,41
21.11667,41
21.12500,41
21.13333,41
21.14167,41
21.15000,41
21.15833,41
21.16667,41
21.17500,41
21.18333,41
21.19167,41
21.20000,41
21.20833,41
21.21667,41
21.22500,41
21.23333,41
21.24167,41
21.25000,41
21.25833,41
21.26667,41
21.27500,42
21.28333,42
21.29167,42
21.30000,43
21.30833,43
21.31667,43
21.32500,43
21.33333,42
21.34167,42
21.35000,42
21.35833,43
21.36667,43
21.37500,43
21.38333,44
21.39167,45
21.40000,46
21.40833,47
21.41667,48
21.42500,49
21.43333,50
21.44167,52
21.45000,53
21.45833,54
21.46667,56
21.47500,58
21.48333,60
21.49167,63
21.50000,66
21.50833,69
21.51667,73
21.52500,77
21.53333,82
21.54167,87
21.55000,93
21.55833,100
21.56667,108
21.57500,116
21.58333,126
21.59167,137
21.60000,149
21.60833,163
21.61667,179
21.62500,196
21.63333,216
21.64167,238
21.65000,262
21.65833,289
21.66667,319
21.67500,352
21.68333,388
21.69167,429
21.70000,473
21.70833,522
21.71667,576
21.72500,634
21.73333,697
21.74167,765
21.75000,839
21.75833,918
21.76667,1003
21.77500,1094
21.78333,1191
21.79167,1295
21.80000,1404
21.80833,1520
21.81667,1641
21.82500,1768
21.83333,1901
21.84167,2039
21.85000,2182
21.85833,2329
21.86667,2480
21.87500,2635
21.88333,2793
21.89167,2954
21.90000,3116
21.90833,3279
21.91667,3442
21.92500,3604
21.93333,3764
21.94167,3922
21.95000,4077
21.95833,4227
21.96667,4372
21.97500,4510
21.98333,4642
21.99167,4766
22.00000,4881
22.00833,4988
22.01667,5085
22.02500,5171
22.03333,5246
22.04167,5310
22.05000,5362
22.05833,5402
22.06667,5429
22.07500,5445
22.08333,5447
22.09167,5438
22.10000,5417
22.10833,5384
22.11667,5340
22.12500,5284
22.13333,5218
22.14167,5142
22.15000,5057
22.15833,4963
22.16667,4860
22.17500,4750
22.18333,4634
22.19167,4511
22.20000,4383
22.20833,4251
22.21667,4115
22.22500,3976
22.23333,3835
22.24167,3692
22.25000,3549
22.25833,3405
22.26667,3261
22.27500,3118
22.28333,2977
22.29167,2838
22.30000,2700
22.30833,2565
22.31667,2434
22.32500,2306
22.33333,2182
22.34167,2062
22.35000,1946
22.35833,1834
22.36667,1727
22.37500,1624
22.38333,1526
22.39167,1432
22.40000,1342
22.40833,1258
22.41667,1177
22.42500,1101
22.43333,1029
22.44167,961
22.45000,897
22.45833,837
22.46667,781
22.47500,728
22.48333,679
22.49167,633
22.50000,590
22.50833,550
22.51667,513
22.52500,478
22.53333,446
22.54167,417
22.55000,389
22.55833,364
22.56667,340
22.57500,319
22.58333,298
22.59167,280
22.60000,263
22.60833,247
22.61667,233
22.62500,220
22.63333,208
22.64167,197
22.65000,187
22.65833,178
22.66667,169
22.67500,161
22.68333,154
22.69167,148
22.70000,142
22.70833,136
22.71667,132
22.72500,127
22.73333,122
22.74167,118
22.75000,115
22.75833,111
22.76667,108
22.77500,105
22.78333,102
22.79167,100
22.80000,97
22.80833,95
22.81667,93
22.82500,91
22.83333,89
22.84167,88
22.85000,87
22.85833,86
22.86667,85
22.87500,83
22.88333,82
22.89167,81
22.90000,80
22.90833,79
22.91667,79
22.92500,78
22.93333,78
22.94167,77
22.95000,76
22.95833,75
22.96667,75
22.97500,74
22.98333,74
22.99167,73
23.00000,72
23.00833,72
23.01667,72
23.02500,71
23.03333,71
23.04167,70
23.05000,70
23.05833,69
23.06667,68
23.07500,68
23.08333,68
23.09167,67
23.10000,67
23.10833,66
23.11667,66
23.12500,66
23.13333,66
23.14167,66
23.15000,65
23.15833,65
23.16667,65
23.17500,65
23.18333,65
23.19167,65
23.20000,65
23.20833,65
23.21667,65
23.22500,65
23.23333,65
23.24167,64
23.25000,64
23.25833,64
23.26667,63
23.27500,62
23.28333,62
23.29167,61
23.30000,61
23.30833,61
23.31667,61
23.32500,61
23.33333,60
23.34167,60
23.35000,59
23.35833,59
23.36667,59
23.37500,59
23.38333,59
23.39167,59
23.40000,59
23.40833,59
23.41667,59
23.42500,58
23.43333,58
23.44167,58
23.45000,58
23.45833,58
23.46667,58
23.47500,57
23.48333,57
23.49167,57
23.50000,57
23.50833,56
23.51667,56
23.52500,56
23.53333,56
23.54167,56
23.55000,56
23.55833,56
23.56667,56
23.57500,56
23.58333,55
23.59167,55
23.60000,56
23.60833,56
23.61667,55
23.62500,55
23.63333,55
23.64167,55
23.65000,55
23.65833,55
23.66667,55
23.67500,55
23.68333,55
23.69167,54
23.70000,54
23.70833,54
23.71667,54
23.72500,54
23.73333,54
23.74167,54
23.75000,54
23.75833,53
23.76667,53
23.77500,53
23.78333,52
23.79167,52
23.80000,52
23.80833,52
23.81667,52
23.82500,52
23.83333,52
23.84167,53
23.85000,53
23.85833,53
23.86667,53
23.87500,53
23.88333,53
23.89167,53
23.90000,53
23.90833,53
23.91667,53
23.92500,53
23.93333,53
23.94167,53
23.95000,53
23.95833,53
23.96667,53
23.97500,53
23.98333,53
23.99167,53
24.00000,52
24.00833,52
24.01667,52
24.02500,52
24.03333,52
24.04167,52
24.05000,52
24.05833,52
24.06667,52
24.07500,52
24.08333,52
24.09167,52
24.10000,52
24.10833,52
24.11667,52
24.12500,52
24.13333,52
24.14167,53
24.15000,53
24.15833,52
24.16667,52
24.17500,52
24.18333,52
24.19167,51
24.20000,51
24.20833,52
24.21667,52
24.22500,52
24.23333,52
24.24167,52
24.25000,52
24.25833,52
24.26667,52
24.27500,52
24.28333,52
24.29167,52
24.30000,52
24.30833,53
24.31667,53
24.32500,53
24.33333,53
24.34167,54
24.35000,54
24.35833,55
24.36667,55
24.37500,55
24.38333,56
24.39167,57
24.40000,57
24.40833,58
24.41667,59
24.42500,60
24.43333,61
24.44167,62
24.45000,64
24.45833,65
24.46667,67
24.47500,68
24.48333,70
24.49167,73
24.50000,75
24.50833,78
24.51667,82
24.52500,85
24.53333,90
24.54167,95
24.55000,100
24.55833,106
24.56667,112
24.57500,119
24.58333,127
24.59167,135
24.60000,144
24.60833,154
24.61667,165
24.62500,178
24.63333,191
24.64167,205
24.65000,220
24.65833,237
24.66667,255
24.67500,275
24.68333,296
24.69167,318
24.70000,343
24.70833,369
24.71667,396
24.72500,426
24.73333,457
24.74167,490
24.75000,525
24.75833,562
24.76667,601
24.77500,642
24.78333,684
24.79167,729
24.80000,774
24.80833,822
24.81667,871
24.82500,921
24.83333,973
24.84167,1025
24.85000,1079
24.85833,1133
24.86667,1188
24.87500,1244
24.88333,1300
24.89167,1357
24.90000,1412
24.90833,1467
24.91667,1521
24.92500,1574
24.93333,1626
24.94167,1677
24.95000,1725
24.95833,1772
24.96667,1817
24.97500,1858
24.98333,1898
24.99167,1934
25.00000,1968
25.00833,1998
25.01667,2025
25.02500,2047
25.03333,2067
25.04167,2082
25.05000,2094
25.05833,2102
25.06667,2105
25.07500,2105
25.08333,2102
25.09167,2094
25.10000,2083
25.10833,2068
25.11667,2049
25.12500,2027
25.13333,2002
25.14167,1973
25.15000,1941
25.15833,1907
25.16667,1870
25.17500,1831
25.18333,1789
25.19167,1746
25.20000,1701
25.20833,1654
25.21667,1606
25.22500,1557
25.23333,1507
25.24167,1457
25.25000,1406
25.25833,1354
25.26667,1303
25.27500,1252
25.28333,1201
25.29167,1151
25.30000,1102
25.30833,1053
25.31667,1005
25.32500,959
25.33333,913
25.34167,868
25.35000,825
25.35833,783
25.36667,743
25.37500,704
25.38333,666
25.39167,630
25.40000,595
25.40833,561
25.41667,529
25.42500,499
25.43333,470
25.44167,443
25.45000,418
25.45833,393
25.46667,370
25.47500,349
25.48333,328
25.49167,309
25.50000,291
25.50833,274
25.51667,259
25.52500,244
25.53333,230
25.54167,217
25.55000,205
25.55833,194
25.56667,184
25.57500,175
25.58333,166
25.59167,157
25.60000,150
25.60833,143
25.61667,136
25.62500,130
25.63333,125
25.64167,119
25.65000,114
25.65833,110
25.66667,106
25.67500,102
25.68333,98
25.69167,95
25.70000,92
25.70833,90
25.71667,87
25.72500,85
25.73333,84
25.74167,82
25.75000,81
25.75833,79
25.76667,78
25.77500,77
25.78333,76
25.79167,75
25.80000,73
25.80833,72
25.81667,71
25.82500,70
25.83333,69
25.84167,69
25.85000,69
25.85833,68
25.86667,68
25.87500,67
25.88333,67
25.89167,66
25.90000,66
25.90833,65
25.91667,65
25.92500,64
25.93333,64
25.94167,64
25.95000,63
25.95833,63
25.96667,63
25.97500,63
25.98333,63
25.99167,63
26.00000,62
26.00833,62
26.01667,62
26.02500,61
26.03333,61
26.04167,61
26.05000,61
26.05833,61
26.06667,60
26.07500,60
26.08333,60
26.09167,60
26.10000,60
26.10833,60
26.11667,60
26.12500,59
26.13333,59
26.14167,58
26.15000,58
26.15833,58
26.16667,58
26.17500,58
26.18333,58
26.19167,58
26.20000,58
26.20833,58
26.21667,58
26.22500,58
26.23333,58
26.24167,58
26.25000,58
26.25833,58
26.26667,58
26.27500,58
26.28333,58
26.29167,57
26.30000,57
26.30833,58
26.31667,58
26.32500,57
26.33333,57
26.34167,56
26.35000,56
26.35833,56
26.36667,57
26.37500,57
26.38333,56
26.39167,56
26.40000,56
26.40833,56
26.41667,56
26.42500,57
26.43333,57
26.44167,57
26.45000,57
26.45833,57
26.46667,57
26.47500,57
26.48333,57
26.49167,56
26.50000,56
26.50833,56
26.51667,57
26.52500,57
26.53333,57
26.54167,57
26.55000,57
26.55833,57
26.56667,57
26.57500,57
26.58333,57
26.59167,57
26.60000,57
26.60833,56
26.61667,56
26.62500,56
26.63333,56
26.64167,56
26.65000,56
26.65833,56
26.66667,57
26.67500,57
26.68333,57
26.69167,57
26.70000,57
26.70833,57
26.71667,57
26.72500,57
26.73333,57
26.74167,57
26.75000,57
26.75833,58
26.76667,58
26.77500,58
26.78333,58
26.79167,57
26.80000,57
26.80833,57
26.81667,57
26.82500,57
26.83333,57
26.84167,56
26.85000,56
26.85833,56
26.86667,55
26.87500,55
26.88333,56
26.89167,56
26.90000,56
26.90833,56
26.91667,57
26.92500,57
26.93333,57
26.94167,57
26.95000,56
26.95833,56
26.96667,57
26.97500,57
26.98333,57
26.99167,57
27.00000,57
27.00833,57
27.01667,57
27.02500,56
27.03333,56
27.04167,56
27.05000,56
27.05833,55
27.06667,55
27.07500,56
27.08333,56
27.09167,56
27.10000,57
27.10833,57
27.11667,56
27.12500,56
27.13333,56
27.14167,56
27.15000,56
27.15833,55
27.16667,56
27.17500,56
27.18333,56
27.19167,56
27.20000,56
27.20833,56
27.21667,56
27.22500,56
27.23333,56
27.24167,56
27.25000,57
27.25833,57
27.26667,56
27.27500,56
27.28333,56
27.29167,56
27.30000,56
27.30833,56
27.31667,56
27.32500,56
27.33333,56
27.34167,56
27.35000,56
27.35833,56
27.36667,55
27.37500,55
27.38333,55
27.39167,55
27.40000,55
27.40833,55
27.41667,55
27.42500,55
27.43333,55
27.44167,56
27.45000,56
27.45833,56
27.46667,56
27.47500,56
27.48333,56
27.49167,56
27.50000,55
27.50833,55
27.51667,55
27.52500,54
27.53333,54
27.54167,54
27.55000,55
27.55833,55
27.56667,55
27.57500,55
27.58333,55
27.59167,55
27.60000,55
27.60833,55
27.61667,56
27.62500,56
27.63333,56
27.64167,56
27.65000,56
27.65833,57
27.66667,57
27.67500,57
27.68333,57
27.69167,57
27.70000,57
27.70833,57
27.71667,56
27.72500,56
27.73333,56
27.74167,56
27.75000,55
27.75833,55
27.76667,55
27.77500,54
27.78333,54
27.79167,54
27.80000,54
27.80833,53
27.81667,53
27.82500,53
27.83333,53
27.84167,52
27.85000,52
27.85833,52
27.86667,51
27.87500,51
27.88333,50
27.89167,49
27.90000,48
27.90833,47
27.91667,46
27.92500,45
27.93333,44
27.94167,43
27.95000,43
27.95833,41
27.96667,40
27.97500,38
27.98333,37
27.99167,36
28.00000,34
28.00833,32
28.01667,30
28.02500,28
28.03333,26
28.04167,24
28.05000,22
28.05833,20
28.06667,17
28.07500,15
28.08333,12
28.09167,10
28.10000,7
28.10833,5
28.11667,3
28.12500,0
28.13333,-3
28.14167,-6
28.15000,-10
28.15833,-13
28.16667,-17
28.17500,-20
28.18333,-23
28.19167,-27
28.20000,-30
28.20833,-33
28.21667,-37
28.22500,-41
28.23333,-44
28.24167,-47
28.25000,-50
28.25833,-54
28.26667,-57
28.27500,-60
28.28333,-64
28.29167,-67
28.30000,-70
28.30833,-74
28.31667,-76
28.32500,-79
28.33333,-82
28.34167,-84
28.35000,-86
28.35833,-89
28.36667,-91
28.37500,-92
28.38333,-94
28.39167,-95
28.40000,-97
28.40833,-98
28.41667,-99
28.42500,-100
28.43333,-101
28.44167,-102
28.45000,-102
28.45833,-103
28.46667,-103
28.47500,-103
28.48333,-103
28.49167,-102
28.50000,-102
28.50833,-101
28.51667,-101
28.52500,-100
28.53333,-99
28.54167,-97
28.55000,-96
28.55833,-94
28.56667,-92
28.57500,-90
28.58333,-88
28.59167,-86
28.60000,-83
28.60833,-81
28.61667,-78
28.62500,-75
28.63333,-73
28.64167,-70
28.65000,-67
28.65833,-64
28.66667,-61
28.67500,-58
28.68333,-55
28.69167,-52
28.70000,-49
28.70833,-46
28.71667,-43
28.72500,-40
28.73333,-37
28.74167,-34
28.75000,-31
28.75833,-29
28.76667,-26
28.77500,-24
28.78333,-21
28.79167,-19
28.80000,-16
28.80833,-14
28.81667,-11
28.82500,-8
28.83333,-5
28.84167,-3
28.85000,-1
28.85833,2
28.86667,4
28.87500,6
28.88333,8
28.89167,11
28.90000,13
28.90833,15
28.91667,17
28.92500,18
28.93333,20
28.94167,21
28.95000,23
28.95833,24
28.96667,26
28.97500,27
28.98333,28
28.99167,29
29.00000,30
29.00833,30
29.01667,31
29.02500,32
29.03333,33
29.04167,34
29.05000,35
29.05833,36
29.06667,36
29.07500,37
29.08333,38
29.09167,40
29.10000,41
29.10833,42
29.11667,42
29.12500,43
29.13333,44
29.14167,44
29.15000,44
29.15833,45
29.16667,45
29.17500,46
29.18333,47
29.19167,47
29.20000,47
29.20833,48
29.21667,48
29.22500,49
29.23333,49
29.24167,49
29.25000,50
29.25833,49
29.26667,49
29.27500,49
29.28333,49
29.29167,49
29.30000,49
29.30833,49
29.31667,50
29.32500,50
29.33333,50
29.34167,51
29.35000,51
29.35833,52
29.36667,52
29.37500,52
29.38333,52
29.39167,52
29.40000,52
29.40833,52
29.41667,52
29.42500,52
29.43333,52
29.44167,52
29.45000,52
29.45833,52
29.46667,51
29.47500,52
29.48333,52
29.49167,52
29.50000,51
29.50833,51
29.51667,51
29.52500,51
29.53333,51
29.54167,50
29.55000,50
29.55833,50
29.56667,50
29.57500,50
29.58333,50
29.59167,50
29.60000,50
29.60833,50
29.61667,49
29.62500,49
29.63333,49
29.64167,49
29.65000,49
29.65833,48
29.66667,48
29.67500,47
29.68333,47
29.69167,47
29.70000,46
29.70833,46
29.71667,45
29.72500,45
29.73333,44
29.74167,43
29.75000,42
29.75833,41
29.76667,40
29.77500,39
29.78333,38
29.79167,37
29.80000,36
29.80833,36
29.81667,35
29.82500,34
29.83333,33
29.84167,32
29.85000,31
29.85833,30
29.86667,30
29.87500,29
29.88333,28
29.89167,27
29.90000,25
29.90833,24
29.91667,23
29.92500,22
29.93333,21
29.94167,19
29.95000,18
29.95833,17
29.96667,16
29.97500,15
29.98333,13
29.99167,12
30.00000,11
30.00833,10
30.01667,8
30.02500,7
30.03333,6
30.04167,6
30.05000,5
30.05833,4
30.06667,3
30.07500,2
30.08333,1
30.09167,0
30.10000,-1
30.10833,-1
30.11667,-2
30.12500,-3
30.13333,-3
30.14167,-4
30.15000,-5
30.15833,-5
30.16667,-6
30.17500,-6
30.18333,-6
30.19167,-7
30.20000,-7
30.20833,-7
30.21667,-7
30.22500,-6
30.23333,-6
30.24167,-6
30.25000,-6
30.25833,-5
30.26667,-5
30.27500,-5
30.28333,-5
30.29167,-4
30.30000,-3
30.30833,-3
30.31667,-2
30.32500,-1
30.33333,-0
30.34167,0
30.35000,1
30.35833,2
30.36667,3
30.37500,4
30.38333,5
30.39167,6
30.40000,7
30.40833,8
30.41667,9
30.42500,10
30.43333,11
30.44167,12
30.45000,13
30.45833,14
30.46667,15
30.47500,16
30.48333,17
30.49167,18
30.50000,19
30.50833,20
30.51667,21
30.52500,22
30.53333,23
30.54167,24
30.55000,25
30.55833,27
30.56667,28
30.57500,29
30.58333,31
30.59167,32
30.60000,33
30.60833,34
30.61667,34
30.62500,35
30.63333,36
30.64167,37
30.65000,38
30.65833,38
30.66667,39
30.67500,40
30.68333,40
30.69167,41
30.70000,42
30.70833,42
30.71667,43
30.72500,43
30.73333,44
30.74167,44
30.75000,44
30.75833,45
30.76667,45
30.77500,45
30.78333,46
30.79167,46
30.80000,47
30.80833,47
30.81667,48
30.82500,49
30.83333,49
30.84167,50
30.85000,50
30.85833,50
30.86667,50
30.87500,51
30.88333,51
30.89167,51
30.90000,52
30.90833,52
30.91667,52
30.92500,52
30.93333,52
30.94167,51
30.95000,51
30.95833,51
30.96667,51
30.97500,51
30.98333,51
30.99167,51
31.00000,51
31.00833,51
31.01667,51
31.02500,52
31.03333,52
31.04167,52
31.05000,53
31.05833,53
31.06667,53
31.07500,54
31.08333,54
31.09167,54
31.10000,54
31.10833,53
31.11667,53
31.12500,53
31.13333,53
31.14167,53
31.15000,54
31.15833,54
31.16667,54
31.17500,54
31.18333,54
31.19167,54
31.20000,54
31.20833,54
31.21667,54
31.22500,54
31.23333,54
31.24167,54
31.25000,53
31.25833,53
31.26667,54
31.27500,54
31.28333,55
31.29167,56
31.30000,56
31.30833,56
31.31667,56
31.32500,56
31.33333,57
31.34167,57
31.35000,57
31.35833,57
31.36667,57
31.37500,57
31.38333,57
31.39167,58
31.40000,58
31.40833,58
31.41667,58
31.42500,58
31.43333,58
31.44167,58
31.45000,58
31.45833,58
31.46667,58
31.47500,57
31.48333,57
31.49167,58
31.50000,58
31.50833,58
31.51667,58
31.52500,58
31.53333,59
31.54167,59
31.55000,59
31.55833,59
31.56667,60
31.57500,60
31.58333,61
31.59167,61
31.60000,61
31.60833,61
31.61667,61
31.62500,61
31.63333,62
31.64167,62
31.65000,62
31.65833,62
31.66667,63
31.67500,63
31.68333,63
31.69167,63
31.70000,62
31.70833,62
31.71667,62
31.72500,62
31.73333,61
31.74167,61
31.75000,61
31.75833,61
31.76667,62
31.77500,62
31.78333,62
31.79167,62
31.80000,63
31.80833,63
31.81667,62
31.82500,62
31.83333,62
31.84167,62
31.85000,63
31.85833,63
31.86667,63
31.87500,63
31.88333,64
31.89167,64
31.90000,64
31.90833,63
31.91667,63
31.92500,63
31.93333,63
31.94167,63
31.95000,63
31.95833,62
31.96667,62
31.97500,62
31.98333,62
31.99167,62
32.00000,62
32.00833,62
32.01667,62
32.02500,62
32.03333,61
32.04167,62
32.05000,61
32.05833,62
32.06667,62
32.07500,62
32.08333,62
32.09167,62
32.10000,62
32.10833,63
32.11667,63
32.12500,63
32.13333,63
32.14167,63
32.15000,63
32.15833,63
32.16667,63
32.17500,63
32.18333,63
32.19167,63
32.20000,63
32.20833,63
32.21667,63
32.22500,63
32.23333,62
32.24167,62
32.25000,62
32.25833,63
32.26667,63
32.27500,63
32.28333,63
32.29167,63
32.30000,63
32.30833,63
32.31667,63
32.32500,63
32.33333,64
32.34167,64
32.35000,63
32.35833,63
32.36667,63
32.37500,63
32.38333,63
32.39167,63
32.40000,63
32.40833,63
32.41667,63
32.42500,63
32.43333,63
32.44167,62
32.45000,62
32.45833,62
32.46667,62
32.47500,62
32.48333,63
32.49167,62
32.50000,63
32.50833,63
32.51667,63
32.52500,63
32.53333,64
32.54167,64
32.55000,64
32.55833,64
32.56667,64
32.57500,64
32.58333,64
32.59167,64
32.60000,64
32.60833,64
32.61667,64
32.62500,64
32.63333,64
32.64167,64
32.65000,64
32.65833,64
32.66667,64
32.67500,64
32.68333,64
32.69167,64
32.70000,65
32.70833,65
32.71667,65
32.72500,64
32.73333,64
32.74167,64
32.75000,64
32.75833,64
32.76667,64
32.77500,64
32.78333,64
32.79167,64
32.80000,64
32.80833,63
32.81667,64
32.82500,64
32.83333,65
32.84167,65
32.85000,65
32.85833,65
32.86667,65
32.87500,65
32.88333,65
32.89167,65
32.90000,64
32.90833,64
32.91667,65
32.92500,65
32.93333,65
32.94167,65
32.95000,65
32.95833,65
32.96667,65
32.97500,65
32.98333,65
32.99167,65
33.00000,65
33.00833,65
33.01667,64
33.02500,64
33.03333,65
33.04167,65
33.05000,65
33.05833,65
33.06667,65
33.07500,65
33.08333,65
33.09167,65
33.10000,65
33.10833,65
33.11667,65
33.12500,65
33.13333,65
33.14167,65
33.15000,65
33.15833,64
33.16667,64
33.17500,64
33.18333,65
33.19167,65
33.20000,65
33.20833,65
33.21667,65
33.22500,65
33.23333,65
33.24167,65
33.25000,66
33.25833,66
33.26667,65
33.27500,66
33.28333,66
33.29167,66
33.30000,66
33.30833,66
33.31667,66
33.32500,66
33.33333,66
33.34167,67
33.35000,67
33.35833,67
33.36667,66
33.37500,66
33.38333,66
33.39167,66
33.40000,66
33.40833,66
33.41667,66
33.42500,66
33.43333,66
33.44167,66
33.45000,66
33.45833,66
33.46667,66
33.47500,66
33.48333,66
33.49167,66
33.50000,66
33.50833,66
33.51667,66
33.52500,67
33.53333,67
33.54167,67
33.55000,67
33.55833,66
33.56667,66
33.57500,66
33.58333,66
33.59167,66
33.60000,66
33.60833,67
33.61667,67
33.62500,67
33.63333,67
33.64167,67
33.65000,67
33.65833,67
33.66667,67
33.67500,67
33.68333,67
33.69167,67
33.70000,67
33.70833,66
33.71667,66
33.72500,66
33.73333,66
33.74167,66
33.75000,66
33.75833,67
33.76667,67
33.77500,67
33.78333,67
33.79167,67
33.80000,67
33.80833,67
33.81667,67
33.82500,67
33.83333,67
33.84167,67
33.85000,67
33.85833,67
33.86667,67
33.87500,66
33.88333,66
33.89167,66
33.90000,66
33.90833,65
33.91667,65
33.92500,65
33.93333,65
33.94167,65
33.95000,65
33.95833,65
33.96667,65
33.97500,66
33.98333,66
33.99167,67
34.00000,67
34.00833,67
34.01667,67
34.02500,67
34.03333,67
34.04167,66
34.05000,66
34.05833,66
34.06667,66
34.07500,66
34.08333,66
34.09167,66
34.10000,67
34.10833,67
34.11667,66
34.12500,66
34.13333,66
34.14167,65
34.15000,65
34.15833,65
34.16667,65
34.17500,65
34.18333,65
34.19167,65
34.20000,65
34.20833,65
34.21667,65
34.22500,65
34.23333,65
34.24167,65
34.25000,66
34.25833,66
34.26667,66
34.27500,66
34.28333,67
34.29167,67
34.30000,67
34.30833,67
34.31667,67
34.32500,67
34.33333,67
34.34167,66
34.35000,66
34.35833,66
34.36667,66
34.37500,66
34.38333,65
34.39167,65
34.40000,65
34.40833,65
34.41667,66
34.42500,66
34.43333,66
34.44167,66
34.45000,66
34.45833,66
34.46667,67
34.47500,67
34.48333,67
34.49167,67
34.50000,67
34.50833,66
34.51667,66
34.52500,67
34.53333,66
34.54167,66
34.55000,66
34.55833,66
34.56667,66
34.57500,67
34.58333,67
34.59167,67
34.60000,67
34.60833,67
34.61667,66
34.62500,66
34.63333,66
34.64167,66
34.65000,66
34.65833,66
34.66667,66
34.67500,66
34.68333,66
34.69167,66
34.70000,66
34.70833,66
34.71667,66
34.72500,67
34.73333,67
34.74167,67
34.75000,67
34.75833,68
34.76667,67
34.77500,67
34.78333,67
34.79167,67
34.80000,67
34.80833,68
34.81667,68
34.82500,68
34.83333,68
34.84167,68
34.85000,68
34.85833,68
34.86667,67
34.87500,67
34.88333,68
34.89167,68
34.90000,67
34.90833,67
34.91667,67
34.92500,67
34.93333,67
34.94167,67
34.95000,67
34.95833,67
34.96667,67
34.97500,67
34.98333,67
34.99167,67
35.00000,67
35.00833,68
35.01667,68
35.02500,67
35.03333,67
35.04167,67
35.05000,67
35.05833,67
35.06667,68
35.07500,68
35.08333,68
35.09167,68
35.10000,68
35.10833,68
35.11667,68
35.12500,67
35.13333,67
35.14167,67
35.15000,67
35.15833,67
35.16667,67
35.17500,68
35.18333,68
35.19167,68
35.20000,68
35.20833,68
35.21667,68
35.22500,69
35.23333,69
35.24167,69
35.25000,69
35.25833,69
35.26667,69
35.27500,69
35.28333,68
35.29167,68
35.30000,68
35.30833,68
35.31667,67
35.32500,67
35.33333,67
35.34167,68
35.35000,68
35.35833,68
35.36667,68
35.37500,68
35.38333,67
35.39167,67
35.40000,67
35.40833,68
35.41667,68
35.42500,68
35.43333,68
35.44167,68
35.45000,68
35.45833,69
35.46667,69
35.47500,68
35.48333,68
35.49167,69
35.50000,69
35.50833,69
35.51667,69
35.52500,69
35.53333,69
35.54167,69
35.55000,69
35.55833,69
35.56667,69
35.57500,69
35.58333,69
35.59167,69
35.60000,69
35.60833,69
35.61667,69
35.62500,69
35.63333,69
35.64167,68
35.65000,68
35.65833,68
35.66667,69
35.67500,69
35.68333,69
35.69167,69
35.70000,69
35.70833,70
35.71667,70
35.72500,70
35.73333,70
35.74167,70
35.75000,70
35.75833,70
35.76667,70
35.77500,70
35.78333,70
35.79167,70
35.80000,70
35.80833,69
35.81667,69
35.82500,69
35.83333,69
35.84167,69
35.85000,69
35.85833,69
35.86667,70
35.87500,70
35.88333,70
35.89167,69
35.90000,69
35.90833,69
35.91667,69
35.92500,70
35.93333,70
35.94167,70
35.95000,70
35.95833,70
35.96667,70
35.97500,70
35.98333,70
35.99167,70
36.00000,70
36.00833,70
36.01667,69
36.02500,69
36.03333,69
36.04167,68
36.05000,68
36.05833,67
36.06667,67
36.07500,67
36.08333,67
36.09167,67
36.10000,67
36.10833,67
36.11667,67
36.12500,68
36.13333,68
36.14167,68
36.15000,68
36.15833,68
36.16667,68
36.17500,68
36.18333,69
36.19167,69
36.20000,68
36.20833,68
36.21667,68
36.22500,68
36.23333,68
36.24167,68
36.25000,69
36.25833,69
36.26667,69
36.27500,70
36.28333,70
36.29167,70
36.30000,69
36.30833,69
36.31667,69
36.32500,69
36.33333,68
36.34167,68
36.35000,68
36.35833,68
36.36667,68
36.37500,68
36.38333,68
36.39167,68
36.40000,68
36.40833,68
36.41667,69
36.42500,69
36.43333,69
36.44167,70
36.45000,70
36.45833,70
36.46667,71
36.47500,71
36.48333,70
36.49167,71
36.50000,71
36.50833,71
36.51667,70
36.52500,70
36.53333,70
36.54167,70
36.55000,70
36.55833,70
36.56667,69
36.57500,69
36.58333,70
36.59167,70
36.60000,69
36.60833,69
36.61667,69
36.62500,69
36.63333,69
36.64167,70
36.65000,70
36.65833,70
36.66667,70
36.67500,71
36.68333,71
36.69167,71
36.70000,72
36.70833,71
36.71667,71
36.72500,71
36.73333,71
36.74167,70
36.75000,70
36.75833,71
36.76667,71
36.77500,71
36.78333,70
36.79167,70
36.80000,70
36.80833,70
36.81667,70
36.82500,70
36.83333,69
36.84167,69
36.85000,70
36.85833,70
36.86667,70
36.87500,70
36.88333,70
36.89167,71
36.90000,71
36.90833,71
36.91667,71
36.92500,71
36.93333,71
36.94167,71
36.95000,70
36.95833,70
36.96667,70
36.97500,70
36.98333,71
36.99167,71
37.00000,71
37.00833,71
37.01667,71
37.02500,70
37.03333,70
37.04167,70
37.05000,70
37.05833,70
37.06667,70
37.07500,70
37.08333,70
37.09167,70
37.10000,70
37.10833,70
37.11667,70
37.12500,70
37.13333,70
37.14167,70
37.15000,70
37.15833,70
37.16667,71
37.17500,71
37.18333,72
37.19167,72
37.20000,72
37.20833,72
37.21667,72
37.22500,72
37.23333,71
37.24167,71
37.25000,71
37.25833,72
37.26667,72
37.27500,72
37.28333,72
37.29167,72
37.30000,71
37.30833,71
37.31667,71
37.32500,70
37.33333,70
37.34167,70
37.35000,71
37.35833,71
37.36667,72
37.37500,72
37.38333,72
37.39167,73
37.40000,72
37.40833,72
37.41667,72
37.42500,72
37.43333,72
37.44167,72
37.45000,72
37.45833,72
37.46667,72
37.47500,72
37.48333,72
37.49167,72
37.50000,72
37.50833,71
37.51667,71
37.52500,70
37.53333,70
37.54167,70
37.55000,69
37.55833,70
37.56667,70
37.57500,70
37.58333,70
37.59167,70
37.60000,71
37.60833,71
37.61667,71
37.62500,72
37.63333,72
37.64167,72
37.65000,72
37.65833,72
37.66667,72
37.67500,72
37.68333,72
37.69167,72
37.70000,72
37.70833,72
37.71667,72
37.72500,72
37.73333,72
37.74167,72
37.75000,71
37.75833,71
37.76667,71
37.77500,71
37.78333,71
37.79167,71
37.80000,71
37.80833,71
37.81667,71
37.82500,71
37.83333,71
37.84167,71
37.85000,71
37.85833,71
37.86667,72
37.87500,72
37.88333,72
37.89167,72
37.90000,72
37.90833,72
37.91667,72
37.92500,72
37.93333,72
37.94167,72
37.95000,72
37.95833,71
37.96667,71
37.97500,71
37.98333,71
37.99167,71
38.00000,71
38.00833,71
38.01667,71
38.02500,72
38.03333,72
38.04167,72
38.05000,72
38.05833,72
38.06667,72
38.07500,72
38.08333,72
38.09167,73
38.10000,73
38.10833,73
38.11667,73
38.12500,73
38.13333,73
38.14167,73
38.15000,73
38.15833,73
38.16667,73
38.17500,73
38.18333,73
38.19167,74
38.20000,74
38.20833,74
38.21667,74
38.22500,74
38.23333,74
38.24167,74
38.25000,74
38.25833,75
38.26667,75
38.27500,75
38.28333,75
38.29167,75
38.30000,75
38.30833,75
38.31667,75
38.32500,75
38.33333,75
38.34167,75
38.35000,75
38.35833,75
38.36667,75
38.37500,75
38.38333,75
38.39167,76
38.40000,76
38.40833,76
38.41667,76
38.42500,76
38.43333,76
38.44167,76
38.45000,76
38.45833,75
38.46667,75
38.47500,75
38.48333,75
38.49167,75
38.50000,75
38.50833,76
38.51667,76
38.52500,76
38.53333,76
38.54167,76
38.55000,76
38.55833,76
38.56667,75
38.57500,75
38.58333,75
38.59167,75
38.60000,75
38.60833,75
38.61667,76
38.62500,76
38.63333,76
38.64167,76
38.65000,76
38.65833,76
38.66667,76
38.67500,76
38.68333,77
38.69167,77
38.70000,76
38.70833,76
38.71667,76
38.72500,76
38.73333,76
38.74167,76
38.75000,75
38.75833,75
38.76667,75
38.77500,75
38.78333,75
38.79167,75
38.80000,74
38.80833,74
38.81667,74
38.82500,74
38.83333,74
38.84167,74
38.85000,74
38.85833,74
38.86667,75
38.87500,75
38.88333,75
38.89167,75
38.90000,75
38.90833,75
38.91667,75
38.92500,75
38.93333,75
38.94167,75
38.95000,75
38.95833,75
38.96667,75
38.97500,74
38.98333,74
38.99167,74
39.00000,74
39.00833,74
39.01667,74
39.02500,74
39.03333,74
39.04167,74
39.05000,74
39.05833,75
39.06667,74
39.07500,74
39.08333,74
39.09167,74
39.10000,74
39.10833,73
39.11667,73
39.12500,73
39.13333,74
39.14167,74
39.15000,74
39.15833,74
39.16667,74
39.17500,74
39.18333,74
39.19167,74
39.20000,74
39.20833,73
39.21667,73
39.22500,73
39.23333,73
39.24167,73
39.25000,73
39.25833,73
39.26667,73
39.27500,74
39.28333,74
39.29167,74
39.30000,74
39.30833,74
39.31667,74
39.32500,74
39.33333,75
39.34167,75
39.35000,75
39.35833,75
39.36667,74
39.37500,74
39.38333,74
39.39167,74
39.40000,74
39.40833,74
39.41667,73
39.42500,73
39.43333,74
39.44167,74
39.45000,74
39.45833,74
39.46667,74
39.47500,74
39.48333,74
39.49167,74
39.50000,74
39.50833,74
39.51667,75
39.52500,75
39.53333,75
39.54167,75
39.55000,75
39.55833,76
39.56667,76
39.57500,76
39.58333,76
39.59167,76
39.60000,75
39.60833,75
39.61667,75
39.62500,74
39.63333,74
39.64167,74
39.65000,74
39.65833,74
39.66667,74
39.67500,74
39.68333,74
39.69167,74
39.70000,74
39.70833,74
39.71667,74
39.72500,75
39.73333,75
39.74167,75
39.75000,74
39.75833,74
39.76667,75
39.77500,75
39.78333,75
39.79167,75
39.80000,75
39.80833,75
39.81667,75
39.82500,75
39.83333,75
39.84167,75
39.85000,75
39.85833,75
39.86667,75
39.87500,75
39.88333,76
39.89167,76
39.90000,76
39.90833,76
39.91667,76
39.92500,76
39.93333,75
39.94167,75
39.95000,75
39.95833,74
39.96667,75
39.97500,75
39.98333,75
39.99167,75
40.00000,75

