[Header]
Application Name,LabSolutions
Version,5.97 SP1
Data File Name,C:\Users\cremerlab\Desktop\griffin\2021-03-31_NCM3722_NCglucose_turnover\2021-03-31_NCM3722_turnover_batch_3312021_006_020.lcd
Output Date,4/1/2021
Output Time,9:20:58 AM

[File Information]
Type,Data File
Generated,4/1/2021 8:40:39 AM
Generated by,System Administrator
Modified,4/1/2021 9:20:58 AM
Modified by,System Administrator

[Sample Information]
Operator Name,System Administrator
Acquired,4/1/2021 8:40:58 AM
Sample Type,1:Standard
Level,6
Sample Name,2021-03-31_NCM3722_NCglucose_replicate_03_timepoint_006
Sample ID,006
ISTD Amount1,1
ISTD Amount2,1
ISTD Amount3,1
ISTD Amount4,1
ISTD Amount5,1
ISTD Amount6,1
ISTD Amount7,1
ISTD Amount8,1
ISTD Amount9,1
ISTD Amount10,1
ISTD Amount11,1
ISTD Amount12,1
ISTD Amount13,1
ISTD Amount14,1
ISTD Amount15,1
ISTD Amount16,1
ISTD Amount17,1
ISTD Amount18,1
ISTD Amount19,1
ISTD Amount20,1
ISTD Amount21,1
ISTD Amount22,1
ISTD Amount23,1
ISTD Amount24,1
ISTD Amount25,1
ISTD Amount26,1
ISTD Amount27,1
ISTD Amount28,1
ISTD Amount29,1
ISTD Amount30,1
ISTD Amount31,1
ISTD Amount32,1
Sample Amount,1
Dilution Factor,1
Vial#,33
Injection Volume,20

[Original Files]
Data File,C:\Users\cremerlab\Desktop\griffin\2021-03-31_NCM3722_NCglucose_turnover\2021-03-31_NCM3722_turnover_batch_3312021_006_020.lcd
Method File,C:\LabSolutions\Data\Project1\organicacidsetc2.lcm
Batch File,C:\Users\cremerlab\Desktop\griffin\2021-03-31_NCM3722_NCglucose_turnover\2021-03-31_NCM3722_turnover_batch.lcb
Report Format File,c:\LabSolutions\System\DEFAULT.lsr

[File Description]


[Configuration]
Instrument Name,HPLC-PC-Instrument1
Instrument #,1
Line #,1
# of Detectors,2
Detector ID,Detector A,Detector B
Detector Name,Detector A,Detector B
# of Channels,1,1

[Peak Table(Detector A)]
# of Peaks,0

[Peak Table(Detector B)]
# of Peaks,5
Peak#,R.Time,I.Time,F.Time,Area,Height,A/H,Conc.,Mark,ID#,Name,k',Plate #,Plate Ht.,Tailing,Resolution,Sep.Factor,Area Ratio,Height Ratio,Conc. %,Norm Conc.
1,11.058,10.750,12.442,1205544,69592,17.323,22.934,   ,,,0.000,10699,14.020,1.276,0.000,0.000,0,0,0.000,0.000
2,15.102,14.108,15.392,3136899,118243,26.529,59.674,   ,,,0.366,7039,21.309,0.000,7.048,0.000,0,0,0.000,0.000
3,15.640,15.392,18.450,903182,36412,24.805,17.182, V ,,,0.414,8101,18.516,0.000,0.760,1.133,0,0,0.000,0.000
4,18.995,18.700,19.517,2145,99,21.614,0.041,   ,,,0.718,16109,9.311,1.256,5.187,1.732,0,0,0.000,0.000
5,25.057,24.558,25.683,8913,317,28.129,0.170,   ,,,1.266,17281,8.680,1.070,8.908,1.764,0,0,0.000,0.000

[LC Chromatogram(Detector B-Ch1)]
Interval(msec),500
# of Points,4801
Start Time(min),0.000
End Time(min),40.000
Intensity Units,mV
Intensity Multiplier,0.001
R.Time (min),Intensity
0.00000,-1
0.00833,-1
0.01667,-0
0.02500,0
0.03333,0
0.04167,0
0.05000,0
0.05833,1
0.06667,1
0.07500,1
0.08333,1
0.09167,1
0.10000,2
0.10833,2
0.11667,2
0.12500,2
0.13333,2
0.14167,2
0.15000,2
0.15833,2
0.16667,2
0.17500,1
0.18333,1
0.19167,1
0.20000,1
0.20833,1
0.21667,1
0.22500,2
0.23333,2
0.24167,3
0.25000,3
0.25833,4
0.26667,4
0.27500,4
0.28333,4
0.29167,4
0.30000,4
0.30833,4
0.31667,3
0.32500,3
0.33333,2
0.34167,2
0.35000,2
0.35833,2
0.36667,2
0.37500,2
0.38333,1
0.39167,1
0.40000,1
0.40833,2
0.41667,2
0.42500,2
0.43333,2
0.44167,2
0.45000,2
0.45833,3
0.46667,3
0.47500,3
0.48333,3
0.49167,4
0.50000,4
0.50833,4
0.51667,4
0.52500,4
0.53333,4
0.54167,4
0.55000,4
0.55833,3
0.56667,4
0.57500,4
0.58333,4
0.59167,4
0.60000,4
0.60833,3
0.61667,3
0.62500,3
0.63333,2
0.64167,3
0.65000,3
0.65833,3
0.66667,3
0.67500,3
0.68333,3
0.69167,3
0.70000,3
0.70833,3
0.71667,3
0.72500,3
0.73333,3
0.74167,2
0.75000,2
0.75833,2
0.76667,3
0.77500,3
0.78333,4
0.79167,4
0.80000,4
0.80833,3
0.81667,3
0.82500,3
0.83333,3
0.84167,3
0.85000,3
0.85833,3
0.86667,3
0.87500,3
0.88333,3
0.89167,3
0.90000,3
0.90833,3
0.91667,4
0.92500,4
0.93333,4
0.94167,4
0.95000,4
0.95833,4
0.96667,4
0.97500,4
0.98333,4
0.99167,4
1.00000,5
1.00833,5
1.01667,4
1.02500,5
1.03333,5
1.04167,5
1.05000,5
1.05833,5
1.06667,5
1.07500,5
1.08333,6
1.09167,6
1.10000,5
1.10833,5
1.11667,4
1.12500,4
1.13333,4
1.14167,4
1.15000,5
1.15833,5
1.16667,5
1.17500,5
1.18333,5
1.19167,5
1.20000,5
1.20833,5
1.21667,5
1.22500,5
1.23333,5
1.24167,4
1.25000,4
1.25833,4
1.26667,4
1.27500,5
1.28333,5
1.29167,5
1.30000,5
1.30833,5
1.31667,5
1.32500,5
1.33333,5
1.34167,5
1.35000,5
1.35833,5
1.36667,6
1.37500,6
1.38333,6
1.39167,6
1.40000,6
1.40833,6
1.41667,6
1.42500,6
1.43333,6
1.44167,6
1.45000,6
1.45833,6
1.46667,6
1.47500,6
1.48333,6
1.49167,5
1.50000,5
1.50833,6
1.51667,6
1.52500,6
1.53333,7
1.54167,7
1.55000,7
1.55833,7
1.56667,6
1.57500,6
1.58333,6
1.59167,6
1.60000,7
1.60833,7
1.61667,7
1.62500,7
1.63333,8
1.64167,8
1.65000,8
1.65833,8
1.66667,8
1.67500,8
1.68333,8
1.69167,8
1.70000,8
1.70833,8
1.71667,8
1.72500,8
1.73333,8
1.74167,9
1.75000,9
1.75833,10
1.76667,10
1.77500,10
1.78333,9
1.79167,9
1.80000,10
1.80833,10
1.81667,10
1.82500,10
1.83333,10
1.84167,10
1.85000,9
1.85833,9
1.86667,9
1.87500,9
1.88333,9
1.89167,9
1.90000,9
1.90833,8
1.91667,9
1.92500,9
1.93333,9
1.94167,9
1.95000,9
1.95833,10
1.96667,10
1.97500,10
1.98333,11
1.99167,11
2.00000,11
2.00833,11
2.01667,11
2.02500,11
2.03333,11
2.04167,11
2.05000,11
2.05833,11
2.06667,11
2.07500,11
2.08333,11
2.09167,11
2.10000,10
2.10833,10
2.11667,10
2.12500,11
2.13333,11
2.14167,11
2.15000,11
2.15833,11
2.16667,11
2.17500,11
2.18333,11
2.19167,11
2.20000,11
2.20833,11
2.21667,11
2.22500,11
2.23333,11
2.24167,11
2.25000,11
2.25833,11
2.26667,11
2.27500,11
2.28333,11
2.29167,11
2.30000,11
2.30833,11
2.31667,10
2.32500,10
2.33333,10
2.34167,10
2.35000,10
2.35833,10
2.36667,10
2.37500,10
2.38333,10
2.39167,10
2.40000,10
2.40833,11
2.41667,11
2.42500,11
2.43333,11
2.44167,11
2.45000,11
2.45833,11
2.46667,11
2.47500,10
2.48333,10
2.49167,10
2.50000,10
2.50833,10
2.51667,9
2.52500,9
2.53333,9
2.54167,9
2.55000,9
2.55833,9
2.56667,9
2.57500,9
2.58333,9
2.59167,9
2.60000,9
2.60833,9
2.61667,9
2.62500,9
2.63333,9
2.64167,9
2.65000,9
2.65833,9
2.66667,9
2.67500,9
2.68333,9
2.69167,9
2.70000,9
2.70833,8
2.71667,8
2.72500,8
2.73333,8
2.74167,8
2.75000,8
2.75833,8
2.76667,8
2.77500,8
2.78333,8
2.79167,8
2.80000,8
2.80833,9
2.81667,9
2.82500,9
2.83333,9
2.84167,8
2.85000,9
2.85833,9
2.86667,8
2.87500,8
2.88333,8
2.89167,8
2.90000,8
2.90833,8
2.91667,8
2.92500,8
2.93333,8
2.94167,8
2.95000,8
2.95833,8
2.96667,8
2.97500,8
2.98333,8
2.99167,8
3.00000,8
3.00833,8
3.01667,8
3.02500,8
3.03333,8
3.04167,8
3.05000,8
3.05833,8
3.06667,8
3.07500,8
3.08333,9
3.09167,9
3.10000,9
3.10833,9
3.11667,9
3.12500,9
3.13333,9
3.14167,9
3.15000,9
3.15833,9
3.16667,9
3.17500,9
3.18333,9
3.19167,9
3.20000,9
3.20833,9
3.21667,9
3.22500,9
3.23333,9
3.24167,9
3.25000,10
3.25833,10
3.26667,10
3.27500,10
3.28333,10
3.29167,10
3.30000,10
3.30833,9
3.31667,9
3.32500,9
3.33333,9
3.34167,9
3.35000,9
3.35833,9
3.36667,8
3.37500,8
3.38333,8
3.39167,9
3.40000,9
3.40833,9
3.41667,9
3.42500,9
3.43333,10
3.44167,10
3.45000,10
3.45833,10
3.46667,10
3.47500,10
3.48333,10
3.49167,10
3.50000,11
3.50833,11
3.51667,11
3.52500,11
3.53333,12
3.54167,12
3.55000,12
3.55833,12
3.56667,12
3.57500,11
3.58333,11
3.59167,11
3.60000,11
3.60833,11
3.61667,11
3.62500,10
3.63333,11
3.64167,11
3.65000,11
3.65833,12
3.66667,12
3.67500,12
3.68333,12
3.69167,12
3.70000,12
3.70833,12
3.71667,12
3.72500,12
3.73333,12
3.74167,13
3.75000,13
3.75833,12
3.76667,13
3.77500,13
3.78333,12
3.79167,12
3.80000,12
3.80833,12
3.81667,12
3.82500,12
3.83333,12
3.84167,12
3.85000,12
3.85833,12
3.86667,12
3.87500,12
3.88333,12
3.89167,13
3.90000,13
3.90833,13
3.91667,14
3.92500,14
3.93333,14
3.94167,14
3.95000,14
3.95833,14
3.96667,14
3.97500,13
3.98333,14
3.99167,14
4.00000,14
4.00833,14
4.01667,14
4.02500,14
4.03333,14
4.04167,14
4.05000,14
4.05833,14
4.06667,14
4.07500,14
4.08333,15
4.09167,15
4.10000,15
4.10833,15
4.11667,15
4.12500,15
4.13333,15
4.14167,15
4.15000,15
4.15833,15
4.16667,15
4.17500,15
4.18333,15
4.19167,15
4.20000,15
4.20833,15
4.21667,15
4.22500,15
4.23333,15
4.24167,15
4.25000,15
4.25833,15
4.26667,15
4.27500,15
4.28333,15
4.29167,15
4.30000,15
4.30833,15
4.31667,15
4.32500,15
4.33333,15
4.34167,15
4.35000,14
4.35833,14
4.36667,14
4.37500,14
4.38333,14
4.39167,14
4.40000,14
4.40833,15
4.41667,15
4.42500,15
4.43333,14
4.44167,14
4.45000,15
4.45833,15
4.46667,15
4.47500,14
4.48333,15
4.49167,15
4.50000,15
4.50833,15
4.51667,15
4.52500,15
4.53333,15
4.54167,14
4.55000,15
4.55833,15
4.56667,15
4.57500,15
4.58333,15
4.59167,15
4.60000,15
4.60833,14
4.61667,14
4.62500,14
4.63333,14
4.64167,13
4.65000,14
4.65833,14
4.66667,14
4.67500,14
4.68333,14
4.69167,14
4.70000,15
4.70833,15
4.71667,15
4.72500,15
4.73333,15
4.74167,15
4.75000,15
4.75833,15
4.76667,15
4.77500,15
4.78333,16
4.79167,16
4.80000,16
4.80833,16
4.81667,16
4.82500,15
4.83333,15
4.84167,15
4.85000,14
4.85833,14
4.86667,14
4.87500,13
4.88333,14
4.89167,14
4.90000,15
4.90833,15
4.91667,14
4.92500,14
4.93333,14
4.94167,14
4.95000,14
4.95833,14
4.96667,14
4.97500,14
4.98333,14
4.99167,14
5.00000,15
5.00833,15
5.01667,15
5.02500,15
5.03333,15
5.04167,15
5.05000,15
5.05833,15
5.06667,15
5.07500,15
5.08333,15
5.09167,15
5.10000,15
5.10833,16
5.11667,16
5.12500,16
5.13333,16
5.14167,16
5.15000,16
5.15833,16
5.16667,15
5.17500,15
5.18333,15
5.19167,15
5.20000,15
5.20833,15
5.21667,15
5.22500,15
5.23333,15
5.24167,15
5.25000,15
5.25833,15
5.26667,15
5.27500,16
5.28333,16
5.29167,16
5.30000,16
5.30833,16
5.31667,16
5.32500,16
5.33333,16
5.34167,16
5.35000,16
5.35833,16
5.36667,16
5.37500,16
5.38333,16
5.39167,16
5.40000,16
5.40833,16
5.41667,16
5.42500,16
5.43333,16
5.44167,16
5.45000,16
5.45833,16
5.46667,16
5.47500,15
5.48333,15
5.49167,15
5.50000,15
5.50833,16
5.51667,16
5.52500,17
5.53333,17
5.54167,17
5.55000,17
5.55833,17
5.56667,17
5.57500,17
5.58333,17
5.59167,17
5.60000,17
5.60833,17
5.61667,17
5.62500,17
5.63333,17
5.64167,17
5.65000,16
5.65833,16
5.66667,16
5.67500,16
5.68333,16
5.69167,16
5.70000,16
5.70833,16
5.71667,16
5.72500,16
5.73333,16
5.74167,17
5.75000,17
5.75833,18
5.76667,18
5.77500,17
5.78333,17
5.79167,17
5.80000,17
5.80833,17
5.81667,17
5.82500,17
5.83333,17
5.84167,17
5.85000,17
5.85833,17
5.86667,18
5.87500,18
5.88333,18
5.89167,18
5.90000,18
5.90833,18
5.91667,18
5.92500,17
5.93333,17
5.94167,17
5.95000,17
5.95833,18
5.96667,18
5.97500,18
5.98333,18
5.99167,18
6.00000,18
6.00833,18
6.01667,18
6.02500,17
6.03333,17
6.04167,17
6.05000,18
6.05833,18
6.06667,19
6.07500,18
6.08333,18
6.09167,18
6.10000,17
6.10833,17
6.11667,17
6.12500,17
6.13333,17
6.14167,17
6.15000,18
6.15833,18
6.16667,17
6.17500,18
6.18333,18
6.19167,18
6.20000,18
6.20833,18
6.21667,18
6.22500,18
6.23333,18
6.24167,18
6.25000,18
6.25833,18
6.26667,18
6.27500,18
6.28333,17
6.29167,17
6.30000,17
6.30833,17
6.31667,18
6.32500,18
6.33333,18
6.34167,18
6.35000,18
6.35833,18
6.36667,18
6.37500,18
6.38333,18
6.39167,18
6.40000,18
6.40833,18
6.41667,18
6.42500,18
6.43333,18
6.44167,18
6.45000,18
6.45833,18
6.46667,18
6.47500,18
6.48333,18
6.49167,18
6.50000,18
6.50833,18
6.51667,18
6.52500,18
6.53333,18
6.54167,18
6.55000,18
6.55833,18
6.56667,18
6.57500,18
6.58333,18
6.59167,18
6.60000,17
6.60833,17
6.61667,18
6.62500,18
6.63333,18
6.64167,18
6.65000,18
6.65833,19
6.66667,18
6.67500,18
6.68333,19
6.69167,19
6.70000,18
6.70833,18
6.71667,18
6.72500,18
6.73333,18
6.74167,18
6.75000,17
6.75833,17
6.76667,17
6.77500,17
6.78333,18
6.79167,18
6.80000,18
6.80833,18
6.81667,18
6.82500,18
6.83333,18
6.84167,18
6.85000,18
6.85833,18
6.86667,18
6.87500,18
6.88333,18
6.89167,18
6.90000,18
6.90833,18
6.91667,18
6.92500,18
6.93333,18
6.94167,18
6.95000,18
6.95833,18
6.96667,18
6.97500,18
6.98333,18
6.99167,19
7.00000,18
7.00833,18
7.01667,18
7.02500,18
7.03333,18
7.04167,18
7.05000,18
7.05833,18
7.06667,18
7.07500,18
7.08333,18
7.09167,18
7.10000,18
7.10833,19
7.11667,19
7.12500,18
7.13333,18
7.14167,18
7.15000,18
7.15833,18
7.16667,18
7.17500,19
7.18333,19
7.19167,19
7.20000,19
7.20833,19
7.21667,19
7.22500,19
7.23333,19
7.24167,19
7.25000,18
7.25833,19
7.26667,18
7.27500,18
7.28333,17
7.29167,17
7.30000,17
7.30833,18
7.31667,18
7.32500,18
7.33333,18
7.34167,18
7.35000,18
7.35833,18
7.36667,18
7.37500,18
7.38333,18
7.39167,18
7.40000,18
7.40833,18
7.41667,18
7.42500,18
7.43333,18
7.44167,19
7.45000,19
7.45833,19
7.46667,19
7.47500,19
7.48333,19
7.49167,18
7.50000,18
7.50833,18
7.51667,18
7.52500,19
7.53333,19
7.54167,19
7.55000,19
7.55833,19
7.56667,19
7.57500,19
7.58333,18
7.59167,18
7.60000,19
7.60833,19
7.61667,19
7.62500,19
7.63333,18
7.64167,18
7.65000,18
7.65833,18
7.66667,18
7.67500,18
7.68333,18
7.69167,18
7.70000,18
7.70833,18
7.71667,18
7.72500,18
7.73333,19
7.74167,19
7.75000,18
7.75833,18
7.76667,18
7.77500,18
7.78333,18
7.79167,18
7.80000,18
7.80833,18
7.81667,18
7.82500,18
7.83333,19
7.84167,19
7.85000,19
7.85833,19
7.86667,19
7.87500,19
7.88333,19
7.89167,19
7.90000,20
7.90833,20
7.91667,20
7.92500,20
7.93333,20
7.94167,19
7.95000,19
7.95833,19
7.96667,19
7.97500,19
7.98333,19
7.99167,19
8.00000,19
8.00833,19
8.01667,19
8.02500,19
8.03333,19
8.04167,19
8.05000,19
8.05833,19
8.06667,19
8.07500,19
8.08333,19
8.09167,19
8.10000,19
8.10833,19
8.11667,19
8.12500,19
8.13333,19
8.14167,19
8.15000,19
8.15833,18
8.16667,19
8.17500,19
8.18333,19
8.19167,19
8.20000,19
8.20833,19
8.21667,19
8.22500,19
8.23333,19
8.24167,20
8.25000,20
8.25833,20
8.26667,20
8.27500,20
8.28333,20
8.29167,20
8.30000,20
8.30833,20
8.31667,20
8.32500,20
8.33333,20
8.34167,20
8.35000,19
8.35833,19
8.36667,19
8.37500,19
8.38333,19
8.39167,19
8.40000,19
8.40833,18
8.41667,18
8.42500,19
8.43333,19
8.44167,19
8.45000,19
8.45833,19
8.46667,19
8.47500,19
8.48333,20
8.49167,20
8.50000,20
8.50833,20
8.51667,20
8.52500,20
8.53333,19
8.54167,19
8.55000,19
8.55833,19
8.56667,19
8.57500,19
8.58333,19
8.59167,19
8.60000,19
8.60833,20
8.61667,20
8.62500,19
8.63333,19
8.64167,19
8.65000,18
8.65833,19
8.66667,19
8.67500,19
8.68333,19
8.69167,19
8.70000,19
8.70833,19
8.71667,19
8.72500,19
8.73333,19
8.74167,19
8.75000,19
8.75833,20
8.76667,20
8.77500,20
8.78333,20
8.79167,20
8.80000,20
8.80833,20
8.81667,20
8.82500,20
8.83333,20
8.84167,20
8.85000,20
8.85833,20
8.86667,20
8.87500,20
8.88333,20
8.89167,20
8.90000,20
8.90833,20
8.91667,20
8.92500,20
8.93333,21
8.94167,21
8.95000,21
8.95833,20
8.96667,20
8.97500,20
8.98333,20
8.99167,20
9.00000,19
9.00833,19
9.01667,19
9.02500,19
9.03333,19
9.04167,19
9.05000,19
9.05833,19
9.06667,19
9.07500,19
9.08333,19
9.09167,19
9.10000,20
9.10833,20
9.11667,20
9.12500,20
9.13333,20
9.14167,20
9.15000,20
9.15833,21
9.16667,21
9.17500,21
9.18333,21
9.19167,21
9.20000,20
9.20833,21
9.21667,21
9.22500,21
9.23333,22
9.24167,22
9.25000,22
9.25833,21
9.26667,21
9.27500,20
9.28333,20
9.29167,21
9.30000,21
9.30833,21
9.31667,20
9.32500,21
9.33333,21
9.34167,21
9.35000,22
9.35833,21
9.36667,21
9.37500,21
9.38333,21
9.39167,21
9.40000,21
9.40833,20
9.41667,20
9.42500,20
9.43333,20
9.44167,20
9.45000,21
9.45833,21
9.46667,21
9.47500,21
9.48333,21
9.49167,22
9.50000,22
9.50833,21
9.51667,21
9.52500,21
9.53333,21
9.54167,21
9.55000,21
9.55833,21
9.56667,21
9.57500,21
9.58333,21
9.59167,21
9.60000,21
9.60833,21
9.61667,21
9.62500,21
9.63333,21
9.64167,21
9.65000,21
9.65833,20
9.66667,20
9.67500,20
9.68333,20
9.69167,20
9.70000,20
9.70833,20
9.71667,20
9.72500,20
9.73333,20
9.74167,20
9.75000,21
9.75833,21
9.76667,21
9.77500,21
9.78333,20
9.79167,20
9.80000,20
9.80833,21
9.81667,21
9.82500,21
9.83333,21
9.84167,21
9.85000,21
9.85833,21
9.86667,21
9.87500,21
9.88333,21
9.89167,21
9.90000,21
9.90833,21
9.91667,21
9.92500,21
9.93333,21
9.94167,22
9.95000,22
9.95833,22
9.96667,22
9.97500,22
9.98333,22
9.99167,22
10.00000,22
10.00833,22
10.01667,22
10.02500,21
10.03333,22
10.04167,22
10.05000,22
10.05833,22
10.06667,22
10.07500,22
10.08333,22
10.09167,22
10.10000,22
10.10833,22
10.11667,22
10.12500,21
10.13333,21
10.14167,21
10.15000,22
10.15833,22
10.16667,22
10.17500,22
10.18333,22
10.19167,22
10.20000,22
10.20833,22
10.21667,22
10.22500,23
10.23333,23
10.24167,23
10.25000,23
10.25833,22
10.26667,22
10.27500,22
10.28333,23
10.29167,23
10.30000,23
10.30833,23
10.31667,23
10.32500,23
10.33333,24
10.34167,24
10.35000,25
10.35833,25
10.36667,26
10.37500,26
10.38333,26
10.39167,26
10.40000,26
10.40833,26
10.41667,26
10.42500,27
10.43333,27
10.44167,27
10.45000,27
10.45833,28
10.46667,28
10.47500,28
10.48333,27
10.49167,26
10.50000,25
10.50833,23
10.51667,19
10.52500,14
10.53333,5
10.54167,-6
10.55000,-21
10.55833,-42
10.56667,-70
10.57500,-106
10.58333,-152
10.59167,-210
10.60000,-283
10.60833,-372
10.61667,-481
10.62500,-610
10.63333,-761
10.64167,-936
10.65000,-1133
10.65833,-1352
10.66667,-1592
10.67500,-1849
10.68333,-2118
10.69167,-2393
10.70000,-2668
10.70833,-2933
10.71667,-3178
10.72500,-3390
10.73333,-3559
10.74167,-3671
10.75000,-3714
10.75833,-3673
10.76667,-3535
10.77500,-3287
10.78333,-2918
10.79167,-2415
10.80000,-1770
10.80833,-972
10.81667,-16
10.82500,1107
10.83333,2401
10.84167,3868
10.85000,5511
10.85833,7329
10.86667,9321
10.87500,11485
10.88333,13815
10.89167,16306
10.90000,18950
10.90833,21736
10.91667,24652
10.92500,27684
10.93333,30813
10.94167,34020
10.95000,37281
10.95833,40566
10.96667,43844
10.97500,47077
10.98333,50224
10.99167,53238
11.00000,56070
11.00833,58666
11.01667,60975
11.02500,62944
11.03333,64526
11.04167,65679
11.05000,66370
11.05833,66579
11.06667,66297
11.07500,65528
11.08333,64292
11.09167,62619
11.10000,60553
11.10833,58146
11.11667,55457
11.12500,52546
11.13333,49477
11.14167,46311
11.15000,43103
11.15833,39907
11.16667,36766
11.17500,33717
11.18333,30792
11.19167,28012
11.20000,25395
11.20833,22950
11.21667,20683
11.22500,18593
11.23333,16679
11.24167,14934
11.25000,13352
11.25833,11922
11.26667,10635
11.27500,9481
11.28333,8448
11.29167,7527
11.30000,6707
11.30833,5979
11.31667,5333
11.32500,4762
11.33333,4257
11.34167,3810
11.35000,3416
11.35833,3069
11.36667,2762
11.37500,2492
11.38333,2254
11.39167,2044
11.40000,1859
11.40833,1695
11.41667,1551
11.42500,1423
11.43333,1310
11.44167,1209
11.45000,1119
11.45833,1039
11.46667,968
11.47500,905
11.48333,847
11.49167,796
11.50000,749
11.50833,707
11.51667,669
11.52500,635
11.53333,604
11.54167,576
11.55000,550
11.55833,526
11.56667,504
11.57500,483
11.58333,464
11.59167,447
11.60000,430
11.60833,415
11.61667,401
11.62500,387
11.63333,375
11.64167,363
11.65000,352
11.65833,342
11.66667,332
11.67500,323
11.68333,314
11.69167,306
11.70000,298
11.70833,291
11.71667,285
11.72500,279
11.73333,274
11.74167,268
11.75000,263
11.75833,257
11.76667,253
11.77500,248
11.78333,244
11.79167,240
11.80000,236
11.80833,233
11.81667,229
11.82500,227
11.83333,224
11.84167,221
11.85000,219
11.85833,216
11.86667,214
11.87500,211
11.88333,209
11.89167,206
11.90000,204
11.90833,202
11.91667,201
11.92500,199
11.93333,198
11.94167,197
11.95000,195
11.95833,194
11.96667,193
11.97500,191
11.98333,190
11.99167,189
12.00000,188
12.00833,186
12.01667,185
12.02500,184
12.03333,183
12.04167,182
12.05000,181
12.05833,180
12.06667,178
12.07500,177
12.08333,176
12.09167,175
12.10000,174
12.10833,173
12.11667,171
12.12500,170
12.13333,168
12.14167,167
12.15000,166
12.15833,165
12.16667,164
12.17500,163
12.18333,162
12.19167,162
12.20000,161
12.20833,159
12.21667,158
12.22500,158
12.23333,157
12.24167,156
12.25000,155
12.25833,154
12.26667,153
12.27500,151
12.28333,150
12.29167,149
12.30000,148
12.30833,148
12.31667,147
12.32500,146
12.33333,145
12.34167,145
12.35000,144
12.35833,143
12.36667,143
12.37500,143
12.38333,142
12.39167,142
12.40000,141
12.40833,141
12.41667,140
12.42500,140
12.43333,139
12.44167,139
12.45000,139
12.45833,138
12.46667,138
12.47500,137
12.48333,136
12.49167,136
12.50000,135
12.50833,134
12.51667,134
12.52500,134
12.53333,133
12.54167,133
12.55000,132
12.55833,131
12.56667,130
12.57500,130
12.58333,129
12.59167,129
12.60000,129
12.60833,128
12.61667,128
12.62500,127
12.63333,127
12.64167,127
12.65000,126
12.65833,126
12.66667,125
12.67500,124
12.68333,123
12.69167,123
12.70000,122
12.70833,121
12.71667,121
12.72500,120
12.73333,120
12.74167,120
12.75000,119
12.75833,119
12.76667,119
12.77500,119
12.78333,119
12.79167,119
12.80000,119
12.80833,119
12.81667,118
12.82500,118
12.83333,118
12.84167,118
12.85000,118
12.85833,118
12.86667,118
12.87500,117
12.88333,117
12.89167,117
12.90000,117
12.90833,117
12.91667,117
12.92500,117
12.93333,118
12.94167,118
12.95000,118
12.95833,118
12.96667,118
12.97500,118
12.98333,118
12.99167,118
13.00000,118
13.00833,118
13.01667,118
13.02500,118
13.03333,118
13.04167,118
13.05000,118
13.05833,118
13.06667,118
13.07500,118
13.08333,118
13.09167,118
13.10000,117
13.10833,117
13.11667,117
13.12500,116
13.13333,116
13.14167,116
13.15000,116
13.15833,115
13.16667,115
13.17500,115
13.18333,115
13.19167,115
13.20000,115
13.20833,115
13.21667,114
13.22500,114
13.23333,113
13.24167,113
13.25000,113
13.25833,112
13.26667,111
13.27500,110
13.28333,109
13.29167,109
13.30000,108
13.30833,108
13.31667,107
13.32500,106
13.33333,106
13.34167,105
13.35000,103
13.35833,102
13.36667,102
13.37500,101
13.38333,100
13.39167,99
13.40000,98
13.40833,97
13.41667,96
13.42500,95
13.43333,94
13.44167,94
13.45000,94
13.45833,93
13.46667,92
13.47500,92
13.48333,91
13.49167,90
13.50000,90
13.50833,90
13.51667,89
13.52500,88
13.53333,87
13.54167,86
13.55000,85
13.55833,84
13.56667,84
13.57500,83
13.58333,82
13.59167,82
13.60000,81
13.60833,81
13.61667,81
13.62500,81
13.63333,81
13.64167,81
13.65000,81
13.65833,80
13.66667,80
13.67500,80
13.68333,79
13.69167,79
13.70000,79
13.70833,79
13.71667,79
13.72500,79
13.73333,79
13.74167,79
13.75000,78
13.75833,78
13.76667,78
13.77500,79
13.78333,79
13.79167,79
13.80000,79
13.80833,80
13.81667,80
13.82500,80
13.83333,81
13.84167,81
13.85000,81
13.85833,81
13.86667,81
13.87500,81
13.88333,81
13.89167,82
13.90000,82
13.90833,83
13.91667,83
13.92500,83
13.93333,84
13.94167,84
13.95000,84
13.95833,85
13.96667,86
13.97500,86
13.98333,87
13.99167,88
14.00000,88
14.00833,88
14.01667,89
14.02500,90
14.03333,90
14.04167,91
14.05000,92
14.05833,92
14.06667,93
14.07500,94
14.08333,95
14.09167,95
14.10000,96
14.10833,97
14.11667,99
14.12500,100
14.13333,101
14.14167,103
14.15000,105
14.15833,107
14.16667,109
14.17500,113
14.18333,116
14.19167,121
14.20000,126
14.20833,132
14.21667,139
14.22500,148
14.23333,158
14.24167,171
14.25000,186
14.25833,205
14.26667,227
14.27500,253
14.28333,285
14.29167,323
14.30000,369
14.30833,422
14.31667,485
14.32500,559
14.33333,645
14.34167,744
14.35000,859
14.35833,991
14.36667,1141
14.37500,1312
14.38333,1505
14.39167,1722
14.40000,1964
14.40833,2234
14.41667,2532
14.42500,2861
14.43333,3221
14.44167,3614
14.45000,4041
14.45833,4503
14.46667,4999
14.47500,5532
14.48333,6101
14.49167,6707
14.50000,7350
14.50833,8030
14.51667,8748
14.52500,9503
14.53333,10295
14.54167,11123
14.55000,11987
14.55833,12886
14.56667,13820
14.57500,14790
14.58333,15793
14.59167,16830
14.60000,17901
14.60833,19003
14.61667,20137
14.62500,21302
14.63333,22498
14.64167,23723
14.65000,24978
14.65833,26261
14.66667,27573
14.67500,28912
14.68333,30279
14.69167,31672
14.70000,33092
14.70833,34538
14.71667,36010
14.72500,37507
14.73333,39029
14.74167,40575
14.75000,42145
14.75833,43739
14.76667,45356
14.77500,46998
14.78333,48662
14.79167,50350
14.80000,52061
14.80833,53795
14.81667,55551
14.82500,57330
14.83333,59131
14.84167,60954
14.85000,62798
14.85833,64663
14.86667,66550
14.87500,68457
14.88333,70386
14.89167,72334
14.90000,74302
14.90833,76290
14.91667,78297
14.92500,80323
14.93333,82366
14.94167,84426
14.95000,86502
14.95833,88591
14.96667,90693
14.97500,92807
14.98333,94928
14.99167,97055
15.00000,99183
15.00833,101306
15.01667,103416
15.02500,105501
15.03333,107545
15.04167,109527
15.05000,111418
15.05833,113183
15.06667,114779
15.07500,116153
15.08333,117248
15.09167,118002
15.10000,118352
15.10833,118237
15.11667,117602
15.12500,116406
15.13333,114621
15.14167,112236
15.15000,109262
15.15833,105728
15.16667,101685
15.17500,97198
15.18333,92348
15.19167,87223
15.20000,81916
15.20833,76521
15.21667,71126
15.22500,65813
15.23333,60655
15.24167,55711
15.25000,51029
15.25833,46646
15.26667,42586
15.27500,38861
15.28333,35478
15.29167,32433
15.30000,29718
15.30833,27321
15.31667,25227
15.32500,23419
15.33333,21878
15.34167,20588
15.35000,19531
15.35833,18690
15.36667,18050
15.37500,17596
15.38333,17314
15.39167,17193
15.40000,17219
15.40833,17382
15.41667,17673
15.42500,18079
15.43333,18591
15.44167,19201
15.45000,19897
15.45833,20670
15.46667,21510
15.47500,22406
15.48333,23347
15.49167,24323
15.50000,25324
15.50833,26337
15.51667,27354
15.52500,28361
15.53333,29350
15.54167,30309
15.55000,31228
15.55833,32098
15.56667,32910
15.57500,33655
15.58333,34327
15.59167,34919
15.60000,35424
15.60833,35838
15.61667,36157
15.62500,36380
15.63333,36503
15.64167,36527
15.65000,36452
15.65833,36279
15.66667,36011
15.67500,35651
15.68333,35203
15.69167,34672
15.70000,34062
15.70833,33380
15.71667,32631
15.72500,31822
15.73333,30960
15.74167,30052
15.75000,29105
15.75833,28124
15.76667,27119
15.77500,26094
15.78333,25055
15.79167,24010
15.80000,22964
15.80833,21921
15.81667,20887
15.82500,19866
15.83333,18862
15.84167,17879
15.85000,16921
15.85833,15989
15.86667,15087
15.87500,14215
15.88333,13376
15.89167,12570
15.90000,11799
15.90833,11063
15.91667,10362
15.92500,9697
15.93333,9066
15.94167,8469
15.95000,7906
15.95833,7375
15.96667,6877
15.97500,6410
15.98333,5972
15.99167,5563
16.00000,5182
16.00833,4826
16.01667,4496
16.02500,4188
16.03333,3903
16.04167,3638
16.05000,3394
16.05833,3167
16.06667,2958
16.07500,2764
16.08333,2587
16.09167,2423
16.10000,2272
16.10833,2133
16.11667,2005
16.12500,1888
16.13333,1780
16.14167,1681
16.15000,1590
16.15833,1506
16.16667,1429
16.17500,1358
16.18333,1293
16.19167,1233
16.20000,1178
16.20833,1127
16.21667,1080
16.22500,1037
16.23333,997
16.24167,960
16.25000,926
16.25833,894
16.26667,865
16.27500,838
16.28333,813
16.29167,790
16.30000,769
16.30833,748
16.31667,729
16.32500,712
16.33333,695
16.34167,680
16.35000,665
16.35833,652
16.36667,640
16.37500,628
16.38333,617
16.39167,606
16.40000,596
16.40833,586
16.41667,577
16.42500,568
16.43333,559
16.44167,551
16.45000,544
16.45833,536
16.46667,529
16.47500,522
16.48333,516
16.49167,510
16.50000,504
16.50833,498
16.51667,493
16.52500,489
16.53333,484
16.54167,479
16.55000,475
16.55833,471
16.56667,466
16.57500,462
16.58333,458
16.59167,455
16.60000,451
16.60833,447
16.61667,443
16.62500,440
16.63333,436
16.64167,433
16.65000,430
16.65833,426
16.66667,423
16.67500,419
16.68333,416
16.69167,413
16.70000,411
16.70833,408
16.71667,405
16.72500,402
16.73333,399
16.74167,397
16.75000,394
16.75833,392
16.76667,389
16.77500,387
16.78333,384
16.79167,382
16.80000,380
16.80833,377
16.81667,375
16.82500,372
16.83333,370
16.84167,368
16.85000,366
16.85833,364
16.86667,362
16.87500,360
16.88333,358
16.89167,355
16.90000,353
16.90833,351
16.91667,349
16.92500,347
16.93333,345
16.94167,343
16.95000,341
16.95833,339
16.96667,337
16.97500,335
16.98333,334
16.99167,332
17.00000,331
17.00833,329
17.01667,327
17.02500,325
17.03333,323
17.04167,322
17.05000,320
17.05833,318
17.06667,317
17.07500,315
17.08333,313
17.09167,311
17.10000,309
17.10833,307
17.11667,305
17.12500,304
17.13333,302
17.14167,300
17.15000,299
17.15833,297
17.16667,296
17.17500,295
17.18333,293
17.19167,292
17.20000,290
17.20833,289
17.21667,287
17.22500,285
17.23333,284
17.24167,283
17.25000,282
17.25833,281
17.26667,279
17.27500,278
17.28333,276
17.29167,275
17.30000,273
17.30833,272
17.31667,271
17.32500,269
17.33333,268
17.34167,266
17.35000,265
17.35833,263
17.36667,262
17.37500,261
17.38333,260
17.39167,258
17.40000,257
17.40833,256
17.41667,254
17.42500,253
17.43333,252
17.44167,251
17.45000,250
17.45833,248
17.46667,247
17.47500,246
17.48333,245
17.49167,243
17.50000,242
17.50833,241
17.51667,240
17.52500,238
17.53333,237
17.54167,236
17.55000,235
17.55833,234
17.56667,233
17.57500,231
17.58333,230
17.59167,229
17.60000,228
17.60833,227
17.61667,226
17.62500,225
17.63333,223
17.64167,222
17.65000,222
17.65833,221
17.66667,220
17.67500,219
17.68333,218
17.69167,217
17.70000,216
17.70833,215
17.71667,214
17.72500,213
17.73333,212
17.74167,211
17.75000,209
17.75833,208
17.76667,207
17.77500,207
17.78333,206
17.79167,205
17.80000,204
17.80833,203
17.81667,202
17.82500,202
17.83333,201
17.84167,200
17.85000,200
17.85833,198
17.86667,198
17.87500,197
17.88333,196
17.89167,195
17.90000,195
17.90833,193
17.91667,192
17.92500,192
17.93333,191
17.94167,190
17.95000,189
17.95833,188
17.96667,187
17.97500,186
17.98333,185
17.99167,184
18.00000,183
18.00833,183
18.01667,183
18.02500,182
18.03333,181
18.04167,181
18.05000,180
18.05833,180
18.06667,179
18.07500,178
18.08333,178
18.09167,177
18.10000,177
18.10833,176
18.11667,175
18.12500,174
18.13333,173
18.14167,172
18.15000,171
18.15833,170
18.16667,169
18.17500,168
18.18333,167
18.19167,166
18.20000,166
18.20833,165
18.21667,165
18.22500,164
18.23333,163
18.24167,162
18.25000,161
18.25833,161
18.26667,160
18.27500,160
18.28333,159
18.29167,159
18.30000,158
18.30833,158
18.31667,157
18.32500,156
18.33333,155
18.34167,155
18.35000,155
18.35833,154
18.36667,153
18.37500,152
18.38333,152
18.39167,151
18.40000,150
18.40833,149
18.41667,149
18.42500,148
18.43333,148
18.44167,148
18.45000,147
18.45833,147
18.46667,146
18.47500,146
18.48333,145
18.49167,145
18.50000,145
18.50833,144
18.51667,144
18.52500,144
18.53333,143
18.54167,143
18.55000,142
18.55833,141
18.56667,141
18.57500,141
18.58333,141
18.59167,141
18.60000,141
18.60833,141
18.61667,141
18.62500,141
18.63333,141
18.64167,141
18.65000,141
18.65833,142
18.66667,142
18.67500,143
18.68333,144
18.69167,145
18.70000,146
18.70833,148
18.71667,149
18.72500,150
18.73333,152
18.74167,153
18.75000,155
18.75833,158
18.76667,161
18.77500,163
18.78333,166
18.79167,168
18.80000,171
18.80833,174
18.81667,178
18.82500,181
18.83333,184
18.84167,187
18.85000,190
18.85833,193
18.86667,196
18.87500,200
18.88333,203
18.89167,206
18.90000,210
18.90833,213
18.91667,216
18.92500,218
18.93333,221
18.94167,223
18.95000,225
18.95833,226
18.96667,228
18.97500,229
18.98333,229
18.99167,229
19.00000,229
19.00833,229
19.01667,228
19.02500,227
19.03333,225
19.04167,224
19.05000,222
19.05833,221
19.06667,219
19.07500,217
19.08333,214
19.09167,211
19.10000,208
19.10833,204
19.11667,201
19.12500,198
19.13333,195
19.14167,191
19.15000,187
19.15833,184
19.16667,180
19.17500,177
19.18333,173
19.19167,170
19.20000,167
19.20833,164
19.21667,160
19.22500,157
19.23333,153
19.24167,150
19.25000,147
19.25833,144
19.26667,141
19.27500,139
19.28333,136
19.29167,134
19.30000,131
19.30833,130
19.31667,128
19.32500,126
19.33333,124
19.34167,122
19.35000,121
19.35833,119
19.36667,118
19.37500,117
19.38333,116
19.39167,114
19.40000,113
19.40833,112
19.41667,111
19.42500,110
19.43333,109
19.44167,108
19.45000,106
19.45833,105
19.46667,104
19.47500,104
19.48333,103
19.49167,103
19.50000,102
19.50833,102
19.51667,101
19.52500,101
19.53333,101
19.54167,101
19.55000,100
19.55833,100
19.56667,99
19.57500,98
19.58333,98
19.59167,97
19.60000,97
19.60833,96
19.61667,96
19.62500,96
19.63333,96
19.64167,96
19.65000,96
19.65833,96
19.66667,95
19.67500,95
19.68333,94
19.69167,93
19.70000,93
19.70833,93
19.71667,92
19.72500,92
19.73333,92
19.74167,92
19.75000,92
19.75833,92
19.76667,92
19.77500,92
19.78333,92
19.79167,91
19.80000,91
19.80833,90
19.81667,90
19.82500,89
19.83333,89
19.84167,89
19.85000,89
19.85833,89
19.86667,89
19.87500,88
19.88333,88
19.89167,88
19.90000,87
19.90833,87
19.91667,87
19.92500,87
19.93333,87
19.94167,87
19.95000,87
19.95833,86
19.96667,86
19.97500,86
19.98333,86
19.99167,86
20.00000,85
20.00833,85
20.01667,85
20.02500,84
20.03333,84
20.04167,84
20.05000,84
20.05833,84
20.06667,84
20.07500,84
20.08333,84
20.09167,83
20.10000,83
20.10833,82
20.11667,82
20.12500,81
20.13333,81
20.14167,81
20.15000,81
20.15833,81
20.16667,81
20.17500,81
20.18333,81
20.19167,81
20.20000,80
20.20833,80
20.21667,80
20.22500,80
20.23333,80
20.24167,79
20.25000,79
20.25833,80
20.26667,80
20.27500,80
20.28333,79
20.29167,79
20.30000,79
20.30833,78
20.31667,78
20.32500,77
20.33333,77
20.34167,77
20.35000,77
20.35833,77
20.36667,77
20.37500,77
20.38333,77
20.39167,77
20.40000,76
20.40833,76
20.41667,76
20.42500,76
20.43333,76
20.44167,76
20.45000,76
20.45833,76
20.46667,76
20.47500,76
20.48333,75
20.49167,75
20.50000,75
20.50833,74
20.51667,74
20.52500,74
20.53333,73
20.54167,73
20.55000,73
20.55833,73
20.56667,73
20.57500,73
20.58333,73
20.59167,73
20.60000,73
20.60833,73
20.61667,73
20.62500,73
20.63333,73
20.64167,73
20.65000,73
20.65833,73
20.66667,72
20.67500,72
20.68333,72
20.69167,72
20.70000,72
20.70833,72
20.71667,72
20.72500,71
20.73333,71
20.74167,71
20.75000,71
20.75833,71
20.76667,71
20.77500,71
20.78333,71
20.79167,70
20.80000,70
20.80833,69
20.81667,69
20.82500,69
20.83333,69
20.84167,69
20.85000,69
20.85833,69
20.86667,69
20.87500,69
20.88333,69
20.89167,69
20.90000,68
20.90833,68
20.91667,67
20.92500,67
20.93333,67
20.94167,67
20.95000,67
20.95833,67
20.96667,67
20.97500,67
20.98333,67
20.99167,68
21.00000,67
21.00833,67
21.01667,67
21.02500,66
21.03333,66
21.04167,66
21.05000,66
21.05833,66
21.06667,65
21.07500,65
21.08333,65
21.09167,65
21.10000,65
21.10833,65
21.11667,65
21.12500,65
21.13333,65
21.14167,65
21.15000,64
21.15833,64
21.16667,63
21.17500,63
21.18333,63
21.19167,63
21.20000,63
21.20833,63
21.21667,64
21.22500,64
21.23333,64
21.24167,64
21.25000,64
21.25833,64
21.26667,64
21.27500,64
21.28333,64
21.29167,63
21.30000,63
21.30833,63
21.31667,63
21.32500,63
21.33333,63
21.34167,62
21.35000,62
21.35833,62
21.36667,62
21.37500,62
21.38333,62
21.39167,62
21.40000,62
21.40833,62
21.41667,62
21.42500,62
21.43333,62
21.44167,63
21.45000,63
21.45833,63
21.46667,63
21.47500,63
21.48333,63
21.49167,63
21.50000,63
21.50833,63
21.51667,63
21.52500,63
21.53333,63
21.54167,62
21.55000,62
21.55833,62
21.56667,62
21.57500,62
21.58333,63
21.59167,63
21.60000,63
21.60833,63
21.61667,64
21.62500,64
21.63333,64
21.64167,64
21.65000,64
21.65833,64
21.66667,64
21.67500,64
21.68333,64
21.69167,64
21.70000,64
21.70833,64
21.71667,64
21.72500,64
21.73333,64
21.74167,65
21.75000,65
21.75833,65
21.76667,64
21.77500,64
21.78333,64
21.79167,65
21.80000,65
21.80833,65
21.81667,65
21.82500,65
21.83333,66
21.84167,66
21.85000,66
21.85833,66
21.86667,66
21.87500,66
21.88333,66
21.89167,67
21.90000,67
21.90833,67
21.91667,67
21.92500,67
21.93333,67
21.94167,67
21.95000,67
21.95833,66
21.96667,66
21.97500,65
21.98333,65
21.99167,65
22.00000,65
22.00833,65
22.01667,64
22.02500,64
22.03333,64
22.04167,64
22.05000,64
22.05833,65
22.06667,65
22.07500,64
22.08333,64
22.09167,64
22.10000,63
22.10833,63
22.11667,63
22.12500,63
22.13333,62
22.14167,62
22.15000,62
22.15833,61
22.16667,61
22.17500,61
22.18333,61
22.19167,61
22.20000,60
22.20833,60
22.21667,60
22.22500,60
22.23333,60
22.24167,59
22.25000,59
22.25833,58
22.26667,58
22.27500,58
22.28333,58
22.29167,58
22.30000,58
22.30833,58
22.31667,58
22.32500,57
22.33333,57
22.34167,57
22.35000,58
22.35833,57
22.36667,57
22.37500,57
22.38333,57
22.39167,57
22.40000,57
22.40833,57
22.41667,57
22.42500,57
22.43333,56
22.44167,56
22.45000,56
22.45833,56
22.46667,56
22.47500,56
22.48333,56
22.49167,56
22.50000,56
22.50833,56
22.51667,57
22.52500,57
22.53333,56
22.54167,56
22.55000,56
22.55833,56
22.56667,56
22.57500,56
22.58333,56
22.59167,56
22.60000,56
22.60833,56
22.61667,55
22.62500,55
22.63333,55
22.64167,55
22.65000,55
22.65833,55
22.66667,55
22.67500,55
22.68333,55
22.69167,55
22.70000,55
22.70833,55
22.71667,55
22.72500,55
22.73333,55
22.74167,55
22.75000,55
22.75833,55
22.76667,55
22.77500,55
22.78333,56
22.79167,56
22.80000,56
22.80833,56
22.81667,56
22.82500,56
22.83333,57
22.84167,57
22.85000,57
22.85833,57
22.86667,58
22.87500,58
22.88333,58
22.89167,59
22.90000,59
22.90833,59
22.91667,60
22.92500,60
22.93333,60
22.94167,61
22.95000,61
22.95833,62
22.96667,63
22.97500,63
22.98333,64
22.99167,65
23.00000,66
23.00833,67
23.01667,67
23.02500,68
23.03333,69
23.04167,69
23.05000,70
23.05833,71
23.06667,72
23.07500,73
23.08333,73
23.09167,73
23.10000,74
23.10833,75
23.11667,76
23.12500,77
23.13333,78
23.14167,79
23.15000,80
23.15833,80
23.16667,80
23.17500,81
23.18333,81
23.19167,82
23.20000,82
23.20833,82
23.21667,82
23.22500,83
23.23333,83
23.24167,82
23.25000,82
23.25833,81
23.26667,81
23.27500,81
23.28333,81
23.29167,80
23.30000,80
23.30833,80
23.31667,79
23.32500,79
23.33333,78
23.34167,78
23.35000,77
23.35833,76
23.36667,75
23.37500,74
23.38333,74
23.39167,73
23.40000,72
23.40833,71
23.41667,70
23.42500,70
23.43333,69
23.44167,69
23.45000,68
23.45833,67
23.46667,66
23.47500,66
23.48333,65
23.49167,64
23.50000,64
23.50833,64
23.51667,63
23.52500,63
23.53333,62
23.54167,62
23.55000,62
23.55833,61
23.56667,60
23.57500,60
23.58333,59
23.59167,58
23.60000,58
23.60833,57
23.61667,57
23.62500,57
23.63333,56
23.64167,55
23.65000,55
23.65833,54
23.66667,54
23.67500,54
23.68333,54
23.69167,54
23.70000,54
23.70833,54
23.71667,54
23.72500,54
23.73333,54
23.74167,54
23.75000,54
23.75833,53
23.76667,53
23.77500,53
23.78333,53
23.79167,53
23.80000,53
23.80833,53
23.81667,52
23.82500,52
23.83333,52
23.84167,52
23.85000,52
23.85833,53
23.86667,52
23.87500,52
23.88333,52
23.89167,52
23.90000,52
23.90833,52
23.91667,52
23.92500,52
23.93333,53
23.94167,53
23.95000,53
23.95833,53
23.96667,53
23.97500,53
23.98333,53
23.99167,53
24.00000,53
24.00833,53
24.01667,53
24.02500,53
24.03333,52
24.04167,52
24.05000,52
24.05833,53
24.06667,53
24.07500,52
24.08333,52
24.09167,52
24.10000,52
24.10833,52
24.11667,52
24.12500,53
24.13333,53
24.14167,53
24.15000,53
24.15833,53
24.16667,53
24.17500,53
24.18333,53
24.19167,52
24.20000,52
24.20833,52
24.21667,52
24.22500,52
24.23333,52
24.24167,52
24.25000,53
24.25833,53
24.26667,53
24.27500,53
24.28333,53
24.29167,52
24.30000,52
24.30833,52
24.31667,53
24.32500,53
24.33333,53
24.34167,53
24.35000,53
24.35833,53
24.36667,53
24.37500,53
24.38333,53
24.39167,53
24.40000,54
24.40833,54
24.41667,54
24.42500,55
24.43333,55
24.44167,55
24.45000,56
24.45833,56
24.46667,56
24.47500,56
24.48333,56
24.49167,56
24.50000,57
24.50833,57
24.51667,58
24.52500,59
24.53333,60
24.54167,61
24.55000,63
24.55833,64
24.56667,65
24.57500,66
24.58333,67
24.59167,69
24.60000,70
24.60833,72
24.61667,74
24.62500,77
24.63333,79
24.64167,82
24.65000,85
24.65833,88
24.66667,91
24.67500,95
24.68333,99
24.69167,103
24.70000,107
24.70833,111
24.71667,115
24.72500,120
24.73333,126
24.74167,132
24.75000,138
24.75833,144
24.76667,151
24.77500,158
24.78333,165
24.79167,173
24.80000,180
24.80833,188
24.81667,197
24.82500,205
24.83333,214
24.84167,223
24.85000,231
24.85833,240
24.86667,249
24.87500,258
24.88333,266
24.89167,275
24.90000,283
24.90833,291
24.91667,299
24.92500,307
24.93333,315
24.94167,323
24.95000,330
24.95833,337
24.96667,343
24.97500,350
24.98333,355
24.99167,360
25.00000,365
25.00833,369
25.01667,372
25.02500,375
25.03333,377
25.04167,378
25.05000,379
25.05833,379
25.06667,379
25.07500,378
25.08333,377
25.09167,374
25.10000,372
25.10833,369
25.11667,365
25.12500,360
25.13333,355
25.14167,350
25.15000,344
25.15833,338
25.16667,331
25.17500,324
25.18333,317
25.19167,310
25.20000,302
25.20833,295
25.21667,287
25.22500,279
25.23333,271
25.24167,263
25.25000,255
25.25833,247
25.26667,239
25.27500,231
25.28333,224
25.29167,216
25.30000,208
25.30833,201
25.31667,194
25.32500,186
25.33333,179
25.34167,172
25.35000,165
25.35833,159
25.36667,153
25.37500,147
25.38333,141
25.39167,136
25.40000,131
25.40833,127
25.41667,122
25.42500,118
25.43333,114
25.44167,110
25.45000,106
25.45833,102
25.46667,99
25.47500,96
25.48333,93
25.49167,90
25.50000,88
25.50833,85
25.51667,83
25.52500,80
25.53333,78
25.54167,77
25.55000,75
25.55833,74
25.56667,73
25.57500,71
25.58333,70
25.59167,69
25.60000,68
25.60833,67
25.61667,66
25.62500,65
25.63333,64
25.64167,63
25.65000,63
25.65833,62
25.66667,62
25.67500,61
25.68333,61
25.69167,61
25.70000,61
25.70833,60
25.71667,60
25.72500,59
25.73333,59
25.74167,59
25.75000,59
25.75833,58
25.76667,58
25.77500,58
25.78333,58
25.79167,58
25.80000,58
25.80833,58
25.81667,58
25.82500,58
25.83333,58
25.84167,58
25.85000,58
25.85833,59
25.86667,59
25.87500,59
25.88333,59
25.89167,59
25.90000,59
25.90833,58
25.91667,58
25.92500,58
25.93333,58
25.94167,57
25.95000,58
25.95833,57
25.96667,57
25.97500,58
25.98333,58
25.99167,58
26.00000,58
26.00833,58
26.01667,58
26.02500,58
26.03333,59
26.04167,59
26.05000,59
26.05833,58
26.06667,58
26.07500,58
26.08333,58
26.09167,58
26.10000,58
26.10833,58
26.11667,59
26.12500,59
26.13333,59
26.14167,59
26.15000,58
26.15833,58
26.16667,57
26.17500,57
26.18333,58
26.19167,58
26.20000,58
26.20833,58
26.21667,59
26.22500,59
26.23333,59
26.24167,59
26.25000,59
26.25833,59
26.26667,59
26.27500,58
26.28333,58
26.29167,58
26.30000,58
26.30833,58
26.31667,58
26.32500,59
26.33333,59
26.34167,59
26.35000,59
26.35833,59
26.36667,59
26.37500,59
26.38333,59
26.39167,59
26.40000,59
26.40833,59
26.41667,59
26.42500,59
26.43333,60
26.44167,60
26.45000,59
26.45833,59
26.46667,59
26.47500,59
26.48333,59
26.49167,59
26.50000,59
26.50833,59
26.51667,60
26.52500,60
26.53333,60
26.54167,60
26.55000,60
26.55833,60
26.56667,59
26.57500,59
26.58333,59
26.59167,59
26.60000,59
26.60833,59
26.61667,59
26.62500,59
26.63333,59
26.64167,59
26.65000,60
26.65833,60
26.66667,60
26.67500,60
26.68333,60
26.69167,60
26.70000,60
26.70833,60
26.71667,60
26.72500,60
26.73333,60
26.74167,60
26.75000,60
26.75833,60
26.76667,60
26.77500,60
26.78333,60
26.79167,60
26.80000,60
26.80833,60
26.81667,60
26.82500,60
26.83333,60
26.84167,61
26.85000,61
26.85833,61
26.86667,61
26.87500,62
26.88333,61
26.89167,62
26.90000,61
26.90833,61
26.91667,61
26.92500,61
26.93333,61
26.94167,62
26.95000,62
26.95833,61
26.96667,61
26.97500,61
26.98333,61
26.99167,61
27.00000,61
27.00833,61
27.01667,61
27.02500,62
27.03333,62
27.04167,62
27.05000,62
27.05833,62
27.06667,62
27.07500,62
27.08333,62
27.09167,62
27.10000,62
27.10833,62
27.11667,62
27.12500,62
27.13333,63
27.14167,62
27.15000,62
27.15833,63
27.16667,62
27.17500,62
27.18333,62
27.19167,63
27.20000,63
27.20833,63
27.21667,63
27.22500,63
27.23333,63
27.24167,64
27.25000,64
27.25833,64
27.26667,63
27.27500,63
27.28333,63
27.29167,63
27.30000,63
27.30833,63
27.31667,63
27.32500,63
27.33333,63
27.34167,63
27.35000,63
27.35833,63
27.36667,63
27.37500,63
27.38333,63
27.39167,63
27.40000,63
27.40833,64
27.41667,64
27.42500,64
27.43333,64
27.44167,63
27.45000,64
27.45833,64
27.46667,64
27.47500,64
27.48333,64
27.49167,65
27.50000,66
27.50833,66
27.51667,66
27.52500,65
27.53333,65
27.54167,65
27.55000,65
27.55833,65
27.56667,65
27.57500,65
27.58333,65
27.59167,65
27.60000,65
27.60833,65
27.61667,65
27.62500,64
27.63333,65
27.64167,65
27.65000,64
27.65833,64
27.66667,64
27.67500,65
27.68333,64
27.69167,64
27.70000,64
27.70833,64
27.71667,64
27.72500,64
27.73333,64
27.74167,63
27.75000,64
27.75833,64
27.76667,64
27.77500,64
27.78333,64
27.79167,63
27.80000,63
27.80833,62
27.81667,62
27.82500,61
27.83333,61
27.84167,60
27.85000,60
27.85833,60
27.86667,59
27.87500,59
27.88333,59
27.89167,58
27.90000,57
27.90833,56
27.91667,55
27.92500,54
27.93333,53
27.94167,52
27.95000,52
27.95833,51
27.96667,50
27.97500,48
27.98333,47
27.99167,45
28.00000,43
28.00833,42
28.01667,40
28.02500,38
28.03333,36
28.04167,35
28.05000,33
28.05833,31
28.06667,28
28.07500,26
28.08333,24
28.09167,21
28.10000,18
28.10833,16
28.11667,13
28.12500,11
28.13333,8
28.14167,5
28.15000,3
28.15833,-0
28.16667,-3
28.17500,-6
28.18333,-9
28.19167,-12
28.20000,-16
28.20833,-19
28.21667,-23
28.22500,-27
28.23333,-30
28.24167,-33
28.25000,-37
28.25833,-40
28.26667,-43
28.27500,-46
28.28333,-49
28.29167,-52
28.30000,-55
28.30833,-58
28.31667,-61
28.32500,-64
28.33333,-66
28.34167,-68
28.35000,-71
28.35833,-73
28.36667,-75
28.37500,-77
28.38333,-79
28.39167,-80
28.40000,-82
28.40833,-83
28.41667,-84
28.42500,-85
28.43333,-86
28.44167,-87
28.45000,-87
28.45833,-88
28.46667,-88
28.47500,-88
28.48333,-87
28.49167,-87
28.50000,-86
28.50833,-85
28.51667,-85
28.52500,-84
28.53333,-83
28.54167,-82
28.55000,-81
28.55833,-79
28.56667,-78
28.57500,-76
28.58333,-74
28.59167,-72
28.60000,-69
28.60833,-67
28.61667,-65
28.62500,-63
28.63333,-60
28.64167,-58
28.65000,-56
28.65833,-54
28.66667,-51
28.67500,-48
28.68333,-44
28.69167,-41
28.70000,-38
28.70833,-35
28.71667,-32
28.72500,-29
28.73333,-27
28.74167,-24
28.75000,-22
28.75833,-19
28.76667,-16
28.77500,-13
28.78333,-11
28.79167,-9
28.80000,-6
28.80833,-4
28.81667,-2
28.82500,1
28.83333,3
28.84167,6
28.85000,8
28.85833,10
28.86667,13
28.87500,15
28.88333,17
28.89167,18
28.90000,20
28.90833,22
28.91667,24
28.92500,25
28.93333,27
28.94167,29
28.95000,30
28.95833,32
28.96667,34
28.97500,35
28.98333,36
28.99167,37
29.00000,38
29.00833,38
29.01667,39
29.02500,40
29.03333,41
29.04167,42
29.05000,43
29.05833,43
29.06667,44
29.07500,45
29.08333,45
29.09167,46
29.10000,46
29.10833,47
29.11667,48
29.12500,49
29.13333,49
29.14167,50
29.15000,51
29.15833,51
29.16667,52
29.17500,52
29.18333,52
29.19167,53
29.20000,54
29.20833,54
29.21667,55
29.22500,55
29.23333,55
29.24167,54
29.25000,54
29.25833,54
29.26667,55
29.27500,55
29.28333,55
29.29167,56
29.30000,56
29.30833,56
29.31667,56
29.32500,56
29.33333,57
29.34167,57
29.35000,57
29.35833,57
29.36667,57
29.37500,57
29.38333,57
29.39167,58
29.40000,58
29.40833,58
29.41667,58
29.42500,58
29.43333,58
29.44167,58
29.45000,58
29.45833,58
29.46667,58
29.47500,58
29.48333,57
29.49167,57
29.50000,57
29.50833,57
29.51667,57
29.52500,57
29.53333,57
29.54167,57
29.55000,57
29.55833,57
29.56667,57
29.57500,56
29.58333,56
29.59167,56
29.60000,56
29.60833,55
29.61667,55
29.62500,54
29.63333,54
29.64167,53
29.65000,52
29.65833,52
29.66667,52
29.67500,51
29.68333,50
29.69167,50
29.70000,50
29.70833,50
29.71667,50
29.72500,49
29.73333,49
29.74167,48
29.75000,48
29.75833,47
29.76667,46
29.77500,45
29.78333,45
29.79167,44
29.80000,43
29.80833,43
29.81667,42
29.82500,41
29.83333,41
29.84167,40
29.85000,39
29.85833,38
29.86667,37
29.87500,36
29.88333,35
29.89167,34
29.90000,32
29.90833,31
29.91667,30
29.92500,29
29.93333,28
29.94167,27
29.95000,26
29.95833,25
29.96667,23
29.97500,22
29.98333,21
29.99167,20
30.00000,19
30.00833,17
30.01667,16
30.02500,15
30.03333,14
30.04167,13
30.05000,13
30.05833,12
30.06667,11
30.07500,10
30.08333,9
30.09167,8
30.10000,7
30.10833,6
30.11667,5
30.12500,5
30.13333,4
30.14167,4
30.15000,4
30.15833,3
30.16667,3
30.17500,2
30.18333,2
30.19167,2
30.20000,2
30.20833,2
30.21667,2
30.22500,2
30.23333,2
30.24167,2
30.25000,3
30.25833,3
30.26667,3
30.27500,3
30.28333,3
30.29167,4
30.30000,4
30.30833,4
30.31667,5
30.32500,5
30.33333,6
30.34167,6
30.35000,7
30.35833,8
30.36667,8
30.37500,9
30.38333,10
30.39167,11
30.40000,12
30.40833,13
30.41667,14
30.42500,15
30.43333,16
30.44167,17
30.45000,18
30.45833,19
30.46667,19
30.47500,20
30.48333,21
30.49167,22
30.50000,23
30.50833,23
30.51667,24
30.52500,25
30.53333,25
30.54167,26
30.55000,27
30.55833,27
30.56667,28
30.57500,29
30.58333,30
30.59167,31
30.60000,32
30.60833,32
30.61667,33
30.62500,34
30.63333,34
30.64167,35
30.65000,36
30.65833,36
30.66667,37
30.67500,37
30.68333,38
30.69167,38
30.70000,39
30.70833,39
30.71667,39
30.72500,38
30.73333,38
30.74167,38
30.75000,38
30.75833,38
30.76667,38
30.77500,39
30.78333,39
30.79167,39
30.80000,39
30.80833,39
30.81667,39
30.82500,39
30.83333,38
30.84167,38
30.85000,38
30.85833,38
30.86667,38
30.87500,38
30.88333,38
30.89167,37
30.90000,37
30.90833,36
30.91667,36
30.92500,35
30.93333,35
30.94167,35
30.95000,35
30.95833,34
30.96667,34
30.97500,34
30.98333,33
30.99167,33
31.00000,33
31.00833,33
31.01667,33
31.02500,33
31.03333,32
31.04167,32
31.05000,32
31.05833,32
31.06667,32
31.07500,32
31.08333,32
31.09167,32
31.10000,32
31.10833,33
31.11667,33
31.12500,33
31.13333,33
31.14167,33
31.15000,34
31.15833,34
31.16667,34
31.17500,33
31.18333,34
31.19167,34
31.20000,34
31.20833,34
31.21667,35
31.22500,35
31.23333,35
31.24167,35
31.25000,35
31.25833,36
31.26667,36
31.27500,37
31.28333,37
31.29167,38
31.30000,39
31.30833,39
31.31667,39
31.32500,40
31.33333,41
31.34167,41
31.35000,42
31.35833,42
31.36667,43
31.37500,43
31.38333,44
31.39167,45
31.40000,45
31.40833,46
31.41667,46
31.42500,47
31.43333,48
31.44167,48
31.45000,48
31.45833,49
31.46667,50
31.47500,50
31.48333,51
31.49167,51
31.50000,52
31.50833,53
31.51667,54
31.52500,54
31.53333,55
31.54167,55
31.55000,56
31.55833,57
31.56667,57
31.57500,58
31.58333,58
31.59167,58
31.60000,58
31.60833,58
31.61667,58
31.62500,58
31.63333,59
31.64167,60
31.65000,60
31.65833,61
31.66667,61
31.67500,62
31.68333,62
31.69167,62
31.70000,62
31.70833,62
31.71667,62
31.72500,63
31.73333,63
31.74167,63
31.75000,63
31.75833,64
31.76667,64
31.77500,64
31.78333,64
31.79167,64
31.80000,64
31.80833,65
31.81667,65
31.82500,64
31.83333,64
31.84167,64
31.85000,64
31.85833,64
31.86667,65
31.87500,64
31.88333,64
31.89167,64
31.90000,64
31.90833,64
31.91667,64
31.92500,65
31.93333,65
31.94167,65
31.95000,65
31.95833,64
31.96667,64
31.97500,64
31.98333,64
31.99167,64
32.00000,64
32.00833,64
32.01667,63
32.02500,63
32.03333,62
32.04167,62
32.05000,62
32.05833,62
32.06667,61
32.07500,61
32.08333,61
32.09167,61
32.10000,61
32.10833,61
32.11667,61
32.12500,62
32.13333,62
32.14167,62
32.15000,62
32.15833,62
32.16667,61
32.17500,61
32.18333,61
32.19167,62
32.20000,62
32.20833,62
32.21667,61
32.22500,61
32.23333,60
32.24167,60
32.25000,61
32.25833,61
32.26667,61
32.27500,61
32.28333,60
32.29167,60
32.30000,60
32.30833,60
32.31667,60
32.32500,60
32.33333,60
32.34167,61
32.35000,61
32.35833,60
32.36667,60
32.37500,60
32.38333,60
32.39167,60
32.40000,60
32.40833,60
32.41667,60
32.42500,60
32.43333,60
32.44167,60
32.45000,59
32.45833,59
32.46667,59
32.47500,59
32.48333,59
32.49167,60
32.50000,60
32.50833,60
32.51667,60
32.52500,60
32.53333,60
32.54167,61
32.55000,61
32.55833,61
32.56667,61
32.57500,61
32.58333,61
32.59167,61
32.60000,60
32.60833,60
32.61667,61
32.62500,61
32.63333,60
32.64167,60
32.65000,60
32.65833,60
32.66667,60
32.67500,60
32.68333,60
32.69167,60
32.70000,60
32.70833,60
32.71667,60
32.72500,61
32.73333,61
32.74167,61
32.75000,61
32.75833,61
32.76667,61
32.77500,61
32.78333,61
32.79167,61
32.80000,60
32.80833,60
32.81667,60
32.82500,60
32.83333,60
32.84167,60
32.85000,60
32.85833,60
32.86667,60
32.87500,60
32.88333,60
32.89167,59
32.90000,59
32.90833,60
32.91667,60
32.92500,61
32.93333,61
32.94167,61
32.95000,61
32.95833,62
32.96667,62
32.97500,62
32.98333,62
32.99167,61
33.00000,61
33.00833,61
33.01667,61
33.02500,61
33.03333,61
33.04167,61
33.05000,61
33.05833,62
33.06667,62
33.07500,62
33.08333,62
33.09167,62
33.10000,62
33.10833,62
33.11667,62
33.12500,62
33.13333,62
33.14167,62
33.15000,62
33.15833,61
33.16667,61
33.17500,62
33.18333,62
33.19167,62
33.20000,62
33.20833,62
33.21667,62
33.22500,62
33.23333,62
33.24167,62
33.25000,62
33.25833,62
33.26667,62
33.27500,61
33.28333,61
33.29167,61
33.30000,61
33.30833,61
33.31667,61
33.32500,61
33.33333,61
33.34167,61
33.35000,61
33.35833,61
33.36667,61
33.37500,61
33.38333,62
33.39167,62
33.40000,62
33.40833,62
33.41667,62
33.42500,62
33.43333,61
33.44167,61
33.45000,62
33.45833,62
33.46667,61
33.47500,62
33.48333,62
33.49167,62
33.50000,61
33.50833,61
33.51667,61
33.52500,61
33.53333,60
33.54167,60
33.55000,60
33.55833,60
33.56667,61
33.57500,61
33.58333,61
33.59167,61
33.60000,61
33.60833,61
33.61667,61
33.62500,62
33.63333,62
33.64167,62
33.65000,62
33.65833,62
33.66667,61
33.67500,61
33.68333,61
33.69167,61
33.70000,61
33.70833,60
33.71667,60
33.72500,60
33.73333,60
33.74167,60
33.75000,60
33.75833,60
33.76667,60
33.77500,59
33.78333,59
33.79167,59
33.80000,59
33.80833,59
33.81667,60
33.82500,60
33.83333,60
33.84167,60
33.85000,60
33.85833,60
33.86667,60
33.87500,60
33.88333,60
33.89167,60
33.90000,60
33.90833,60
33.91667,60
33.92500,60
33.93333,60
33.94167,60
33.95000,60
33.95833,59
33.96667,59
33.97500,59
33.98333,59
33.99167,59
34.00000,59
34.00833,59
34.01667,59
34.02500,59
34.03333,60
34.04167,60
34.05000,60
34.05833,61
34.06667,61
34.07500,61
34.08333,61
34.09167,60
34.10000,60
34.10833,60
34.11667,60
34.12500,60
34.13333,60
34.14167,60
34.15000,60
34.15833,60
34.16667,60
34.17500,60
34.18333,60
34.19167,60
34.20000,60
34.20833,61
34.21667,61
34.22500,61
34.23333,60
34.24167,60
34.25000,60
34.25833,60
34.26667,60
34.27500,60
34.28333,61
34.29167,61
34.30000,61
34.30833,61
34.31667,61
34.32500,61
34.33333,61
34.34167,61
34.35000,61
34.35833,62
34.36667,62
34.37500,61
34.38333,61
34.39167,61
34.40000,61
34.40833,61
34.41667,61
34.42500,61
34.43333,62
34.44167,62
34.45000,62
34.45833,62
34.46667,62
34.47500,62
34.48333,62
34.49167,62
34.50000,62
34.50833,62
34.51667,62
34.52500,62
34.53333,63
34.54167,63
34.55000,62
34.55833,62
34.56667,62
34.57500,62
34.58333,62
34.59167,62
34.60000,61
34.60833,61
34.61667,61
34.62500,62
34.63333,62
34.64167,62
34.65000,62
34.65833,62
34.66667,62
34.67500,62
34.68333,62
34.69167,63
34.70000,63
34.70833,63
34.71667,62
34.72500,62
34.73333,62
34.74167,63
34.75000,63
34.75833,62
34.76667,62
34.77500,62
34.78333,61
34.79167,61
34.80000,61
34.80833,62
34.81667,62
34.82500,62
34.83333,62
34.84167,62
34.85000,62
34.85833,62
34.86667,62
34.87500,63
34.88333,63
34.89167,63
34.90000,63
34.90833,62
34.91667,62
34.92500,62
34.93333,62
34.94167,62
34.95000,62
34.95833,63
34.96667,63
34.97500,62
34.98333,62
34.99167,62
35.00000,61
35.00833,61
35.01667,61
35.02500,61
35.03333,61
35.04167,61
35.05000,61
35.05833,61
35.06667,61
35.07500,62
35.08333,62
35.09167,62
35.10000,62
35.10833,62
35.11667,62
35.12500,62
35.13333,62
35.14167,62
35.15000,63
35.15833,63
35.16667,63
35.17500,63
35.18333,63
35.19167,62
35.20000,62
35.20833,62
35.21667,62
35.22500,62
35.23333,62
35.24167,62
35.25000,62
35.25833,62
35.26667,62
35.27500,63
35.28333,63
35.29167,63
35.30000,63
35.30833,63
35.31667,63
35.32500,63
35.33333,63
35.34167,63
35.35000,63
35.35833,63
35.36667,63
35.37500,63
35.38333,63
35.39167,63
35.40000,62
35.40833,62
35.41667,62
35.42500,62
35.43333,62
35.44167,62
35.45000,62
35.45833,62
35.46667,62
35.47500,62
35.48333,62
35.49167,62
35.50000,61
35.50833,61
35.51667,62
35.52500,62
35.53333,62
35.54167,62
35.55000,63
35.55833,63
35.56667,63
35.57500,63
35.58333,63
35.59167,63
35.60000,62
35.60833,62
35.61667,62
35.62500,62
35.63333,62
35.64167,62
35.65000,62
35.65833,62
35.66667,62
35.67500,61
35.68333,62
35.69167,62
35.70000,62
35.70833,62
35.71667,62
35.72500,61
35.73333,62
35.74167,62
35.75000,62
35.75833,62
35.76667,62
35.77500,62
35.78333,62
35.79167,62
35.80000,63
35.80833,63
35.81667,63
35.82500,63
35.83333,63
35.84167,63
35.85000,63
35.85833,63
35.86667,63
35.87500,63
35.88333,63
35.89167,62
35.90000,63
35.90833,63
35.91667,63
35.92500,63
35.93333,63
35.94167,63
35.95000,63
35.95833,64
35.96667,63
35.97500,63
35.98333,63
35.99167,63
36.00000,63
36.00833,63
36.01667,63
36.02500,63
36.03333,63
36.04167,64
36.05000,64
36.05833,64
36.06667,64
36.07500,63
36.08333,63
36.09167,63
36.10000,63
36.10833,63
36.11667,63
36.12500,63
36.13333,63
36.14167,63
36.15000,63
36.15833,63
36.16667,63
36.17500,63
36.18333,63
36.19167,63
36.20000,63
36.20833,63
36.21667,63
36.22500,63
36.23333,63
36.24167,63
36.25000,63
36.25833,62
36.26667,62
36.27500,62
36.28333,62
36.29167,62
36.30000,62
36.30833,62
36.31667,62
36.32500,62
36.33333,62
36.34167,62
36.35000,62
36.35833,62
36.36667,62
36.37500,63
36.38333,63
36.39167,62
36.40000,62
36.40833,62
36.41667,62
36.42500,62
36.43333,62
36.44167,62
36.45000,61
36.45833,62
36.46667,62
36.47500,62
36.48333,62
36.49167,62
36.50000,62
36.50833,62
36.51667,63
36.52500,63
36.53333,63
36.54167,62
36.55000,62
36.55833,62
36.56667,62
36.57500,62
36.58333,62
36.59167,62
36.60000,63
36.60833,63
36.61667,63
36.62500,63
36.63333,63
36.64167,63
36.65000,63
36.65833,63
36.66667,63
36.67500,63
36.68333,62
36.69167,62
36.70000,62
36.70833,62
36.71667,62
36.72500,62
36.73333,62
36.74167,63
36.75000,63
36.75833,63
36.76667,63
36.77500,64
36.78333,64
36.79167,64
36.80000,64
36.80833,65
36.81667,65
36.82500,65
36.83333,65
36.84167,65
36.85000,64
36.85833,64
36.86667,64
36.87500,64
36.88333,64
36.89167,64
36.90000,64
36.90833,64
36.91667,64
36.92500,64
36.93333,64
36.94167,63
36.95000,63
36.95833,63
36.96667,63
36.97500,64
36.98333,64
36.99167,64
37.00000,64
37.00833,64
37.01667,64
37.02500,64
37.03333,64
37.04167,64
37.05000,64
37.05833,64
37.06667,64
37.07500,64
37.08333,64
37.09167,64
37.10000,64
37.10833,64
37.11667,64
37.12500,64
37.13333,64
37.14167,64
37.15000,64
37.15833,64
37.16667,64
37.17500,64
37.18333,64
37.19167,64
37.20000,64
37.20833,64
37.21667,64
37.22500,65
37.23333,65
37.24167,65
37.25000,65
37.25833,66
37.26667,66
37.27500,66
37.28333,66
37.29167,65
37.30000,65
37.30833,65
37.31667,64
37.32500,64
37.33333,64
37.34167,64
37.35000,64
37.35833,64
37.36667,64
37.37500,64
37.38333,65
37.39167,65
37.40000,65
37.40833,66
37.41667,66
37.42500,66
37.43333,66
37.44167,65
37.45000,65
37.45833,65
37.46667,65
37.47500,65
37.48333,64
37.49167,65
37.50000,65
37.50833,65
37.51667,65
37.52500,65
37.53333,65
37.54167,65
37.55000,65
37.55833,65
37.56667,65
37.57500,65
37.58333,65
37.59167,65
37.60000,65
37.60833,65
37.61667,66
37.62500,66
37.63333,66
37.64167,66
37.65000,66
37.65833,66
37.66667,65
37.67500,65
37.68333,65
37.69167,65
37.70000,65
37.70833,65
37.71667,65
37.72500,65
37.73333,65
37.74167,65
37.75000,65
37.75833,65
37.76667,65
37.77500,65
37.78333,65
37.79167,65
37.80000,65
37.80833,65
37.81667,65
37.82500,66
37.83333,66
37.84167,65
37.85000,65
37.85833,65
37.86667,64
37.87500,64
37.88333,65
37.89167,65
37.90000,66
37.90833,66
37.91667,66
37.92500,66
37.93333,66
37.94167,65
37.95000,65
37.95833,65
37.96667,65
37.97500,65
37.98333,65
37.99167,65
38.00000,65
38.00833,66
38.01667,66
38.02500,66
38.03333,66
38.04167,66
38.05000,66
38.05833,66
38.06667,66
38.07500,67
38.08333,67
38.09167,67
38.10000,66
38.10833,66
38.11667,66
38.12500,66
38.13333,66
38.14167,65
38.15000,65
38.15833,65
38.16667,65
38.17500,65
38.18333,65
38.19167,65
38.20000,65
38.20833,65
38.21667,65
38.22500,65
38.23333,65
38.24167,66
38.25000,66
38.25833,66
38.26667,66
38.27500,66
38.28333,66
38.29167,66
38.30000,66
38.30833,66
38.31667,66
38.32500,67
38.33333,67
38.34167,67
38.35000,67
38.35833,67
38.36667,66
38.37500,65
38.38333,65
38.39167,65
38.40000,65
38.40833,66
38.41667,66
38.42500,65
38.43333,65
38.44167,66
38.45000,66
38.45833,66
38.46667,66
38.47500,66
38.48333,66
38.49167,66
38.50000,66
38.50833,66
38.51667,66
38.52500,66
38.53333,66
38.54167,66
38.55000,66
38.55833,66
38.56667,66
38.57500,66
38.58333,66
38.59167,66
38.60000,66
38.60833,66
38.61667,66
38.62500,66
38.63333,66
38.64167,66
38.65000,66
38.65833,66
38.66667,66
38.67500,66
38.68333,66
38.69167,66
38.70000,66
38.70833,66
38.71667,66
38.72500,67
38.73333,67
38.74167,67
38.75000,67
38.75833,67
38.76667,67
38.77500,66
38.78333,66
38.79167,66
38.80000,66
38.80833,65
38.81667,65
38.82500,65
38.83333,65
38.84167,66
38.85000,66
38.85833,66
38.86667,66
38.87500,66
38.88333,66
38.89167,65
38.90000,65
38.90833,65
38.91667,65
38.92500,65
38.93333,65
38.94167,66
38.95000,66
38.95833,67
38.96667,67
38.97500,67
38.98333,66
38.99167,66
39.00000,66
39.00833,66
39.01667,66
39.02500,66
39.03333,66
39.04167,66
39.05000,66
39.05833,66
39.06667,66
39.07500,66
39.08333,66
39.09167,66
39.10000,66
39.10833,66
39.11667,66
39.12500,66
39.13333,66
39.14167,66
39.15000,66
39.15833,66
39.16667,66
39.17500,66
39.18333,66
39.19167,66
39.20000,66
39.20833,66
39.21667,66
39.22500,65
39.23333,65
39.24167,65
39.25000,65
39.25833,65
39.26667,65
39.27500,65
39.28333,65
39.29167,66
39.30000,66
39.30833,67
39.31667,67
39.32500,67
39.33333,67
39.34167,67
39.35000,67
39.35833,67
39.36667,67
39.37500,67
39.38333,67
39.39167,67
39.40000,67
39.40833,67
39.41667,67
39.42500,67
39.43333,66
39.44167,66
39.45000,66
39.45833,66
39.46667,66
39.47500,67
39.48333,67
39.49167,67
39.50000,67
39.50833,67
39.51667,67
39.52500,67
39.53333,67
39.54167,67
39.55000,67
39.55833,67
39.56667,66
39.57500,66
39.58333,66
39.59167,66
39.60000,66
39.60833,66
39.61667,67
39.62500,67
39.63333,67
39.64167,67
39.65000,67
39.65833,68
39.66667,68
39.67500,68
39.68333,68
39.69167,68
39.70000,68
39.70833,68
39.71667,67
39.72500,67
39.73333,67
39.74167,67
39.75000,68
39.75833,68
39.76667,68
39.77500,67
39.78333,68
39.79167,68
39.80000,68
39.80833,68
39.81667,68
39.82500,67
39.83333,67
39.84167,66
39.85000,66
39.85833,66
39.86667,67
39.87500,67
39.88333,67
39.89167,67
39.90000,68
39.90833,68
39.91667,68
39.92500,68
39.93333,68
39.94167,69
39.95000,68
39.95833,68
39.96667,68
39.97500,68
39.98333,68
39.99167,68
40.00000,68

