[Header]
Application Name,LabSolutions
Version,5.97 SP1
Data File Name,C:\Users\cremerlab\Desktop\griffin\2021-03-31_NCM3722_NCglucose_turnover\2021-03-31_NCM3722_turnover_batch_3312021_007_028.lcd
Output Date,4/1/2021
Output Time,3:24:19 PM

[File Information]
Type,Data File
Generated,4/1/2021 2:43:59 PM
Generated by,System Administrator
Modified,4/1/2021 3:24:19 PM
Modified by,System Administrator

[Sample Information]
Operator Name,System Administrator
Acquired,4/1/2021 2:44:18 PM
Sample Type,1:Standard
Level,7
Sample Name,2021-03-31_NCM3722_NCglucose_replicate_04_timepoint_007
Sample ID,007
ISTD Amount1,1
ISTD Amount2,1
ISTD Amount3,1
ISTD Amount4,1
ISTD Amount5,1
ISTD Amount6,1
ISTD Amount7,1
ISTD Amount8,1
ISTD Amount9,1
ISTD Amount10,1
ISTD Amount11,1
ISTD Amount12,1
ISTD Amount13,1
ISTD Amount14,1
ISTD Amount15,1
ISTD Amount16,1
ISTD Amount17,1
ISTD Amount18,1
ISTD Amount19,1
ISTD Amount20,1
ISTD Amount21,1
ISTD Amount22,1
ISTD Amount23,1
ISTD Amount24,1
ISTD Amount25,1
ISTD Amount26,1
ISTD Amount27,1
ISTD Amount28,1
ISTD Amount29,1
ISTD Amount30,1
ISTD Amount31,1
ISTD Amount32,1
Sample Amount,1
Dilution Factor,1
Vial#,43
Injection Volume,20

[Original Files]
Data File,C:\Users\cremerlab\Desktop\griffin\2021-03-31_NCM3722_NCglucose_turnover\2021-03-31_NCM3722_turnover_batch_3312021_007_028.lcd
Method File,C:\LabSolutions\Data\Project1\organicacidsetc2.lcm
Batch File,C:\Users\cremerlab\Desktop\griffin\2021-03-31_NCM3722_NCglucose_turnover\2021-03-31_NCM3722_turnover_batch.lcb
Report Format File,c:\LabSolutions\System\DEFAULT.lsr

[File Description]


[Configuration]
Instrument Name,HPLC-PC-Instrument1
Instrument #,1
Line #,1
# of Detectors,2
Detector ID,Detector A,Detector B
Detector Name,Detector A,Detector B
# of Channels,1,1

[Peak Table(Detector A)]
# of Peaks,0

[Peak Table(Detector B)]
# of Peaks,5
Peak#,R.Time,I.Time,F.Time,Area,Height,A/H,Conc.,Mark,ID#,Name,k',Plate #,Plate Ht.,Tailing,Resolution,Sep.Factor,Area Ratio,Height Ratio,Conc. %,Norm Conc.
1,11.048,10.758,12.333,1075405,63571,16.916,23.303,   ,,,0.000,11346,13.220,1.353,0.000,0.000,0,0,0.000,0.000
2,15.071,14.108,15.375,2764927,108616,25.456,59.914,   ,,,0.364,7662,19.576,0.000,7.290,0.000,0,0,0.000,0.000
3,15.633,15.375,18.317,763737,32025,23.848,16.550, V ,,,0.415,9514,15.766,0.000,0.846,1.140,0,0,0.000,0.000
4,19.008,18.708,19.542,1945,94,20.786,0.042,   ,,,0.720,16891,8.880,1.197,5.505,1.736,0,0,0.000,0.000
5,25.054,24.567,25.667,8809,317,27.770,0.191,   ,,,1.268,18223,8.232,1.068,9.109,1.759,0,0,0.000,0.000

[LC Chromatogram(Detector B-Ch1)]
Interval(msec),500
# of Points,4801
Start Time(min),0.000
End Time(min),40.000
Intensity Units,mV
Intensity Multiplier,0.001
R.Time (min),Intensity
0.00000,2
0.00833,2
0.01667,0
0.02500,0
0.03333,0
0.04167,-0
0.05000,-1
0.05833,-1
0.06667,-2
0.07500,-2
0.08333,-1
0.09167,-1
0.10000,-1
0.10833,-0
0.11667,0
0.12500,0
0.13333,0
0.14167,0
0.15000,0
0.15833,-0
0.16667,-0
0.17500,-1
0.18333,-1
0.19167,-1
0.20000,-1
0.20833,-1
0.21667,-0
0.22500,0
0.23333,1
0.24167,1
0.25000,2
0.25833,2
0.26667,3
0.27500,3
0.28333,3
0.29167,3
0.30000,3
0.30833,2
0.31667,2
0.32500,2
0.33333,2
0.34167,2
0.35000,2
0.35833,2
0.36667,1
0.37500,1
0.38333,0
0.39167,0
0.40000,0
0.40833,0
0.41667,0
0.42500,-0
0.43333,-0
0.44167,0
0.45000,0
0.45833,0
0.46667,1
0.47500,1
0.48333,1
0.49167,1
0.50000,1
0.50833,2
0.51667,2
0.52500,3
0.53333,3
0.54167,4
0.55000,4
0.55833,5
0.56667,6
0.57500,6
0.58333,6
0.59167,7
0.60000,7
0.60833,6
0.61667,6
0.62500,6
0.63333,5
0.64167,4
0.65000,2
0.65833,1
0.66667,-0
0.67500,-1
0.68333,-2
0.69167,-3
0.70000,-4
0.70833,-5
0.71667,-5
0.72500,-5
0.73333,-5
0.74167,-5
0.75000,-6
0.75833,-6
0.76667,-6
0.77500,-5
0.78333,-5
0.79167,-5
0.80000,-4
0.80833,-4
0.81667,-4
0.82500,-3
0.83333,-3
0.84167,-2
0.85000,-2
0.85833,-1
0.86667,-1
0.87500,-0
0.88333,-0
0.89167,0
0.90000,0
0.90833,1
0.91667,1
0.92500,1
0.93333,1
0.94167,1
0.95000,1
0.95833,1
0.96667,1
0.97500,0
0.98333,1
0.99167,1
1.00000,1
1.00833,0
1.01667,0
1.02500,0
1.03333,0
1.04167,0
1.05000,0
1.05833,0
1.06667,0
1.07500,0
1.08333,1
1.09167,1
1.10000,1
1.10833,1
1.11667,2
1.12500,2
1.13333,2
1.14167,2
1.15000,2
1.15833,2
1.16667,2
1.17500,2
1.18333,2
1.19167,2
1.20000,2
1.20833,2
1.21667,2
1.22500,2
1.23333,2
1.24167,2
1.25000,2
1.25833,2
1.26667,1
1.27500,1
1.28333,1
1.29167,1
1.30000,1
1.30833,1
1.31667,1
1.32500,2
1.33333,2
1.34167,3
1.35000,3
1.35833,3
1.36667,3
1.37500,3
1.38333,3
1.39167,3
1.40000,3
1.40833,3
1.41667,3
1.42500,3
1.43333,3
1.44167,3
1.45000,3
1.45833,3
1.46667,3
1.47500,3
1.48333,3
1.49167,3
1.50000,3
1.50833,2
1.51667,2
1.52500,2
1.53333,2
1.54167,2
1.55000,2
1.55833,2
1.56667,2
1.57500,3
1.58333,3
1.59167,3
1.60000,3
1.60833,4
1.61667,4
1.62500,4
1.63333,5
1.64167,5
1.65000,5
1.65833,5
1.66667,5
1.67500,5
1.68333,5
1.69167,5
1.70000,5
1.70833,5
1.71667,6
1.72500,6
1.73333,6
1.74167,6
1.75000,6
1.75833,6
1.76667,6
1.77500,6
1.78333,6
1.79167,6
1.80000,6
1.80833,6
1.81667,6
1.82500,7
1.83333,7
1.84167,7
1.85000,7
1.85833,7
1.86667,7
1.87500,7
1.88333,7
1.89167,7
1.90000,7
1.90833,7
1.91667,7
1.92500,8
1.93333,8
1.94167,8
1.95000,7
1.95833,7
1.96667,7
1.97500,7
1.98333,7
1.99167,7
2.00000,7
2.00833,7
2.01667,7
2.02500,7
2.03333,7
2.04167,8
2.05000,8
2.05833,8
2.06667,8
2.07500,8
2.08333,8
2.09167,8
2.10000,8
2.10833,8
2.11667,8
2.12500,8
2.13333,8
2.14167,8
2.15000,8
2.15833,8
2.16667,7
2.17500,7
2.18333,7
2.19167,7
2.20000,7
2.20833,7
2.21667,7
2.22500,7
2.23333,7
2.24167,7
2.25000,7
2.25833,7
2.26667,7
2.27500,6
2.28333,7
2.29167,7
2.30000,7
2.30833,7
2.31667,7
2.32500,8
2.33333,8
2.34167,7
2.35000,7
2.35833,7
2.36667,7
2.37500,7
2.38333,7
2.39167,7
2.40000,7
2.40833,7
2.41667,7
2.42500,6
2.43333,6
2.44167,6
2.45000,5
2.45833,5
2.46667,5
2.47500,5
2.48333,5
2.49167,5
2.50000,5
2.50833,5
2.51667,5
2.52500,5
2.53333,5
2.54167,6
2.55000,6
2.55833,6
2.56667,6
2.57500,6
2.58333,6
2.59167,6
2.60000,6
2.60833,5
2.61667,5
2.62500,5
2.63333,5
2.64167,4
2.65000,4
2.65833,4
2.66667,4
2.67500,3
2.68333,3
2.69167,3
2.70000,3
2.70833,3
2.71667,3
2.72500,3
2.73333,4
2.74167,4
2.75000,4
2.75833,5
2.76667,5
2.77500,5
2.78333,4
2.79167,4
2.80000,4
2.80833,4
2.81667,4
2.82500,4
2.83333,4
2.84167,4
2.85000,4
2.85833,3
2.86667,3
2.87500,3
2.88333,3
2.89167,3
2.90000,3
2.90833,3
2.91667,3
2.92500,3
2.93333,3
2.94167,3
2.95000,3
2.95833,4
2.96667,4
2.97500,4
2.98333,4
2.99167,4
3.00000,5
3.00833,5
3.01667,5
3.02500,5
3.03333,5
3.04167,5
3.05000,5
3.05833,5
3.06667,5
3.07500,5
3.08333,4
3.09167,4
3.10000,4
3.10833,4
3.11667,4
3.12500,5
3.13333,5
3.14167,5
3.15000,5
3.15833,4
3.16667,4
3.17500,4
3.18333,4
3.19167,4
3.20000,4
3.20833,4
3.21667,4
3.22500,4
3.23333,4
3.24167,4
3.25000,4
3.25833,4
3.26667,4
3.27500,4
3.28333,4
3.29167,4
3.30000,5
3.30833,5
3.31667,5
3.32500,6
3.33333,6
3.34167,6
3.35000,5
3.35833,5
3.36667,5
3.37500,5
3.38333,5
3.39167,5
3.40000,4
3.40833,5
3.41667,5
3.42500,5
3.43333,5
3.44167,4
3.45000,4
3.45833,4
3.46667,5
3.47500,4
3.48333,4
3.49167,4
3.50000,5
3.50833,5
3.51667,5
3.52500,5
3.53333,6
3.54167,6
3.55000,6
3.55833,6
3.56667,6
3.57500,6
3.58333,6
3.59167,6
3.60000,6
3.60833,5
3.61667,5
3.62500,5
3.63333,5
3.64167,5
3.65000,6
3.65833,6
3.66667,6
3.67500,7
3.68333,6
3.69167,6
3.70000,6
3.70833,6
3.71667,6
3.72500,6
3.73333,7
3.74167,7
3.75000,7
3.75833,8
3.76667,8
3.77500,8
3.78333,8
3.79167,8
3.80000,8
3.80833,8
3.81667,7
3.82500,7
3.83333,7
3.84167,7
3.85000,7
3.85833,7
3.86667,7
3.87500,8
3.88333,8
3.89167,9
3.90000,9
3.90833,9
3.91667,9
3.92500,9
3.93333,9
3.94167,9
3.95000,9
3.95833,9
3.96667,10
3.97500,10
3.98333,10
3.99167,10
4.00000,10
4.00833,10
4.01667,10
4.02500,10
4.03333,10
4.04167,10
4.05000,10
4.05833,10
4.06667,10
4.07500,10
4.08333,10
4.09167,10
4.10000,10
4.10833,10
4.11667,10
4.12500,10
4.13333,10
4.14167,10
4.15000,10
4.15833,10
4.16667,10
4.17500,10
4.18333,10
4.19167,10
4.20000,10
4.20833,10
4.21667,10
4.22500,10
4.23333,10
4.24167,10
4.25000,10
4.25833,10
4.26667,10
4.27500,10
4.28333,10
4.29167,10
4.30000,9
4.30833,9
4.31667,9
4.32500,9
4.33333,9
4.34167,9
4.35000,10
4.35833,10
4.36667,10
4.37500,10
4.38333,10
4.39167,10
4.40000,10
4.40833,10
4.41667,9
4.42500,9
4.43333,9
4.44167,10
4.45000,10
4.45833,10
4.46667,10
4.47500,10
4.48333,10
4.49167,10
4.50000,10
4.50833,10
4.51667,9
4.52500,9
4.53333,9
4.54167,9
4.55000,9
4.55833,9
4.56667,9
4.57500,9
4.58333,9
4.59167,9
4.60000,9
4.60833,9
4.61667,9
4.62500,9
4.63333,8
4.64167,8
4.65000,8
4.65833,8
4.66667,8
4.67500,8
4.68333,8
4.69167,9
4.70000,9
4.70833,9
4.71667,9
4.72500,9
4.73333,9
4.74167,9
4.75000,9
4.75833,9
4.76667,9
4.77500,8
4.78333,8
4.79167,7
4.80000,7
4.80833,8
4.81667,8
4.82500,8
4.83333,8
4.84167,8
4.85000,7
4.85833,8
4.86667,8
4.87500,8
4.88333,9
4.89167,9
4.90000,9
4.90833,9
4.91667,9
4.92500,9
4.93333,9
4.94167,9
4.95000,9
4.95833,9
4.96667,9
4.97500,8
4.98333,9
4.99167,8
5.00000,8
5.00833,8
5.01667,8
5.02500,8
5.03333,8
5.04167,8
5.05000,8
5.05833,8
5.06667,8
5.07500,8
5.08333,8
5.09167,8
5.10000,8
5.10833,8
5.11667,8
5.12500,8
5.13333,8
5.14167,8
5.15000,8
5.15833,8
5.16667,8
5.17500,8
5.18333,8
5.19167,8
5.20000,8
5.20833,8
5.21667,8
5.22500,7
5.23333,7
5.24167,8
5.25000,8
5.25833,8
5.26667,8
5.27500,8
5.28333,8
5.29167,8
5.30000,9
5.30833,8
5.31667,9
5.32500,9
5.33333,9
5.34167,9
5.35000,9
5.35833,9
5.36667,9
5.37500,9
5.38333,9
5.39167,9
5.40000,9
5.40833,9
5.41667,9
5.42500,9
5.43333,9
5.44167,9
5.45000,9
5.45833,9
5.46667,9
5.47500,9
5.48333,9
5.49167,9
5.50000,9
5.50833,9
5.51667,9
5.52500,9
5.53333,9
5.54167,9
5.55000,9
5.55833,9
5.56667,9
5.57500,10
5.58333,10
5.59167,10
5.60000,10
5.60833,9
5.61667,9
5.62500,9
5.63333,9
5.64167,10
5.65000,9
5.65833,9
5.66667,10
5.67500,10
5.68333,10
5.69167,10
5.70000,10
5.70833,10
5.71667,10
5.72500,10
5.73333,10
5.74167,10
5.75000,10
5.75833,10
5.76667,10
5.77500,10
5.78333,10
5.79167,10
5.80000,11
5.80833,11
5.81667,11
5.82500,11
5.83333,10
5.84167,10
5.85000,10
5.85833,10
5.86667,10
5.87500,10
5.88333,10
5.89167,9
5.90000,9
5.90833,9
5.91667,9
5.92500,9
5.93333,10
5.94167,10
5.95000,10
5.95833,10
5.96667,10
5.97500,10
5.98333,10
5.99167,10
6.00000,10
6.00833,10
6.01667,10
6.02500,10
6.03333,10
6.04167,10
6.05000,10
6.05833,10
6.06667,11
6.07500,11
6.08333,11
6.09167,11
6.10000,11
6.10833,11
6.11667,11
6.12500,11
6.13333,11
6.14167,11
6.15000,10
6.15833,10
6.16667,10
6.17500,10
6.18333,10
6.19167,10
6.20000,10
6.20833,10
6.21667,11
6.22500,11
6.23333,11
6.24167,11
6.25000,11
6.25833,11
6.26667,11
6.27500,10
6.28333,10
6.29167,11
6.30000,11
6.30833,11
6.31667,11
6.32500,11
6.33333,11
6.34167,11
6.35000,11
6.35833,11
6.36667,11
6.37500,11
6.38333,11
6.39167,11
6.40000,11
6.40833,11
6.41667,11
6.42500,12
6.43333,12
6.44167,12
6.45000,12
6.45833,12
6.46667,12
6.47500,13
6.48333,13
6.49167,12
6.50000,12
6.50833,12
6.51667,12
6.52500,12
6.53333,12
6.54167,12
6.55000,12
6.55833,12
6.56667,12
6.57500,11
6.58333,11
6.59167,11
6.60000,10
6.60833,11
6.61667,11
6.62500,10
6.63333,10
6.64167,11
6.65000,11
6.65833,11
6.66667,11
6.67500,11
6.68333,11
6.69167,12
6.70000,12
6.70833,12
6.71667,12
6.72500,12
6.73333,12
6.74167,12
6.75000,12
6.75833,12
6.76667,12
6.77500,12
6.78333,12
6.79167,12
6.80000,12
6.80833,12
6.81667,12
6.82500,12
6.83333,12
6.84167,12
6.85000,12
6.85833,12
6.86667,12
6.87500,12
6.88333,12
6.89167,12
6.90000,12
6.90833,12
6.91667,13
6.92500,13
6.93333,13
6.94167,13
6.95000,13
6.95833,13
6.96667,14
6.97500,14
6.98333,14
6.99167,13
7.00000,13
7.00833,13
7.01667,12
7.02500,12
7.03333,13
7.04167,13
7.05000,12
7.05833,12
7.06667,12
7.07500,12
7.08333,12
7.09167,12
7.10000,11
7.10833,12
7.11667,12
7.12500,12
7.13333,13
7.14167,13
7.15000,13
7.15833,13
7.16667,13
7.17500,13
7.18333,13
7.19167,13
7.20000,13
7.20833,13
7.21667,13
7.22500,13
7.23333,13
7.24167,13
7.25000,13
7.25833,12
7.26667,12
7.27500,12
7.28333,12
7.29167,12
7.30000,12
7.30833,12
7.31667,12
7.32500,12
7.33333,13
7.34167,13
7.35000,13
7.35833,13
7.36667,13
7.37500,13
7.38333,13
7.39167,14
7.40000,14
7.40833,14
7.41667,13
7.42500,13
7.43333,13
7.44167,13
7.45000,12
7.45833,12
7.46667,12
7.47500,12
7.48333,13
7.49167,13
7.50000,13
7.50833,13
7.51667,13
7.52500,13
7.53333,13
7.54167,12
7.55000,12
7.55833,12
7.56667,12
7.57500,12
7.58333,12
7.59167,13
7.60000,13
7.60833,13
7.61667,13
7.62500,13
7.63333,13
7.64167,13
7.65000,13
7.65833,13
7.66667,13
7.67500,12
7.68333,12
7.69167,12
7.70000,12
7.70833,13
7.71667,12
7.72500,12
7.73333,12
7.74167,12
7.75000,11
7.75833,11
7.76667,12
7.77500,12
7.78333,13
7.79167,13
7.80000,13
7.80833,13
7.81667,14
7.82500,14
7.83333,15
7.84167,14
7.85000,14
7.85833,14
7.86667,14
7.87500,14
7.88333,15
7.89167,15
7.90000,15
7.90833,14
7.91667,14
7.92500,14
7.93333,14
7.94167,13
7.95000,14
7.95833,13
7.96667,13
7.97500,13
7.98333,13
7.99167,13
8.00000,13
8.00833,13
8.01667,14
8.02500,14
8.03333,14
8.04167,14
8.05000,14
8.05833,13
8.06667,13
8.07500,13
8.08333,13
8.09167,13
8.10000,13
8.10833,13
8.11667,13
8.12500,13
8.13333,13
8.14167,13
8.15000,13
8.15833,13
8.16667,14
8.17500,14
8.18333,14
8.19167,14
8.20000,14
8.20833,14
8.21667,14
8.22500,15
8.23333,15
8.24167,15
8.25000,15
8.25833,15
8.26667,15
8.27500,15
8.28333,15
8.29167,15
8.30000,15
8.30833,15
8.31667,15
8.32500,15
8.33333,15
8.34167,15
8.35000,15
8.35833,15
8.36667,15
8.37500,15
8.38333,15
8.39167,15
8.40000,15
8.40833,15
8.41667,15
8.42500,15
8.43333,15
8.44167,15
8.45000,15
8.45833,15
8.46667,14
8.47500,14
8.48333,14
8.49167,15
8.50000,15
8.50833,15
8.51667,15
8.52500,16
8.53333,16
8.54167,16
8.55000,16
8.55833,16
8.56667,16
8.57500,16
8.58333,15
8.59167,15
8.60000,15
8.60833,16
8.61667,16
8.62500,15
8.63333,15
8.64167,15
8.65000,15
8.65833,15
8.66667,15
8.67500,15
8.68333,15
8.69167,15
8.70000,16
8.70833,16
8.71667,16
8.72500,16
8.73333,16
8.74167,16
8.75000,16
8.75833,16
8.76667,16
8.77500,16
8.78333,16
8.79167,16
8.80000,16
8.80833,16
8.81667,16
8.82500,16
8.83333,16
8.84167,16
8.85000,16
8.85833,16
8.86667,16
8.87500,15
8.88333,15
8.89167,15
8.90000,15
8.90833,15
8.91667,15
8.92500,16
8.93333,16
8.94167,16
8.95000,16
8.95833,15
8.96667,15
8.97500,16
8.98333,16
8.99167,16
9.00000,16
9.00833,16
9.01667,16
9.02500,16
9.03333,16
9.04167,16
9.05000,16
9.05833,16
9.06667,16
9.07500,16
9.08333,16
9.09167,16
9.10000,16
9.10833,17
9.11667,17
9.12500,17
9.13333,17
9.14167,16
9.15000,16
9.15833,16
9.16667,16
9.17500,16
9.18333,17
9.19167,17
9.20000,17
9.20833,17
9.21667,17
9.22500,17
9.23333,17
9.24167,17
9.25000,17
9.25833,17
9.26667,17
9.27500,17
9.28333,17
9.29167,17
9.30000,17
9.30833,17
9.31667,17
9.32500,17
9.33333,17
9.34167,17
9.35000,17
9.35833,17
9.36667,17
9.37500,18
9.38333,17
9.39167,17
9.40000,17
9.40833,17
9.41667,17
9.42500,17
9.43333,18
9.44167,18
9.45000,18
9.45833,18
9.46667,18
9.47500,18
9.48333,18
9.49167,19
9.50000,19
9.50833,18
9.51667,18
9.52500,18
9.53333,17
9.54167,18
9.55000,18
9.55833,18
9.56667,18
9.57500,17
9.58333,17
9.59167,17
9.60000,17
9.60833,18
9.61667,18
9.62500,18
9.63333,19
9.64167,19
9.65000,19
9.65833,19
9.66667,19
9.67500,19
9.68333,19
9.69167,19
9.70000,19
9.70833,19
9.71667,19
9.72500,19
9.73333,18
9.74167,18
9.75000,18
9.75833,18
9.76667,19
9.77500,18
9.78333,18
9.79167,18
9.80000,18
9.80833,18
9.81667,18
9.82500,19
9.83333,19
9.84167,20
9.85000,20
9.85833,20
9.86667,20
9.87500,20
9.88333,19
9.89167,19
9.90000,19
9.90833,19
9.91667,19
9.92500,19
9.93333,20
9.94167,20
9.95000,20
9.95833,20
9.96667,20
9.97500,20
9.98333,20
9.99167,19
10.00000,19
10.00833,19
10.01667,19
10.02500,19
10.03333,19
10.04167,20
10.05000,20
10.05833,20
10.06667,19
10.07500,19
10.08333,19
10.09167,19
10.10000,19
10.10833,19
10.11667,19
10.12500,19
10.13333,19
10.14167,20
10.15000,20
10.15833,20
10.16667,20
10.17500,21
10.18333,21
10.19167,21
10.20000,22
10.20833,22
10.21667,22
10.22500,22
10.23333,22
10.24167,21
10.25000,21
10.25833,21
10.26667,21
10.27500,21
10.28333,21
10.29167,22
10.30000,22
10.30833,22
10.31667,22
10.32500,23
10.33333,24
10.34167,24
10.35000,25
10.35833,26
10.36667,26
10.37500,26
10.38333,27
10.39167,27
10.40000,28
10.40833,29
10.41667,30
10.42500,30
10.43333,31
10.44167,31
10.45000,31
10.45833,31
10.46667,31
10.47500,31
10.48333,31
10.49167,31
10.50000,30
10.50833,28
10.51667,26
10.52500,22
10.53333,16
10.54167,7
10.55000,-4
10.55833,-20
10.56667,-42
10.57500,-71
10.58333,-108
10.59167,-157
10.60000,-219
10.60833,-295
10.61667,-390
10.62500,-505
10.63333,-642
10.64167,-803
10.65000,-988
10.65833,-1199
10.66667,-1434
10.67500,-1692
10.68333,-1969
10.69167,-2259
10.70000,-2558
10.70833,-2855
10.71667,-3142
10.72500,-3407
10.73333,-3638
10.74167,-3821
10.75000,-3943
10.75833,-3989
10.76667,-3944
10.77500,-3795
10.78333,-3526
10.79167,-3125
10.80000,-2580
10.80833,-1881
10.81667,-1018
10.82500,16
10.83333,1228
10.84167,2621
10.85000,4199
10.85833,5961
10.86667,7906
10.87500,10031
10.88333,12330
10.89167,14796
10.90000,17419
10.90833,20185
10.91667,23080
10.92500,26085
10.93333,29178
10.94167,32332
10.95000,35518
10.95833,38698
10.96667,41836
10.97500,44886
10.98333,47801
10.99167,50529
11.00000,53019
11.00833,55219
11.01667,57078
11.02500,58552
11.03333,59604
11.04167,60205
11.05000,60341
11.05833,60006
11.06667,59212
11.07500,57981
11.08333,56348
11.09167,54358
11.10000,52061
11.10833,49516
11.11667,46782
11.12500,43918
11.13333,40980
11.14167,38021
11.15000,35087
11.15833,32217
11.16667,29445
11.17500,26797
11.18333,24292
11.19167,21944
11.20000,19760
11.20833,17743
11.21667,15892
11.22500,14203
11.23333,12671
11.24167,11287
11.25000,10043
11.25833,8928
11.26667,7933
11.27500,7047
11.28333,6260
11.29167,5562
11.30000,4946
11.30833,4401
11.31667,3922
11.32500,3500
11.33333,3129
11.34167,2803
11.35000,2517
11.35833,2265
11.36667,2044
11.37500,1850
11.38333,1680
11.39167,1530
11.40000,1399
11.40833,1282
11.41667,1180
11.42500,1089
11.43333,1009
11.44167,938
11.45000,874
11.45833,818
11.46667,767
11.47500,722
11.48333,681
11.49167,644
11.50000,610
11.50833,580
11.51667,552
11.52500,527
11.53333,504
11.54167,483
11.55000,464
11.55833,446
11.56667,429
11.57500,413
11.58333,399
11.59167,386
11.60000,373
11.60833,362
11.61667,351
11.62500,340
11.63333,330
11.64167,321
11.65000,312
11.65833,304
11.66667,296
11.67500,289
11.68333,282
11.69167,276
11.70000,270
11.70833,264
11.71667,258
11.72500,253
11.73333,248
11.74167,243
11.75000,238
11.75833,234
11.76667,229
11.77500,225
11.78333,222
11.79167,218
11.80000,214
11.80833,210
11.81667,207
11.82500,204
11.83333,201
11.84167,199
11.85000,196
11.85833,193
11.86667,191
11.87500,189
11.88333,187
11.89167,185
11.90000,183
11.90833,182
11.91667,180
11.92500,178
11.93333,177
11.94167,175
11.95000,174
11.95833,172
11.96667,171
11.97500,170
11.98333,168
11.99167,167
12.00000,166
12.00833,164
12.01667,163
12.02500,162
12.03333,161
12.04167,160
12.05000,160
12.05833,158
12.06667,157
12.07500,156
12.08333,155
12.09167,154
12.10000,154
12.10833,153
12.11667,151
12.12500,150
12.13333,149
12.14167,148
12.15000,147
12.15833,146
12.16667,146
12.17500,145
12.18333,144
12.19167,143
12.20000,142
12.20833,141
12.21667,139
12.22500,139
12.23333,138
12.24167,137
12.25000,135
12.25833,134
12.26667,133
12.27500,132
12.28333,132
12.29167,131
12.30000,130
12.30833,130
12.31667,129
12.32500,129
12.33333,129
12.34167,128
12.35000,128
12.35833,127
12.36667,126
12.37500,125
12.38333,125
12.39167,124
12.40000,124
12.40833,123
12.41667,123
12.42500,122
12.43333,122
12.44167,121
12.45000,121
12.45833,120
12.46667,120
12.47500,119
12.48333,118
12.49167,117
12.50000,117
12.50833,116
12.51667,116
12.52500,116
12.53333,115
12.54167,115
12.55000,114
12.55833,114
12.56667,114
12.57500,113
12.58333,113
12.59167,113
12.60000,112
12.60833,111
12.61667,111
12.62500,111
12.63333,111
12.64167,110
12.65000,110
12.65833,109
12.66667,109
12.67500,108
12.68333,108
12.69167,107
12.70000,107
12.70833,107
12.71667,106
12.72500,106
12.73333,106
12.74167,105
12.75000,105
12.75833,104
12.76667,103
12.77500,103
12.78333,103
12.79167,103
12.80000,102
12.80833,102
12.81667,102
12.82500,102
12.83333,103
12.84167,103
12.85000,103
12.85833,103
12.86667,103
12.87500,104
12.88333,104
12.89167,104
12.90000,104
12.90833,104
12.91667,103
12.92500,103
12.93333,103
12.94167,103
12.95000,103
12.95833,103
12.96667,103
12.97500,104
12.98333,104
12.99167,104
13.00000,104
13.00833,105
13.01667,105
13.02500,105
13.03333,105
13.04167,105
13.05000,105
13.05833,105
13.06667,105
13.07500,105
13.08333,105
13.09167,105
13.10000,105
13.10833,105
13.11667,105
13.12500,104
13.13333,104
13.14167,104
13.15000,104
13.15833,103
13.16667,103
13.17500,103
13.18333,102
13.19167,102
13.20000,102
13.20833,101
13.21667,101
13.22500,101
13.23333,100
13.24167,100
13.25000,100
13.25833,99
13.26667,99
13.27500,98
13.28333,98
13.29167,97
13.30000,97
13.30833,96
13.31667,96
13.32500,95
13.33333,95
13.34167,94
13.35000,93
13.35833,92
13.36667,91
13.37500,90
13.38333,89
13.39167,88
13.40000,87
13.40833,86
13.41667,85
13.42500,84
13.43333,84
13.44167,83
13.45000,83
13.45833,82
13.46667,81
13.47500,80
13.48333,79
13.49167,79
13.50000,78
13.50833,78
13.51667,77
13.52500,76
13.53333,75
13.54167,75
13.55000,74
13.55833,73
13.56667,72
13.57500,72
13.58333,71
13.59167,71
13.60000,70
13.60833,69
13.61667,68
13.62500,68
13.63333,68
13.64167,68
13.65000,68
13.65833,68
13.66667,68
13.67500,68
13.68333,68
13.69167,68
13.70000,68
13.70833,68
13.71667,67
13.72500,67
13.73333,67
13.74167,67
13.75000,68
13.75833,67
13.76667,68
13.77500,68
13.78333,68
13.79167,68
13.80000,68
13.80833,68
13.81667,68
13.82500,68
13.83333,68
13.84167,68
13.85000,68
13.85833,68
13.86667,68
13.87500,68
13.88333,68
13.89167,69
13.90000,69
13.90833,70
13.91667,70
13.92500,71
13.93333,71
13.94167,71
13.95000,71
13.95833,72
13.96667,72
13.97500,73
13.98333,73
13.99167,74
14.00000,74
14.00833,75
14.01667,75
14.02500,76
14.03333,76
14.04167,76
14.05000,77
14.05833,77
14.06667,77
14.07500,78
14.08333,78
14.09167,79
14.10000,80
14.10833,81
14.11667,82
14.12500,84
14.13333,85
14.14167,87
14.15000,88
14.15833,90
14.16667,93
14.17500,96
14.18333,99
14.19167,103
14.20000,107
14.20833,112
14.21667,118
14.22500,126
14.23333,136
14.24167,147
14.25000,160
14.25833,176
14.26667,195
14.27500,217
14.28333,244
14.29167,277
14.30000,316
14.30833,362
14.31667,418
14.32500,483
14.33333,559
14.34167,647
14.35000,750
14.35833,868
14.36667,1004
14.37500,1158
14.38333,1334
14.39167,1532
14.40000,1754
14.40833,2003
14.41667,2279
14.42500,2584
14.43333,2920
14.44167,3288
14.45000,3689
14.45833,4125
14.46667,4595
14.47500,5101
14.48333,5643
14.49167,6223
14.50000,6840
14.50833,7494
14.51667,8186
14.52500,8915
14.53333,9682
14.54167,10487
14.55000,11329
14.55833,12207
14.56667,13121
14.57500,14070
14.58333,15055
14.59167,16073
14.60000,17125
14.60833,18211
14.61667,19329
14.62500,20480
14.63333,21662
14.64167,22875
14.65000,24119
14.65833,25392
14.66667,26694
14.67500,28024
14.68333,29383
14.69167,30769
14.70000,32183
14.70833,33623
14.71667,35089
14.72500,36581
14.73333,38099
14.74167,39643
14.75000,41211
14.75833,42804
14.76667,44421
14.77500,46063
14.78333,47729
14.79167,49418
14.80000,51131
14.80833,52866
14.81667,54625
14.82500,56406
14.83333,58209
14.84167,60034
14.85000,61880
14.85833,63748
14.86667,65638
14.87500,67547
14.88333,69476
14.89167,71425
14.90000,73393
14.90833,75379
14.91667,77382
14.92500,79401
14.93333,81434
14.94167,83481
14.95000,85537
14.95833,87602
14.96667,89670
14.97500,91736
14.98333,93793
14.99167,95829
15.00000,97829
15.00833,99772
15.01667,101634
15.02500,103379
15.03333,104967
15.04167,106350
15.05000,107474
15.05833,108281
15.06667,108711
15.07500,108705
15.08333,108212
15.09167,107189
15.10000,105608
15.10833,103456
15.11667,100741
15.12500,97487
15.13333,93739
15.14167,89558
15.15000,85016
15.15833,80199
15.16667,75193
15.17500,70088
15.18333,64970
15.19167,59919
15.20000,55004
15.20833,50283
15.21667,45805
15.22500,41603
15.23333,37701
15.24167,34111
15.25000,30839
15.25833,27881
15.26667,25229
15.27500,22870
15.28333,20788
15.29167,18968
15.30000,17392
15.30833,16042
15.31667,14903
15.32500,13959
15.33333,13195
15.34167,12598
15.35000,12158
15.35833,11862
15.36667,11703
15.37500,11672
15.38333,11760
15.39167,11962
15.40000,12269
15.40833,12677
15.41667,13178
15.42500,13766
15.43333,14434
15.44167,15175
15.45000,15982
15.45833,16846
15.46667,17760
15.47500,18714
15.48333,19700
15.49167,20708
15.50000,21728
15.50833,22749
15.51667,23763
15.52500,24757
15.53333,25723
15.54167,26651
15.55000,27531
15.55833,28354
15.56667,29112
15.57500,29798
15.58333,30404
15.59167,30925
15.60000,31357
15.60833,31695
15.61667,31937
15.62500,32082
15.63333,32129
15.64167,32078
15.65000,31932
15.65833,31692
15.66667,31363
15.67500,30947
15.68333,30450
15.69167,29878
15.70000,29236
15.70833,28532
15.71667,27771
15.72500,26962
15.73333,26109
15.74167,25222
15.75000,24306
15.75833,23368
15.76667,22416
15.77500,21454
15.78333,20489
15.79167,19527
15.80000,18571
15.80833,17628
15.81667,16701
15.82500,15794
15.83333,14910
15.84167,14052
15.85000,13222
15.85833,12422
15.86667,11653
15.87500,10918
15.88333,10216
15.89167,9548
15.90000,8914
15.90833,8313
15.91667,7747
15.92500,7212
15.93333,6710
15.94167,6240
15.95000,5799
15.95833,5388
15.96667,5005
15.97500,4648
15.98333,4316
15.99167,4009
16.00000,3725
16.00833,3461
16.01667,3218
16.02500,2994
16.03333,2787
16.04167,2596
16.05000,2421
16.05833,2260
16.06667,2112
16.07500,1977
16.08333,1853
16.09167,1739
16.10000,1635
16.10833,1539
16.11667,1452
16.12500,1372
16.13333,1299
16.14167,1232
16.15000,1171
16.15833,1114
16.16667,1063
16.17500,1015
16.18333,972
16.19167,932
16.20000,896
16.20833,862
16.21667,830
16.22500,802
16.23333,775
16.24167,751
16.25000,728
16.25833,707
16.26667,687
16.27500,669
16.28333,652
16.29167,636
16.30000,621
16.30833,607
16.31667,594
16.32500,582
16.33333,571
16.34167,561
16.35000,551
16.35833,541
16.36667,532
16.37500,524
16.38333,516
16.39167,508
16.40000,501
16.40833,494
16.41667,488
16.42500,482
16.43333,476
16.44167,470
16.45000,465
16.45833,459
16.46667,454
16.47500,449
16.48333,444
16.49167,440
16.50000,435
16.50833,431
16.51667,427
16.52500,422
16.53333,419
16.54167,415
16.55000,411
16.55833,407
16.56667,404
16.57500,401
16.58333,398
16.59167,395
16.60000,392
16.60833,389
16.61667,387
16.62500,384
16.63333,381
16.64167,379
16.65000,376
16.65833,373
16.66667,371
16.67500,368
16.68333,366
16.69167,364
16.70000,361
16.70833,359
16.71667,357
16.72500,355
16.73333,352
16.74167,350
16.75000,347
16.75833,345
16.76667,343
16.77500,341
16.78333,339
16.79167,337
16.80000,335
16.80833,333
16.81667,331
16.82500,329
16.83333,327
16.84167,325
16.85000,323
16.85833,322
16.86667,320
16.87500,318
16.88333,317
16.89167,315
16.90000,313
16.90833,311
16.91667,309
16.92500,308
16.93333,306
16.94167,304
16.95000,303
16.95833,301
16.96667,299
16.97500,298
16.98333,296
16.99167,294
17.00000,293
17.00833,291
17.01667,289
17.02500,287
17.03333,286
17.04167,285
17.05000,284
17.05833,282
17.06667,281
17.07500,280
17.08333,278
17.09167,277
17.10000,275
17.10833,274
17.11667,273
17.12500,271
17.13333,270
17.14167,269
17.15000,268
17.15833,266
17.16667,265
17.17500,263
17.18333,262
17.19167,261
17.20000,259
17.20833,258
17.21667,256
17.22500,254
17.23333,253
17.24167,252
17.25000,250
17.25833,249
17.26667,248
17.27500,247
17.28333,246
17.29167,245
17.30000,244
17.30833,243
17.31667,241
17.32500,240
17.33333,238
17.34167,237
17.35000,237
17.35833,236
17.36667,235
17.37500,234
17.38333,233
17.39167,232
17.40000,231
17.40833,230
17.41667,229
17.42500,228
17.43333,227
17.44167,226
17.45000,225
17.45833,223
17.46667,222
17.47500,221
17.48333,220
17.49167,219
17.50000,218
17.50833,217
17.51667,216
17.52500,214
17.53333,214
17.54167,213
17.55000,212
17.55833,211
17.56667,210
17.57500,208
17.58333,207
17.59167,206
17.60000,206
17.60833,205
17.61667,205
17.62500,204
17.63333,203
17.64167,202
17.65000,202
17.65833,200
17.66667,199
17.67500,198
17.68333,197
17.69167,196
17.70000,194
17.70833,193
17.71667,192
17.72500,192
17.73333,191
17.74167,190
17.75000,189
17.75833,189
17.76667,188
17.77500,187
17.78333,186
17.79167,185
17.80000,185
17.80833,184
17.81667,184
17.82500,183
17.83333,182
17.84167,181
17.85000,180
17.85833,179
17.86667,179
17.87500,178
17.88333,177
17.89167,177
17.90000,176
17.90833,175
17.91667,175
17.92500,174
17.93333,173
17.94167,172
17.95000,171
17.95833,171
17.96667,170
17.97500,170
17.98333,169
17.99167,168
18.00000,168
18.00833,167
18.01667,166
18.02500,166
18.03333,165
18.04167,165
18.05000,164
18.05833,163
18.06667,162
18.07500,162
18.08333,161
18.09167,161
18.10000,160
18.10833,159
18.11667,158
18.12500,158
18.13333,157
18.14167,157
18.15000,156
18.15833,155
18.16667,154
18.17500,153
18.18333,153
18.19167,152
18.20000,152
18.20833,151
18.21667,150
18.22500,149
18.23333,148
18.24167,148
18.25000,147
18.25833,147
18.26667,147
18.27500,146
18.28333,145
18.29167,145
18.30000,144
18.30833,144
18.31667,144
18.32500,144
18.33333,143
18.34167,143
18.35000,142
18.35833,141
18.36667,141
18.37500,140
18.38333,139
18.39167,138
18.40000,137
18.40833,136
18.41667,136
18.42500,135
18.43333,135
18.44167,135
18.45000,135
18.45833,135
18.46667,135
18.47500,134
18.48333,134
18.49167,134
18.50000,134
18.50833,134
18.51667,133
18.52500,133
18.53333,132
18.54167,131
18.55000,131
18.55833,131
18.56667,131
18.57500,131
18.58333,130
18.59167,130
18.60000,130
18.60833,130
18.61667,130
18.62500,130
18.63333,130
18.64167,130
18.65000,130
18.65833,131
18.66667,131
18.67500,131
18.68333,132
18.69167,133
18.70000,134
18.70833,135
18.71667,137
18.72500,138
18.73333,139
18.74167,141
18.75000,143
18.75833,145
18.76667,147
18.77500,150
18.78333,152
18.79167,154
18.80000,157
18.80833,159
18.81667,162
18.82500,166
18.83333,169
18.84167,172
18.85000,175
18.85833,178
18.86667,181
18.87500,184
18.88333,188
18.89167,191
18.90000,194
18.90833,197
18.91667,200
18.92500,202
18.93333,205
18.94167,207
18.95000,208
18.95833,210
18.96667,211
18.97500,212
18.98333,213
18.99167,214
19.00000,214
19.00833,214
19.01667,214
19.02500,213
19.03333,212
19.04167,211
19.05000,209
19.05833,207
19.06667,204
19.07500,201
19.08333,198
19.09167,195
19.10000,192
19.10833,189
19.11667,186
19.12500,182
19.13333,179
19.14167,176
19.15000,173
19.15833,170
19.16667,167
19.17500,163
19.18333,160
19.19167,157
19.20000,154
19.20833,151
19.21667,148
19.22500,145
19.23333,142
19.24167,139
19.25000,136
19.25833,134
19.26667,131
19.27500,128
19.28333,126
19.29167,124
19.30000,122
19.30833,120
19.31667,118
19.32500,117
19.33333,115
19.34167,114
19.35000,112
19.35833,111
19.36667,110
19.37500,109
19.38333,108
19.39167,107
19.40000,106
19.40833,105
19.41667,104
19.42500,103
19.43333,102
19.44167,102
19.45000,101
19.45833,100
19.46667,100
19.47500,99
19.48333,98
19.49167,98
19.50000,97
19.50833,97
19.51667,96
19.52500,95
19.53333,95
19.54167,95
19.55000,95
19.55833,94
19.56667,94
19.57500,93
19.58333,93
19.59167,93
19.60000,93
19.60833,92
19.61667,92
19.62500,92
19.63333,92
19.64167,91
19.65000,91
19.65833,91
19.66667,90
19.67500,90
19.68333,90
19.69167,90
19.70000,90
19.70833,89
19.71667,89
19.72500,89
19.73333,89
19.74167,89
19.75000,88
19.75833,88
19.76667,87
19.77500,87
19.78333,86
19.79167,86
19.80000,85
19.80833,85
19.81667,85
19.82500,85
19.83333,85
19.84167,86
19.85000,86
19.85833,86
19.86667,85
19.87500,85
19.88333,85
19.89167,85
19.90000,84
19.90833,84
19.91667,83
19.92500,83
19.93333,83
19.94167,82
19.95000,82
19.95833,83
19.96667,83
19.97500,82
19.98333,82
19.99167,82
20.00000,82
20.00833,81
20.01667,81
20.02500,81
20.03333,81
20.04167,81
20.05000,81
20.05833,80
20.06667,80
20.07500,80
20.08333,80
20.09167,80
20.10000,80
20.10833,81
20.11667,80
20.12500,80
20.13333,79
20.14167,79
20.15000,78
20.15833,78
20.16667,78
20.17500,77
20.18333,77
20.19167,77
20.20000,77
20.20833,77
20.21667,77
20.22500,76
20.23333,76
20.24167,76
20.25000,76
20.25833,76
20.26667,76
20.27500,75
20.28333,75
20.29167,75
20.30000,76
20.30833,76
20.31667,76
20.32500,75
20.33333,75
20.34167,75
20.35000,75
20.35833,74
20.36667,74
20.37500,74
20.38333,74
20.39167,74
20.40000,74
20.40833,74
20.41667,74
20.42500,74
20.43333,74
20.44167,74
20.45000,74
20.45833,73
20.46667,73
20.47500,72
20.48333,72
20.49167,72
20.50000,71
20.50833,71
20.51667,71
20.52500,72
20.53333,72
20.54167,72
20.55000,72
20.55833,72
20.56667,72
20.57500,72
20.58333,72
20.59167,72
20.60000,72
20.60833,72
20.61667,72
20.62500,72
20.63333,72
20.64167,71
20.65000,71
20.65833,71
20.66667,71
20.67500,71
20.68333,71
20.69167,71
20.70000,71
20.70833,71
20.71667,70
20.72500,70
20.73333,70
20.74167,69
20.75000,69
20.75833,69
20.76667,70
20.77500,70
20.78333,70
20.79167,70
20.80000,70
20.80833,70
20.81667,71
20.82500,71
20.83333,70
20.84167,70
20.85000,70
20.85833,70
20.86667,70
20.87500,70
20.88333,69
20.89167,69
20.90000,68
20.90833,68
20.91667,68
20.92500,68
20.93333,68
20.94167,68
20.95000,68
20.95833,67
20.96667,67
20.97500,67
20.98333,67
20.99167,68
21.00000,68
21.00833,68
21.01667,68
21.02500,67
21.03333,67
21.04167,67
21.05000,67
21.05833,67
21.06667,67
21.07500,67
21.08333,67
21.09167,66
21.10000,66
21.10833,66
21.11667,66
21.12500,66
21.13333,65
21.14167,65
21.15000,65
21.15833,65
21.16667,65
21.17500,65
21.18333,65
21.19167,64
21.20000,64
21.20833,65
21.21667,65
21.22500,65
21.23333,66
21.24167,66
21.25000,65
21.25833,65
21.26667,65
21.27500,65
21.28333,65
21.29167,65
21.30000,65
21.30833,65
21.31667,65
21.32500,65
21.33333,65
21.34167,65
21.35000,65
21.35833,65
21.36667,65
21.37500,65
21.38333,64
21.39167,64
21.40000,64
21.40833,64
21.41667,64
21.42500,64
21.43333,64
21.44167,64
21.45000,64
21.45833,65
21.46667,65
21.47500,65
21.48333,65
21.49167,65
21.50000,66
21.50833,66
21.51667,66
21.52500,66
21.53333,66
21.54167,66
21.55000,66
21.55833,66
21.56667,66
21.57500,66
21.58333,65
21.59167,65
21.60000,65
21.60833,65
21.61667,65
21.62500,65
21.63333,65
21.64167,65
21.65000,65
21.65833,66
21.66667,66
21.67500,67
21.68333,67
21.69167,67
21.70000,67
21.70833,67
21.71667,68
21.72500,68
21.73333,68
21.74167,68
21.75000,68
21.75833,68
21.76667,68
21.77500,68
21.78333,68
21.79167,69
21.80000,69
21.80833,70
21.81667,70
21.82500,70
21.83333,69
21.84167,69
21.85000,69
21.85833,70
21.86667,70
21.87500,71
21.88333,72
21.89167,72
21.90000,72
21.90833,72
21.91667,72
21.92500,72
21.93333,72
21.94167,72
21.95000,72
21.95833,72
21.96667,71
21.97500,71
21.98333,71
21.99167,71
22.00000,70
22.00833,70
22.01667,70
22.02500,70
22.03333,70
22.04167,70
22.05000,70
22.05833,69
22.06667,68
22.07500,68
22.08333,68
22.09167,67
22.10000,67
22.10833,67
22.11667,67
22.12500,66
22.13333,66
22.14167,66
22.15000,67
22.15833,67
22.16667,67
22.17500,67
22.18333,67
22.19167,67
22.20000,66
22.20833,66
22.21667,65
22.22500,65
22.23333,65
22.24167,64
22.25000,64
22.25833,64
22.26667,64
22.27500,63
22.28333,63
22.29167,63
22.30000,63
22.30833,63
22.31667,63
22.32500,63
22.33333,63
22.34167,62
22.35000,62
22.35833,62
22.36667,62
22.37500,62
22.38333,62
22.39167,62
22.40000,62
22.40833,61
22.41667,61
22.42500,61
22.43333,61
22.44167,61
22.45000,61
22.45833,61
22.46667,61
22.47500,61
22.48333,61
22.49167,61
22.50000,61
22.50833,61
22.51667,60
22.52500,60
22.53333,60
22.54167,60
22.55000,60
22.55833,60
22.56667,60
22.57500,59
22.58333,60
22.59167,60
22.60000,60
22.60833,61
22.61667,61
22.62500,61
22.63333,61
22.64167,60
22.65000,60
22.65833,60
22.66667,60
22.67500,60
22.68333,60
22.69167,60
22.70000,61
22.70833,61
22.71667,61
22.72500,61
22.73333,60
22.74167,60
22.75000,60
22.75833,60
22.76667,61
22.77500,61
22.78333,61
22.79167,60
22.80000,60
22.80833,60
22.81667,60
22.82500,61
22.83333,61
22.84167,61
22.85000,62
22.85833,62
22.86667,63
22.87500,63
22.88333,63
22.89167,64
22.90000,64
22.90833,65
22.91667,65
22.92500,66
22.93333,66
22.94167,67
22.95000,67
22.95833,67
22.96667,68
22.97500,68
22.98333,68
22.99167,69
23.00000,70
23.00833,70
23.01667,71
23.02500,72
23.03333,73
23.04167,74
23.05000,74
23.05833,75
23.06667,76
23.07500,77
23.08333,77
23.09167,78
23.10000,79
23.10833,80
23.11667,81
23.12500,82
23.13333,82
23.14167,82
23.15000,83
23.15833,83
23.16667,83
23.17500,83
23.18333,83
23.19167,84
23.20000,84
23.20833,84
23.21667,85
23.22500,85
23.23333,84
23.24167,84
23.25000,84
23.25833,84
23.26667,84
23.27500,84
23.28333,84
23.29167,84
23.30000,84
23.30833,83
23.31667,83
23.32500,83
23.33333,83
23.34167,82
23.35000,82
23.35833,81
23.36667,80
23.37500,80
23.38333,79
23.39167,78
23.40000,77
23.40833,77
23.41667,76
23.42500,75
23.43333,74
23.44167,74
23.45000,73
23.45833,72
23.46667,71
23.47500,70
23.48333,69
23.49167,69
23.50000,68
23.50833,68
23.51667,68
23.52500,67
23.53333,67
23.54167,66
23.55000,66
23.55833,65
23.56667,65
23.57500,64
23.58333,64
23.59167,64
23.60000,64
23.60833,63
23.61667,63
23.62500,63
23.63333,63
23.64167,62
23.65000,62
23.65833,62
23.66667,61
23.67500,61
23.68333,60
23.69167,60
23.70000,60
23.70833,60
23.71667,60
23.72500,59
23.73333,59
23.74167,59
23.75000,59
23.75833,59
23.76667,59
23.77500,59
23.78333,59
23.79167,59
23.80000,59
23.80833,59
23.81667,59
23.82500,60
23.83333,59
23.84167,59
23.85000,59
23.85833,59
23.86667,59
23.87500,59
23.88333,59
23.89167,58
23.90000,58
23.90833,59
23.91667,58
23.92500,58
23.93333,58
23.94167,58
23.95000,58
23.95833,58
23.96667,59
23.97500,59
23.98333,59
23.99167,60
24.00000,60
24.00833,60
24.01667,60
24.02500,60
24.03333,60
24.04167,60
24.05000,60
24.05833,60
24.06667,60
24.07500,59
24.08333,60
24.09167,60
24.10000,60
24.10833,60
24.11667,60
24.12500,60
24.13333,59
24.14167,59
24.15000,58
24.15833,58
24.16667,58
24.17500,58
24.18333,58
24.19167,58
24.20000,59
24.20833,59
24.21667,59
24.22500,60
24.23333,60
24.24167,60
24.25000,60
24.25833,60
24.26667,60
24.27500,61
24.28333,61
24.29167,61
24.30000,61
24.30833,61
24.31667,61
24.32500,61
24.33333,61
24.34167,60
24.35000,60
24.35833,60
24.36667,60
24.37500,60
24.38333,59
24.39167,59
24.40000,59
24.40833,60
24.41667,61
24.42500,62
24.43333,62
24.44167,62
24.45000,63
24.45833,63
24.46667,64
24.47500,64
24.48333,65
24.49167,66
24.50000,66
24.50833,67
24.51667,67
24.52500,68
24.53333,68
24.54167,69
24.55000,69
24.55833,70
24.56667,71
24.57500,72
24.58333,74
24.59167,75
24.60000,77
24.60833,79
24.61667,81
24.62500,83
24.63333,86
24.64167,89
24.65000,92
24.65833,94
24.66667,98
24.67500,102
24.68333,106
24.69167,110
24.70000,115
24.70833,119
24.71667,124
24.72500,129
24.73333,134
24.74167,140
24.75000,146
24.75833,152
24.76667,159
24.77500,166
24.78333,173
24.79167,181
24.80000,189
24.80833,196
24.81667,205
24.82500,213
24.83333,221
24.84167,230
24.85000,239
24.85833,248
24.86667,257
24.87500,267
24.88333,276
24.89167,285
24.90000,294
24.90833,303
24.91667,311
24.92500,320
24.93333,328
24.94167,336
24.95000,343
24.95833,349
24.96667,355
24.97500,361
24.98333,366
24.99167,371
25.00000,375
25.00833,379
25.01667,382
25.02500,385
25.03333,386
25.04167,388
25.05000,388
25.05833,388
25.06667,387
25.07500,386
25.08333,384
25.09167,382
25.10000,379
25.10833,375
25.11667,371
25.12500,367
25.13333,361
25.14167,356
25.15000,350
25.15833,344
25.16667,337
25.17500,330
25.18333,322
25.19167,315
25.20000,307
25.20833,299
25.21667,291
25.22500,283
25.23333,274
25.24167,266
25.25000,258
25.25833,250
25.26667,241
25.27500,233
25.28333,225
25.29167,218
25.30000,210
25.30833,203
25.31667,195
25.32500,188
25.33333,181
25.34167,174
25.35000,168
25.35833,162
25.36667,156
25.37500,150
25.38333,145
25.39167,140
25.40000,135
25.40833,131
25.41667,127
25.42500,123
25.43333,119
25.44167,115
25.45000,111
25.45833,108
25.46667,105
25.47500,102
25.48333,99
25.49167,97
25.50000,94
25.50833,92
25.51667,89
25.52500,87
25.53333,85
25.54167,83
25.55000,82
25.55833,80
25.56667,79
25.57500,78
25.58333,77
25.59167,76
25.60000,75
25.60833,74
25.61667,73
25.62500,73
25.63333,72
25.64167,71
25.65000,71
25.65833,71
25.66667,70
25.67500,70
25.68333,70
25.69167,69
25.70000,69
25.70833,68
25.71667,68
25.72500,67
25.73333,67
25.74167,67
25.75000,67
25.75833,67
25.76667,68
25.77500,68
25.78333,68
25.79167,68
25.80000,67
25.80833,67
25.81667,67
25.82500,67
25.83333,67
25.84167,67
25.85000,67
25.85833,67
25.86667,67
25.87500,67
25.88333,67
25.89167,67
25.90000,66
25.90833,66
25.91667,66
25.92500,66
25.93333,66
25.94167,66
25.95000,67
25.95833,67
25.96667,67
25.97500,67
25.98333,66
25.99167,67
26.00000,67
26.00833,67
26.01667,67
26.02500,67
26.03333,67
26.04167,67
26.05000,67
26.05833,67
26.06667,66
26.07500,66
26.08333,67
26.09167,67
26.10000,67
26.10833,68
26.11667,68
26.12500,67
26.13333,67
26.14167,67
26.15000,67
26.15833,66
26.16667,66
26.17500,67
26.18333,67
26.19167,67
26.20000,67
26.20833,67
26.21667,67
26.22500,67
26.23333,67
26.24167,67
26.25000,67
26.25833,67
26.26667,67
26.27500,67
26.28333,67
26.29167,67
26.30000,67
26.30833,67
26.31667,67
26.32500,67
26.33333,67
26.34167,67
26.35000,68
26.35833,68
26.36667,68
26.37500,68
26.38333,68
26.39167,67
26.40000,67
26.40833,67
26.41667,67
26.42500,67
26.43333,67
26.44167,67
26.45000,67
26.45833,67
26.46667,67
26.47500,67
26.48333,67
26.49167,68
26.50000,68
26.50833,68
26.51667,68
26.52500,68
26.53333,68
26.54167,69
26.55000,69
26.55833,69
26.56667,68
26.57500,68
26.58333,68
26.59167,68
26.60000,68
26.60833,68
26.61667,67
26.62500,67
26.63333,67
26.64167,67
26.65000,67
26.65833,67
26.66667,67
26.67500,67
26.68333,67
26.69167,67
26.70000,67
26.70833,68
26.71667,68
26.72500,68
26.73333,68
26.74167,68
26.75000,68
26.75833,68
26.76667,68
26.77500,69
26.78333,69
26.79167,69
26.80000,69
26.80833,69
26.81667,69
26.82500,69
26.83333,69
26.84167,68
26.85000,68
26.85833,68
26.86667,68
26.87500,68
26.88333,68
26.89167,68
26.90000,69
26.90833,69
26.91667,69
26.92500,69
26.93333,69
26.94167,69
26.95000,69
26.95833,69
26.96667,69
26.97500,69
26.98333,69
26.99167,70
27.00000,70
27.00833,70
27.01667,70
27.02500,70
27.03333,70
27.04167,70
27.05000,70
27.05833,70
27.06667,70
27.07500,70
27.08333,70
27.09167,69
27.10000,69
27.10833,69
27.11667,69
27.12500,70
27.13333,70
27.14167,70
27.15000,70
27.15833,70
27.16667,70
27.17500,70
27.18333,70
27.19167,70
27.20000,70
27.20833,70
27.21667,70
27.22500,70
27.23333,70
27.24167,71
27.25000,71
27.25833,72
27.26667,72
27.27500,72
27.28333,72
27.29167,72
27.30000,72
27.30833,71
27.31667,71
27.32500,71
27.33333,72
27.34167,72
27.35000,71
27.35833,71
27.36667,71
27.37500,72
27.38333,72
27.39167,72
27.40000,73
27.40833,73
27.41667,73
27.42500,73
27.43333,74
27.44167,74
27.45000,74
27.45833,74
27.46667,74
27.47500,73
27.48333,73
27.49167,73
27.50000,72
27.50833,72
27.51667,72
27.52500,73
27.53333,73
27.54167,73
27.55000,73
27.55833,74
27.56667,73
27.57500,74
27.58333,74
27.59167,74
27.60000,74
27.60833,74
27.61667,74
27.62500,73
27.63333,73
27.64167,73
27.65000,73
27.65833,73
27.66667,73
27.67500,72
27.68333,72
27.69167,72
27.70000,71
27.70833,71
27.71667,70
27.72500,69
27.73333,69
27.74167,68
27.75000,68
27.75833,67
27.76667,67
27.77500,66
27.78333,66
27.79167,65
27.80000,64
27.80833,62
27.81667,61
27.82500,60
27.83333,58
27.84167,57
27.85000,55
27.85833,54
27.86667,52
27.87500,50
27.88333,47
27.89167,45
27.90000,42
27.90833,39
27.91667,36
27.92500,32
27.93333,28
27.94167,25
27.95000,21
27.95833,17
27.96667,12
27.97500,7
27.98333,1
27.99167,-4
28.00000,-10
28.00833,-16
28.01667,-23
28.02500,-30
28.03333,-37
28.04167,-45
28.05000,-53
28.05833,-61
28.06667,-70
28.07500,-79
28.08333,-88
28.09167,-98
28.10000,-108
28.10833,-119
28.11667,-130
28.12500,-141
28.13333,-153
28.14167,-165
28.15000,-177
28.15833,-189
28.16667,-202
28.17500,-216
28.18333,-229
28.19167,-243
28.20000,-257
28.20833,-271
28.21667,-285
28.22500,-300
28.23333,-314
28.24167,-329
28.25000,-344
28.25833,-358
28.26667,-373
28.27500,-387
28.28333,-401
28.29167,-415
28.30000,-429
28.30833,-443
28.31667,-457
28.32500,-470
28.33333,-483
28.34167,-495
28.35000,-507
28.35833,-519
28.36667,-530
28.37500,-541
28.38333,-552
28.39167,-562
28.40000,-571
28.40833,-580
28.41667,-587
28.42500,-595
28.43333,-601
28.44167,-608
28.45000,-613
28.45833,-617
28.46667,-621
28.47500,-624
28.48333,-627
28.49167,-629
28.50000,-630
28.50833,-630
28.51667,-629
28.52500,-628
28.53333,-626
28.54167,-624
28.55000,-621
28.55833,-617
28.56667,-613
28.57500,-609
28.58333,-603
28.59167,-597
28.60000,-591
28.60833,-584
28.61667,-577
28.62500,-570
28.63333,-562
28.64167,-554
28.65000,-545
28.65833,-536
28.66667,-528
28.67500,-518
28.68333,-509
28.69167,-499
28.70000,-490
28.70833,-480
28.71667,-471
28.72500,-461
28.73333,-451
28.74167,-441
28.75000,-431
28.75833,-421
28.76667,-411
28.77500,-401
28.78333,-391
28.79167,-382
28.80000,-372
28.80833,-363
28.81667,-353
28.82500,-345
28.83333,-336
28.84167,-328
28.85000,-320
28.85833,-312
28.86667,-305
28.87500,-297
28.88333,-290
28.89167,-283
28.90000,-276
28.90833,-269
28.91667,-262
28.92500,-255
28.93333,-249
28.94167,-243
28.95000,-237
28.95833,-232
28.96667,-227
28.97500,-222
28.98333,-218
28.99167,-213
29.00000,-208
29.00833,-204
29.01667,-200
29.02500,-196
29.03333,-192
29.04167,-189
29.05000,-185
29.05833,-182
29.06667,-178
29.07500,-175
29.08333,-172
29.09167,-170
29.10000,-167
29.10833,-165
29.11667,-163
29.12500,-160
29.13333,-158
29.14167,-155
29.15000,-153
29.15833,-151
29.16667,-150
29.17500,-148
29.18333,-146
29.19167,-144
29.20000,-143
29.20833,-141
29.21667,-140
29.22500,-138
29.23333,-137
29.24167,-135
29.25000,-134
29.25833,-133
29.26667,-132
29.27500,-131
29.28333,-130
29.29167,-129
29.30000,-128
29.30833,-127
29.31667,-126
29.32500,-126
29.33333,-125
29.34167,-124
29.35000,-123
29.35833,-122
29.36667,-120
29.37500,-119
29.38333,-118
29.39167,-117
29.40000,-117
29.40833,-116
29.41667,-116
29.42500,-115
29.43333,-115
29.44167,-114
29.45000,-114
29.45833,-114
29.46667,-113
29.47500,-113
29.48333,-113
29.49167,-112
29.50000,-112
29.50833,-112
29.51667,-112
29.52500,-111
29.53333,-111
29.54167,-112
29.55000,-112
29.55833,-112
29.56667,-112
29.57500,-111
29.58333,-112
29.59167,-112
29.60000,-112
29.60833,-112
29.61667,-112
29.62500,-112
29.63333,-113
29.64167,-114
29.65000,-114
29.65833,-115
29.66667,-115
29.67500,-116
29.68333,-118
29.69167,-119
29.70000,-120
29.70833,-121
29.71667,-122
29.72500,-124
29.73333,-126
29.74167,-128
29.75000,-129
29.75833,-131
29.76667,-133
29.77500,-136
29.78333,-138
29.79167,-140
29.80000,-143
29.80833,-145
29.81667,-148
29.82500,-150
29.83333,-153
29.84167,-156
29.85000,-158
29.85833,-161
29.86667,-164
29.87500,-167
29.88333,-170
29.89167,-173
29.90000,-176
29.90833,-180
29.91667,-183
29.92500,-187
29.93333,-190
29.94167,-194
29.95000,-198
29.95833,-202
29.96667,-206
29.97500,-210
29.98333,-214
29.99167,-218
30.00000,-221
30.00833,-225
30.01667,-229
30.02500,-233
30.03333,-236
30.04167,-240
30.05000,-243
30.05833,-247
30.06667,-250
30.07500,-253
30.08333,-255
30.09167,-258
30.10000,-261
30.10833,-263
30.11667,-266
30.12500,-269
30.13333,-272
30.14167,-274
30.15000,-276
30.15833,-278
30.16667,-280
30.17500,-281
30.18333,-282
30.19167,-283
30.20000,-284
30.20833,-285
30.21667,-285
30.22500,-286
30.23333,-287
30.24167,-287
30.25000,-287
30.25833,-286
30.26667,-286
30.27500,-285
30.28333,-284
30.29167,-283
30.30000,-281
30.30833,-280
30.31667,-278
30.32500,-276
30.33333,-274
30.34167,-272
30.35000,-269
30.35833,-267
30.36667,-264
30.37500,-262
30.38333,-259
30.39167,-256
30.40000,-253
30.40833,-250
30.41667,-247
30.42500,-244
30.43333,-241
30.44167,-238
30.45000,-235
30.45833,-232
30.46667,-229
30.47500,-225
30.48333,-222
30.49167,-218
30.50000,-214
30.50833,-211
30.51667,-207
30.52500,-203
30.53333,-200
30.54167,-196
30.55000,-193
30.55833,-190
30.56667,-186
30.57500,-183
30.58333,-179
30.59167,-176
30.60000,-173
30.60833,-170
30.61667,-166
30.62500,-164
30.63333,-161
30.64167,-158
30.65000,-156
30.65833,-153
30.66667,-150
30.67500,-148
30.68333,-145
30.69167,-143
30.70000,-141
30.70833,-138
30.71667,-136
30.72500,-134
30.73333,-132
30.74167,-130
30.75000,-128
30.75833,-126
30.76667,-124
30.77500,-123
30.78333,-121
30.79167,-120
30.80000,-118
30.80833,-117
30.81667,-115
30.82500,-114
30.83333,-113
30.84167,-111
30.85000,-110
30.85833,-109
30.86667,-108
30.87500,-107
30.88333,-106
30.89167,-105
30.90000,-104
30.90833,-103
30.91667,-102
30.92500,-101
30.93333,-100
30.94167,-99
30.95000,-99
30.95833,-98
30.96667,-98
30.97500,-97
30.98333,-97
30.99167,-96
31.00000,-95
31.00833,-94
31.01667,-94
31.02500,-93
31.03333,-92
31.04167,-91
31.05000,-90
31.05833,-89
31.06667,-89
31.07500,-88
31.08333,-87
31.09167,-87
31.10000,-86
31.10833,-85
31.11667,-84
31.12500,-84
31.13333,-83
31.14167,-81
31.15000,-80
31.15833,-79
31.16667,-78
31.17500,-77
31.18333,-76
31.19167,-75
31.20000,-74
31.20833,-73
31.21667,-72
31.22500,-71
31.23333,-70
31.24167,-68
31.25000,-67
31.25833,-66
31.26667,-65
31.27500,-64
31.28333,-62
31.29167,-61
31.30000,-59
31.30833,-58
31.31667,-57
31.32500,-56
31.33333,-55
31.34167,-54
31.35000,-53
31.35833,-51
31.36667,-50
31.37500,-49
31.38333,-48
31.39167,-46
31.40000,-45
31.40833,-43
31.41667,-42
31.42500,-40
31.43333,-39
31.44167,-38
31.45000,-36
31.45833,-35
31.46667,-34
31.47500,-33
31.48333,-32
31.49167,-30
31.50000,-29
31.50833,-28
31.51667,-27
31.52500,-25
31.53333,-24
31.54167,-23
31.55000,-22
31.55833,-21
31.56667,-20
31.57500,-20
31.58333,-19
31.59167,-18
31.60000,-17
31.60833,-17
31.61667,-16
31.62500,-14
31.63333,-13
31.64167,-12
31.65000,-11
31.65833,-10
31.66667,-9
31.67500,-8
31.68333,-7
31.69167,-6
31.70000,-5
31.70833,-4
31.71667,-3
31.72500,-3
31.73333,-2
31.74167,-2
31.75000,-1
31.75833,-0
31.76667,0
31.77500,0
31.78333,1
31.79167,1
31.80000,2
31.80833,2
31.81667,3
31.82500,3
31.83333,3
31.84167,4
31.85000,5
31.85833,5
31.86667,6
31.87500,7
31.88333,8
31.89167,8
31.90000,9
31.90833,9
31.91667,10
31.92500,11
31.93333,11
31.94167,11
31.95000,12
31.95833,12
31.96667,13
31.97500,14
31.98333,15
31.99167,15
32.00000,16
32.00833,16
32.01667,17
32.02500,17
32.03333,18
32.04167,18
32.05000,18
32.05833,19
32.06667,19
32.07500,19
32.08333,20
32.09167,20
32.10000,21
32.10833,21
32.11667,21
32.12500,22
32.13333,22
32.14167,23
32.15000,23
32.15833,24
32.16667,24
32.17500,24
32.18333,25
32.19167,25
32.20000,25
32.20833,26
32.21667,26
32.22500,27
32.23333,27
32.24167,28
32.25000,28
32.25833,29
32.26667,30
32.27500,30
32.28333,30
32.29167,31
32.30000,31
32.30833,32
32.31667,32
32.32500,32
32.33333,33
32.34167,33
32.35000,33
32.35833,34
32.36667,34
32.37500,34
32.38333,35
32.39167,36
32.40000,37
32.40833,37
32.41667,38
32.42500,39
32.43333,39
32.44167,40
32.45000,40
32.45833,40
32.46667,41
32.47500,41
32.48333,41
32.49167,41
32.50000,41
32.50833,42
32.51667,42
32.52500,42
32.53333,43
32.54167,43
32.55000,44
32.55833,45
32.56667,46
32.57500,47
32.58333,47
32.59167,48
32.60000,48
32.60833,48
32.61667,49
32.62500,49
32.63333,49
32.64167,49
32.65000,49
32.65833,50
32.66667,50
32.67500,51
32.68333,51
32.69167,52
32.70000,52
32.70833,52
32.71667,52
32.72500,52
32.73333,52
32.74167,53
32.75000,53
32.75833,53
32.76667,54
32.77500,54
32.78333,54
32.79167,54
32.80000,54
32.80833,55
32.81667,55
32.82500,55
32.83333,56
32.84167,56
32.85000,56
32.85833,56
32.86667,56
32.87500,56
32.88333,56
32.89167,57
32.90000,57
32.90833,57
32.91667,58
32.92500,58
32.93333,58
32.94167,59
32.95000,59
32.95833,60
32.96667,60
32.97500,60
32.98333,59
32.99167,59
33.00000,59
33.00833,59
33.01667,60
33.02500,60
33.03333,61
33.04167,62
33.05000,62
33.05833,63
33.06667,63
33.07500,62
33.08333,62
33.09167,63
33.10000,63
33.10833,63
33.11667,63
33.12500,63
33.13333,63
33.14167,63
33.15000,63
33.15833,63
33.16667,64
33.17500,64
33.18333,64
33.19167,64
33.20000,65
33.20833,65
33.21667,65
33.22500,65
33.23333,65
33.24167,64
33.25000,65
33.25833,65
33.26667,65
33.27500,65
33.28333,66
33.29167,66
33.30000,66
33.30833,66
33.31667,66
33.32500,66
33.33333,66
33.34167,67
33.35000,66
33.35833,66
33.36667,66
33.37500,66
33.38333,66
33.39167,66
33.40000,67
33.40833,67
33.41667,67
33.42500,67
33.43333,67
33.44167,66
33.45000,66
33.45833,66
33.46667,66
33.47500,66
33.48333,66
33.49167,66
33.50000,66
33.50833,66
33.51667,66
33.52500,66
33.53333,66
33.54167,65
33.55000,65
33.55833,65
33.56667,65
33.57500,65
33.58333,66
33.59167,66
33.60000,66
33.60833,66
33.61667,66
33.62500,66
33.63333,66
33.64167,65
33.65000,65
33.65833,65
33.66667,65
33.67500,65
33.68333,65
33.69167,65
33.70000,65
33.70833,65
33.71667,66
33.72500,66
33.73333,66
33.74167,66
33.75000,66
33.75833,67
33.76667,67
33.77500,67
33.78333,66
33.79167,67
33.80000,67
33.80833,68
33.81667,68
33.82500,68
33.83333,68
33.84167,67
33.85000,67
33.85833,67
33.86667,67
33.87500,67
33.88333,67
33.89167,67
33.90000,67
33.90833,67
33.91667,66
33.92500,66
33.93333,66
33.94167,67
33.95000,67
33.95833,68
33.96667,68
33.97500,68
33.98333,68
33.99167,68
34.00000,67
34.00833,67
34.01667,67
34.02500,67
34.03333,68
34.04167,68
34.05000,68
34.05833,68
34.06667,68
34.07500,68
34.08333,68
34.09167,68
34.10000,68
34.10833,68
34.11667,68
34.12500,68
34.13333,68
34.14167,67
34.15000,67
34.15833,68
34.16667,68
34.17500,68
34.18333,68
34.19167,68
34.20000,68
34.20833,68
34.21667,68
34.22500,68
34.23333,69
34.24167,69
34.25000,69
34.25833,70
34.26667,70
34.27500,69
34.28333,69
34.29167,69
34.30000,69
34.30833,69
34.31667,69
34.32500,70
34.33333,70
34.34167,70
34.35000,71
34.35833,70
34.36667,70
34.37500,70
34.38333,70
34.39167,70
34.40000,70
34.40833,70
34.41667,70
34.42500,69
34.43333,69
34.44167,69
34.45000,70
34.45833,70
34.46667,70
34.47500,70
34.48333,70
34.49167,70
34.50000,70
34.50833,70
34.51667,70
34.52500,70
34.53333,71
34.54167,71
34.55000,71
34.55833,71
34.56667,71
34.57500,71
34.58333,70
34.59167,70
34.60000,70
34.60833,69
34.61667,69
34.62500,70
34.63333,70
34.64167,70
34.65000,70
34.65833,70
34.66667,70
34.67500,71
34.68333,71
34.69167,71
34.70000,71
34.70833,71
34.71667,71
34.72500,71
34.73333,71
34.74167,71
34.75000,71
34.75833,71
34.76667,71
34.77500,71
34.78333,71
34.79167,71
34.80000,71
34.80833,71
34.81667,71
34.82500,71
34.83333,71
34.84167,70
34.85000,70
34.85833,70
34.86667,70
34.87500,71
34.88333,71
34.89167,71
34.90000,71
34.90833,71
34.91667,71
34.92500,71
34.93333,71
34.94167,71
34.95000,71
34.95833,71
34.96667,71
34.97500,71
34.98333,71
34.99167,71
35.00000,71
35.00833,71
35.01667,70
35.02500,70
35.03333,71
35.04167,71
35.05000,71
35.05833,71
35.06667,71
35.07500,71
35.08333,70
35.09167,70
35.10000,70
35.10833,70
35.11667,70
35.12500,71
35.13333,71
35.14167,72
35.15000,72
35.15833,72
35.16667,71
35.17500,71
35.18333,71
35.19167,72
35.20000,72
35.20833,72
35.21667,72
35.22500,71
35.23333,71
35.24167,71
35.25000,71
35.25833,71
35.26667,71
35.27500,71
35.28333,71
35.29167,70
35.30000,70
35.30833,70
35.31667,70
35.32500,70
35.33333,70
35.34167,70
35.35000,71
35.35833,71
35.36667,71
35.37500,71
35.38333,71
35.39167,71
35.40000,72
35.40833,72
35.41667,72
35.42500,72
35.43333,72
35.44167,72
35.45000,72
35.45833,72
35.46667,72
35.47500,72
35.48333,72
35.49167,72
35.50000,72
35.50833,72
35.51667,72
35.52500,72
35.53333,72
35.54167,72
35.55000,72
35.55833,72
35.56667,72
35.57500,72
35.58333,72
35.59167,72
35.60000,72
35.60833,73
35.61667,73
35.62500,73
35.63333,73
35.64167,73
35.65000,73
35.65833,73
35.66667,73
35.67500,72
35.68333,72
35.69167,72
35.70000,72
35.70833,72
35.71667,73
35.72500,72
35.73333,72
35.74167,72
35.75000,72
35.75833,72
35.76667,72
35.77500,72
35.78333,72
35.79167,72
35.80000,72
35.80833,73
35.81667,73
35.82500,73
35.83333,72
35.84167,72
35.85000,72
35.85833,72
35.86667,73
35.87500,73
35.88333,74
35.89167,74
35.90000,74
35.90833,74
35.91667,74
35.92500,74
35.93333,74
35.94167,74
35.95000,74
35.95833,74
35.96667,74
35.97500,74
35.98333,74
35.99167,74
36.00000,73
36.00833,73
36.01667,73
36.02500,73
36.03333,73
36.04167,73
36.05000,73
36.05833,73
36.06667,73
36.07500,73
36.08333,74
36.09167,74
36.10000,74
36.10833,74
36.11667,74
36.12500,74
36.13333,74
36.14167,74
36.15000,74
36.15833,74
36.16667,75
36.17500,75
36.18333,75
36.19167,75
36.20000,74
36.20833,74
36.21667,74
36.22500,74
36.23333,74
36.24167,74
36.25000,74
36.25833,74
36.26667,75
36.27500,75
36.28333,74
36.29167,74
36.30000,74
36.30833,74
36.31667,74
36.32500,74
36.33333,74
36.34167,74
36.35000,74
36.35833,75
36.36667,75
36.37500,76
36.38333,76
36.39167,76
36.40000,76
36.40833,76
36.41667,76
36.42500,76
36.43333,75
36.44167,75
36.45000,75
36.45833,75
36.46667,75
36.47500,75
36.48333,75
36.49167,75
36.50000,76
36.50833,76
36.51667,77
36.52500,77
36.53333,77
36.54167,77
36.55000,77
36.55833,77
36.56667,77
36.57500,78
36.58333,78
36.59167,78
36.60000,79
36.60833,79
36.61667,79
36.62500,80
36.63333,80
36.64167,80
36.65000,80
36.65833,80
36.66667,80
36.67500,80
36.68333,80
36.69167,80
36.70000,80
36.70833,80
36.71667,80
36.72500,80
36.73333,81
36.74167,81
36.75000,82
36.75833,82
36.76667,83
36.77500,83
36.78333,84
36.79167,84
36.80000,84
36.80833,85
36.81667,85
36.82500,85
36.83333,86
36.84167,86
36.85000,87
36.85833,87
36.86667,86
36.87500,86
36.88333,86
36.89167,86
36.90000,87
36.90833,87
36.91667,88
36.92500,88
36.93333,88
36.94167,88
36.95000,88
36.95833,89
36.96667,89
36.97500,89
36.98333,90
36.99167,90
37.00000,90
37.00833,90
37.01667,90
37.02500,91
37.03333,91
37.04167,91
37.05000,91
37.05833,91
37.06667,91
37.07500,91
37.08333,91
37.09167,91
37.10000,91
37.10833,91
37.11667,91
37.12500,91
37.13333,90
37.14167,90
37.15000,90
37.15833,90
37.16667,90
37.17500,90
37.18333,91
37.19167,91
37.20000,91
37.20833,91
37.21667,91
37.22500,91
37.23333,91
37.24167,91
37.25000,91
37.25833,91
37.26667,91
37.27500,91
37.28333,91
37.29167,90
37.30000,90
37.30833,90
37.31667,89
37.32500,89
37.33333,89
37.34167,89
37.35000,89
37.35833,88
37.36667,88
37.37500,88
37.38333,87
37.39167,87
37.40000,86
37.40833,86
37.41667,85
37.42500,85
37.43333,85
37.44167,85
37.45000,85
37.45833,85
37.46667,85
37.47500,85
37.48333,85
37.49167,84
37.50000,84
37.50833,84
37.51667,84
37.52500,83
37.53333,83
37.54167,83
37.55000,82
37.55833,82
37.56667,82
37.57500,82
37.58333,82
37.59167,82
37.60000,81
37.60833,81
37.61667,81
37.62500,80
37.63333,80
37.64167,79
37.65000,79
37.65833,79
37.66667,79
37.67500,79
37.68333,79
37.69167,79
37.70000,79
37.70833,79
37.71667,79
37.72500,79
37.73333,79
37.74167,79
37.75000,79
37.75833,78
37.76667,78
37.77500,78
37.78333,78
37.79167,78
37.80000,77
37.80833,77
37.81667,77
37.82500,76
37.83333,76
37.84167,75
37.85000,75
37.85833,75
37.86667,75
37.87500,76
37.88333,76
37.89167,76
37.90000,76
37.90833,76
37.91667,76
37.92500,76
37.93333,76
37.94167,76
37.95000,76
37.95833,76
37.96667,76
37.97500,76
37.98333,76
37.99167,76
38.00000,76
38.00833,76
38.01667,75
38.02500,75
38.03333,75
38.04167,75
38.05000,75
38.05833,75
38.06667,75
38.07500,74
38.08333,74
38.09167,74
38.10000,74
38.10833,74
38.11667,74
38.12500,74
38.13333,75
38.14167,75
38.15000,75
38.15833,75
38.16667,75
38.17500,75
38.18333,75
38.19167,76
38.20000,76
38.20833,76
38.21667,76
38.22500,75
38.23333,75
38.24167,74
38.25000,74
38.25833,74
38.26667,74
38.27500,75
38.28333,75
38.29167,75
38.30000,75
38.30833,75
38.31667,75
38.32500,76
38.33333,76
38.34167,76
38.35000,76
38.35833,76
38.36667,76
38.37500,76
38.38333,76
38.39167,76
38.40000,76
38.40833,77
38.41667,77
38.42500,77
38.43333,77
38.44167,77
38.45000,77
38.45833,77
38.46667,77
38.47500,77
38.48333,77
38.49167,77
38.50000,76
38.50833,76
38.51667,76
38.52500,77
38.53333,77
38.54167,77
38.55000,77
38.55833,76
38.56667,76
38.57500,77
38.58333,77
38.59167,77
38.60000,77
38.60833,77
38.61667,77
38.62500,77
38.63333,77
38.64167,77
38.65000,76
38.65833,76
38.66667,76
38.67500,76
38.68333,76
38.69167,77
38.70000,77
38.70833,77
38.71667,77
38.72500,77
38.73333,76
38.74167,76
38.75000,76
38.75833,76
38.76667,76
38.77500,76
38.78333,76
38.79167,76
38.80000,76
38.80833,75
38.81667,75
38.82500,75
38.83333,76
38.84167,76
38.85000,76
38.85833,76
38.86667,76
38.87500,76
38.88333,76
38.89167,76
38.90000,77
38.90833,77
38.91667,77
38.92500,77
38.93333,77
38.94167,78
38.95000,78
38.95833,77
38.96667,77
38.97500,77
38.98333,76
38.99167,76
39.00000,76
39.00833,76
39.01667,76
39.02500,76
39.03333,77
39.04167,77
39.05000,77
39.05833,77
39.06667,78
39.07500,78
39.08333,78
39.09167,78
39.10000,78
39.10833,78
39.11667,77
39.12500,77
39.13333,77
39.14167,77
39.15000,77
39.15833,77
39.16667,77
39.17500,77
39.18333,77
39.19167,77
39.20000,77
39.20833,77
39.21667,77
39.22500,77
39.23333,77
39.24167,77
39.25000,77
39.25833,77
39.26667,77
39.27500,77
39.28333,77
39.29167,77
39.30000,78
39.30833,78
39.31667,78
39.32500,78
39.33333,78
39.34167,78
39.35000,78
39.35833,78
39.36667,78
39.37500,78
39.38333,78
39.39167,78
39.40000,78
39.40833,78
39.41667,78
39.42500,78
39.43333,78
39.44167,78
39.45000,78
39.45833,78
39.46667,78
39.47500,78
39.48333,78
39.49167,78
39.50000,78
39.50833,78
39.51667,78
39.52500,78
39.53333,79
39.54167,79
39.55000,79
39.55833,79
39.56667,78
39.57500,78
39.58333,78
39.59167,78
39.60000,78
39.60833,78
39.61667,78
39.62500,78
39.63333,78
39.64167,78
39.65000,78
39.65833,78
39.66667,78
39.67500,78
39.68333,78
39.69167,78
39.70000,78
39.70833,78
39.71667,78
39.72500,78
39.73333,78
39.74167,78
39.75000,77
39.75833,77
39.76667,77
39.77500,77
39.78333,78
39.79167,78
39.80000,78
39.80833,78
39.81667,78
39.82500,78
39.83333,78
39.84167,78
39.85000,79
39.85833,79
39.86667,79
39.87500,79
39.88333,79
39.89167,79
39.90000,79
39.90833,78
39.91667,78
39.92500,78
39.93333,78
39.94167,78
39.95000,78
39.95833,78
39.96667,78
39.97500,79
39.98333,79
39.99167,79
40.00000,79

