[Header]
Application Name,LabSolutions
Version,5.97 SP1
Data File Name,C:\Users\cremerlab\Desktop\griffin\2021-03-31_NCM3722_NCglucose_turnover\2021-03-31_NCM3722_turnover_batch_3312021_003_031.lcd
Output Date,4/1/2021
Output Time,6:06:01 PM

[File Information]
Type,Data File
Generated,4/1/2021 5:25:39 PM
Generated by,System Administrator
Modified,4/1/2021 6:06:00 PM
Modified by,System Administrator

[Sample Information]
Operator Name,System Administrator
Acquired,4/1/2021 5:25:59 PM
Sample Type,1:Standard
Level,3
Sample Name,2021-03-31_glucose_glycerol_acetate_calibration_20mM
Sample ID,003
ISTD Amount1,1
ISTD Amount2,1
ISTD Amount3,1
ISTD Amount4,1
ISTD Amount5,1
ISTD Amount6,1
ISTD Amount7,1
ISTD Amount8,1
ISTD Amount9,1
ISTD Amount10,1
ISTD Amount11,1
ISTD Amount12,1
ISTD Amount13,1
ISTD Amount14,1
ISTD Amount15,1
ISTD Amount16,1
ISTD Amount17,1
ISTD Amount18,1
ISTD Amount19,1
ISTD Amount20,1
ISTD Amount21,1
ISTD Amount22,1
ISTD Amount23,1
ISTD Amount24,1
ISTD Amount25,1
ISTD Amount26,1
ISTD Amount27,1
ISTD Amount28,1
ISTD Amount29,1
ISTD Amount30,1
ISTD Amount31,1
ISTD Amount32,1
Sample Amount,1
Dilution Factor,1
Vial#,3
Injection Volume,20

[Original Files]
Data File,C:\Users\cremerlab\Desktop\griffin\2021-03-31_NCM3722_NCglucose_turnover\2021-03-31_NCM3722_turnover_batch_3312021_003_031.lcd
Method File,C:\LabSolutions\Data\Project1\organicacidsetc2.lcm
Batch File,C:\Users\cremerlab\Desktop\griffin\2021-03-31_NCM3722_NCglucose_turnover\2021-03-31_NCM3722_turnover_batch.lcb
Report Format File,c:\LabSolutions\System\DEFAULT.lsr

[File Description]


[Configuration]
Instrument Name,HPLC-PC-Instrument1
Instrument #,1
Line #,1
# of Detectors,2
Detector ID,Detector A,Detector B
Detector Name,Detector A,Detector B
# of Channels,1,1

[Peak Table(Detector A)]
# of Peaks,0

[Peak Table(Detector B)]
# of Peaks,3
Peak#,R.Time,I.Time,F.Time,Area,Height,A/H,Conc.,Mark,ID#,Name,k',Plate #,Plate Ht.,Tailing,Resolution,Sep.Factor,Area Ratio,Height Ratio,Conc. %,Norm Conc.
1,15.648,14.917,17.683,2099353,86766,24.196,0.000,   ,,,0.000,9763,15.364,1.153,0.000,0.000,0,0,0.000,0.000
2,22.075,21.317,23.508,588809,21725,27.102,0.000,   ,,,0.411,15401,9.740,1.092,9.557,0.000,0,0,0.000,0.000
3,25.061,24.317,26.233,241616,8220,29.393,0.000,   ,,,0.602,16698,8.983,1.067,4.015,1.465,0,0,0.000,0.000

[LC Chromatogram(Detector B-Ch1)]
Interval(msec),500
# of Points,4801
Start Time(min),0.000
End Time(min),40.000
Intensity Units,mV
Intensity Multiplier,0.001
R.Time (min),Intensity
0.00000,1
0.00833,1
0.01667,0
0.02500,-0
0.03333,-0
0.04167,-0
0.05000,-0
0.05833,-0
0.06667,-0
0.07500,-0
0.08333,0
0.09167,0
0.10000,0
0.10833,0
0.11667,0
0.12500,0
0.13333,0
0.14167,0
0.15000,1
0.15833,1
0.16667,1
0.17500,1
0.18333,1
0.19167,1
0.20000,1
0.20833,1
0.21667,1
0.22500,1
0.23333,1
0.24167,1
0.25000,1
0.25833,1
0.26667,1
0.27500,2
0.28333,2
0.29167,2
0.30000,1
0.30833,1
0.31667,1
0.32500,1
0.33333,0
0.34167,0
0.35000,1
0.35833,1
0.36667,1
0.37500,1
0.38333,1
0.39167,1
0.40000,1
0.40833,2
0.41667,2
0.42500,2
0.43333,2
0.44167,2
0.45000,2
0.45833,3
0.46667,3
0.47500,3
0.48333,3
0.49167,3
0.50000,3
0.50833,3
0.51667,3
0.52500,4
0.53333,4
0.54167,4
0.55000,3
0.55833,3
0.56667,3
0.57500,3
0.58333,2
0.59167,2
0.60000,2
0.60833,2
0.61667,2
0.62500,2
0.63333,2
0.64167,2
0.65000,3
0.65833,3
0.66667,2
0.67500,2
0.68333,2
0.69167,2
0.70000,2
0.70833,2
0.71667,2
0.72500,3
0.73333,3
0.74167,3
0.75000,3
0.75833,3
0.76667,3
0.77500,3
0.78333,3
0.79167,2
0.80000,2
0.80833,2
0.81667,2
0.82500,2
0.83333,2
0.84167,2
0.85000,2
0.85833,3
0.86667,3
0.87500,3
0.88333,3
0.89167,3
0.90000,3
0.90833,3
0.91667,3
0.92500,3
0.93333,3
0.94167,3
0.95000,3
0.95833,3
0.96667,4
0.97500,4
0.98333,4
0.99167,5
1.00000,5
1.00833,5
1.01667,4
1.02500,4
1.03333,4
1.04167,4
1.05000,4
1.05833,4
1.06667,4
1.07500,4
1.08333,4
1.09167,3
1.10000,3
1.10833,3
1.11667,3
1.12500,3
1.13333,4
1.14167,4
1.15000,4
1.15833,4
1.16667,4
1.17500,4
1.18333,4
1.19167,4
1.20000,4
1.20833,4
1.21667,5
1.22500,5
1.23333,5
1.24167,4
1.25000,4
1.25833,4
1.26667,4
1.27500,4
1.28333,4
1.29167,4
1.30000,3
1.30833,3
1.31667,3
1.32500,3
1.33333,3
1.34167,4
1.35000,4
1.35833,4
1.36667,4
1.37500,4
1.38333,5
1.39167,5
1.40000,5
1.40833,4
1.41667,4
1.42500,4
1.43333,4
1.44167,4
1.45000,4
1.45833,4
1.46667,4
1.47500,4
1.48333,4
1.49167,4
1.50000,4
1.50833,4
1.51667,4
1.52500,4
1.53333,4
1.54167,4
1.55000,4
1.55833,4
1.56667,4
1.57500,4
1.58333,4
1.59167,4
1.60000,4
1.60833,4
1.61667,4
1.62500,4
1.63333,4
1.64167,4
1.65000,4
1.65833,5
1.66667,5
1.67500,5
1.68333,5
1.69167,5
1.70000,5
1.70833,5
1.71667,5
1.72500,5
1.73333,6
1.74167,5
1.75000,5
1.75833,5
1.76667,5
1.77500,5
1.78333,5
1.79167,5
1.80000,5
1.80833,5
1.81667,5
1.82500,5
1.83333,5
1.84167,5
1.85000,5
1.85833,5
1.86667,5
1.87500,4
1.88333,5
1.89167,5
1.90000,5
1.90833,5
1.91667,6
1.92500,6
1.93333,6
1.94167,6
1.95000,6
1.95833,5
1.96667,5
1.97500,5
1.98333,5
1.99167,5
2.00000,5
2.00833,5
2.01667,4
2.02500,4
2.03333,5
2.04167,5
2.05000,5
2.05833,5
2.06667,5
2.07500,5
2.08333,5
2.09167,5
2.10000,5
2.10833,5
2.11667,5
2.12500,5
2.13333,6
2.14167,6
2.15000,7
2.15833,7
2.16667,7
2.17500,6
2.18333,6
2.19167,6
2.20000,6
2.20833,6
2.21667,6
2.22500,6
2.23333,6
2.24167,6
2.25000,6
2.25833,6
2.26667,6
2.27500,6
2.28333,6
2.29167,6
2.30000,6
2.30833,6
2.31667,6
2.32500,6
2.33333,6
2.34167,6
2.35000,7
2.35833,7
2.36667,7
2.37500,7
2.38333,7
2.39167,8
2.40000,8
2.40833,8
2.41667,8
2.42500,8
2.43333,7
2.44167,7
2.45000,7
2.45833,7
2.46667,7
2.47500,6
2.48333,6
2.49167,6
2.50000,6
2.50833,6
2.51667,6
2.52500,6
2.53333,6
2.54167,7
2.55000,7
2.55833,7
2.56667,7
2.57500,7
2.58333,7
2.59167,7
2.60000,7
2.60833,7
2.61667,7
2.62500,7
2.63333,7
2.64167,8
2.65000,8
2.65833,7
2.66667,7
2.67500,7
2.68333,6
2.69167,6
2.70000,6
2.70833,6
2.71667,6
2.72500,6
2.73333,6
2.74167,6
2.75000,6
2.75833,6
2.76667,6
2.77500,6
2.78333,7
2.79167,7
2.80000,7
2.80833,8
2.81667,7
2.82500,7
2.83333,7
2.84167,7
2.85000,7
2.85833,8
2.86667,8
2.87500,8
2.88333,8
2.89167,8
2.90000,8
2.90833,8
2.91667,9
2.92500,9
2.93333,8
2.94167,8
2.95000,8
2.95833,7
2.96667,7
2.97500,7
2.98333,7
2.99167,6
3.00000,6
3.00833,7
3.01667,7
3.02500,7
3.03333,7
3.04167,7
3.05000,7
3.05833,7
3.06667,8
3.07500,8
3.08333,8
3.09167,8
3.10000,8
3.10833,8
3.11667,8
3.12500,8
3.13333,8
3.14167,8
3.15000,8
3.15833,8
3.16667,9
3.17500,9
3.18333,8
3.19167,7
3.20000,7
3.20833,7
3.21667,7
3.22500,7
3.23333,8
3.24167,8
3.25000,8
3.25833,8
3.26667,8
3.27500,8
3.28333,8
3.29167,9
3.30000,9
3.30833,9
3.31667,9
3.32500,9
3.33333,8
3.34167,9
3.35000,9
3.35833,9
3.36667,10
3.37500,10
3.38333,9
3.39167,9
3.40000,9
3.40833,8
3.41667,8
3.42500,8
3.43333,8
3.44167,8
3.45000,8
3.45833,8
3.46667,8
3.47500,9
3.48333,9
3.49167,9
3.50000,9
3.50833,9
3.51667,9
3.52500,9
3.53333,8
3.54167,8
3.55000,8
3.55833,8
3.56667,8
3.57500,8
3.58333,8
3.59167,8
3.60000,8
3.60833,9
3.61667,9
3.62500,9
3.63333,9
3.64167,9
3.65000,9
3.65833,9
3.66667,9
3.67500,8
3.68333,9
3.69167,9
3.70000,9
3.70833,9
3.71667,9
3.72500,10
3.73333,10
3.74167,10
3.75000,10
3.75833,10
3.76667,10
3.77500,10
3.78333,10
3.79167,10
3.80000,10
3.80833,10
3.81667,10
3.82500,10
3.83333,10
3.84167,10
3.85000,10
3.85833,10
3.86667,10
3.87500,10
3.88333,10
3.89167,10
3.90000,10
3.90833,10
3.91667,10
3.92500,10
3.93333,10
3.94167,10
3.95000,10
3.95833,10
3.96667,10
3.97500,10
3.98333,10
3.99167,10
4.00000,10
4.00833,11
4.01667,11
4.02500,11
4.03333,11
4.04167,11
4.05000,11
4.05833,11
4.06667,11
4.07500,11
4.08333,11
4.09167,11
4.10000,11
4.10833,11
4.11667,11
4.12500,12
4.13333,12
4.14167,11
4.15000,11
4.15833,11
4.16667,11
4.17500,11
4.18333,10
4.19167,10
4.20000,10
4.20833,10
4.21667,10
4.22500,10
4.23333,11
4.24167,11
4.25000,11
4.25833,12
4.26667,12
4.27500,12
4.28333,12
4.29167,13
4.30000,12
4.30833,12
4.31667,12
4.32500,11
4.33333,11
4.34167,11
4.35000,11
4.35833,11
4.36667,11
4.37500,11
4.38333,11
4.39167,11
4.40000,11
4.40833,11
4.41667,11
4.42500,11
4.43333,11
4.44167,11
4.45000,12
4.45833,12
4.46667,12
4.47500,13
4.48333,12
4.49167,12
4.50000,12
4.50833,12
4.51667,12
4.52500,12
4.53333,12
4.54167,12
4.55000,12
4.55833,12
4.56667,12
4.57500,12
4.58333,12
4.59167,13
4.60000,13
4.60833,12
4.61667,12
4.62500,11
4.63333,11
4.64167,11
4.65000,11
4.65833,11
4.66667,12
4.67500,12
4.68333,13
4.69167,13
4.70000,13
4.70833,13
4.71667,13
4.72500,13
4.73333,13
4.74167,13
4.75000,13
4.75833,13
4.76667,13
4.77500,13
4.78333,13
4.79167,13
4.80000,13
4.80833,13
4.81667,13
4.82500,13
4.83333,13
4.84167,13
4.85000,13
4.85833,12
4.86667,12
4.87500,13
4.88333,13
4.89167,13
4.90000,13
4.90833,13
4.91667,13
4.92500,13
4.93333,13
4.94167,13
4.95000,14
4.95833,14
4.96667,15
4.97500,15
4.98333,15
4.99167,15
5.00000,14
5.00833,14
5.01667,14
5.02500,14
5.03333,14
5.04167,13
5.05000,13
5.05833,13
5.06667,13
5.07500,13
5.08333,13
5.09167,13
5.10000,14
5.10833,13
5.11667,13
5.12500,13
5.13333,13
5.14167,13
5.15000,13
5.15833,13
5.16667,14
5.17500,14
5.18333,14
5.19167,14
5.20000,14
5.20833,14
5.21667,14
5.22500,14
5.23333,14
5.24167,15
5.25000,15
5.25833,14
5.26667,14
5.27500,14
5.28333,14
5.29167,14
5.30000,13
5.30833,13
5.31667,13
5.32500,13
5.33333,13
5.34167,13
5.35000,13
5.35833,13
5.36667,13
5.37500,13
5.38333,13
5.39167,13
5.40000,14
5.40833,14
5.41667,14
5.42500,14
5.43333,14
5.44167,14
5.45000,13
5.45833,13
5.46667,14
5.47500,14
5.48333,14
5.49167,14
5.50000,14
5.50833,14
5.51667,14
5.52500,14
5.53333,14
5.54167,13
5.55000,13
5.55833,13
5.56667,13
5.57500,14
5.58333,14
5.59167,14
5.60000,15
5.60833,15
5.61667,15
5.62500,15
5.63333,14
5.64167,14
5.65000,14
5.65833,14
5.66667,15
5.67500,15
5.68333,15
5.69167,15
5.70000,15
5.70833,15
5.71667,15
5.72500,15
5.73333,15
5.74167,15
5.75000,15
5.75833,15
5.76667,15
5.77500,15
5.78333,14
5.79167,14
5.80000,14
5.80833,14
5.81667,14
5.82500,14
5.83333,14
5.84167,15
5.85000,15
5.85833,15
5.86667,15
5.87500,15
5.88333,15
5.89167,15
5.90000,16
5.90833,16
5.91667,16
5.92500,16
5.93333,16
5.94167,16
5.95000,16
5.95833,16
5.96667,16
5.97500,15
5.98333,15
5.99167,15
6.00000,15
6.00833,15
6.01667,15
6.02500,15
6.03333,15
6.04167,15
6.05000,15
6.05833,15
6.06667,16
6.07500,16
6.08333,17
6.09167,17
6.10000,17
6.10833,17
6.11667,16
6.12500,16
6.13333,16
6.14167,16
6.15000,16
6.15833,16
6.16667,16
6.17500,17
6.18333,17
6.19167,17
6.20000,17
6.20833,17
6.21667,17
6.22500,17
6.23333,17
6.24167,17
6.25000,16
6.25833,16
6.26667,16
6.27500,16
6.28333,16
6.29167,16
6.30000,17
6.30833,17
6.31667,16
6.32500,16
6.33333,16
6.34167,16
6.35000,17
6.35833,17
6.36667,17
6.37500,17
6.38333,17
6.39167,17
6.40000,17
6.40833,17
6.41667,17
6.42500,17
6.43333,17
6.44167,17
6.45000,17
6.45833,16
6.46667,16
6.47500,16
6.48333,16
6.49167,16
6.50000,16
6.50833,17
6.51667,17
6.52500,17
6.53333,18
6.54167,18
6.55000,18
6.55833,18
6.56667,18
6.57500,17
6.58333,17
6.59167,17
6.60000,18
6.60833,18
6.61667,18
6.62500,18
6.63333,18
6.64167,18
6.65000,18
6.65833,18
6.66667,18
6.67500,18
6.68333,18
6.69167,18
6.70000,18
6.70833,18
6.71667,17
6.72500,18
6.73333,18
6.74167,18
6.75000,18
6.75833,18
6.76667,18
6.77500,19
6.78333,19
6.79167,19
6.80000,20
6.80833,19
6.81667,19
6.82500,19
6.83333,19
6.84167,19
6.85000,19
6.85833,19
6.86667,19
6.87500,19
6.88333,19
6.89167,19
6.90000,19
6.90833,19
6.91667,19
6.92500,19
6.93333,19
6.94167,19
6.95000,19
6.95833,19
6.96667,18
6.97500,18
6.98333,18
6.99167,19
7.00000,19
7.00833,19
7.01667,18
7.02500,19
7.03333,19
7.04167,19
7.05000,19
7.05833,19
7.06667,19
7.07500,20
7.08333,20
7.09167,20
7.10000,20
7.10833,20
7.11667,20
7.12500,20
7.13333,20
7.14167,20
7.15000,20
7.15833,20
7.16667,20
7.17500,21
7.18333,21
7.19167,21
7.20000,21
7.20833,21
7.21667,21
7.22500,21
7.23333,20
7.24167,20
7.25000,20
7.25833,21
7.26667,21
7.27500,21
7.28333,21
7.29167,21
7.30000,21
7.30833,21
7.31667,21
7.32500,21
7.33333,21
7.34167,21
7.35000,21
7.35833,21
7.36667,21
7.37500,21
7.38333,20
7.39167,20
7.40000,20
7.40833,19
7.41667,19
7.42500,19
7.43333,20
7.44167,20
7.45000,20
7.45833,20
7.46667,20
7.47500,20
7.48333,20
7.49167,21
7.50000,21
7.50833,21
7.51667,21
7.52500,21
7.53333,21
7.54167,20
7.55000,20
7.55833,20
7.56667,20
7.57500,20
7.58333,20
7.59167,20
7.60000,20
7.60833,20
7.61667,20
7.62500,20
7.63333,20
7.64167,20
7.65000,19
7.65833,20
7.66667,20
7.67500,20
7.68333,20
7.69167,20
7.70000,21
7.70833,21
7.71667,21
7.72500,21
7.73333,21
7.74167,21
7.75000,21
7.75833,21
7.76667,21
7.77500,22
7.78333,22
7.79167,22
7.80000,22
7.80833,22
7.81667,22
7.82500,22
7.83333,22
7.84167,21
7.85000,21
7.85833,20
7.86667,20
7.87500,20
7.88333,20
7.89167,21
7.90000,20
7.90833,21
7.91667,21
7.92500,21
7.93333,21
7.94167,21
7.95000,21
7.95833,21
7.96667,21
7.97500,21
7.98333,21
7.99167,21
8.00000,21
8.00833,21
8.01667,21
8.02500,21
8.03333,22
8.04167,22
8.05000,22
8.05833,22
8.06667,22
8.07500,22
8.08333,22
8.09167,21
8.10000,21
8.10833,21
8.11667,21
8.12500,21
8.13333,21
8.14167,21
8.15000,21
8.15833,21
8.16667,22
8.17500,22
8.18333,22
8.19167,22
8.20000,22
8.20833,22
8.21667,23
8.22500,23
8.23333,23
8.24167,23
8.25000,23
8.25833,22
8.26667,22
8.27500,22
8.28333,22
8.29167,22
8.30000,22
8.30833,22
8.31667,22
8.32500,22
8.33333,22
8.34167,22
8.35000,22
8.35833,22
8.36667,22
8.37500,22
8.38333,22
8.39167,23
8.40000,23
8.40833,22
8.41667,22
8.42500,22
8.43333,22
8.44167,22
8.45000,23
8.45833,23
8.46667,23
8.47500,23
8.48333,23
8.49167,23
8.50000,23
8.50833,22
8.51667,22
8.52500,22
8.53333,22
8.54167,22
8.55000,22
8.55833,22
8.56667,22
8.57500,22
8.58333,22
8.59167,22
8.60000,22
8.60833,22
8.61667,22
8.62500,22
8.63333,23
8.64167,23
8.65000,23
8.65833,23
8.66667,23
8.67500,23
8.68333,23
8.69167,23
8.70000,24
8.70833,24
8.71667,24
8.72500,24
8.73333,24
8.74167,24
8.75000,24
8.75833,24
8.76667,24
8.77500,23
8.78333,23
8.79167,23
8.80000,22
8.80833,22
8.81667,23
8.82500,23
8.83333,23
8.84167,24
8.85000,24
8.85833,24
8.86667,24
8.87500,24
8.88333,24
8.89167,25
8.90000,25
8.90833,25
8.91667,25
8.92500,25
8.93333,24
8.94167,24
8.95000,24
8.95833,25
8.96667,25
8.97500,26
8.98333,26
8.99167,26
9.00000,25
9.00833,25
9.01667,25
9.02500,25
9.03333,24
9.04167,24
9.05000,24
9.05833,24
9.06667,24
9.07500,24
9.08333,25
9.09167,25
9.10000,25
9.10833,25
9.11667,25
9.12500,25
9.13333,25
9.14167,25
9.15000,25
9.15833,25
9.16667,26
9.17500,25
9.18333,25
9.19167,25
9.20000,25
9.20833,25
9.21667,25
9.22500,25
9.23333,25
9.24167,25
9.25000,25
9.25833,25
9.26667,25
9.27500,25
9.28333,25
9.29167,25
9.30000,25
9.30833,24
9.31667,24
9.32500,24
9.33333,24
9.34167,25
9.35000,25
9.35833,25
9.36667,25
9.37500,25
9.38333,25
9.39167,25
9.40000,26
9.40833,26
9.41667,26
9.42500,26
9.43333,25
9.44167,25
9.45000,25
9.45833,25
9.46667,25
9.47500,25
9.48333,25
9.49167,25
9.50000,25
9.50833,26
9.51667,26
9.52500,26
9.53333,27
9.54167,27
9.55000,27
9.55833,27
9.56667,28
9.57500,28
9.58333,28
9.59167,28
9.60000,28
9.60833,27
9.61667,27
9.62500,27
9.63333,27
9.64167,27
9.65000,27
9.65833,27
9.66667,26
9.67500,27
9.68333,26
9.69167,26
9.70000,27
9.70833,26
9.71667,26
9.72500,26
9.73333,26
9.74167,25
9.75000,26
9.75833,26
9.76667,26
9.77500,26
9.78333,26
9.79167,26
9.80000,26
9.80833,26
9.81667,26
9.82500,26
9.83333,26
9.84167,27
9.85000,27
9.85833,27
9.86667,27
9.87500,27
9.88333,27
9.89167,27
9.90000,27
9.90833,27
9.91667,27
9.92500,27
9.93333,27
9.94167,27
9.95000,27
9.95833,27
9.96667,27
9.97500,27
9.98333,27
9.99167,27
10.00000,27
10.00833,27
10.01667,27
10.02500,27
10.03333,27
10.04167,28
10.05000,28
10.05833,28
10.06667,28
10.07500,28
10.08333,28
10.09167,28
10.10000,27
10.10833,27
10.11667,27
10.12500,27
10.13333,27
10.14167,27
10.15000,27
10.15833,27
10.16667,27
10.17500,26
10.18333,26
10.19167,26
10.20000,26
10.20833,26
10.21667,26
10.22500,27
10.23333,27
10.24167,27
10.25000,27
10.25833,28
10.26667,28
10.27500,28
10.28333,28
10.29167,28
10.30000,28
10.30833,28
10.31667,28
10.32500,27
10.33333,27
10.34167,27
10.35000,28
10.35833,28
10.36667,28
10.37500,28
10.38333,28
10.39167,28
10.40000,28
10.40833,28
10.41667,27
10.42500,27
10.43333,27
10.44167,27
10.45000,27
10.45833,26
10.46667,26
10.47500,26
10.48333,25
10.49167,25
10.50000,25
10.50833,25
10.51667,24
10.52500,24
10.53333,23
10.54167,22
10.55000,22
10.55833,21
10.56667,19
10.57500,18
10.58333,16
10.59167,13
10.60000,9
10.60833,4
10.61667,-3
10.62500,-13
10.63333,-27
10.64167,-45
10.65000,-70
10.65833,-103
10.66667,-148
10.67500,-206
10.68333,-282
10.69167,-379
10.70000,-504
10.70833,-661
10.71667,-857
10.72500,-1099
10.73333,-1394
10.74167,-1749
10.75000,-2171
10.75833,-2667
10.76667,-3242
10.77500,-3900
10.78333,-4643
10.79167,-5472
10.80000,-6384
10.80833,-7373
10.81667,-8432
10.82500,-9549
10.83333,-10711
10.84167,-11902
10.85000,-13105
10.85833,-14300
10.86667,-15468
10.87500,-16590
10.88333,-17647
10.89167,-18622
10.90000,-19498
10.90833,-20263
10.91667,-20906
10.92500,-21419
10.93333,-21798
10.94167,-22039
10.95000,-22144
10.95833,-22115
10.96667,-21958
10.97500,-21679
10.98333,-21289
10.99167,-20796
11.00000,-20211
11.00833,-19547
11.01667,-18815
11.02500,-18028
11.03333,-17197
11.04167,-16333
11.05000,-15448
11.05833,-14552
11.06667,-13654
11.07500,-12762
11.08333,-11885
11.09167,-11028
11.10000,-10198
11.10833,-9399
11.11667,-8635
11.12500,-7909
11.13333,-7223
11.14167,-6578
11.15000,-5975
11.15833,-5415
11.16667,-4896
11.17500,-4418
11.18333,-3979
11.19167,-3577
11.20000,-3212
11.20833,-2881
11.21667,-2581
11.22500,-2311
11.23333,-2069
11.24167,-1852
11.25000,-1657
11.25833,-1485
11.26667,-1331
11.27500,-1195
11.28333,-1074
11.29167,-967
11.30000,-873
11.30833,-789
11.31667,-715
11.32500,-650
11.33333,-593
11.34167,-542
11.35000,-497
11.35833,-456
11.36667,-421
11.37500,-389
11.38333,-360
11.39167,-335
11.40000,-312
11.40833,-291
11.41667,-273
11.42500,-256
11.43333,-242
11.44167,-228
11.45000,-215
11.45833,-204
11.46667,-193
11.47500,-183
11.48333,-174
11.49167,-166
11.50000,-158
11.50833,-151
11.51667,-144
11.52500,-138
11.53333,-133
11.54167,-127
11.55000,-122
11.55833,-117
11.56667,-112
11.57500,-108
11.58333,-103
11.59167,-99
11.60000,-95
11.60833,-92
11.61667,-88
11.62500,-85
11.63333,-81
11.64167,-78
11.65000,-75
11.65833,-72
11.66667,-69
11.67500,-67
11.68333,-65
11.69167,-62
11.70000,-60
11.70833,-58
11.71667,-56
11.72500,-54
11.73333,-52
11.74167,-50
11.75000,-49
11.75833,-47
11.76667,-45
11.77500,-44
11.78333,-42
11.79167,-40
11.80000,-39
11.80833,-37
11.81667,-36
11.82500,-35
11.83333,-33
11.84167,-32
11.85000,-30
11.85833,-29
11.86667,-27
11.87500,-26
11.88333,-24
11.89167,-22
11.90000,-21
11.90833,-20
11.91667,-19
11.92500,-18
11.93333,-16
11.94167,-15
11.95000,-15
11.95833,-14
11.96667,-13
11.97500,-12
11.98333,-12
11.99167,-11
12.00000,-10
12.00833,-10
12.01667,-10
12.02500,-10
12.03333,-9
12.04167,-9
12.05000,-9
12.05833,-9
12.06667,-8
12.07500,-8
12.08333,-8
12.09167,-7
12.10000,-7
12.10833,-6
12.11667,-6
12.12500,-6
12.13333,-5
12.14167,-5
12.15000,-6
12.15833,-6
12.16667,-6
12.17500,-6
12.18333,-6
12.19167,-6
12.20000,-6
12.20833,-7
12.21667,-7
12.22500,-7
12.23333,-7
12.24167,-7
12.25000,-7
12.25833,-8
12.26667,-8
12.27500,-8
12.28333,-8
12.29167,-7
12.30000,-7
12.30833,-7
12.31667,-6
12.32500,-5
12.33333,-5
12.34167,-5
12.35000,-4
12.35833,-4
12.36667,-4
12.37500,-4
12.38333,-4
12.39167,-3
12.40000,-4
12.40833,-4
12.41667,-4
12.42500,-4
12.43333,-3
12.44167,-2
12.45000,-2
12.45833,-1
12.46667,-1
12.47500,-1
12.48333,-1
12.49167,-1
12.50000,-1
12.50833,-1
12.51667,-1
12.52500,-0
12.53333,0
12.54167,1
12.55000,1
12.55833,1
12.56667,2
12.57500,2
12.58333,2
12.59167,2
12.60000,3
12.60833,3
12.61667,3
12.62500,4
12.63333,4
12.64167,5
12.65000,5
12.65833,6
12.66667,6
12.67500,6
12.68333,6
12.69167,6
12.70000,7
12.70833,7
12.71667,7
12.72500,7
12.73333,7
12.74167,8
12.75000,8
12.75833,9
12.76667,10
12.77500,11
12.78333,12
12.79167,13
12.80000,14
12.80833,15
12.81667,16
12.82500,17
12.83333,18
12.84167,19
12.85000,20
12.85833,21
12.86667,23
12.87500,24
12.88333,25
12.89167,26
12.90000,28
12.90833,29
12.91667,30
12.92500,32
12.93333,33
12.94167,35
12.95000,36
12.95833,38
12.96667,39
12.97500,41
12.98333,42
12.99167,44
13.00000,45
13.00833,47
13.01667,48
13.02500,50
13.03333,51
13.04167,52
13.05000,53
13.05833,54
13.06667,55
13.07500,57
13.08333,58
13.09167,60
13.10000,61
13.10833,62
13.11667,64
13.12500,65
13.13333,66
13.14167,67
13.15000,68
13.15833,68
13.16667,69
13.17500,70
13.18333,70
13.19167,70
13.20000,71
13.20833,71
13.21667,71
13.22500,72
13.23333,72
13.24167,73
13.25000,73
13.25833,73
13.26667,73
13.27500,73
13.28333,73
13.29167,73
13.30000,72
13.30833,72
13.31667,71
13.32500,71
13.33333,70
13.34167,69
13.35000,68
13.35833,67
13.36667,66
13.37500,65
13.38333,64
13.39167,63
13.40000,61
13.40833,60
13.41667,58
13.42500,57
13.43333,56
13.44167,54
13.45000,53
13.45833,51
13.46667,50
13.47500,48
13.48333,47
13.49167,46
13.50000,44
13.50833,43
13.51667,43
13.52500,42
13.53333,41
13.54167,40
13.55000,39
13.55833,38
13.56667,37
13.57500,36
13.58333,35
13.59167,34
13.60000,33
13.60833,32
13.61667,32
13.62500,31
13.63333,30
13.64167,29
13.65000,29
13.65833,28
13.66667,28
13.67500,27
13.68333,27
13.69167,27
13.70000,26
13.70833,26
13.71667,26
13.72500,25
13.73333,25
13.74167,25
13.75000,25
13.75833,25
13.76667,25
13.77500,25
13.78333,25
13.79167,25
13.80000,24
13.80833,24
13.81667,24
13.82500,24
13.83333,24
13.84167,24
13.85000,24
13.85833,24
13.86667,24
13.87500,24
13.88333,24
13.89167,24
13.90000,24
13.90833,24
13.91667,24
13.92500,24
13.93333,24
13.94167,24
13.95000,24
13.95833,24
13.96667,24
13.97500,25
13.98333,25
13.99167,25
14.00000,26
14.00833,26
14.01667,25
14.02500,25
14.03333,25
14.04167,25
14.05000,24
14.05833,24
14.06667,24
14.07500,24
14.08333,25
14.09167,25
14.10000,25
14.10833,26
14.11667,26
14.12500,26
14.13333,27
14.14167,27
14.15000,27
14.15833,27
14.16667,27
14.17500,27
14.18333,27
14.19167,27
14.20000,26
14.20833,26
14.21667,26
14.22500,26
14.23333,27
14.24167,27
14.25000,27
14.25833,27
14.26667,27
14.27500,27
14.28333,28
14.29167,28
14.30000,28
14.30833,28
14.31667,28
14.32500,28
14.33333,28
14.34167,28
14.35000,28
14.35833,29
14.36667,29
14.37500,28
14.38333,28
14.39167,28
14.40000,28
14.40833,28
14.41667,28
14.42500,28
14.43333,28
14.44167,29
14.45000,29
14.45833,29
14.46667,29
14.47500,29
14.48333,29
14.49167,29
14.50000,29
14.50833,30
14.51667,30
14.52500,30
14.53333,30
14.54167,30
14.55000,30
14.55833,31
14.56667,31
14.57500,31
14.58333,31
14.59167,31
14.60000,31
14.60833,31
14.61667,32
14.62500,32
14.63333,32
14.64167,31
14.65000,31
14.65833,31
14.66667,32
14.67500,32
14.68333,32
14.69167,32
14.70000,32
14.70833,32
14.71667,32
14.72500,32
14.73333,33
14.74167,33
14.75000,33
14.75833,33
14.76667,34
14.77500,34
14.78333,34
14.79167,34
14.80000,35
14.80833,35
14.81667,35
14.82500,35
14.83333,35
14.84167,35
14.85000,35
14.85833,35
14.86667,35
14.87500,35
14.88333,36
14.89167,37
14.90000,38
14.90833,39
14.91667,40
14.92500,41
14.93333,43
14.94167,44
14.95000,46
14.95833,48
14.96667,50
14.97500,52
14.98333,54
14.99167,56
15.00000,59
15.00833,62
15.01667,66
15.02500,70
15.03333,75
15.04167,80
15.05000,86
15.05833,92
15.06667,100
15.07500,108
15.08333,118
15.09167,130
15.10000,144
15.10833,160
15.11667,179
15.12500,201
15.13333,228
15.14167,259
15.15000,296
15.15833,340
15.16667,392
15.17500,454
15.18333,528
15.19167,616
15.20000,720
15.20833,842
15.21667,986
15.22500,1155
15.23333,1354
15.24167,1587
15.25000,1858
15.25833,2172
15.26667,2535
15.27500,2953
15.28333,3432
15.29167,3980
15.30000,4602
15.30833,5306
15.31667,6100
15.32500,6990
15.33333,7983
15.34167,9086
15.35000,10306
15.35833,11648
15.36667,13117
15.37500,14718
15.38333,16454
15.39167,18326
15.40000,20335
15.40833,22480
15.41667,24758
15.42500,27164
15.43333,29692
15.44167,32335
15.45000,35082
15.45833,37920
15.46667,40837
15.47500,43817
15.48333,46842
15.49167,49895
15.50000,52955
15.50833,56003
15.51667,59017
15.52500,61975
15.53333,64855
15.54167,67636
15.55000,70296
15.55833,72815
15.56667,75173
15.57500,77353
15.58333,79337
15.59167,81111
15.60000,82661
15.60833,83978
15.61667,85052
15.62500,85879
15.63333,86452
15.64167,86773
15.65000,86840
15.65833,86659
15.66667,86233
15.67500,85571
15.68333,84682
15.69167,83578
15.70000,82270
15.70833,80773
15.71667,79100
15.72500,77269
15.73333,75295
15.74167,73194
15.75000,70985
15.75833,68683
15.76667,66305
15.77500,63867
15.78333,61386
15.79167,58876
15.80000,56353
15.80833,53828
15.81667,51315
15.82500,48825
15.83333,46369
15.84167,43956
15.85000,41596
15.85833,39295
15.86667,37059
15.87500,34894
15.88333,32804
15.89167,30793
15.90000,28862
15.90833,27015
15.91667,25253
15.92500,23575
15.93333,21983
15.94167,20474
15.95000,19048
15.95833,17704
15.96667,16439
15.97500,15250
15.98333,14136
15.99167,13094
16.00000,12120
16.00833,11212
16.01667,10367
16.02500,9582
16.03333,8853
16.04167,8177
16.05000,7551
16.05833,6973
16.06667,6440
16.07500,5947
16.08333,5494
16.09167,5077
16.10000,4693
16.10833,4340
16.11667,4016
16.12500,3719
16.13333,3447
16.14167,3197
16.15000,2968
16.15833,2759
16.16667,2567
16.17500,2391
16.18333,2231
16.19167,2084
16.20000,1949
16.20833,1825
16.21667,1712
16.22500,1609
16.23333,1514
16.24167,1428
16.25000,1348
16.25833,1275
16.26667,1208
16.27500,1146
16.28333,1090
16.29167,1038
16.30000,990
16.30833,946
16.31667,905
16.32500,868
16.33333,833
16.34167,801
16.35000,772
16.35833,745
16.36667,720
16.37500,696
16.38333,674
16.39167,654
16.40000,635
16.40833,617
16.41667,601
16.42500,585
16.43333,571
16.44167,557
16.45000,544
16.45833,532
16.46667,520
16.47500,510
16.48333,500
16.49167,491
16.50000,482
16.50833,474
16.51667,466
16.52500,458
16.53333,451
16.54167,444
16.55000,437
16.55833,431
16.56667,425
16.57500,420
16.58333,415
16.59167,410
16.60000,405
16.60833,401
16.61667,397
16.62500,392
16.63333,388
16.64167,384
16.65000,380
16.65833,377
16.66667,373
16.67500,369
16.68333,366
16.69167,363
16.70000,360
16.70833,357
16.71667,354
16.72500,351
16.73333,348
16.74167,345
16.75000,342
16.75833,339
16.76667,337
16.77500,335
16.78333,332
16.79167,329
16.80000,327
16.80833,325
16.81667,322
16.82500,319
16.83333,317
16.84167,315
16.85000,313
16.85833,310
16.86667,308
16.87500,306
16.88333,304
16.89167,302
16.90000,299
16.90833,296
16.91667,293
16.92500,291
16.93333,289
16.94167,287
16.95000,284
16.95833,282
16.96667,280
16.97500,278
16.98333,276
16.99167,273
17.00000,271
17.00833,269
17.01667,267
17.02500,264
17.03333,262
17.04167,259
17.05000,257
17.05833,255
17.06667,253
17.07500,251
17.08333,249
17.09167,247
17.10000,245
17.10833,243
17.11667,241
17.12500,239
17.13333,237
17.14167,235
17.15000,233
17.15833,231
17.16667,230
17.17500,228
17.18333,226
17.19167,225
17.20000,223
17.20833,221
17.21667,220
17.22500,219
17.23333,217
17.24167,216
17.25000,214
17.25833,213
17.26667,211
17.27500,210
17.28333,208
17.29167,207
17.30000,206
17.30833,205
17.31667,204
17.32500,203
17.33333,202
17.34167,201
17.35000,199
17.35833,198
17.36667,196
17.37500,195
17.38333,195
17.39167,194
17.40000,193
17.40833,192
17.41667,191
17.42500,190
17.43333,189
17.44167,188
17.45000,187
17.45833,187
17.46667,186
17.47500,185
17.48333,185
17.49167,184
17.50000,183
17.50833,182
17.51667,181
17.52500,181
17.53333,180
17.54167,179
17.55000,178
17.55833,178
17.56667,177
17.57500,177
17.58333,176
17.59167,175
17.60000,174
17.60833,174
17.61667,174
17.62500,173
17.63333,173
17.64167,172
17.65000,171
17.65833,171
17.66667,170
17.67500,170
17.68333,170
17.69167,169
17.70000,169
17.70833,168
17.71667,168
17.72500,166
17.73333,166
17.74167,165
17.75000,165
17.75833,164
17.76667,163
17.77500,163
17.78333,162
17.79167,162
17.80000,161
17.80833,161
17.81667,161
17.82500,160
17.83333,160
17.84167,159
17.85000,159
17.85833,158
17.86667,158
17.87500,157
17.88333,156
17.89167,156
17.90000,155
17.90833,154
17.91667,154
17.92500,153
17.93333,153
17.94167,153
17.95000,152
17.95833,152
17.96667,151
17.97500,150
17.98333,150
17.99167,149
18.00000,149
18.00833,148
18.01667,147
18.02500,147
18.03333,147
18.04167,146
18.05000,146
18.05833,146
18.06667,145
18.07500,145
18.08333,144
18.09167,143
18.10000,143
18.10833,143
18.11667,142
18.12500,142
18.13333,141
18.14167,141
18.15000,140
18.15833,140
18.16667,139
18.17500,139
18.18333,138
18.19167,138
18.20000,137
18.20833,137
18.21667,136
18.22500,136
18.23333,135
18.24167,134
18.25000,134
18.25833,134
18.26667,133
18.27500,133
18.28333,133
18.29167,132
18.30000,132
18.30833,131
18.31667,130
18.32500,130
18.33333,129
18.34167,129
18.35000,129
18.35833,128
18.36667,128
18.37500,127
18.38333,127
18.39167,126
18.40000,126
18.40833,125
18.41667,125
18.42500,124
18.43333,124
18.44167,124
18.45000,123
18.45833,122
18.46667,122
18.47500,121
18.48333,120
18.49167,120
18.50000,120
18.50833,120
18.51667,120
18.52500,119
18.53333,119
18.54167,119
18.55000,119
18.55833,118
18.56667,118
18.57500,117
18.58333,117
18.59167,118
18.60000,117
18.60833,117
18.61667,117
18.62500,117
18.63333,117
18.64167,116
18.65000,116
18.65833,116
18.66667,116
18.67500,115
18.68333,115
18.69167,115
18.70000,115
18.70833,115
18.71667,116
18.72500,116
18.73333,117
18.74167,118
18.75000,119
18.75833,119
18.76667,120
18.77500,121
18.78333,122
18.79167,123
18.80000,124
18.80833,124
18.81667,125
18.82500,126
18.83333,127
18.84167,128
18.85000,129
18.85833,130
18.86667,131
18.87500,132
18.88333,133
18.89167,134
18.90000,135
18.90833,136
18.91667,137
18.92500,137
18.93333,138
18.94167,139
18.95000,139
18.95833,140
18.96667,141
18.97500,141
18.98333,142
18.99167,142
19.00000,142
19.00833,142
19.01667,141
19.02500,141
19.03333,141
19.04167,140
19.05000,140
19.05833,139
19.06667,138
19.07500,138
19.08333,137
19.09167,136
19.10000,135
19.10833,133
19.11667,132
19.12500,130
19.13333,129
19.14167,127
19.15000,126
19.15833,124
19.16667,123
19.17500,121
19.18333,119
19.19167,118
19.20000,116
19.20833,115
19.21667,114
19.22500,113
19.23333,112
19.24167,111
19.25000,110
19.25833,109
19.26667,107
19.27500,106
19.28333,105
19.29167,103
19.30000,103
19.30833,102
19.31667,100
19.32500,100
19.33333,99
19.34167,98
19.35000,97
19.35833,97
19.36667,96
19.37500,95
19.38333,94
19.39167,94
19.40000,94
19.40833,93
19.41667,93
19.42500,92
19.43333,92
19.44167,92
19.45000,91
19.45833,91
19.46667,90
19.47500,90
19.48333,89
19.49167,89
19.50000,89
19.50833,88
19.51667,88
19.52500,88
19.53333,88
19.54167,88
19.55000,88
19.55833,88
19.56667,87
19.57500,87
19.58333,86
19.59167,86
19.60000,86
19.60833,85
19.61667,85
19.62500,85
19.63333,85
19.64167,85
19.65000,85
19.65833,85
19.66667,84
19.67500,84
19.68333,84
19.69167,84
19.70000,84
19.70833,84
19.71667,84
19.72500,84
19.73333,83
19.74167,83
19.75000,83
19.75833,83
19.76667,83
19.77500,83
19.78333,82
19.79167,82
19.80000,82
19.80833,82
19.81667,82
19.82500,81
19.83333,81
19.84167,81
19.85000,81
19.85833,80
19.86667,80
19.87500,80
19.88333,80
19.89167,79
19.90000,79
19.90833,79
19.91667,80
19.92500,80
19.93333,80
19.94167,81
19.95000,81
19.95833,81
19.96667,81
19.97500,80
19.98333,80
19.99167,80
20.00000,80
20.00833,80
20.01667,80
20.02500,79
20.03333,79
20.04167,79
20.05000,79
20.05833,78
20.06667,78
20.07500,78
20.08333,78
20.09167,78
20.10000,77
20.10833,77
20.11667,77
20.12500,78
20.13333,78
20.14167,78
20.15000,77
20.15833,77
20.16667,77
20.17500,78
20.18333,78
20.19167,78
20.20000,79
20.20833,79
20.21667,78
20.22500,78
20.23333,78
20.24167,78
20.25000,77
20.25833,77
20.26667,77
20.27500,76
20.28333,76
20.29167,76
20.30000,76
20.30833,76
20.31667,76
20.32500,76
20.33333,76
20.34167,75
20.35000,75
20.35833,75
20.36667,75
20.37500,75
20.38333,75
20.39167,75
20.40000,75
20.40833,75
20.41667,75
20.42500,75
20.43333,75
20.44167,75
20.45000,75
20.45833,76
20.46667,76
20.47500,75
20.48333,75
20.49167,75
20.50000,75
20.50833,75
20.51667,74
20.52500,74
20.53333,73
20.54167,73
20.55000,72
20.55833,72
20.56667,73
20.57500,73
20.58333,73
20.59167,73
20.60000,73
20.60833,73
20.61667,73
20.62500,72
20.63333,72
20.64167,72
20.65000,73
20.65833,73
20.66667,73
20.67500,73
20.68333,73
20.69167,72
20.70000,73
20.70833,73
20.71667,73
20.72500,73
20.73333,73
20.74167,73
20.75000,73
20.75833,73
20.76667,72
20.77500,71
20.78333,71
20.79167,72
20.80000,72
20.80833,72
20.81667,72
20.82500,72
20.83333,72
20.84167,72
20.85000,71
20.85833,71
20.86667,71
20.87500,71
20.88333,71
20.89167,71
20.90000,71
20.90833,71
20.91667,71
20.92500,70
20.93333,70
20.94167,70
20.95000,70
20.95833,71
20.96667,71
20.97500,71
20.98333,70
20.99167,70
21.00000,70
21.00833,69
21.01667,69
21.02500,70
21.03333,70
21.04167,70
21.05000,70
21.05833,70
21.06667,70
21.07500,70
21.08333,70
21.09167,70
21.10000,70
21.10833,70
21.11667,70
21.12500,71
21.13333,71
21.14167,71
21.15000,71
21.15833,71
21.16667,70
21.17500,70
21.18333,70
21.19167,71
21.20000,71
21.20833,71
21.21667,71
21.22500,71
21.23333,71
21.24167,71
21.25000,71
21.25833,71
21.26667,72
21.27500,72
21.28333,73
21.29167,73
21.30000,74
21.30833,75
21.31667,76
21.32500,77
21.33333,78
21.34167,79
21.35000,81
21.35833,82
21.36667,84
21.37500,86
21.38333,88
21.39167,91
21.40000,94
21.40833,97
21.41667,100
21.42500,104
21.43333,109
21.44167,114
21.45000,120
21.45833,127
21.46667,134
21.47500,143
21.48333,152
21.49167,163
21.50000,176
21.50833,191
21.51667,207
21.52500,226
21.53333,247
21.54167,271
21.55000,297
21.55833,327
21.56667,360
21.57500,398
21.58333,441
21.59167,490
21.60000,544
21.60833,606
21.61667,674
21.62500,751
21.63333,836
21.64167,931
21.65000,1036
21.65833,1154
21.66667,1284
21.67500,1427
21.68333,1585
21.69167,1759
21.70000,1949
21.70833,2158
21.71667,2385
21.72500,2632
21.73333,2901
21.74167,3190
21.75000,3503
21.75833,3839
21.76667,4199
21.77500,4583
21.78333,4991
21.79167,5424
21.80000,5882
21.80833,6363
21.81667,6868
21.82500,7396
21.83333,7945
21.84167,8515
21.85000,9104
21.85833,9710
21.86667,10330
21.87500,10964
21.88333,11607
21.89167,12258
21.90000,12913
21.90833,13569
21.91667,14222
21.92500,14870
21.93333,15509
21.94167,16135
21.95000,16744
21.95833,17333
21.96667,17899
21.97500,18438
21.98333,18946
21.99167,19421
22.00000,19860
22.00833,20260
22.01667,20618
22.02500,20933
22.03333,21201
22.04167,21423
22.05000,21596
22.05833,21720
22.06667,21795
22.07500,21820
22.08333,21796
22.09167,21723
22.10000,21601
22.10833,21434
22.11667,21221
22.12500,20965
22.13333,20668
22.14167,20332
22.15000,19959
22.15833,19553
22.16667,19117
22.17500,18652
22.18333,18163
22.19167,17652
22.20000,17121
22.20833,16576
22.21667,16017
22.22500,15449
22.23333,14874
22.24167,14295
22.25000,13714
22.25833,13135
22.26667,12558
22.27500,11987
22.28333,11423
22.29167,10869
22.30000,10325
22.30833,9794
22.31667,9276
22.32500,8773
22.33333,8286
22.34167,7815
22.35000,7362
22.35833,6927
22.36667,6508
22.37500,6108
22.38333,5727
22.39167,5363
22.40000,5017
22.40833,4690
22.41667,4380
22.42500,4087
22.43333,3811
22.44167,3551
22.45000,3306
22.45833,3077
22.46667,2863
22.47500,2663
22.48333,2475
22.49167,2301
22.50000,2138
22.50833,1987
22.51667,1846
22.52500,1716
22.53333,1596
22.54167,1484
22.55000,1380
22.55833,1285
22.56667,1197
22.57500,1116
22.58333,1042
22.59167,973
22.60000,909
22.60833,851
22.61667,797
22.62500,748
22.63333,702
22.64167,661
22.65000,623
22.65833,588
22.66667,556
22.67500,526
22.68333,499
22.69167,474
22.70000,452
22.70833,431
22.71667,412
22.72500,394
22.73333,378
22.74167,364
22.75000,350
22.75833,337
22.76667,326
22.77500,315
22.78333,304
22.79167,295
22.80000,286
22.80833,277
22.81667,270
22.82500,263
22.83333,257
22.84167,252
22.85000,246
22.85833,241
22.86667,236
22.87500,232
22.88333,227
22.89167,223
22.90000,220
22.90833,217
22.91667,213
22.92500,210
22.93333,207
22.94167,204
22.95000,201
22.95833,198
22.96667,196
22.97500,194
22.98333,192
22.99167,190
23.00000,188
23.00833,186
23.01667,184
23.02500,183
23.03333,182
23.04167,180
23.05000,179
23.05833,177
23.06667,176
23.07500,175
23.08333,173
23.09167,172
23.10000,170
23.10833,169
23.11667,168
23.12500,167
23.13333,166
23.14167,164
23.15000,163
23.15833,162
23.16667,162
23.17500,161
23.18333,160
23.19167,159
23.20000,159
23.20833,158
23.21667,156
23.22500,155
23.23333,154
23.24167,154
23.25000,153
23.25833,152
23.26667,151
23.27500,150
23.28333,149
23.29167,149
23.30000,148
23.30833,147
23.31667,146
23.32500,145
23.33333,144
23.34167,143
23.35000,142
23.35833,142
23.36667,141
23.37500,140
23.38333,139
23.39167,138
23.40000,138
23.40833,137
23.41667,137
23.42500,137
23.43333,136
23.44167,135
23.45000,135
23.45833,134
23.46667,133
23.47500,132
23.48333,132
23.49167,131
23.50000,131
23.50833,131
23.51667,130
23.52500,130
23.53333,130
23.54167,129
23.55000,129
23.55833,128
23.56667,127
23.57500,127
23.58333,126
23.59167,126
23.60000,126
23.60833,125
23.61667,125
23.62500,125
23.63333,124
23.64167,123
23.65000,123
23.65833,123
23.66667,122
23.67500,122
23.68333,122
23.69167,121
23.70000,121
23.70833,121
23.71667,121
23.72500,121
23.73333,120
23.74167,120
23.75000,119
23.75833,118
23.76667,118
23.77500,118
23.78333,117
23.79167,117
23.80000,116
23.80833,116
23.81667,116
23.82500,116
23.83333,116
23.84167,116
23.85000,115
23.85833,115
23.86667,115
23.87500,115
23.88333,115
23.89167,115
23.90000,115
23.90833,115
23.91667,115
23.92500,115
23.93333,115
23.94167,115
23.95000,114
23.95833,114
23.96667,113
23.97500,113
23.98333,113
23.99167,113
24.00000,113
24.00833,113
24.01667,112
24.02500,112
24.03333,112
24.04167,112
24.05000,112
24.05833,111
24.06667,111
24.07500,111
24.08333,110
24.09167,110
24.10000,110
24.10833,110
24.11667,111
24.12500,111
24.13333,110
24.14167,110
24.15000,109
24.15833,109
24.16667,109
24.17500,109
24.18333,109
24.19167,109
24.20000,109
24.20833,109
24.21667,109
24.22500,109
24.23333,109
24.24167,109
24.25000,109
24.25833,110
24.26667,110
24.27500,110
24.28333,111
24.29167,111
24.30000,112
24.30833,112
24.31667,113
24.32500,114
24.33333,115
24.34167,116
24.35000,118
24.35833,119
24.36667,121
24.37500,124
24.38333,126
24.39167,129
24.40000,133
24.40833,136
24.41667,140
24.42500,144
24.43333,149
24.44167,155
24.45000,161
24.45833,167
24.46667,175
24.47500,184
24.48333,193
24.49167,204
24.50000,216
24.50833,229
24.51667,244
24.52500,260
24.53333,278
24.54167,299
24.55000,321
24.55833,346
24.56667,373
24.57500,404
24.58333,437
24.59167,474
24.60000,514
24.60833,558
24.61667,605
24.62500,658
24.63333,715
24.64167,777
24.65000,844
24.65833,917
24.66667,996
24.67500,1081
24.68333,1172
24.69167,1270
24.70000,1374
24.70833,1486
24.71667,1605
24.72500,1732
24.73333,1866
24.74167,2008
24.75000,2157
24.75833,2314
24.76667,2478
24.77500,2650
24.78333,2829
24.79167,3015
24.80000,3207
24.80833,3405
24.81667,3609
24.82500,3818
24.83333,4032
24.84167,4249
24.85000,4470
24.85833,4693
24.86667,4918
24.87500,5143
24.88333,5368
24.89167,5592
24.90000,5813
24.90833,6031
24.91667,6245
24.92500,6454
24.93333,6656
24.94167,6851
24.95000,7037
24.95833,7213
24.96667,7379
24.97500,7534
24.98333,7677
24.99167,7808
25.00000,7925
25.00833,8028
25.01667,8117
25.02500,8191
25.03333,8251
25.04167,8294
25.05000,8322
25.05833,8335
25.06667,8331
25.07500,8313
25.08333,8279
25.09167,8229
25.10000,8165
25.10833,8087
25.11667,7995
25.12500,7890
25.13333,7773
25.14167,7645
25.15000,7505
25.15833,7355
25.16667,7196
25.17500,7028
25.18333,6853
25.19167,6671
25.20000,6483
25.20833,6291
25.21667,6095
25.22500,5896
25.23333,5694
25.24167,5491
25.25000,5287
25.25833,5083
25.26667,4880
25.27500,4679
25.28333,4479
25.29167,4282
25.30000,4088
25.30833,3898
25.31667,3711
25.32500,3530
25.33333,3353
25.34167,3181
25.35000,3014
25.35833,2852
25.36667,2697
25.37500,2547
25.38333,2403
25.39167,2265
25.40000,2133
25.40833,2007
25.41667,1887
25.42500,1772
25.43333,1664
25.44167,1561
25.45000,1464
25.45833,1372
25.46667,1285
25.47500,1204
25.48333,1127
25.49167,1055
25.50000,988
25.50833,925
25.51667,866
25.52500,810
25.53333,759
25.54167,711
25.55000,667
25.55833,626
25.56667,587
25.57500,551
25.58333,518
25.59167,487
25.60000,459
25.60833,433
25.61667,409
25.62500,387
25.63333,366
25.64167,347
25.65000,330
25.65833,314
25.66667,299
25.67500,286
25.68333,273
25.69167,262
25.70000,251
25.70833,242
25.71667,233
25.72500,225
25.73333,218
25.74167,212
25.75000,205
25.75833,200
25.76667,194
25.77500,189
25.78333,185
25.79167,181
25.80000,177
25.80833,174
25.81667,171
25.82500,168
25.83333,165
25.84167,162
25.85000,159
25.85833,156
25.86667,154
25.87500,152
25.88333,150
25.89167,148
25.90000,147
25.90833,145
25.91667,144
25.92500,142
25.93333,141
25.94167,139
25.95000,138
25.95833,137
25.96667,136
25.97500,135
25.98333,134
25.99167,134
26.00000,133
26.00833,132
26.01667,131
26.02500,130
26.03333,130
26.04167,129
26.05000,128
26.05833,128
26.06667,127
26.07500,126
26.08333,126
26.09167,125
26.10000,125
26.10833,124
26.11667,124
26.12500,123
26.13333,123
26.14167,122
26.15000,121
26.15833,121
26.16667,120
26.17500,120
26.18333,119
26.19167,119
26.20000,118
26.20833,118
26.21667,117
26.22500,117
26.23333,117
26.24167,116
26.25000,116
26.25833,116
26.26667,116
26.27500,116
26.28333,116
26.29167,116
26.30000,115
26.30833,115
26.31667,114
26.32500,114
26.33333,113
26.34167,112
26.35000,112
26.35833,112
26.36667,112
26.37500,112
26.38333,112
26.39167,111
26.40000,111
26.40833,111
26.41667,111
26.42500,111
26.43333,111
26.44167,111
26.45000,112
26.45833,112
26.46667,111
26.47500,111
26.48333,111
26.49167,110
26.50000,110
26.50833,110
26.51667,110
26.52500,109
26.53333,110
26.54167,110
26.55000,110
26.55833,110
26.56667,110
26.57500,109
26.58333,109
26.59167,109
26.60000,109
26.60833,109
26.61667,109
26.62500,109
26.63333,108
26.64167,108
26.65000,109
26.65833,109
26.66667,109
26.67500,110
26.68333,110
26.69167,110
26.70000,110
26.70833,110
26.71667,109
26.72500,109
26.73333,109
26.74167,109
26.75000,109
26.75833,109
26.76667,109
26.77500,109
26.78333,108
26.79167,108
26.80000,107
26.80833,107
26.81667,106
26.82500,106
26.83333,106
26.84167,106
26.85000,106
26.85833,106
26.86667,105
26.87500,105
26.88333,105
26.89167,106
26.90000,106
26.90833,106
26.91667,106
26.92500,106
26.93333,106
26.94167,105
26.95000,105
26.95833,104
26.96667,104
26.97500,104
26.98333,104
26.99167,104
27.00000,104
27.00833,104
27.01667,104
27.02500,103
27.03333,103
27.04167,103
27.05000,103
27.05833,102
27.06667,102
27.07500,102
27.08333,102
27.09167,102
27.10000,102
27.10833,102
27.11667,102
27.12500,102
27.13333,102
27.14167,101
27.15000,101
27.15833,101
27.16667,101
27.17500,100
27.18333,101
27.19167,101
27.20000,100
27.20833,100
27.21667,100
27.22500,100
27.23333,100
27.24167,100
27.25000,100
27.25833,99
27.26667,99
27.27500,99
27.28333,99
27.29167,98
27.30000,98
27.30833,98
27.31667,98
27.32500,98
27.33333,98
27.34167,98
27.35000,98
27.35833,98
27.36667,98
27.37500,97
27.38333,97
27.39167,97
27.40000,97
27.40833,97
27.41667,97
27.42500,97
27.43333,97
27.44167,97
27.45000,97
27.45833,97
27.46667,97
27.47500,97
27.48333,97
27.49167,97
27.50000,97
27.50833,97
27.51667,97
27.52500,97
27.53333,97
27.54167,96
27.55000,96
27.55833,96
27.56667,96
27.57500,96
27.58333,95
27.59167,95
27.60000,95
27.60833,95
27.61667,96
27.62500,96
27.63333,96
27.64167,96
27.65000,96
27.65833,96
27.66667,96
27.67500,96
27.68333,96
27.69167,96
27.70000,96
27.70833,95
27.71667,95
27.72500,95
27.73333,94
27.74167,94
27.75000,94
27.75833,93
27.76667,93
27.77500,93
27.78333,92
27.79167,92
27.80000,92
27.80833,91
27.81667,91
27.82500,90
27.83333,90
27.84167,89
27.85000,89
27.85833,89
27.86667,88
27.87500,88
27.88333,88
27.89167,87
27.90000,86
27.90833,85
27.91667,84
27.92500,83
27.93333,82
27.94167,81
27.95000,80
27.95833,79
27.96667,77
27.97500,75
27.98333,73
27.99167,72
28.00000,70
28.00833,68
28.01667,66
28.02500,65
28.03333,63
28.04167,61
28.05000,59
28.05833,57
28.06667,54
28.07500,52
28.08333,50
28.09167,48
28.10000,45
28.10833,42
28.11667,40
28.12500,37
28.13333,34
28.14167,31
28.15000,28
28.15833,25
28.16667,21
28.17500,18
28.18333,14
28.19167,11
28.20000,8
28.20833,4
28.21667,1
28.22500,-3
28.23333,-6
28.24167,-9
28.25000,-13
28.25833,-16
28.26667,-19
28.27500,-22
28.28333,-25
28.29167,-28
28.30000,-30
28.30833,-33
28.31667,-36
28.32500,-38
28.33333,-41
28.34167,-43
28.35000,-45
28.35833,-48
28.36667,-50
28.37500,-51
28.38333,-53
28.39167,-55
28.40000,-56
28.40833,-58
28.41667,-59
28.42500,-59
28.43333,-60
28.44167,-61
28.45000,-61
28.45833,-61
28.46667,-61
28.47500,-61
28.48333,-61
28.49167,-60
28.50000,-60
28.50833,-59
28.51667,-58
28.52500,-56
28.53333,-55
28.54167,-53
28.55000,-51
28.55833,-49
28.56667,-47
28.57500,-45
28.58333,-43
28.59167,-41
28.60000,-39
28.60833,-37
28.61667,-35
28.62500,-32
28.63333,-29
28.64167,-27
28.65000,-24
28.65833,-21
28.66667,-18
28.67500,-16
28.68333,-13
28.69167,-10
28.70000,-8
28.70833,-5
28.71667,-2
28.72500,1
28.73333,4
28.74167,7
28.75000,9
28.75833,12
28.76667,15
28.77500,17
28.78333,20
28.79167,23
28.80000,25
28.80833,28
28.81667,30
28.82500,32
28.83333,35
28.84167,37
28.85000,39
28.85833,41
28.86667,43
28.87500,45
28.88333,47
28.89167,49
28.90000,50
28.90833,52
28.91667,53
28.92500,54
28.93333,55
28.94167,56
28.95000,58
28.95833,59
28.96667,61
28.97500,62
28.98333,63
28.99167,64
29.00000,65
29.00833,66
29.01667,68
29.02500,68
29.03333,69
29.04167,70
29.05000,71
29.05833,72
29.06667,73
29.07500,73
29.08333,73
29.09167,74
29.10000,75
29.10833,75
29.11667,76
29.12500,77
29.13333,77
29.14167,78
29.15000,79
29.15833,79
29.16667,80
29.17500,80
29.18333,80
29.19167,80
29.20000,80
29.20833,80
29.21667,81
29.22500,81
29.23333,81
29.24167,81
29.25000,81
29.25833,81
29.26667,81
29.27500,82
29.28333,82
29.29167,82
29.30000,83
29.30833,83
29.31667,83
29.32500,84
29.33333,84
29.34167,84
29.35000,84
29.35833,84
29.36667,84
29.37500,84
29.38333,84
29.39167,84
29.40000,84
29.40833,84
29.41667,84
29.42500,84
29.43333,83
29.44167,83
29.45000,83
29.45833,83
29.46667,83
29.47500,83
29.48333,84
29.49167,84
29.50000,84
29.50833,85
29.51667,84
29.52500,84
29.53333,84
29.54167,84
29.55000,84
29.55833,84
29.56667,83
29.57500,83
29.58333,82
29.59167,82
29.60000,81
29.60833,81
29.61667,81
29.62500,80
29.63333,80
29.64167,79
29.65000,79
29.65833,79
29.66667,78
29.67500,78
29.68333,77
29.69167,76
29.70000,76
29.70833,75
29.71667,75
29.72500,75
29.73333,74
29.74167,73
29.75000,73
29.75833,72
29.76667,71
29.77500,70
29.78333,69
29.79167,68
29.80000,68
29.80833,67
29.81667,67
29.82500,66
29.83333,65
29.84167,64
29.85000,63
29.85833,62
29.86667,61
29.87500,59
29.88333,58
29.89167,56
29.90000,55
29.90833,54
29.91667,53
29.92500,51
29.93333,50
29.94167,49
29.95000,48
29.95833,47
29.96667,46
29.97500,45
29.98333,44
29.99167,43
30.00000,43
30.00833,42
30.01667,40
30.02500,39
30.03333,38
30.04167,37
30.05000,36
30.05833,35
30.06667,34
30.07500,33
30.08333,32
30.09167,31
30.10000,30
30.10833,29
30.11667,28
30.12500,27
30.13333,27
30.14167,26
30.15000,25
30.15833,25
30.16667,25
30.17500,25
30.18333,25
30.19167,25
30.20000,25
30.20833,25
30.21667,25
30.22500,25
30.23333,26
30.24167,26
30.25000,26
30.25833,26
30.26667,26
30.27500,27
30.28333,28
30.29167,29
30.30000,29
30.30833,30
30.31667,30
30.32500,31
30.33333,32
30.34167,33
30.35000,34
30.35833,34
30.36667,35
30.37500,35
30.38333,36
30.39167,37
30.40000,38
30.40833,38
30.41667,39
30.42500,40
30.43333,42
30.44167,43
30.45000,44
30.45833,45
30.46667,46
30.47500,48
30.48333,49
30.49167,50
30.50000,51
30.50833,52
30.51667,53
30.52500,54
30.53333,55
30.54167,56
30.55000,57
30.55833,59
30.56667,60
30.57500,60
30.58333,61
30.59167,62
30.60000,63
30.60833,63
30.61667,64
30.62500,64
30.63333,65
30.64167,65
30.65000,66
30.65833,67
30.66667,67
30.67500,68
30.68333,69
30.69167,70
30.70000,71
30.70833,71
30.71667,72
30.72500,72
30.73333,73
30.74167,74
30.75000,74
30.75833,74
30.76667,74
30.77500,75
30.78333,75
30.79167,75
30.80000,76
30.80833,76
30.81667,77
30.82500,77
30.83333,77
30.84167,77
30.85000,77
30.85833,78
30.86667,78
30.87500,78
30.88333,78
30.89167,78
30.90000,78
30.90833,78
30.91667,79
30.92500,79
30.93333,79
30.94167,79
30.95000,79
30.95833,80
30.96667,80
30.97500,80
30.98333,80
30.99167,80
31.00000,80
31.00833,80
31.01667,80
31.02500,81
31.03333,81
31.04167,81
31.05000,81
31.05833,80
31.06667,80
31.07500,80
31.08333,80
31.09167,81
31.10000,81
31.10833,80
31.11667,80
31.12500,80
31.13333,80
31.14167,80
31.15000,81
31.15833,81
31.16667,81
31.17500,81
31.18333,81
31.19167,82
31.20000,82
31.20833,82
31.21667,82
31.22500,82
31.23333,82
31.24167,82
31.25000,82
31.25833,82
31.26667,83
31.27500,83
31.28333,83
31.29167,83
31.30000,83
31.30833,83
31.31667,83
31.32500,83
31.33333,83
31.34167,84
31.35000,84
31.35833,84
31.36667,85
31.37500,85
31.38333,84
31.39167,85
31.40000,85
31.40833,85
31.41667,85
31.42500,85
31.43333,85
31.44167,85
31.45000,86
31.45833,86
31.46667,86
31.47500,86
31.48333,86
31.49167,86
31.50000,87
31.50833,87
31.51667,87
31.52500,87
31.53333,87
31.54167,87
31.55000,87
31.55833,87
31.56667,87
31.57500,87
31.58333,87
31.59167,87
31.60000,87
31.60833,87
31.61667,87
31.62500,87
31.63333,87
31.64167,87
31.65000,88
31.65833,88
31.66667,88
31.67500,89
31.68333,89
31.69167,89
31.70000,89
31.70833,89
31.71667,88
31.72500,89
31.73333,89
31.74167,89
31.75000,89
31.75833,90
31.76667,89
31.77500,89
31.78333,90
31.79167,89
31.80000,89
31.80833,88
31.81667,88
31.82500,88
31.83333,88
31.84167,88
31.85000,89
31.85833,89
31.86667,89
31.87500,89
31.88333,89
31.89167,90
31.90000,90
31.90833,90
31.91667,90
31.92500,90
31.93333,89
31.94167,89
31.95000,89
31.95833,89
31.96667,89
31.97500,90
31.98333,90
31.99167,90
32.00000,90
32.00833,90
32.01667,90
32.02500,89
32.03333,89
32.04167,89
32.05000,89
32.05833,89
32.06667,89
32.07500,89
32.08333,89
32.09167,89
32.10000,90
32.10833,90
32.11667,90
32.12500,90
32.13333,90
32.14167,90
32.15000,90
32.15833,90
32.16667,90
32.17500,90
32.18333,90
32.19167,90
32.20000,90
32.20833,90
32.21667,91
32.22500,91
32.23333,91
32.24167,91
32.25000,91
32.25833,91
32.26667,91
32.27500,91
32.28333,91
32.29167,90
32.30000,90
32.30833,90
32.31667,90
32.32500,91
32.33333,91
32.34167,91
32.35000,91
32.35833,91
32.36667,91
32.37500,91
32.38333,91
32.39167,91
32.40000,91
32.40833,91
32.41667,91
32.42500,92
32.43333,92
32.44167,92
32.45000,92
32.45833,92
32.46667,92
32.47500,92
32.48333,92
32.49167,92
32.50000,92
32.50833,92
32.51667,92
32.52500,91
32.53333,91
32.54167,91
32.55000,91
32.55833,91
32.56667,91
32.57500,91
32.58333,91
32.59167,91
32.60000,92
32.60833,92
32.61667,92
32.62500,92
32.63333,92
32.64167,93
32.65000,93
32.65833,93
32.66667,93
32.67500,93
32.68333,93
32.69167,93
32.70000,92
32.70833,92
32.71667,92
32.72500,92
32.73333,92
32.74167,92
32.75000,92
32.75833,92
32.76667,92
32.77500,91
32.78333,91
32.79167,91
32.80000,91
32.80833,91
32.81667,91
32.82500,91
32.83333,92
32.84167,92
32.85000,92
32.85833,92
32.86667,92
32.87500,92
32.88333,92
32.89167,92
32.90000,92
32.90833,92
32.91667,92
32.92500,92
32.93333,92
32.94167,92
32.95000,92
32.95833,92
32.96667,92
32.97500,92
32.98333,92
32.99167,92
33.00000,92
33.00833,92
33.01667,92
33.02500,92
33.03333,92
33.04167,92
33.05000,92
33.05833,92
33.06667,93
33.07500,93
33.08333,93
33.09167,93
33.10000,93
33.10833,93
33.11667,93
33.12500,93
33.13333,93
33.14167,93
33.15000,93
33.15833,93
33.16667,93
33.17500,93
33.18333,93
33.19167,93
33.20000,93
33.20833,93
33.21667,93
33.22500,92
33.23333,92
33.24167,92
33.25000,92
33.25833,92
33.26667,92
33.27500,92
33.28333,93
33.29167,93
33.30000,93
33.30833,93
33.31667,93
33.32500,93
33.33333,93
33.34167,93
33.35000,93
33.35833,93
33.36667,94
33.37500,94
33.38333,94
33.39167,94
33.40000,94
33.40833,94
33.41667,94
33.42500,94
33.43333,93
33.44167,93
33.45000,93
33.45833,93
33.46667,93
33.47500,93
33.48333,93
33.49167,93
33.50000,93
33.50833,93
33.51667,93
33.52500,93
33.53333,93
33.54167,93
33.55000,93
33.55833,93
33.56667,93
33.57500,94
33.58333,94
33.59167,94
33.60000,94
33.60833,94
33.61667,94
33.62500,94
33.63333,94
33.64167,94
33.65000,94
33.65833,94
33.66667,94
33.67500,94
33.68333,94
33.69167,94
33.70000,94
33.70833,94
33.71667,94
33.72500,94
33.73333,94
33.74167,94
33.75000,94
33.75833,94
33.76667,94
33.77500,94
33.78333,94
33.79167,94
33.80000,94
33.80833,94
33.81667,95
33.82500,95
33.83333,95
33.84167,94
33.85000,94
33.85833,94
33.86667,94
33.87500,94
33.88333,94
33.89167,94
33.90000,94
33.90833,95
33.91667,94
33.92500,94
33.93333,94
33.94167,94
33.95000,94
33.95833,94
33.96667,93
33.97500,93
33.98333,93
33.99167,93
34.00000,93
34.00833,93
34.01667,94
34.02500,94
34.03333,94
34.04167,94
34.05000,94
34.05833,94
34.06667,94
34.07500,95
34.08333,95
34.09167,95
34.10000,95
34.10833,95
34.11667,95
34.12500,95
34.13333,95
34.14167,95
34.15000,95
34.15833,94
34.16667,94
34.17500,94
34.18333,94
34.19167,94
34.20000,94
34.20833,94
34.21667,94
34.22500,94
34.23333,95
34.24167,95
34.25000,95
34.25833,95
34.26667,95
34.27500,95
34.28333,95
34.29167,95
34.30000,95
34.30833,95
34.31667,95
34.32500,95
34.33333,95
34.34167,95
34.35000,95
34.35833,96
34.36667,95
34.37500,95
34.38333,95
34.39167,96
34.40000,96
34.40833,96
34.41667,95
34.42500,95
34.43333,94
34.44167,94
34.45000,94
34.45833,94
34.46667,94
34.47500,95
34.48333,95
34.49167,95
34.50000,96
34.50833,96
34.51667,96
34.52500,96
34.53333,96
34.54167,96
34.55000,96
34.55833,96
34.56667,96
34.57500,96
34.58333,96
34.59167,96
34.60000,96
34.60833,96
34.61667,96
34.62500,96
34.63333,96
34.64167,96
34.65000,96
34.65833,96
34.66667,96
34.67500,96
34.68333,97
34.69167,96
34.70000,96
34.70833,96
34.71667,96
34.72500,96
34.73333,96
34.74167,96
34.75000,96
34.75833,96
34.76667,96
34.77500,96
34.78333,96
34.79167,97
34.80000,96
34.80833,96
34.81667,97
34.82500,97
34.83333,97
34.84167,97
34.85000,97
34.85833,97
34.86667,97
34.87500,96
34.88333,96
34.89167,96
34.90000,96
34.90833,96
34.91667,96
34.92500,96
34.93333,96
34.94167,96
34.95000,97
34.95833,97
34.96667,97
34.97500,97
34.98333,97
34.99167,97
35.00000,98
35.00833,98
35.01667,98
35.02500,99
35.03333,99
35.04167,98
35.05000,98
35.05833,98
35.06667,98
35.07500,97
35.08333,97
35.09167,97
35.10000,97
35.10833,97
35.11667,97
35.12500,97
35.13333,97
35.14167,97
35.15000,97
35.15833,97
35.16667,97
35.17500,97
35.18333,97
35.19167,97
35.20000,97
35.20833,97
35.21667,97
35.22500,98
35.23333,98
35.24167,98
35.25000,98
35.25833,98
35.26667,98
35.27500,98
35.28333,98
35.29167,98
35.30000,98
35.30833,98
35.31667,98
35.32500,99
35.33333,99
35.34167,99
35.35000,99
35.35833,98
35.36667,98
35.37500,98
35.38333,98
35.39167,98
35.40000,98
35.40833,98
35.41667,98
35.42500,98
35.43333,99
35.44167,99
35.45000,99
35.45833,99
35.46667,99
35.47500,99
35.48333,99
35.49167,99
35.50000,99
35.50833,99
35.51667,99
35.52500,99
35.53333,99
35.54167,99
35.55000,99
35.55833,99
35.56667,99
35.57500,99
35.58333,98
35.59167,98
35.60000,98
35.60833,98
35.61667,98
35.62500,98
35.63333,98
35.64167,98
35.65000,98
35.65833,98
35.66667,98
35.67500,98
35.68333,98
35.69167,98
35.70000,98
35.70833,98
35.71667,98
35.72500,98
35.73333,98
35.74167,99
35.75000,99
35.75833,99
35.76667,99
35.77500,99
35.78333,100
35.79167,100
35.80000,100
35.80833,100
35.81667,99
35.82500,99
35.83333,99
35.84167,99
35.85000,99
35.85833,98
35.86667,99
35.87500,99
35.88333,99
35.89167,99
35.90000,99
35.90833,99
35.91667,99
35.92500,99
35.93333,99
35.94167,99
35.95000,99
35.95833,100
35.96667,100
35.97500,100
35.98333,100
35.99167,100
36.00000,99
36.00833,99
36.01667,99
36.02500,99
36.03333,99
36.04167,99
36.05000,99
36.05833,99
36.06667,98
36.07500,98
36.08333,99
36.09167,99
36.10000,98
36.10833,98
36.11667,98
36.12500,98
36.13333,98
36.14167,99
36.15000,99
36.15833,99
36.16667,99
36.17500,100
36.18333,100
36.19167,100
36.20000,100
36.20833,99
36.21667,99
36.22500,99
36.23333,99
36.24167,99
36.25000,99
36.25833,99
36.26667,99
36.27500,99
36.28333,99
36.29167,99
36.30000,99
36.30833,100
36.31667,100
36.32500,100
36.33333,100
36.34167,100
36.35000,100
36.35833,100
36.36667,100
36.37500,100
36.38333,99
36.39167,99
36.40000,99
36.40833,99
36.41667,99
36.42500,100
36.43333,100
36.44167,100
36.45000,100
36.45833,101
36.46667,101
36.47500,101
36.48333,101
36.49167,101
36.50000,101
36.50833,100
36.51667,100
36.52500,100
36.53333,100
36.54167,99
36.55000,100
36.55833,100
36.56667,100
36.57500,100
36.58333,100
36.59167,100
36.60000,101
36.60833,101
36.61667,101
36.62500,101
36.63333,101
36.64167,102
36.65000,102
36.65833,102
36.66667,102
36.67500,102
36.68333,101
36.69167,101
36.70000,101
36.70833,102
36.71667,102
36.72500,102
36.73333,102
36.74167,102
36.75000,102
36.75833,102
36.76667,101
36.77500,101
36.78333,101
36.79167,101
36.80000,102
36.80833,102
36.81667,102
36.82500,102
36.83333,102
36.84167,102
36.85000,102
36.85833,102
36.86667,102
36.87500,102
36.88333,102
36.89167,102
36.90000,102
36.90833,102
36.91667,102
36.92500,102
36.93333,102
36.94167,103
36.95000,103
36.95833,103
36.96667,103
36.97500,103
36.98333,103
36.99167,102
37.00000,102
37.00833,102
37.01667,102
37.02500,102
37.03333,101
37.04167,101
37.05000,101
37.05833,101
37.06667,101
37.07500,101
37.08333,101
37.09167,101
37.10000,102
37.10833,102
37.11667,103
37.12500,103
37.13333,103
37.14167,103
37.15000,103
37.15833,103
37.16667,103
37.17500,103
37.18333,103
37.19167,103
37.20000,102
37.20833,102
37.21667,102
37.22500,102
37.23333,102
37.24167,102
37.25000,102
37.25833,102
37.26667,102
37.27500,102
37.28333,102
37.29167,102
37.30000,102
37.30833,102
37.31667,102
37.32500,102
37.33333,101
37.34167,102
37.35000,102
37.35833,102
37.36667,102
37.37500,103
37.38333,103
37.39167,103
37.40000,103
37.40833,103
37.41667,103
37.42500,102
37.43333,103
37.44167,103
37.45000,103
37.45833,103
37.46667,102
37.47500,102
37.48333,102
37.49167,102
37.50000,102
37.50833,102
37.51667,102
37.52500,102
37.53333,102
37.54167,102
37.55000,102
37.55833,102
37.56667,103
37.57500,103
37.58333,103
37.59167,103
37.60000,103
37.60833,103
37.61667,103
37.62500,103
37.63333,103
37.64167,103
37.65000,103
37.65833,103
37.66667,104
37.67500,104
37.68333,103
37.69167,104
37.70000,104
37.70833,103
37.71667,103
37.72500,102
37.73333,102
37.74167,102
37.75000,102
37.75833,103
37.76667,103
37.77500,103
37.78333,103
37.79167,103
37.80000,103
37.80833,103
37.81667,103
37.82500,103
37.83333,103
37.84167,103
37.85000,104
37.85833,104
37.86667,104
37.87500,104
37.88333,104
37.89167,104
37.90000,104
37.90833,104
37.91667,104
37.92500,103
37.93333,103
37.94167,103
37.95000,103
37.95833,103
37.96667,103
37.97500,103
37.98333,103
37.99167,103
38.00000,103
38.00833,104
38.01667,104
38.02500,104
38.03333,104
38.04167,104
38.05000,105
38.05833,105
38.06667,105
38.07500,105
38.08333,105
38.09167,105
38.10000,105
38.10833,105
38.11667,105
38.12500,106
38.13333,106
38.14167,106
38.15000,106
38.15833,106
38.16667,106
38.17500,106
38.18333,105
38.19167,105
38.20000,105
38.20833,106
38.21667,106
38.22500,106
38.23333,106
38.24167,107
38.25000,107
38.25833,107
38.26667,107
38.27500,107
38.28333,107
38.29167,107
38.30000,108
38.30833,108
38.31667,108
38.32500,109
38.33333,109
38.34167,109
38.35000,109
38.35833,108
38.36667,108
38.37500,108
38.38333,108
38.39167,108
38.40000,108
38.40833,107
38.41667,107
38.42500,107
38.43333,107
38.44167,107
38.45000,107
38.45833,107
38.46667,107
38.47500,107
38.48333,107
38.49167,107
38.50000,107
38.50833,107
38.51667,107
38.52500,108
38.53333,108
38.54167,108
38.55000,108
38.55833,109
38.56667,109
38.57500,108
38.58333,108
38.59167,108
38.60000,108
38.60833,108
38.61667,108
38.62500,107
38.63333,107
38.64167,107
38.65000,107
38.65833,107
38.66667,107
38.67500,107
38.68333,107
38.69167,107
38.70000,107
38.70833,107
38.71667,107
38.72500,107
38.73333,107
38.74167,107
38.75000,107
38.75833,107
38.76667,107
38.77500,108
38.78333,108
38.79167,108
38.80000,108
38.80833,107
38.81667,107
38.82500,107
38.83333,107
38.84167,107
38.85000,107
38.85833,107
38.86667,107
38.87500,106
38.88333,106
38.89167,106
38.90000,106
38.90833,106
38.91667,106
38.92500,106
38.93333,106
38.94167,106
38.95000,106
38.95833,106
38.96667,106
38.97500,106
38.98333,106
38.99167,106
39.00000,106
39.00833,106
39.01667,106
39.02500,107
39.03333,107
39.04167,107
39.05000,107
39.05833,107
39.06667,107
39.07500,108
39.08333,108
39.09167,107
39.10000,107
39.10833,107
39.11667,107
39.12500,107
39.13333,107
39.14167,107
39.15000,107
39.15833,107
39.16667,107
39.17500,107
39.18333,107
39.19167,107
39.20000,107
39.20833,107
39.21667,107
39.22500,107
39.23333,107
39.24167,107
39.25000,107
39.25833,107
39.26667,108
39.27500,108
39.28333,108
39.29167,108
39.30000,108
39.30833,108
39.31667,108
39.32500,108
39.33333,107
39.34167,107
39.35000,107
39.35833,107
39.36667,108
39.37500,108
39.38333,108
39.39167,108
39.40000,108
39.40833,108
39.41667,108
39.42500,108
39.43333,108
39.44167,108
39.45000,108
39.45833,108
39.46667,108
39.47500,108
39.48333,108
39.49167,108
39.50000,108
39.50833,108
39.51667,108
39.52500,108
39.53333,108
39.54167,108
39.55000,108
39.55833,108
39.56667,109
39.57500,109
39.58333,108
39.59167,108
39.60000,108
39.60833,108
39.61667,108
39.62500,108
39.63333,108
39.64167,109
39.65000,109
39.65833,109
39.66667,109
39.67500,109
39.68333,109
39.69167,109
39.70000,109
39.70833,109
39.71667,109
39.72500,109
39.73333,109
39.74167,109
39.75000,109
39.75833,109
39.76667,108
39.77500,108
39.78333,108
39.79167,108
39.80000,109
39.80833,109
39.81667,108
39.82500,108
39.83333,108
39.84167,108
39.85000,109
39.85833,109
39.86667,109
39.87500,109
39.88333,110
39.89167,110
39.90000,110
39.90833,110
39.91667,110
39.92500,110
39.93333,110
39.94167,110
39.95000,109
39.95833,109
39.96667,109
39.97500,109
39.98333,109
39.99167,109
40.00000,109

