[Header]
Application Name,LabSolutions
Version,5.97 SP1
Data File Name,C:\Users\cremerlab\Desktop\griffin\2021-03-31_NCM3722_NCglucose_turnover\2021-03-31_NCM3722_turnover_batch_3312021_001_001.lcd
Output Date,3/31/2021
Output Time,7:13:18 PM

[File Information]
Type,Data File
Generated,3/31/2021 6:32:58 PM
Generated by,System Administrator
Modified,3/31/2021 7:13:18 PM
Modified by,System Administrator

[Sample Information]
Operator Name,System Administrator
Acquired,3/31/2021 6:33:17 PM
Sample Type,1:Standard
Level,1
Sample Name,2021-03-31_NCM3722_NCglucose_replicate_01_timepoint_001
Sample ID,001
ISTD Amount1,1
ISTD Amount2,1
ISTD Amount3,1
ISTD Amount4,1
ISTD Amount5,1
ISTD Amount6,1
ISTD Amount7,1
ISTD Amount8,1
ISTD Amount9,1
ISTD Amount10,1
ISTD Amount11,1
ISTD Amount12,1
ISTD Amount13,1
ISTD Amount14,1
ISTD Amount15,1
ISTD Amount16,1
ISTD Amount17,1
ISTD Amount18,1
ISTD Amount19,1
ISTD Amount20,1
ISTD Amount21,1
ISTD Amount22,1
ISTD Amount23,1
ISTD Amount24,1
ISTD Amount25,1
ISTD Amount26,1
ISTD Amount27,1
ISTD Amount28,1
ISTD Amount29,1
ISTD Amount30,1
ISTD Amount31,1
ISTD Amount32,1
Sample Amount,1
Dilution Factor,1
Vial#,10
Injection Volume,20

[Original Files]
Data File,C:\Users\cremerlab\Desktop\griffin\2021-03-31_NCM3722_NCglucose_turnover\2021-03-31_NCM3722_turnover_batch_3312021_001_001.lcd
Method File,C:\LabSolutions\Data\Project1\organicacidsetc2.lcm
Batch File,C:\Users\cremerlab\Desktop\griffin\2021-03-31_NCM3722_NCglucose_turnover\2021-03-31_NCM3722_turnover_batch.lcb
Report Format File,c:\LabSolutions\System\DEFAULT.lsr

[File Description]


[Configuration]
Instrument Name,HPLC-PC-Instrument1
Instrument #,1
Line #,1
# of Detectors,2
Detector ID,Detector A,Detector B
Detector Name,Detector A,Detector B
# of Channels,1,1

[Peak Table(Detector A)]
# of Peaks,0

[Peak Table(Detector B)]
# of Peaks,6
Peak#,R.Time,I.Time,F.Time,Area,Height,A/H,Conc.,Mark,ID#,Name,k',Plate #,Plate Ht.,Tailing,Resolution,Sep.Factor,Area Ratio,Height Ratio,Conc. %,Norm Conc.
1,3.830,2.908,4.458,20057,369,54.416,0.000,   ,,,0.000,129,1164.112,0.860,0.000,0.000,0,0,0.000,0.000
2,11.041,10.750,11.600,1043499,62509,16.694,0.000,   ,,,1.883,11017,13.615,0.000,8.145,0.000,0,0,0.000,0.000
3,11.993,11.600,13.633,208555,3051,68.348,0.000, V ,,,2.131,0,0.000,0.000,0.000,1.132,0,0,0.000,0.000
4,15.049,14.092,15.350,2697773,105571,25.554,0.000,   ,,,2.929,7553,19.859,0.000,0.000,1.374,0,0,0.000,0.000
5,15.616,15.350,18.233,835271,34423,24.265,0.000, V ,,,3.077,9130,16.429,0.000,0.841,1.050,0,0,0.000,0.000
6,25.036,24.692,25.525,2054,83,24.845,0.000,   ,,,5.536,21122,7.101,1.146,14.032,1.799,0,0,0.000,0.000

[LC Chromatogram(Detector B-Ch1)]
Interval(msec),500
# of Points,4801
Start Time(min),0.000
End Time(min),40.000
Intensity Units,mV
Intensity Multiplier,0.001
R.Time (min),Intensity
0.00000,117
0.00833,117
0.01667,2
0.02500,4
0.03333,6
0.04167,7
0.05000,8
0.05833,10
0.06667,11
0.07500,12
0.08333,13
0.09167,14
0.10000,16
0.10833,17
0.11667,19
0.12500,20
0.13333,20
0.14167,21
0.15000,22
0.15833,22
0.16667,22
0.17500,23
0.18333,23
0.19167,23
0.20000,24
0.20833,24
0.21667,25
0.22500,25
0.23333,26
0.24167,27
0.25000,28
0.25833,28
0.26667,29
0.27500,29
0.28333,30
0.29167,30
0.30000,30
0.30833,29
0.31667,30
0.32500,30
0.33333,30
0.34167,30
0.35000,30
0.35833,29
0.36667,30
0.37500,30
0.38333,29
0.39167,29
0.40000,29
0.40833,29
0.41667,29
0.42500,29
0.43333,29
0.44167,29
0.45000,28
0.45833,28
0.46667,27
0.47500,27
0.48333,27
0.49167,27
0.50000,27
0.50833,27
0.51667,27
0.52500,27
0.53333,27
0.54167,27
0.55000,27
0.55833,28
0.56667,29
0.57500,30
0.58333,31
0.59167,31
0.60000,32
0.60833,32
0.61667,31
0.62500,30
0.63333,28
0.64167,27
0.65000,25
0.65833,23
0.66667,21
0.67500,19
0.68333,17
0.69167,15
0.70000,13
0.70833,12
0.71667,11
0.72500,10
0.73333,9
0.74167,8
0.75000,7
0.75833,6
0.76667,6
0.77500,6
0.78333,6
0.79167,6
0.80000,6
0.80833,6
0.81667,6
0.82500,7
0.83333,7
0.84167,7
0.85000,8
0.85833,8
0.86667,8
0.87500,7
0.88333,7
0.89167,7
0.90000,6
0.90833,6
0.91667,6
0.92500,6
0.93333,5
0.94167,5
0.95000,5
0.95833,4
0.96667,4
0.97500,4
0.98333,4
0.99167,4
1.00000,4
1.00833,3
1.01667,3
1.02500,2
1.03333,2
1.04167,1
1.05000,1
1.05833,1
1.06667,0
1.07500,-0
1.08333,-0
1.09167,-1
1.10000,-1
1.10833,-1
1.11667,-1
1.12500,-2
1.13333,-2
1.14167,-2
1.15000,-3
1.15833,-4
1.16667,-5
1.17500,-5
1.18333,-5
1.19167,-6
1.20000,-6
1.20833,-7
1.21667,-7
1.22500,-7
1.23333,-8
1.24167,-8
1.25000,-8
1.25833,-9
1.26667,-9
1.27500,-9
1.28333,-10
1.29167,-11
1.30000,-11
1.30833,-12
1.31667,-12
1.32500,-13
1.33333,-13
1.34167,-14
1.35000,-14
1.35833,-14
1.36667,-14
1.37500,-15
1.38333,-15
1.39167,-16
1.40000,-16
1.40833,-17
1.41667,-17
1.42500,-17
1.43333,-17
1.44167,-18
1.45000,-18
1.45833,-18
1.46667,-18
1.47500,-19
1.48333,-19
1.49167,-20
1.50000,-20
1.50833,-20
1.51667,-21
1.52500,-21
1.53333,-21
1.54167,-21
1.55000,-20
1.55833,-21
1.56667,-21
1.57500,-22
1.58333,-23
1.59167,-24
1.60000,-24
1.60833,-25
1.61667,-25
1.62500,-25
1.63333,-25
1.64167,-25
1.65000,-25
1.65833,-26
1.66667,-26
1.67500,-26
1.68333,-26
1.69167,-27
1.70000,-28
1.70833,-28
1.71667,-28
1.72500,-28
1.73333,-28
1.74167,-28
1.75000,-28
1.75833,-28
1.76667,-29
1.77500,-29
1.78333,-29
1.79167,-29
1.80000,-30
1.80833,-30
1.81667,-30
1.82500,-31
1.83333,-31
1.84167,-32
1.85000,-32
1.85833,-32
1.86667,-33
1.87500,-33
1.88333,-33
1.89167,-33
1.90000,-33
1.90833,-33
1.91667,-33
1.92500,-33
1.93333,-33
1.94167,-34
1.95000,-34
1.95833,-35
1.96667,-35
1.97500,-35
1.98333,-35
1.99167,-34
2.00000,-34
2.00833,-35
2.01667,-35
2.02500,-35
2.03333,-35
2.04167,-36
2.05000,-36
2.05833,-37
2.06667,-37
2.07500,-37
2.08333,-37
2.09167,-37
2.10000,-37
2.10833,-37
2.11667,-37
2.12500,-38
2.13333,-38
2.14167,-39
2.15000,-39
2.15833,-39
2.16667,-38
2.17500,-38
2.18333,-38
2.19167,-38
2.20000,-38
2.20833,-38
2.21667,-38
2.22500,-38
2.23333,-38
2.24167,-38
2.25000,-38
2.25833,-39
2.26667,-39
2.27500,-39
2.28333,-39
2.29167,-39
2.30000,-39
2.30833,-39
2.31667,-40
2.32500,-40
2.33333,-40
2.34167,-40
2.35000,-40
2.35833,-39
2.36667,-39
2.37500,-39
2.38333,-38
2.39167,-38
2.40000,-38
2.40833,-38
2.41667,-38
2.42500,-38
2.43333,-38
2.44167,-38
2.45000,-38
2.45833,-37
2.46667,-37
2.47500,-37
2.48333,-37
2.49167,-37
2.50000,-37
2.50833,-37
2.51667,-37
2.52500,-37
2.53333,-36
2.54167,-36
2.55000,-36
2.55833,-36
2.56667,-36
2.57500,-36
2.58333,-35
2.59167,-35
2.60000,-34
2.60833,-34
2.61667,-34
2.62500,-34
2.63333,-33
2.64167,-33
2.65000,-32
2.65833,-31
2.66667,-31
2.67500,-30
2.68333,-29
2.69167,-29
2.70000,-28
2.70833,-27
2.71667,-26
2.72500,-25
2.73333,-24
2.74167,-23
2.75000,-23
2.75833,-22
2.76667,-21
2.77500,-20
2.78333,-18
2.79167,-17
2.80000,-16
2.80833,-14
2.81667,-13
2.82500,-11
2.83333,-9
2.84167,-7
2.85000,-5
2.85833,-3
2.86667,-1
2.87500,1
2.88333,4
2.89167,6
2.90000,9
2.90833,12
2.91667,15
2.92500,18
2.93333,22
2.94167,26
2.95000,30
2.95833,34
2.96667,38
2.97500,43
2.98333,47
2.99167,52
3.00000,57
3.00833,63
3.01667,69
3.02500,75
3.03333,81
3.04167,87
3.05000,94
3.05833,101
3.06667,108
3.07500,115
3.08333,122
3.09167,130
3.10000,138
3.10833,146
3.11667,155
3.12500,163
3.13333,172
3.14167,181
3.15000,189
3.15833,199
3.16667,208
3.17500,218
3.18333,228
3.19167,238
3.20000,247
3.20833,257
3.21667,267
3.22500,278
3.23333,288
3.24167,298
3.25000,309
3.25833,319
3.26667,330
3.27500,340
3.28333,350
3.29167,361
3.30000,371
3.30833,382
3.31667,392
3.32500,402
3.33333,412
3.34167,422
3.35000,432
3.35833,442
3.36667,452
3.37500,461
3.38333,471
3.39167,480
3.40000,490
3.40833,499
3.41667,508
3.42500,517
3.43333,526
3.44167,535
3.45000,543
3.45833,552
3.46667,559
3.47500,567
3.48333,575
3.49167,582
3.50000,589
3.50833,596
3.51667,602
3.52500,609
3.53333,615
3.54167,621
3.55000,627
3.55833,632
3.56667,638
3.57500,643
3.58333,648
3.59167,653
3.60000,657
3.60833,661
3.61667,666
3.62500,670
3.63333,674
3.64167,678
3.65000,681
3.65833,685
3.66667,688
3.67500,691
3.68333,693
3.69167,696
3.70000,698
3.70833,700
3.71667,702
3.72500,703
3.73333,704
3.74167,706
3.75000,707
3.75833,708
3.76667,709
3.77500,710
3.78333,711
3.79167,712
3.80000,712
3.80833,713
3.81667,713
3.82500,713
3.83333,713
3.84167,713
3.85000,712
3.85833,711
3.86667,710
3.87500,709
3.88333,708
3.89167,706
3.90000,705
3.90833,704
3.91667,703
3.92500,701
3.93333,700
3.94167,698
3.95000,696
3.95833,694
3.96667,692
3.97500,690
3.98333,688
3.99167,686
4.00000,683
4.00833,681
4.01667,678
4.02500,676
4.03333,673
4.04167,670
4.05000,667
4.05833,665
4.06667,662
4.07500,659
4.08333,657
4.09167,654
4.10000,651
4.10833,648
4.11667,645
4.12500,642
4.13333,640
4.14167,637
4.15000,634
4.15833,631
4.16667,629
4.17500,626
4.18333,624
4.19167,621
4.20000,619
4.20833,616
4.21667,613
4.22500,610
4.23333,607
4.24167,605
4.25000,603
4.25833,600
4.26667,598
4.27500,596
4.28333,593
4.29167,592
4.30000,590
4.30833,588
4.31667,587
4.32500,585
4.33333,583
4.34167,582
4.35000,580
4.35833,579
4.36667,578
4.37500,577
4.38333,577
4.39167,576
4.40000,575
4.40833,574
4.41667,573
4.42500,573
4.43333,572
4.44167,571
4.45000,571
4.45833,571
4.46667,571
4.47500,571
4.48333,571
4.49167,571
4.50000,571
4.50833,572
4.51667,572
4.52500,573
4.53333,574
4.54167,575
4.55000,576
4.55833,577
4.56667,579
4.57500,580
4.58333,581
4.59167,582
4.60000,584
4.60833,586
4.61667,589
4.62500,591
4.63333,594
4.64167,597
4.65000,600
4.65833,603
4.66667,606
4.67500,609
4.68333,612
4.69167,615
4.70000,619
4.70833,623
4.71667,627
4.72500,631
4.73333,635
4.74167,640
4.75000,644
4.75833,649
4.76667,655
4.77500,660
4.78333,666
4.79167,671
4.80000,677
4.80833,684
4.81667,690
4.82500,697
4.83333,704
4.84167,711
4.85000,718
4.85833,725
4.86667,733
4.87500,740
4.88333,748
4.89167,756
4.90000,764
4.90833,773
4.91667,782
4.92500,791
4.93333,800
4.94167,810
4.95000,819
4.95833,828
4.96667,838
4.97500,848
4.98333,858
4.99167,869
5.00000,879
5.00833,890
5.01667,901
5.02500,912
5.03333,923
5.04167,934
5.05000,946
5.05833,957
5.06667,969
5.07500,981
5.08333,993
5.09167,1005
5.10000,1017
5.10833,1030
5.11667,1042
5.12500,1054
5.13333,1067
5.14167,1080
5.15000,1092
5.15833,1105
5.16667,1118
5.17500,1130
5.18333,1143
5.19167,1156
5.20000,1169
5.20833,1182
5.21667,1195
5.22500,1208
5.23333,1221
5.24167,1234
5.25000,1248
5.25833,1261
5.26667,1274
5.27500,1287
5.28333,1299
5.29167,1312
5.30000,1324
5.30833,1337
5.31667,1350
5.32500,1363
5.33333,1375
5.34167,1388
5.35000,1400
5.35833,1412
5.36667,1424
5.37500,1436
5.38333,1447
5.39167,1459
5.40000,1470
5.40833,1481
5.41667,1492
5.42500,1503
5.43333,1514
5.44167,1525
5.45000,1535
5.45833,1546
5.46667,1556
5.47500,1565
5.48333,1575
5.49167,1584
5.50000,1593
5.50833,1602
5.51667,1611
5.52500,1619
5.53333,1628
5.54167,1636
5.55000,1644
5.55833,1651
5.56667,1658
5.57500,1665
5.58333,1672
5.59167,1678
5.60000,1685
5.60833,1692
5.61667,1698
5.62500,1705
5.63333,1711
5.64167,1716
5.65000,1722
5.65833,1727
5.66667,1732
5.67500,1736
5.68333,1741
5.69167,1745
5.70000,1748
5.70833,1752
5.71667,1756
5.72500,1759
5.73333,1762
5.74167,1766
5.75000,1769
5.75833,1772
5.76667,1774
5.77500,1777
5.78333,1779
5.79167,1781
5.80000,1783
5.80833,1785
5.81667,1787
5.82500,1789
5.83333,1791
5.84167,1793
5.85000,1794
5.85833,1796
5.86667,1797
5.87500,1798
5.88333,1799
5.89167,1800
5.90000,1801
5.90833,1802
5.91667,1803
5.92500,1804
5.93333,1805
5.94167,1806
5.95000,1807
5.95833,1808
5.96667,1809
5.97500,1810
5.98333,1811
5.99167,1812
6.00000,1813
6.00833,1813
6.01667,1814
6.02500,1815
6.03333,1816
6.04167,1817
6.05000,1818
6.05833,1819
6.06667,1820
6.07500,1821
6.08333,1821
6.09167,1822
6.10000,1823
6.10833,1824
6.11667,1825
6.12500,1826
6.13333,1827
6.14167,1829
6.15000,1830
6.15833,1831
6.16667,1832
6.17500,1834
6.18333,1835
6.19167,1836
6.20000,1838
6.20833,1839
6.21667,1840
6.22500,1842
6.23333,1843
6.24167,1845
6.25000,1847
6.25833,1848
6.26667,1850
6.27500,1852
6.28333,1853
6.29167,1855
6.30000,1857
6.30833,1859
6.31667,1861
6.32500,1863
6.33333,1865
6.34167,1867
6.35000,1869
6.35833,1871
6.36667,1873
6.37500,1875
6.38333,1877
6.39167,1879
6.40000,1881
6.40833,1883
6.41667,1886
6.42500,1888
6.43333,1891
6.44167,1893
6.45000,1896
6.45833,1898
6.46667,1901
6.47500,1904
6.48333,1906
6.49167,1909
6.50000,1911
6.50833,1914
6.51667,1917
6.52500,1920
6.53333,1923
6.54167,1925
6.55000,1928
6.55833,1931
6.56667,1934
6.57500,1937
6.58333,1940
6.59167,1944
6.60000,1947
6.60833,1951
6.61667,1954
6.62500,1958
6.63333,1961
6.64167,1964
6.65000,1968
6.65833,1971
6.66667,1974
6.67500,1978
6.68333,1981
6.69167,1985
6.70000,1989
6.70833,1993
6.71667,1996
6.72500,2000
6.73333,2004
6.74167,2007
6.75000,2011
6.75833,2015
6.76667,2019
6.77500,2023
6.78333,2027
6.79167,2032
6.80000,2035
6.80833,2039
6.81667,2043
6.82500,2047
6.83333,2051
6.84167,2055
6.85000,2059
6.85833,2063
6.86667,2067
6.87500,2071
6.88333,2076
6.89167,2080
6.90000,2085
6.90833,2089
6.91667,2093
6.92500,2098
6.93333,2102
6.94167,2106
6.95000,2111
6.95833,2115
6.96667,2119
6.97500,2123
6.98333,2127
6.99167,2132
7.00000,2136
7.00833,2140
7.01667,2144
7.02500,2148
7.03333,2152
7.04167,2156
7.05000,2160
7.05833,2164
7.06667,2168
7.07500,2172
7.08333,2176
7.09167,2180
7.10000,2184
7.10833,2188
7.11667,2192
7.12500,2196
7.13333,2200
7.14167,2204
7.15000,2208
7.15833,2211
7.16667,2215
7.17500,2219
7.18333,2223
7.19167,2227
7.20000,2232
7.20833,2236
7.21667,2240
7.22500,2244
7.23333,2247
7.24167,2250
7.25000,2254
7.25833,2257
7.26667,2261
7.27500,2264
7.28333,2267
7.29167,2271
7.30000,2275
7.30833,2279
7.31667,2282
7.32500,2285
7.33333,2288
7.34167,2291
7.35000,2294
7.35833,2297
7.36667,2300
7.37500,2303
7.38333,2306
7.39167,2309
7.40000,2312
7.40833,2314
7.41667,2317
7.42500,2320
7.43333,2324
7.44167,2327
7.45000,2330
7.45833,2333
7.46667,2335
7.47500,2338
7.48333,2340
7.49167,2342
7.50000,2345
7.50833,2348
7.51667,2350
7.52500,2353
7.53333,2355
7.54167,2358
7.55000,2361
7.55833,2363
7.56667,2366
7.57500,2368
7.58333,2370
7.59167,2372
7.60000,2374
7.60833,2376
7.61667,2378
7.62500,2380
7.63333,2382
7.64167,2385
7.65000,2387
7.65833,2389
7.66667,2391
7.67500,2393
7.68333,2395
7.69167,2397
7.70000,2399
7.70833,2401
7.71667,2402
7.72500,2404
7.73333,2406
7.74167,2408
7.75000,2410
7.75833,2412
7.76667,2414
7.77500,2416
7.78333,2418
7.79167,2419
7.80000,2421
7.80833,2423
7.81667,2424
7.82500,2426
7.83333,2428
7.84167,2429
7.85000,2430
7.85833,2432
7.86667,2434
7.87500,2435
7.88333,2436
7.89167,2438
7.90000,2440
7.90833,2441
7.91667,2443
7.92500,2444
7.93333,2446
7.94167,2447
7.95000,2448
7.95833,2450
7.96667,2451
7.97500,2452
7.98333,2454
7.99167,2455
8.00000,2457
8.00833,2458
8.01667,2460
8.02500,2461
8.03333,2463
8.04167,2464
8.05000,2465
8.05833,2466
8.06667,2467
8.07500,2469
8.08333,2470
8.09167,2472
8.10000,2473
8.10833,2474
8.11667,2476
8.12500,2477
8.13333,2478
8.14167,2479
8.15000,2480
8.15833,2481
8.16667,2482
8.17500,2483
8.18333,2484
8.19167,2485
8.20000,2486
8.20833,2487
8.21667,2488
8.22500,2489
8.23333,2491
8.24167,2492
8.25000,2493
8.25833,2494
8.26667,2495
8.27500,2496
8.28333,2498
8.29167,2499
8.30000,2500
8.30833,2502
8.31667,2503
8.32500,2504
8.33333,2505
8.34167,2506
8.35000,2506
8.35833,2507
8.36667,2508
8.37500,2509
8.38333,2510
8.39167,2510
8.40000,2511
8.40833,2512
8.41667,2514
8.42500,2515
8.43333,2516
8.44167,2517
8.45000,2518
8.45833,2519
8.46667,2520
8.47500,2520
8.48333,2521
8.49167,2522
8.50000,2523
8.50833,2524
8.51667,2525
8.52500,2526
8.53333,2527
8.54167,2528
8.55000,2528
8.55833,2530
8.56667,2531
8.57500,2532
8.58333,2533
8.59167,2534
8.60000,2535
8.60833,2536
8.61667,2537
8.62500,2537
8.63333,2538
8.64167,2539
8.65000,2539
8.65833,2540
8.66667,2541
8.67500,2542
8.68333,2543
8.69167,2544
8.70000,2544
8.70833,2545
8.71667,2546
8.72500,2547
8.73333,2548
8.74167,2549
8.75000,2550
8.75833,2551
8.76667,2551
8.77500,2552
8.78333,2553
8.79167,2553
8.80000,2554
8.80833,2555
8.81667,2556
8.82500,2557
8.83333,2558
8.84167,2558
8.85000,2559
8.85833,2560
8.86667,2561
8.87500,2562
8.88333,2563
8.89167,2563
8.90000,2564
8.90833,2565
8.91667,2566
8.92500,2567
8.93333,2567
8.94167,2568
8.95000,2569
8.95833,2569
8.96667,2570
8.97500,2570
8.98333,2571
8.99167,2572
9.00000,2573
9.00833,2573
9.01667,2574
9.02500,2574
9.03333,2575
9.04167,2576
9.05000,2577
9.05833,2577
9.06667,2578
9.07500,2579
9.08333,2580
9.09167,2581
9.10000,2581
9.10833,2582
9.11667,2583
9.12500,2584
9.13333,2584
9.14167,2585
9.15000,2586
9.15833,2586
9.16667,2587
9.17500,2587
9.18333,2588
9.19167,2589
9.20000,2589
9.20833,2590
9.21667,2591
9.22500,2591
9.23333,2592
9.24167,2593
9.25000,2593
9.25833,2593
9.26667,2594
9.27500,2594
9.28333,2595
9.29167,2596
9.30000,2596
9.30833,2597
9.31667,2597
9.32500,2598
9.33333,2598
9.34167,2599
9.35000,2600
9.35833,2601
9.36667,2601
9.37500,2602
9.38333,2603
9.39167,2603
9.40000,2604
9.40833,2604
9.41667,2605
9.42500,2605
9.43333,2606
9.44167,2606
9.45000,2606
9.45833,2606
9.46667,2607
9.47500,2607
9.48333,2608
9.49167,2609
9.50000,2609
9.50833,2610
9.51667,2610
9.52500,2611
9.53333,2612
9.54167,2612
9.55000,2613
9.55833,2614
9.56667,2615
9.57500,2615
9.58333,2615
9.59167,2615
9.60000,2616
9.60833,2617
9.61667,2618
9.62500,2618
9.63333,2619
9.64167,2620
9.65000,2620
9.65833,2620
9.66667,2621
9.67500,2622
9.68333,2622
9.69167,2623
9.70000,2623
9.70833,2623
9.71667,2623
9.72500,2623
9.73333,2624
9.74167,2624
9.75000,2625
9.75833,2626
9.76667,2627
9.77500,2627
9.78333,2628
9.79167,2628
9.80000,2629
9.80833,2630
9.81667,2630
9.82500,2631
9.83333,2631
9.84167,2631
9.85000,2632
9.85833,2632
9.86667,2632
9.87500,2633
9.88333,2633
9.89167,2634
9.90000,2634
9.90833,2635
9.91667,2636
9.92500,2636
9.93333,2637
9.94167,2637
9.95000,2638
9.95833,2638
9.96667,2639
9.97500,2639
9.98333,2639
9.99167,2640
10.00000,2640
10.00833,2640
10.01667,2641
10.02500,2642
10.03333,2642
10.04167,2643
10.05000,2644
10.05833,2644
10.06667,2644
10.07500,2645
10.08333,2645
10.09167,2645
10.10000,2645
10.10833,2645
10.11667,2646
10.12500,2646
10.13333,2646
10.14167,2647
10.15000,2647
10.15833,2648
10.16667,2648
10.17500,2649
10.18333,2649
10.19167,2650
10.20000,2650
10.20833,2650
10.21667,2651
10.22500,2651
10.23333,2652
10.24167,2653
10.25000,2653
10.25833,2654
10.26667,2654
10.27500,2654
10.28333,2655
10.29167,2656
10.30000,2656
10.30833,2657
10.31667,2658
10.32500,2659
10.33333,2660
10.34167,2661
10.35000,2662
10.35833,2663
10.36667,2665
10.37500,2666
10.38333,2667
10.39167,2668
10.40000,2669
10.40833,2670
10.41667,2671
10.42500,2672
10.43333,2673
10.44167,2674
10.45000,2675
10.45833,2676
10.46667,2676
10.47500,2677
10.48333,2677
10.49167,2677
10.50000,2676
10.50833,2674
10.51667,2671
10.52500,2667
10.53333,2660
10.54167,2651
10.55000,2637
10.55833,2619
10.56667,2594
10.57500,2560
10.58333,2516
10.59167,2460
10.60000,2389
10.60833,2301
10.61667,2194
10.62500,2066
10.63333,1914
10.64167,1739
10.65000,1539
10.65833,1317
10.66667,1072
10.67500,810
10.68333,534
10.69167,250
10.70000,-32
10.70833,-303
10.71667,-554
10.72500,-771
10.73333,-942
10.74167,-1053
10.75000,-1090
10.75833,-1038
10.76667,-883
10.77500,-613
10.78333,-214
10.79167,326
10.80000,1016
10.80833,1867
10.81667,2885
10.82500,4075
10.83333,5442
10.84167,6989
10.85000,8714
10.85833,10618
10.86667,12697
10.87500,14944
10.88333,17352
10.89167,19911
10.90000,22608
10.90833,25429
10.91667,28354
10.92500,31363
10.93333,34429
10.94167,37523
10.95000,40612
10.95833,43658
10.96667,46619
10.97500,49449
10.98333,52101
10.99167,54526
11.00000,56673
11.00833,58496
11.01667,59953
11.02500,61007
11.03333,61631
11.04167,61811
11.05000,61542
11.05833,60831
11.06667,59700
11.07500,58178
11.08333,56307
11.09167,54135
11.10000,51716
11.10833,49104
11.11667,46357
11.12500,43527
11.13333,40666
11.14167,37818
11.15000,35023
11.15833,32314
11.16667,29717
11.17500,27251
11.18333,24931
11.19167,22766
11.20000,20760
11.20833,18913
11.21667,17222
11.22500,15684
11.23333,14290
11.24167,13032
11.25000,11902
11.25833,10891
11.26667,9989
11.27500,9186
11.28333,8473
11.29167,7842
11.30000,7284
11.30833,6792
11.31667,6359
11.32500,5977
11.33333,5642
11.34167,5348
11.35000,5091
11.35833,4865
11.36667,4668
11.37500,4495
11.38333,4344
11.39167,4212
11.40000,4096
11.40833,3995
11.41667,3907
11.42500,3830
11.43333,3762
11.44167,3704
11.45000,3653
11.45833,3608
11.46667,3569
11.47500,3536
11.48333,3507
11.49167,3481
11.50000,3459
11.50833,3440
11.51667,3424
11.52500,3410
11.53333,3399
11.54167,3390
11.55000,3382
11.55833,3376
11.56667,3372
11.57500,3369
11.58333,3367
11.59167,3366
11.60000,3366
11.60833,3367
11.61667,3369
11.62500,3371
11.63333,3375
11.64167,3380
11.65000,3385
11.65833,3390
11.66667,3396
11.67500,3401
11.68333,3407
11.69167,3414
11.70000,3422
11.70833,3429
11.71667,3437
11.72500,3446
11.73333,3454
11.74167,3462
11.75000,3470
11.75833,3478
11.76667,3487
11.77500,3495
11.78333,3504
11.79167,3512
11.80000,3520
11.80833,3529
11.81667,3537
11.82500,3545
11.83333,3553
11.84167,3560
11.85000,3567
11.85833,3575
11.86667,3581
11.87500,3587
11.88333,3593
11.89167,3599
11.90000,3604
11.90833,3609
11.91667,3614
11.92500,3618
11.93333,3622
11.94167,3625
11.95000,3628
11.95833,3631
11.96667,3633
11.97500,3634
11.98333,3635
11.99167,3635
12.00000,3635
12.00833,3635
12.01667,3634
12.02500,3633
12.03333,3631
12.04167,3629
12.05000,3626
12.05833,3623
12.06667,3619
12.07500,3615
12.08333,3611
12.09167,3605
12.10000,3600
12.10833,3593
12.11667,3587
12.12500,3580
12.13333,3573
12.14167,3566
12.15000,3558
12.15833,3550
12.16667,3541
12.17500,3532
12.18333,3523
12.19167,3513
12.20000,3504
12.20833,3494
12.21667,3484
12.22500,3474
12.23333,3464
12.24167,3453
12.25000,3443
12.25833,3432
12.26667,3421
12.27500,3409
12.28333,3398
12.29167,3387
12.30000,3376
12.30833,3364
12.31667,3353
12.32500,3342
12.33333,3331
12.34167,3320
12.35000,3309
12.35833,3298
12.36667,3286
12.37500,3275
12.38333,3265
12.39167,3254
12.40000,3243
12.40833,3232
12.41667,3221
12.42500,3210
12.43333,3200
12.44167,3190
12.45000,3180
12.45833,3170
12.46667,3160
12.47500,3150
12.48333,3140
12.49167,3130
12.50000,3121
12.50833,3111
12.51667,3102
12.52500,3093
12.53333,3084
12.54167,3075
12.55000,3067
12.55833,3059
12.56667,3051
12.57500,3043
12.58333,3035
12.59167,3027
12.60000,3020
12.60833,3013
12.61667,3006
12.62500,3000
12.63333,2993
12.64167,2987
12.65000,2982
12.65833,2976
12.66667,2970
12.67500,2965
12.68333,2959
12.69167,2953
12.70000,2948
12.70833,2943
12.71667,2937
12.72500,2933
12.73333,2928
12.74167,2924
12.75000,2920
12.75833,2916
12.76667,2912
12.77500,2909
12.78333,2905
12.79167,2902
12.80000,2898
12.80833,2895
12.81667,2892
12.82500,2889
12.83333,2886
12.84167,2884
12.85000,2882
12.85833,2879
12.86667,2877
12.87500,2875
12.88333,2873
12.89167,2871
12.90000,2869
12.90833,2867
12.91667,2865
12.92500,2863
12.93333,2862
12.94167,2860
12.95000,2859
12.95833,2858
12.96667,2856
12.97500,2855
12.98333,2854
12.99167,2853
13.00000,2852
13.00833,2851
13.01667,2851
13.02500,2850
13.03333,2849
13.04167,2848
13.05000,2847
13.05833,2846
13.06667,2845
13.07500,2844
13.08333,2844
13.09167,2843
13.10000,2843
13.10833,2842
13.11667,2841
13.12500,2841
13.13333,2840
13.14167,2839
13.15000,2838
13.15833,2837
13.16667,2837
13.17500,2836
13.18333,2835
13.19167,2834
13.20000,2833
13.20833,2833
13.21667,2832
13.22500,2831
13.23333,2830
13.24167,2829
13.25000,2829
13.25833,2828
13.26667,2827
13.27500,2826
13.28333,2826
13.29167,2825
13.30000,2824
13.30833,2824
13.31667,2823
13.32500,2822
13.33333,2821
13.34167,2821
13.35000,2819
13.35833,2818
13.36667,2817
13.37500,2815
13.38333,2814
13.39167,2813
13.40000,2812
13.40833,2811
13.41667,2811
13.42500,2810
13.43333,2808
13.44167,2807
13.45000,2807
13.45833,2806
13.46667,2805
13.47500,2805
13.48333,2804
13.49167,2803
13.50000,2802
13.50833,2801
13.51667,2801
13.52500,2800
13.53333,2799
13.54167,2799
13.55000,2798
13.55833,2797
13.56667,2797
13.57500,2797
13.58333,2796
13.59167,2796
13.60000,2795
13.60833,2795
13.61667,2794
13.62500,2794
13.63333,2793
13.64167,2793
13.65000,2793
13.65833,2793
13.66667,2793
13.67500,2793
13.68333,2792
13.69167,2792
13.70000,2792
13.70833,2792
13.71667,2792
13.72500,2792
13.73333,2791
13.74167,2791
13.75000,2791
13.75833,2791
13.76667,2791
13.77500,2790
13.78333,2790
13.79167,2790
13.80000,2790
13.80833,2791
13.81667,2791
13.82500,2791
13.83333,2791
13.84167,2791
13.85000,2791
13.85833,2791
13.86667,2791
13.87500,2792
13.88333,2792
13.89167,2792
13.90000,2792
13.90833,2793
13.91667,2793
13.92500,2793
13.93333,2793
13.94167,2793
13.95000,2794
13.95833,2794
13.96667,2794
13.97500,2795
13.98333,2796
13.99167,2796
14.00000,2797
14.00833,2797
14.01667,2798
14.02500,2798
14.03333,2799
14.04167,2799
14.05000,2800
14.05833,2800
14.06667,2801
14.07500,2802
14.08333,2803
14.09167,2804
14.10000,2805
14.10833,2806
14.11667,2808
14.12500,2809
14.13333,2811
14.14167,2813
14.15000,2815
14.15833,2818
14.16667,2821
14.17500,2825
14.18333,2829
14.19167,2834
14.20000,2840
14.20833,2847
14.21667,2856
14.22500,2866
14.23333,2879
14.24167,2894
14.25000,2912
14.25833,2934
14.26667,2960
14.27500,2991
14.28333,3029
14.29167,3073
14.30000,3125
14.30833,3186
14.31667,3258
14.32500,3342
14.33333,3440
14.34167,3553
14.35000,3683
14.35833,3831
14.36667,4000
14.37500,4192
14.38333,4407
14.39167,4647
14.40000,4915
14.40833,5211
14.41667,5538
14.42500,5897
14.43333,6288
14.44167,6712
14.45000,7172
14.45833,7667
14.46667,8199
14.47500,8767
14.48333,9373
14.49167,10016
14.50000,10697
14.50833,11416
14.51667,12172
14.52500,12966
14.53333,13796
14.54167,14663
14.55000,15566
14.55833,16504
14.56667,17478
14.57500,18486
14.58333,19528
14.59167,20604
14.60000,21712
14.60833,22852
14.61667,24024
14.62500,25226
14.63333,26459
14.64167,27721
14.65000,29012
14.65833,30331
14.66667,31678
14.67500,33053
14.68333,34454
14.69167,35883
14.70000,37337
14.70833,38817
14.71667,40322
14.72500,41851
14.73333,43405
14.74167,44984
14.75000,46586
14.75833,48211
14.76667,49860
14.77500,51532
14.78333,53227
14.79167,54944
14.80000,56683
14.80833,58444
14.81667,60226
14.82500,62029
14.83333,63852
14.84167,65696
14.85000,67559
14.85833,69442
14.86667,71343
14.87500,73263
14.88333,75199
14.89167,77152
14.90000,79120
14.90833,81103
14.91667,83097
14.92500,85101
14.93333,87112
14.94167,89127
14.95000,91141
14.95833,93145
14.96667,95131
14.97500,97085
14.98333,98989
14.99167,100820
15.00000,102549
15.00833,104141
15.01667,105554
15.02500,106740
15.03333,107645
15.04167,108217
15.05000,108400
15.05833,108145
15.06667,107408
15.07500,106159
15.08333,104377
15.09167,102062
15.10000,99228
15.10833,95907
15.11667,92147
15.12500,88012
15.13333,83572
15.14167,78910
15.15000,74107
15.15833,69245
15.16667,64404
15.17500,59653
15.18333,55053
15.19167,50656
15.20000,46500
15.20833,42615
15.21667,39018
15.22500,35718
15.23333,32718
15.24167,30012
15.25000,27591
15.25833,25443
15.26667,23553
15.27500,21905
15.28333,20483
15.29167,19272
15.30000,18257
15.30833,17423
15.31667,16759
15.32500,16253
15.33333,15895
15.34167,15675
15.35000,15587
15.35833,15622
15.36667,15774
15.37500,16037
15.38333,16404
15.39167,16870
15.40000,17429
15.40833,18074
15.41667,18799
15.42500,19596
15.43333,20459
15.44167,21378
15.45000,22346
15.45833,23354
15.46667,24392
15.47500,25451
15.48333,26519
15.49167,27587
15.50000,28644
15.50833,29681
15.51667,30686
15.52500,31649
15.53333,32561
15.54167,33413
15.55000,34195
15.55833,34902
15.56667,35526
15.57500,36060
15.58333,36501
15.59167,36844
15.60000,37087
15.60833,37229
15.61667,37268
15.62500,37206
15.63333,37043
15.64167,36784
15.65000,36430
15.65833,35987
15.66667,35460
15.67500,34854
15.68333,34175
15.69167,33431
15.70000,32627
15.70833,31772
15.71667,30872
15.72500,29934
15.73333,28966
15.74167,27974
15.75000,26965
15.75833,25947
15.76667,24924
15.77500,23902
15.78333,22888
15.79167,21885
15.80000,20898
15.80833,19931
15.81667,18987
15.82500,18070
15.83333,17181
15.84167,16324
15.85000,15499
15.85833,14707
15.86667,13951
15.87500,13229
15.88333,12543
15.89167,11893
15.90000,11277
15.90833,10697
15.91667,10149
15.92500,9635
15.93333,9152
15.94167,8701
15.95000,8280
15.95833,7888
15.96667,7522
15.97500,7183
15.98333,6868
15.99167,6577
16.00000,6307
16.00833,6058
16.01667,5828
16.02500,5616
16.03333,5421
16.04167,5241
16.05000,5076
16.05833,4924
16.06667,4785
16.07500,4657
16.08333,4540
16.09167,4432
16.10000,4334
16.10833,4244
16.11667,4161
16.12500,4085
16.13333,4016
16.14167,3952
16.15000,3894
16.15833,3841
16.16667,3792
16.17500,3747
16.18333,3705
16.19167,3667
16.20000,3632
16.20833,3601
16.21667,3571
16.22500,3544
16.23333,3519
16.24167,3496
16.25000,3474
16.25833,3454
16.26667,3435
16.27500,3418
16.28333,3401
16.29167,3386
16.30000,3372
16.30833,3358
16.31667,3346
16.32500,3335
16.33333,3324
16.34167,3313
16.35000,3304
16.35833,3295
16.36667,3286
16.37500,3278
16.38333,3270
16.39167,3263
16.40000,3256
16.40833,3250
16.41667,3243
16.42500,3237
16.43333,3231
16.44167,3225
16.45000,3220
16.45833,3215
16.46667,3209
16.47500,3205
16.48333,3201
16.49167,3196
16.50000,3192
16.50833,3188
16.51667,3184
16.52500,3180
16.53333,3176
16.54167,3173
16.55000,3169
16.55833,3166
16.56667,3163
16.57500,3160
16.58333,3157
16.59167,3154
16.60000,3151
16.60833,3148
16.61667,3146
16.62500,3143
16.63333,3141
16.64167,3138
16.65000,3135
16.65833,3132
16.66667,3129
16.67500,3127
16.68333,3124
16.69167,3122
16.70000,3120
16.70833,3118
16.71667,3116
16.72500,3114
16.73333,3112
16.74167,3109
16.75000,3107
16.75833,3105
16.76667,3103
16.77500,3101
16.78333,3099
16.79167,3097
16.80000,3095
16.80833,3093
16.81667,3091
16.82500,3089
16.83333,3087
16.84167,3085
16.85000,3084
16.85833,3082
16.86667,3081
16.87500,3079
16.88333,3076
16.89167,3074
16.90000,3072
16.90833,3071
16.91667,3069
16.92500,3067
16.93333,3065
16.94167,3064
16.95000,3062
16.95833,3061
16.96667,3059
16.97500,3058
16.98333,3056
16.99167,3054
17.00000,3053
17.00833,3052
17.01667,3050
17.02500,3048
17.03333,3046
17.04167,3045
17.05000,3043
17.05833,3042
17.06667,3040
17.07500,3039
17.08333,3038
17.09167,3037
17.10000,3035
17.10833,3034
17.11667,3033
17.12500,3032
17.13333,3030
17.14167,3029
17.15000,3028
17.15833,3026
17.16667,3025
17.17500,3024
17.18333,3022
17.19167,3021
17.20000,3019
17.20833,3018
17.21667,3017
17.22500,3016
17.23333,3014
17.24167,3013
17.25000,3012
17.25833,3010
17.26667,3009
17.27500,3008
17.28333,3006
17.29167,3005
17.30000,3003
17.30833,3002
17.31667,3001
17.32500,3000
17.33333,2999
17.34167,2998
17.35000,2997
17.35833,2996
17.36667,2995
17.37500,2994
17.38333,2993
17.39167,2991
17.40000,2990
17.40833,2989
17.41667,2988
17.42500,2988
17.43333,2987
17.44167,2985
17.45000,2984
17.45833,2983
17.46667,2982
17.47500,2981
17.48333,2980
17.49167,2978
17.50000,2978
17.50833,2977
17.51667,2976
17.52500,2975
17.53333,2975
17.54167,2974
17.55000,2973
17.55833,2971
17.56667,2970
17.57500,2969
17.58333,2968
17.59167,2967
17.60000,2966
17.60833,2965
17.61667,2965
17.62500,2964
17.63333,2963
17.64167,2962
17.65000,2961
17.65833,2961
17.66667,2960
17.67500,2959
17.68333,2958
17.69167,2957
17.70000,2956
17.70833,2955
17.71667,2955
17.72500,2954
17.73333,2953
17.74167,2953
17.75000,2952
17.75833,2951
17.76667,2950
17.77500,2949
17.78333,2949
17.79167,2948
17.80000,2947
17.80833,2947
17.81667,2946
17.82500,2945
17.83333,2944
17.84167,2943
17.85000,2942
17.85833,2942
17.86667,2941
17.87500,2941
17.88333,2940
17.89167,2939
17.90000,2939
17.90833,2938
17.91667,2937
17.92500,2937
17.93333,2937
17.94167,2936
17.95000,2935
17.95833,2934
17.96667,2934
17.97500,2933
17.98333,2932
17.99167,2932
18.00000,2931
18.00833,2930
18.01667,2930
18.02500,2929
18.03333,2928
18.04167,2927
18.05000,2927
18.05833,2926
18.06667,2926
18.07500,2926
18.08333,2925
18.09167,2924
18.10000,2924
18.10833,2923
18.11667,2923
18.12500,2922
18.13333,2921
18.14167,2921
18.15000,2920
18.15833,2919
18.16667,2919
18.17500,2918
18.18333,2918
18.19167,2917
18.20000,2916
18.20833,2916
18.21667,2915
18.22500,2915
18.23333,2915
18.24167,2914
18.25000,2914
18.25833,2913
18.26667,2913
18.27500,2912
18.28333,2911
18.29167,2910
18.30000,2910
18.30833,2909
18.31667,2908
18.32500,2908
18.33333,2907
18.34167,2907
18.35000,2906
18.35833,2906
18.36667,2905
18.37500,2905
18.38333,2905
18.39167,2905
18.40000,2904
18.40833,2904
18.41667,2903
18.42500,2902
18.43333,2902
18.44167,2901
18.45000,2901
18.45833,2900
18.46667,2900
18.47500,2900
18.48333,2900
18.49167,2899
18.50000,2899
18.50833,2899
18.51667,2898
18.52500,2898
18.53333,2897
18.54167,2897
18.55000,2896
18.55833,2896
18.56667,2896
18.57500,2896
18.58333,2895
18.59167,2895
18.60000,2895
18.60833,2895
18.61667,2895
18.62500,2895
18.63333,2895
18.64167,2895
18.65000,2895
18.65833,2896
18.66667,2896
18.67500,2896
18.68333,2897
18.69167,2897
18.70000,2897
18.70833,2899
18.71667,2900
18.72500,2901
18.73333,2902
18.74167,2903
18.75000,2904
18.75833,2905
18.76667,2906
18.77500,2907
18.78333,2909
18.79167,2911
18.80000,2912
18.80833,2913
18.81667,2915
18.82500,2916
18.83333,2918
18.84167,2919
18.85000,2920
18.85833,2922
18.86667,2924
18.87500,2925
18.88333,2926
18.89167,2928
18.90000,2928
18.90833,2929
18.91667,2930
18.92500,2931
18.93333,2932
18.94167,2933
18.95000,2934
18.95833,2934
18.96667,2933
18.97500,2933
18.98333,2932
18.99167,2932
19.00000,2931
19.00833,2931
19.01667,2930
19.02500,2929
19.03333,2928
19.04167,2927
19.05000,2925
19.05833,2924
19.06667,2922
19.07500,2920
19.08333,2918
19.09167,2917
19.10000,2915
19.10833,2913
19.11667,2911
19.12500,2909
19.13333,2907
19.14167,2906
19.15000,2904
19.15833,2902
19.16667,2900
19.17500,2898
19.18333,2897
19.19167,2895
19.20000,2894
19.20833,2892
19.21667,2890
19.22500,2889
19.23333,2887
19.24167,2886
19.25000,2885
19.25833,2884
19.26667,2882
19.27500,2881
19.28333,2880
19.29167,2879
19.30000,2878
19.30833,2877
19.31667,2876
19.32500,2875
19.33333,2874
19.34167,2874
19.35000,2873
19.35833,2873
19.36667,2872
19.37500,2872
19.38333,2871
19.39167,2871
19.40000,2870
19.40833,2869
19.41667,2869
19.42500,2868
19.43333,2868
19.44167,2868
19.45000,2867
19.45833,2867
19.46667,2866
19.47500,2866
19.48333,2866
19.49167,2865
19.50000,2865
19.50833,2865
19.51667,2865
19.52500,2865
19.53333,2865
19.54167,2865
19.55000,2864
19.55833,2864
19.56667,2864
19.57500,2864
19.58333,2863
19.59167,2863
19.60000,2862
19.60833,2862
19.61667,2862
19.62500,2862
19.63333,2862
19.64167,2862
19.65000,2861
19.65833,2861
19.66667,2861
19.67500,2861
19.68333,2861
19.69167,2861
19.70000,2860
19.70833,2860
19.71667,2860
19.72500,2860
19.73333,2859
19.74167,2859
19.75000,2859
19.75833,2859
19.76667,2859
19.77500,2859
19.78333,2858
19.79167,2858
19.80000,2858
19.80833,2858
19.81667,2858
19.82500,2858
19.83333,2858
19.84167,2858
19.85000,2857
19.85833,2857
19.86667,2857
19.87500,2857
19.88333,2857
19.89167,2856
19.90000,2856
19.90833,2856
19.91667,2856
19.92500,2856
19.93333,2856
19.94167,2856
19.95000,2855
19.95833,2855
19.96667,2855
19.97500,2855
19.98333,2855
19.99167,2855
20.00000,2855
20.00833,2855
20.01667,2855
20.02500,2855
20.03333,2855
20.04167,2855
20.05000,2855
20.05833,2854
20.06667,2854
20.07500,2854
20.08333,2854
20.09167,2854
20.10000,2854
20.10833,2854
20.11667,2854
20.12500,2854
20.13333,2855
20.14167,2854
20.15000,2854
20.15833,2854
20.16667,2854
20.17500,2854
20.18333,2854
20.19167,2853
20.20000,2853
20.20833,2853
20.21667,2853
20.22500,2853
20.23333,2853
20.24167,2853
20.25000,2853
20.25833,2852
20.26667,2852
20.27500,2852
20.28333,2852
20.29167,2852
20.30000,2852
20.30833,2852
20.31667,2852
20.32500,2852
20.33333,2852
20.34167,2852
20.35000,2851
20.35833,2851
20.36667,2852
20.37500,2852
20.38333,2852
20.39167,2852
20.40000,2852
20.40833,2851
20.41667,2851
20.42500,2851
20.43333,2851
20.44167,2851
20.45000,2851
20.45833,2851
20.46667,2851
20.47500,2851
20.48333,2851
20.49167,2851
20.50000,2851
20.50833,2851
20.51667,2851
20.52500,2851
20.53333,2851
20.54167,2851
20.55000,2851
20.55833,2850
20.56667,2850
20.57500,2850
20.58333,2850
20.59167,2851
20.60000,2851
20.60833,2851
20.61667,2850
20.62500,2850
20.63333,2850
20.64167,2851
20.65000,2851
20.65833,2851
20.66667,2850
20.67500,2850
20.68333,2850
20.69167,2850
20.70000,2850
20.70833,2850
20.71667,2850
20.72500,2850
20.73333,2850
20.74167,2850
20.75000,2850
20.75833,2850
20.76667,2850
20.77500,2850
20.78333,2850
20.79167,2849
20.80000,2849
20.80833,2849
20.81667,2849
20.82500,2850
20.83333,2849
20.84167,2850
20.85000,2850
20.85833,2850
20.86667,2849
20.87500,2849
20.88333,2849
20.89167,2849
20.90000,2849
20.90833,2849
20.91667,2849
20.92500,2849
20.93333,2849
20.94167,2849
20.95000,2849
20.95833,2849
20.96667,2849
20.97500,2849
20.98333,2849
20.99167,2849
21.00000,2848
21.00833,2848
21.01667,2848
21.02500,2848
21.03333,2847
21.04167,2847
21.05000,2847
21.05833,2847
21.06667,2847
21.07500,2847
21.08333,2847
21.09167,2848
21.10000,2848
21.10833,2848
21.11667,2848
21.12500,2847
21.13333,2847
21.14167,2847
21.15000,2847
21.15833,2847
21.16667,2847
21.17500,2847
21.18333,2848
21.19167,2848
21.20000,2848
21.20833,2847
21.21667,2847
21.22500,2848
21.23333,2848
21.24167,2848
21.25000,2847
21.25833,2847
21.26667,2847
21.27500,2847
21.28333,2847
21.29167,2847
21.30000,2847
21.30833,2847
21.31667,2847
21.32500,2848
21.33333,2848
21.34167,2848
21.35000,2848
21.35833,2848
21.36667,2848
21.37500,2848
21.38333,2847
21.39167,2847
21.40000,2848
21.40833,2848
21.41667,2847
21.42500,2847
21.43333,2848
21.44167,2848
21.45000,2848
21.45833,2848
21.46667,2847
21.47500,2847
21.48333,2847
21.49167,2847
21.50000,2848
21.50833,2848
21.51667,2849
21.52500,2848
21.53333,2848
21.54167,2848
21.55000,2848
21.55833,2848
21.56667,2849
21.57500,2849
21.58333,2849
21.59167,2849
21.60000,2849
21.60833,2849
21.61667,2849
21.62500,2848
21.63333,2848
21.64167,2848
21.65000,2848
21.65833,2848
21.66667,2848
21.67500,2848
21.68333,2848
21.69167,2848
21.70000,2848
21.70833,2848
21.71667,2848
21.72500,2848
21.73333,2848
21.74167,2848
21.75000,2848
21.75833,2848
21.76667,2849
21.77500,2849
21.78333,2849
21.79167,2849
21.80000,2848
21.80833,2848
21.81667,2848
21.82500,2848
21.83333,2848
21.84167,2847
21.85000,2847
21.85833,2847
21.86667,2847
21.87500,2847
21.88333,2847
21.89167,2848
21.90000,2848
21.90833,2848
21.91667,2848
21.92500,2848
21.93333,2848
21.94167,2848
21.95000,2848
21.95833,2849
21.96667,2849
21.97500,2849
21.98333,2849
21.99167,2849
22.00000,2849
22.00833,2849
22.01667,2849
22.02500,2849
22.03333,2849
22.04167,2849
22.05000,2849
22.05833,2849
22.06667,2849
22.07500,2849
22.08333,2849
22.09167,2849
22.10000,2849
22.10833,2849
22.11667,2849
22.12500,2849
22.13333,2849
22.14167,2849
22.15000,2849
22.15833,2848
22.16667,2848
22.17500,2848
22.18333,2848
22.19167,2848
22.20000,2848
22.20833,2848
22.21667,2848
22.22500,2848
22.23333,2848
22.24167,2848
22.25000,2848
22.25833,2848
22.26667,2848
22.27500,2849
22.28333,2849
22.29167,2849
22.30000,2849
22.30833,2849
22.31667,2848
22.32500,2848
22.33333,2848
22.34167,2849
22.35000,2849
22.35833,2848
22.36667,2848
22.37500,2848
22.38333,2848
22.39167,2848
22.40000,2848
22.40833,2848
22.41667,2848
22.42500,2848
22.43333,2849
22.44167,2849
22.45000,2848
22.45833,2848
22.46667,2848
22.47500,2848
22.48333,2849
22.49167,2848
22.50000,2848
22.50833,2848
22.51667,2848
22.52500,2848
22.53333,2848
22.54167,2848
22.55000,2848
22.55833,2848
22.56667,2848
22.57500,2848
22.58333,2848
22.59167,2848
22.60000,2848
22.60833,2848
22.61667,2848
22.62500,2849
22.63333,2849
22.64167,2849
22.65000,2849
22.65833,2849
22.66667,2849
22.67500,2849
22.68333,2849
22.69167,2850
22.70000,2850
22.70833,2850
22.71667,2849
22.72500,2849
22.73333,2849
22.74167,2849
22.75000,2849
22.75833,2849
22.76667,2849
22.77500,2849
22.78333,2849
22.79167,2849
22.80000,2849
22.80833,2849
22.81667,2850
22.82500,2850
22.83333,2850
22.84167,2850
22.85000,2850
22.85833,2850
22.86667,2851
22.87500,2851
22.88333,2852
22.89167,2852
22.90000,2852
22.90833,2852
22.91667,2853
22.92500,2854
22.93333,2854
22.94167,2854
22.95000,2855
22.95833,2855
22.96667,2855
22.97500,2856
22.98333,2856
22.99167,2857
23.00000,2857
23.00833,2857
23.01667,2858
23.02500,2858
23.03333,2859
23.04167,2860
23.05000,2860
23.05833,2861
23.06667,2862
23.07500,2862
23.08333,2863
23.09167,2864
23.10000,2864
23.10833,2865
23.11667,2865
23.12500,2866
23.13333,2867
23.14167,2867
23.15000,2868
23.15833,2868
23.16667,2868
23.17500,2868
23.18333,2869
23.19167,2869
23.20000,2869
23.20833,2869
23.21667,2869
23.22500,2869
23.23333,2869
23.24167,2869
23.25000,2869
23.25833,2869
23.26667,2868
23.27500,2868
23.28333,2868
23.29167,2868
23.30000,2868
23.30833,2868
23.31667,2867
23.32500,2867
23.33333,2866
23.34167,2866
23.35000,2865
23.35833,2865
23.36667,2864
23.37500,2864
23.38333,2863
23.39167,2863
23.40000,2862
23.40833,2861
23.41667,2860
23.42500,2860
23.43333,2859
23.44167,2859
23.45000,2859
23.45833,2858
23.46667,2858
23.47500,2858
23.48333,2857
23.49167,2856
23.50000,2856
23.50833,2856
23.51667,2856
23.52500,2855
23.53333,2855
23.54167,2854
23.55000,2854
23.55833,2854
23.56667,2854
23.57500,2854
23.58333,2853
23.59167,2853
23.60000,2852
23.60833,2852
23.61667,2852
23.62500,2852
23.63333,2851
23.64167,2851
23.65000,2851
23.65833,2850
23.66667,2850
23.67500,2850
23.68333,2850
23.69167,2850
23.70000,2849
23.70833,2849
23.71667,2849
23.72500,2849
23.73333,2849
23.74167,2849
23.75000,2849
23.75833,2849
23.76667,2849
23.77500,2849
23.78333,2849
23.79167,2849
23.80000,2848
23.80833,2848
23.81667,2848
23.82500,2849
23.83333,2849
23.84167,2849
23.85000,2849
23.85833,2849
23.86667,2849
23.87500,2850
23.88333,2850
23.89167,2850
23.90000,2850
23.90833,2850
23.91667,2850
23.92500,2850
23.93333,2850
23.94167,2850
23.95000,2851
23.95833,2851
23.96667,2851
23.97500,2850
23.98333,2850
23.99167,2850
24.00000,2850
24.00833,2850
24.01667,2850
24.02500,2850
24.03333,2850
24.04167,2850
24.05000,2850
24.05833,2850
24.06667,2850
24.07500,2850
24.08333,2850
24.09167,2850
24.10000,2850
24.10833,2850
24.11667,2851
24.12500,2851
24.13333,2851
24.14167,2851
24.15000,2851
24.15833,2851
24.16667,2850
24.17500,2850
24.18333,2850
24.19167,2851
24.20000,2851
24.20833,2851
24.21667,2851
24.22500,2851
24.23333,2851
24.24167,2851
24.25000,2851
24.25833,2851
24.26667,2851
24.27500,2851
24.28333,2851
24.29167,2852
24.30000,2852
24.30833,2852
24.31667,2853
24.32500,2853
24.33333,2852
24.34167,2853
24.35000,2853
24.35833,2853
24.36667,2853
24.37500,2853
24.38333,2853
24.39167,2853
24.40000,2853
24.40833,2853
24.41667,2853
24.42500,2853
24.43333,2853
24.44167,2853
24.45000,2853
24.45833,2853
24.46667,2853
24.47500,2853
24.48333,2853
24.49167,2854
24.50000,2854
24.50833,2854
24.51667,2854
24.52500,2855
24.53333,2855
24.54167,2856
24.55000,2856
24.55833,2856
24.56667,2857
24.57500,2857
24.58333,2858
24.59167,2859
24.60000,2859
24.60833,2860
24.61667,2860
24.62500,2861
24.63333,2862
24.64167,2862
24.65000,2863
24.65833,2864
24.66667,2865
24.67500,2867
24.68333,2868
24.69167,2869
24.70000,2870
24.70833,2872
24.71667,2874
24.72500,2875
24.73333,2877
24.74167,2879
24.75000,2881
24.75833,2884
24.76667,2886
24.77500,2888
24.78333,2890
24.79167,2893
24.80000,2895
24.80833,2898
24.81667,2900
24.82500,2902
24.83333,2905
24.84167,2907
24.85000,2910
24.85833,2913
24.86667,2916
24.87500,2918
24.88333,2921
24.89167,2923
24.90000,2926
24.90833,2928
24.91667,2930
24.92500,2932
24.93333,2935
24.94167,2937
24.95000,2939
24.95833,2941
24.96667,2942
24.97500,2944
24.98333,2945
24.99167,2946
25.00000,2947
25.00833,2948
25.01667,2948
25.02500,2949
25.03333,2949
25.04167,2949
25.05000,2949
25.05833,2948
25.06667,2948
25.07500,2948
25.08333,2947
25.09167,2946
25.10000,2944
25.10833,2943
25.11667,2941
25.12500,2940
25.13333,2938
25.14167,2936
25.15000,2934
25.15833,2932
25.16667,2930
25.17500,2928
25.18333,2926
25.19167,2923
25.20000,2921
25.20833,2919
25.21667,2916
25.22500,2914
25.23333,2912
25.24167,2909
25.25000,2907
25.25833,2905
25.26667,2902
25.27500,2900
25.28333,2898
25.29167,2896
25.30000,2893
25.30833,2891
25.31667,2889
25.32500,2887
25.33333,2886
25.34167,2884
25.35000,2882
25.35833,2881
25.36667,2880
25.37500,2878
25.38333,2877
25.39167,2876
25.40000,2874
25.40833,2873
25.41667,2871
25.42500,2870
25.43333,2869
25.44167,2868
25.45000,2867
25.45833,2867
25.46667,2866
25.47500,2865
25.48333,2865
25.49167,2864
25.50000,2864
25.50833,2863
25.51667,2863
25.52500,2863
25.53333,2862
25.54167,2862
25.55000,2862
25.55833,2861
25.56667,2861
25.57500,2861
25.58333,2861
25.59167,2860
25.60000,2860
25.60833,2860
25.61667,2860
25.62500,2860
25.63333,2859
25.64167,2859
25.65000,2859
25.65833,2859
25.66667,2859
25.67500,2859
25.68333,2859
25.69167,2859
25.70000,2859
25.70833,2859
25.71667,2859
25.72500,2859
25.73333,2859
25.74167,2858
25.75000,2858
25.75833,2858
25.76667,2858
25.77500,2858
25.78333,2858
25.79167,2858
25.80000,2858
25.80833,2859
25.81667,2859
25.82500,2859
25.83333,2859
25.84167,2859
25.85000,2859
25.85833,2859
25.86667,2859
25.87500,2859
25.88333,2859
25.89167,2859
25.90000,2859
25.90833,2859
25.91667,2859
25.92500,2859
25.93333,2859
25.94167,2859
25.95000,2859
25.95833,2860
25.96667,2860
25.97500,2860
25.98333,2860
25.99167,2859
26.00000,2859
26.00833,2860
26.01667,2859
26.02500,2860
26.03333,2860
26.04167,2860
26.05000,2860
26.05833,2859
26.06667,2859
26.07500,2859
26.08333,2859
26.09167,2859
26.10000,2859
26.10833,2859
26.11667,2859
26.12500,2860
26.13333,2860
26.14167,2860
26.15000,2860
26.15833,2860
26.16667,2860
26.17500,2861
26.18333,2860
26.19167,2861
26.20000,2861
26.20833,2861
26.21667,2861
26.22500,2861
26.23333,2861
26.24167,2861
26.25000,2861
26.25833,2861
26.26667,2861
26.27500,2861
26.28333,2861
26.29167,2861
26.30000,2861
26.30833,2861
26.31667,2861
26.32500,2861
26.33333,2861
26.34167,2861
26.35000,2861
26.35833,2861
26.36667,2861
26.37500,2861
26.38333,2861
26.39167,2861
26.40000,2860
26.40833,2860
26.41667,2860
26.42500,2860
26.43333,2860
26.44167,2860
26.45000,2861
26.45833,2861
26.46667,2861
26.47500,2861
26.48333,2862
26.49167,2862
26.50000,2862
26.50833,2862
26.51667,2862
26.52500,2862
26.53333,2861
26.54167,2861
26.55000,2861
26.55833,2861
26.56667,2861
26.57500,2861
26.58333,2862
26.59167,2862
26.60000,2862
26.60833,2862
26.61667,2862
26.62500,2862
26.63333,2862
26.64167,2862
26.65000,2862
26.65833,2862
26.66667,2862
26.67500,2863
26.68333,2863
26.69167,2863
26.70000,2862
26.70833,2862
26.71667,2862
26.72500,2862
26.73333,2863
26.74167,2862
26.75000,2862
26.75833,2862
26.76667,2863
26.77500,2863
26.78333,2863
26.79167,2863
26.80000,2863
26.80833,2863
26.81667,2864
26.82500,2864
26.83333,2864
26.84167,2864
26.85000,2864
26.85833,2864
26.86667,2864
26.87500,2864
26.88333,2864
26.89167,2864
26.90000,2864
26.90833,2865
26.91667,2864
26.92500,2865
26.93333,2865
26.94167,2865
26.95000,2865
26.95833,2865
26.96667,2866
26.97500,2866
26.98333,2866
26.99167,2866
27.00000,2865
27.00833,2865
27.01667,2865
27.02500,2865
27.03333,2865
27.04167,2865
27.05000,2865
27.05833,2865
27.06667,2865
27.07500,2865
27.08333,2865
27.09167,2865
27.10000,2865
27.10833,2865
27.11667,2865
27.12500,2865
27.13333,2865
27.14167,2865
27.15000,2865
27.15833,2866
27.16667,2866
27.17500,2866
27.18333,2866
27.19167,2866
27.20000,2866
27.20833,2866
27.21667,2866
27.22500,2866
27.23333,2865
27.24167,2866
27.25000,2866
27.25833,2866
27.26667,2866
27.27500,2866
27.28333,2866
27.29167,2867
27.30000,2867
27.30833,2866
27.31667,2866
27.32500,2867
27.33333,2867
27.34167,2867
27.35000,2867
27.35833,2867
27.36667,2867
27.37500,2867
27.38333,2867
27.39167,2867
27.40000,2866
27.40833,2866
27.41667,2867
27.42500,2867
27.43333,2868
27.44167,2868
27.45000,2868
27.45833,2869
27.46667,2869
27.47500,2868
27.48333,2868
27.49167,2868
27.50000,2868
27.50833,2868
27.51667,2868
27.52500,2868
27.53333,2868
27.54167,2868
27.55000,2868
27.55833,2868
27.56667,2868
27.57500,2868
27.58333,2868
27.59167,2868
27.60000,2868
27.60833,2868
27.61667,2868
27.62500,2868
27.63333,2868
27.64167,2868
27.65000,2868
27.65833,2868
27.66667,2868
27.67500,2868
27.68333,2867
27.69167,2867
27.70000,2866
27.70833,2866
27.71667,2866
27.72500,2865
27.73333,2865
27.74167,2865
27.75000,2864
27.75833,2864
27.76667,2863
27.77500,2862
27.78333,2862
27.79167,2862
27.80000,2861
27.80833,2861
27.81667,2860
27.82500,2859
27.83333,2857
27.84167,2856
27.85000,2855
27.85833,2853
27.86667,2851
27.87500,2850
27.88333,2848
27.89167,2845
27.90000,2843
27.90833,2841
27.91667,2838
27.92500,2835
27.93333,2832
27.94167,2829
27.95000,2826
27.95833,2822
27.96667,2818
27.97500,2814
27.98333,2809
27.99167,2804
28.00000,2798
28.00833,2792
28.01667,2786
28.02500,2780
28.03333,2774
28.04167,2767
28.05000,2760
28.05833,2752
28.06667,2743
28.07500,2734
28.08333,2725
28.09167,2715
28.10000,2705
28.10833,2694
28.11667,2683
28.12500,2672
28.13333,2660
28.14167,2648
28.15000,2636
28.15833,2623
28.16667,2609
28.17500,2595
28.18333,2581
28.19167,2567
28.20000,2552
28.20833,2537
28.21667,2522
28.22500,2507
28.23333,2491
28.24167,2475
28.25000,2459
28.25833,2443
28.26667,2426
28.27500,2410
28.28333,2393
28.29167,2377
28.30000,2360
28.30833,2344
28.31667,2328
28.32500,2312
28.33333,2296
28.34167,2280
28.35000,2265
28.35833,2250
28.36667,2235
28.37500,2220
28.38333,2206
28.39167,2193
28.40000,2180
28.40833,2168
28.41667,2157
28.42500,2146
28.43333,2136
28.44167,2126
28.45000,2117
28.45833,2109
28.46667,2101
28.47500,2094
28.48333,2088
28.49167,2083
28.50000,2079
28.50833,2075
28.51667,2072
28.52500,2070
28.53333,2069
28.54167,2068
28.55000,2069
28.55833,2070
28.56667,2072
28.57500,2074
28.58333,2077
28.59167,2081
28.60000,2086
28.60833,2091
28.61667,2096
28.62500,2102
28.63333,2109
28.64167,2116
28.65000,2123
28.65833,2131
28.66667,2139
28.67500,2149
28.68333,2158
28.69167,2168
28.70000,2177
28.70833,2187
28.71667,2197
28.72500,2208
28.73333,2219
28.74167,2230
28.75000,2241
28.75833,2252
28.76667,2263
28.77500,2273
28.78333,2284
28.79167,2294
28.80000,2305
28.80833,2316
28.81667,2326
28.82500,2337
28.83333,2347
28.84167,2357
28.85000,2367
28.85833,2377
28.86667,2386
28.87500,2395
28.88333,2404
28.89167,2412
28.90000,2421
28.90833,2429
28.91667,2438
28.92500,2445
28.93333,2453
28.94167,2460
28.95000,2467
28.95833,2474
28.96667,2480
28.97500,2487
28.98333,2493
28.99167,2498
29.00000,2504
29.00833,2510
29.01667,2515
29.02500,2521
29.03333,2527
29.04167,2532
29.05000,2536
29.05833,2540
29.06667,2544
29.07500,2548
29.08333,2552
29.09167,2555
29.10000,2558
29.10833,2561
29.11667,2564
29.12500,2567
29.13333,2570
29.14167,2573
29.15000,2576
29.15833,2579
29.16667,2582
29.17500,2584
29.18333,2586
29.19167,2589
29.20000,2590
29.20833,2592
29.21667,2594
29.22500,2595
29.23333,2597
29.24167,2599
29.25000,2601
29.25833,2603
29.26667,2605
29.27500,2606
29.28333,2607
29.29167,2609
29.30000,2610
29.30833,2611
29.31667,2612
29.32500,2614
29.33333,2615
29.34167,2616
29.35000,2617
29.35833,2618
29.36667,2619
29.37500,2620
29.38333,2621
29.39167,2622
29.40000,2623
29.40833,2624
29.41667,2625
29.42500,2625
29.43333,2626
29.44167,2627
29.45000,2628
29.45833,2628
29.46667,2629
29.47500,2630
29.48333,2630
29.49167,2631
29.50000,2632
29.50833,2632
29.51667,2632
29.52500,2633
29.53333,2633
29.54167,2633
29.55000,2633
29.55833,2634
29.56667,2634
29.57500,2634
29.58333,2634
29.59167,2635
29.60000,2635
29.60833,2635
29.61667,2635
29.62500,2634
29.63333,2634
29.64167,2634
29.65000,2633
29.65833,2633
29.66667,2633
29.67500,2633
29.68333,2632
29.69167,2631
29.70000,2630
29.70833,2629
29.71667,2628
29.72500,2627
29.73333,2626
29.74167,2625
29.75000,2623
29.75833,2622
29.76667,2620
29.77500,2618
29.78333,2616
29.79167,2615
29.80000,2613
29.80833,2610
29.81667,2608
29.82500,2606
29.83333,2603
29.84167,2600
29.85000,2597
29.85833,2594
29.86667,2591
29.87500,2589
29.88333,2586
29.89167,2582
29.90000,2579
29.90833,2575
29.91667,2571
29.92500,2568
29.93333,2564
29.94167,2560
29.95000,2556
29.95833,2553
29.96667,2549
29.97500,2545
29.98333,2541
29.99167,2537
30.00000,2533
30.00833,2529
30.01667,2524
30.02500,2520
30.03333,2516
30.04167,2512
30.05000,2508
30.05833,2504
30.06667,2500
30.07500,2496
30.08333,2492
30.09167,2488
30.10000,2484
30.10833,2481
30.11667,2477
30.12500,2473
30.13333,2470
30.14167,2466
30.15000,2463
30.15833,2460
30.16667,2458
30.17500,2456
30.18333,2454
30.19167,2452
30.20000,2450
30.20833,2448
30.21667,2447
30.22500,2446
30.23333,2445
30.24167,2444
30.25000,2443
30.25833,2441
30.26667,2441
30.27500,2440
30.28333,2440
30.29167,2441
30.30000,2441
30.30833,2442
30.31667,2443
30.32500,2444
30.33333,2445
30.34167,2446
30.35000,2448
30.35833,2450
30.36667,2452
30.37500,2454
30.38333,2457
30.39167,2460
30.40000,2463
30.40833,2466
30.41667,2469
30.42500,2472
30.43333,2474
30.44167,2477
30.45000,2480
30.45833,2484
30.46667,2488
30.47500,2492
30.48333,2495
30.49167,2499
30.50000,2503
30.50833,2507
30.51667,2511
30.52500,2514
30.53333,2518
30.54167,2522
30.55000,2526
30.55833,2529
30.56667,2533
30.57500,2538
30.58333,2541
30.59167,2545
30.60000,2549
30.60833,2553
30.61667,2556
30.62500,2560
30.63333,2563
30.64167,2567
30.65000,2570
30.65833,2573
30.66667,2577
30.67500,2580
30.68333,2583
30.69167,2586
30.70000,2589
30.70833,2592
30.71667,2595
30.72500,2598
30.73333,2600
30.74167,2603
30.75000,2605
30.75833,2608
30.76667,2610
30.77500,2613
30.78333,2615
30.79167,2617
30.80000,2619
30.80833,2622
30.81667,2624
30.82500,2626
30.83333,2628
30.84167,2630
30.85000,2631
30.85833,2633
30.86667,2635
30.87500,2636
30.88333,2638
30.89167,2639
30.90000,2640
30.90833,2642
30.91667,2643
30.92500,2645
30.93333,2646
30.94167,2647
30.95000,2648
30.95833,2650
30.96667,2651
30.97500,2652
30.98333,2654
30.99167,2655
31.00000,2656
31.00833,2658
31.01667,2659
31.02500,2660
31.03333,2661
31.04167,2662
31.05000,2663
31.05833,2663
31.06667,2664
31.07500,2665
31.08333,2667
31.09167,2668
31.10000,2669
31.10833,2670
31.11667,2671
31.12500,2672
31.13333,2673
31.14167,2674
31.15000,2675
31.15833,2675
31.16667,2676
31.17500,2678
31.18333,2679
31.19167,2680
31.20000,2680
31.20833,2681
31.21667,2682
31.22500,2683
31.23333,2684
31.24167,2685
31.25000,2686
31.25833,2687
31.26667,2688
31.27500,2689
31.28333,2690
31.29167,2692
31.30000,2693
31.30833,2694
31.31667,2695
31.32500,2696
31.33333,2697
31.34167,2698
31.35000,2700
31.35833,2701
31.36667,2702
31.37500,2703
31.38333,2704
31.39167,2705
31.40000,2706
31.40833,2708
31.41667,2709
31.42500,2710
31.43333,2711
31.44167,2712
31.45000,2713
31.45833,2714
31.46667,2715
31.47500,2717
31.48333,2718
31.49167,2719
31.50000,2720
31.50833,2721
31.51667,2722
31.52500,2723
31.53333,2724
31.54167,2726
31.55000,2726
31.55833,2727
31.56667,2728
31.57500,2729
31.58333,2730
31.59167,2731
31.60000,2731
31.60833,2732
31.61667,2733
31.62500,2733
31.63333,2734
31.64167,2735
31.65000,2736
31.65833,2737
31.66667,2738
31.67500,2739
31.68333,2740
31.69167,2741
31.70000,2742
31.70833,2743
31.71667,2744
31.72500,2744
31.73333,2745
31.74167,2746
31.75000,2746
31.75833,2747
31.76667,2748
31.77500,2749
31.78333,2749
31.79167,2750
31.80000,2751
31.80833,2751
31.81667,2752
31.82500,2752
31.83333,2753
31.84167,2754
31.85000,2754
31.85833,2755
31.86667,2755
31.87500,2755
31.88333,2755
31.89167,2756
31.90000,2756
31.90833,2757
31.91667,2758
31.92500,2758
31.93333,2759
31.94167,2760
31.95000,2760
31.95833,2761
31.96667,2762
31.97500,2762
31.98333,2762
31.99167,2763
32.00000,2763
32.00833,2764
32.01667,2764
32.02500,2765
32.03333,2765
32.04167,2766
32.05000,2766
32.05833,2766
32.06667,2767
32.07500,2767
32.08333,2768
32.09167,2768
32.10000,2768
32.10833,2769
32.11667,2770
32.12500,2770
32.13333,2771
32.14167,2771
32.15000,2772
32.15833,2772
32.16667,2772
32.17500,2772
32.18333,2773
32.19167,2773
32.20000,2773
32.20833,2774
32.21667,2774
32.22500,2775
32.23333,2775
32.24167,2776
32.25000,2777
32.25833,2777
32.26667,2778
32.27500,2779
32.28333,2780
32.29167,2780
32.30000,2781
32.30833,2781
32.31667,2781
32.32500,2781
32.33333,2782
32.34167,2782
32.35000,2782
32.35833,2783
32.36667,2783
32.37500,2783
32.38333,2784
32.39167,2785
32.40000,2785
32.40833,2786
32.41667,2786
32.42500,2786
32.43333,2786
32.44167,2787
32.45000,2787
32.45833,2788
32.46667,2789
32.47500,2789
32.48333,2790
32.49167,2790
32.50000,2791
32.50833,2791
32.51667,2791
32.52500,2792
32.53333,2793
32.54167,2793
32.55000,2793
32.55833,2793
32.56667,2794
32.57500,2794
32.58333,2795
32.59167,2796
32.60000,2796
32.60833,2797
32.61667,2798
32.62500,2798
32.63333,2799
32.64167,2800
32.65000,2800
32.65833,2801
32.66667,2801
32.67500,2801
32.68333,2802
32.69167,2802
32.70000,2802
32.70833,2803
32.71667,2803
32.72500,2803
32.73333,2804
32.74167,2805
32.75000,2805
32.75833,2806
32.76667,2806
32.77500,2807
32.78333,2807
32.79167,2808
32.80000,2808
32.80833,2809
32.81667,2809
32.82500,2810
32.83333,2810
32.84167,2811
32.85000,2811
32.85833,2812
32.86667,2812
32.87500,2812
32.88333,2812
32.89167,2813
32.90000,2813
32.90833,2813
32.91667,2813
32.92500,2814
32.93333,2814
32.94167,2815
32.95000,2815
32.95833,2816
32.96667,2816
32.97500,2817
32.98333,2817
32.99167,2818
33.00000,2818
33.00833,2819
33.01667,2819
33.02500,2820
33.03333,2820
33.04167,2820
33.05000,2821
33.05833,2821
33.06667,2822
33.07500,2822
33.08333,2822
33.09167,2823
33.10000,2823
33.10833,2824
33.11667,2824
33.12500,2824
33.13333,2825
33.14167,2825
33.15000,2826
33.15833,2827
33.16667,2827
33.17500,2827
33.18333,2828
33.19167,2828
33.20000,2829
33.20833,2829
33.21667,2829
33.22500,2830
33.23333,2831
33.24167,2831
33.25000,2832
33.25833,2832
33.26667,2832
33.27500,2832
33.28333,2832
33.29167,2832
33.30000,2832
33.30833,2832
33.31667,2833
33.32500,2834
33.33333,2835
33.34167,2835
33.35000,2835
33.35833,2836
33.36667,2836
33.37500,2836
33.38333,2836
33.39167,2836
33.40000,2836
33.40833,2837
33.41667,2837
33.42500,2838
33.43333,2838
33.44167,2838
33.45000,2839
33.45833,2839
33.46667,2839
33.47500,2839
33.48333,2840
33.49167,2840
33.50000,2841
33.50833,2841
33.51667,2842
33.52500,2842
33.53333,2843
33.54167,2843
33.55000,2843
33.55833,2844
33.56667,2844
33.57500,2844
33.58333,2844
33.59167,2844
33.60000,2844
33.60833,2845
33.61667,2845
33.62500,2845
33.63333,2845
33.64167,2846
33.65000,2846
33.65833,2846
33.66667,2847
33.67500,2847
33.68333,2847
33.69167,2848
33.70000,2848
33.70833,2849
33.71667,2849
33.72500,2849
33.73333,2850
33.74167,2850
33.75000,2850
33.75833,2850
33.76667,2850
33.77500,2851
33.78333,2851
33.79167,2851
33.80000,2851
33.80833,2851
33.81667,2851
33.82500,2851
33.83333,2852
33.84167,2852
33.85000,2851
33.85833,2852
33.86667,2852
33.87500,2852
33.88333,2852
33.89167,2852
33.90000,2853
33.90833,2853
33.91667,2853
33.92500,2853
33.93333,2854
33.94167,2854
33.95000,2854
33.95833,2854
33.96667,2854
33.97500,2855
33.98333,2855
33.99167,2855
34.00000,2855
34.00833,2855
34.01667,2855
34.02500,2855
34.03333,2855
34.04167,2856
34.05000,2856
34.05833,2856
34.06667,2856
34.07500,2856
34.08333,2857
34.09167,2857
34.10000,2857
34.10833,2858
34.11667,2858
34.12500,2858
34.13333,2858
34.14167,2858
34.15000,2858
34.15833,2858
34.16667,2858
34.17500,2858
34.18333,2858
34.19167,2859
34.20000,2860
34.20833,2860
34.21667,2860
34.22500,2859
34.23333,2859
34.24167,2859
34.25000,2859
34.25833,2859
34.26667,2859
34.27500,2859
34.28333,2859
34.29167,2860
34.30000,2860
34.30833,2860
34.31667,2860
34.32500,2860
34.33333,2860
34.34167,2860
34.35000,2860
34.35833,2860
34.36667,2861
34.37500,2861
34.38333,2860
34.39167,2860
34.40000,2860
34.40833,2860
34.41667,2861
34.42500,2861
34.43333,2861
34.44167,2861
34.45000,2861
34.45833,2861
34.46667,2861
34.47500,2861
34.48333,2861
34.49167,2861
34.50000,2860
34.50833,2861
34.51667,2861
34.52500,2861
34.53333,2861
34.54167,2861
34.55000,2861
34.55833,2861
34.56667,2861
34.57500,2861
34.58333,2861
34.59167,2861
34.60000,2861
34.60833,2862
34.61667,2862
34.62500,2862
34.63333,2862
34.64167,2862
34.65000,2862
34.65833,2862
34.66667,2862
34.67500,2862
34.68333,2862
34.69167,2862
34.70000,2862
34.70833,2863
34.71667,2863
34.72500,2863
34.73333,2863
34.74167,2863
34.75000,2863
34.75833,2864
34.76667,2864
34.77500,2864
34.78333,2863
34.79167,2863
34.80000,2863
34.80833,2863
34.81667,2863
34.82500,2862
34.83333,2862
34.84167,2862
34.85000,2862
34.85833,2862
34.86667,2863
34.87500,2863
34.88333,2864
34.89167,2864
34.90000,2864
34.90833,2864
34.91667,2864
34.92500,2863
34.93333,2863
34.94167,2863
34.95000,2863
34.95833,2863
34.96667,2864
34.97500,2864
34.98333,2864
34.99167,2864
35.00000,2864
35.00833,2864
35.01667,2864
35.02500,2863
35.03333,2863
35.04167,2863
35.05000,2863
35.05833,2863
35.06667,2863
35.07500,2864
35.08333,2864
35.09167,2864
35.10000,2864
35.10833,2864
35.11667,2864
35.12500,2865
35.13333,2865
35.14167,2865
35.15000,2866
35.15833,2866
35.16667,2866
35.17500,2866
35.18333,2865
35.19167,2865
35.20000,2865
35.20833,2865
35.21667,2866
35.22500,2866
35.23333,2866
35.24167,2866
35.25000,2865
35.25833,2865
35.26667,2865
35.27500,2865
35.28333,2865
35.29167,2865
35.30000,2865
35.30833,2865
35.31667,2865
35.32500,2865
35.33333,2865
35.34167,2865
35.35000,2866
35.35833,2866
35.36667,2866
35.37500,2866
35.38333,2866
35.39167,2866
35.40000,2866
35.40833,2866
35.41667,2866
35.42500,2866
35.43333,2866
35.44167,2866
35.45000,2866
35.45833,2866
35.46667,2866
35.47500,2867
35.48333,2867
35.49167,2867
35.50000,2867
35.50833,2867
35.51667,2867
35.52500,2867
35.53333,2867
35.54167,2867
35.55000,2867
35.55833,2867
35.56667,2867
35.57500,2867
35.58333,2867
35.59167,2867
35.60000,2867
35.60833,2867
35.61667,2867
35.62500,2867
35.63333,2867
35.64167,2867
35.65000,2867
35.65833,2867
35.66667,2867
35.67500,2867
35.68333,2867
35.69167,2867
35.70000,2866
35.70833,2866
35.71667,2866
35.72500,2867
35.73333,2867
35.74167,2867
35.75000,2867
35.75833,2868
35.76667,2868
35.77500,2869
35.78333,2869
35.79167,2869
35.80000,2868
35.80833,2868
35.81667,2868
35.82500,2868
35.83333,2868
35.84167,2868
35.85000,2868
35.85833,2868
35.86667,2868
35.87500,2868
35.88333,2867
35.89167,2867
35.90000,2867
35.90833,2867
35.91667,2868
35.92500,2868
35.93333,2869
35.94167,2869
35.95000,2868
35.95833,2868
35.96667,2868
35.97500,2868
35.98333,2868
35.99167,2867
36.00000,2868
36.00833,2868
36.01667,2868
36.02500,2867
36.03333,2867
36.04167,2868
36.05000,2868
36.05833,2868
36.06667,2868
36.07500,2869
36.08333,2869
36.09167,2869
36.10000,2869
36.10833,2868
36.11667,2868
36.12500,2868
36.13333,2868
36.14167,2868
36.15000,2868
36.15833,2869
36.16667,2869
36.17500,2869
36.18333,2869
36.19167,2869
36.20000,2869
36.20833,2869
36.21667,2869
36.22500,2868
36.23333,2868
36.24167,2868
36.25000,2868
36.25833,2868
36.26667,2868
36.27500,2868
36.28333,2868
36.29167,2868
36.30000,2868
36.30833,2868
36.31667,2869
36.32500,2869
36.33333,2869
36.34167,2869
36.35000,2869
36.35833,2869
36.36667,2869
36.37500,2869
36.38333,2868
36.39167,2868
36.40000,2868
36.40833,2868
36.41667,2868
36.42500,2868
36.43333,2868
36.44167,2868
36.45000,2869
36.45833,2869
36.46667,2869
36.47500,2869
36.48333,2869
36.49167,2869
36.50000,2869
36.50833,2869
36.51667,2869
36.52500,2869
36.53333,2869
36.54167,2870
36.55000,2870
36.55833,2870
36.56667,2871
36.57500,2871
36.58333,2871
36.59167,2872
36.60000,2871
36.60833,2872
36.61667,2872
36.62500,2872
36.63333,2872
36.64167,2872
36.65000,2872
36.65833,2872
36.66667,2872
36.67500,2873
36.68333,2873
36.69167,2874
36.70000,2874
36.70833,2874
36.71667,2875
36.72500,2875
36.73333,2875
36.74167,2875
36.75000,2876
36.75833,2876
36.76667,2877
36.77500,2877
36.78333,2877
36.79167,2877
36.80000,2878
36.80833,2878
36.81667,2878
36.82500,2878
36.83333,2879
36.84167,2879
36.85000,2879
36.85833,2880
36.86667,2880
36.87500,2880
36.88333,2881
36.89167,2881
36.90000,2882
36.90833,2882
36.91667,2882
36.92500,2883
36.93333,2883
36.94167,2884
36.95000,2884
36.95833,2884
36.96667,2884
36.97500,2885
36.98333,2885
36.99167,2885
37.00000,2886
37.00833,2886
37.01667,2886
37.02500,2886
37.03333,2886
37.04167,2887
37.05000,2887
37.05833,2888
37.06667,2888
37.07500,2889
37.08333,2889
37.09167,2889
37.10000,2889
37.10833,2889
37.11667,2889
37.12500,2889
37.13333,2889
37.14167,2889
37.15000,2889
37.15833,2889
37.16667,2890
37.17500,2890
37.18333,2890
37.19167,2890
37.20000,2890
37.20833,2889
37.21667,2889
37.22500,2889
37.23333,2890
37.24167,2890
37.25000,2890
37.25833,2889
37.26667,2889
37.27500,2889
37.28333,2889
37.29167,2889
37.30000,2889
37.30833,2889
37.31667,2889
37.32500,2889
37.33333,2889
37.34167,2889
37.35000,2889
37.35833,2889
37.36667,2889
37.37500,2888
37.38333,2887
37.39167,2887
37.40000,2886
37.40833,2886
37.41667,2886
37.42500,2886
37.43333,2886
37.44167,2886
37.45000,2886
37.45833,2885
37.46667,2885
37.47500,2885
37.48333,2885
37.49167,2884
37.50000,2884
37.50833,2884
37.51667,2884
37.52500,2883
37.53333,2883
37.54167,2883
37.55000,2883
37.55833,2882
37.56667,2882
37.57500,2881
37.58333,2881
37.59167,2881
37.60000,2880
37.60833,2879
37.61667,2879
37.62500,2879
37.63333,2879
37.64167,2879
37.65000,2879
37.65833,2878
37.66667,2877
37.67500,2877
37.68333,2877
37.69167,2877
37.70000,2877
37.70833,2877
37.71667,2876
37.72500,2876
37.73333,2876
37.74167,2876
37.75000,2876
37.75833,2876
37.76667,2876
37.77500,2876
37.78333,2875
37.79167,2875
37.80000,2875
37.80833,2874
37.81667,2874
37.82500,2874
37.83333,2874
37.84167,2874
37.85000,2874
37.85833,2873
37.86667,2873
37.87500,2873
37.88333,2873
37.89167,2873
37.90000,2873
37.90833,2873
37.91667,2872
37.92500,2872
37.93333,2872
37.94167,2871
37.95000,2872
37.95833,2871
37.96667,2871
37.97500,2871
37.98333,2871
37.99167,2871
38.00000,2871
38.00833,2871
38.01667,2871
38.02500,2871
38.03333,2871
38.04167,2871
38.05000,2872
38.05833,2872
38.06667,2872
38.07500,2872
38.08333,2871
38.09167,2871
38.10000,2871
38.10833,2871
38.11667,2871
38.12500,2871
38.13333,2871
38.14167,2871
38.15000,2871
38.15833,2871
38.16667,2871
38.17500,2871
38.18333,2871
38.19167,2871
38.20000,2870
38.20833,2870
38.21667,2870
38.22500,2870
38.23333,2870
38.24167,2870
38.25000,2870
38.25833,2870
38.26667,2870
38.27500,2870
38.28333,2870
38.29167,2869
38.30000,2869
38.30833,2869
38.31667,2869
38.32500,2869
38.33333,2869
38.34167,2870
38.35000,2870
38.35833,2870
38.36667,2870
38.37500,2870
38.38333,2870
38.39167,2870
38.40000,2871
38.40833,2870
38.41667,2870
38.42500,2870
38.43333,2870
38.44167,2870
38.45000,2870
38.45833,2870
38.46667,2869
38.47500,2869
38.48333,2870
38.49167,2870
38.50000,2870
38.50833,2871
38.51667,2871
38.52500,2871
38.53333,2871
38.54167,2871
38.55000,2871
38.55833,2871
38.56667,2871
38.57500,2871
38.58333,2871
38.59167,2871
38.60000,2871
38.60833,2871
38.61667,2871
38.62500,2871
38.63333,2871
38.64167,2871
38.65000,2871
38.65833,2871
38.66667,2870
38.67500,2870
38.68333,2871
38.69167,2871
38.70000,2871
38.70833,2871
38.71667,2872
38.72500,2872
38.73333,2871
38.74167,2871
38.75000,2871
38.75833,2871
38.76667,2871
38.77500,2871
38.78333,2871
38.79167,2870
38.80000,2870
38.80833,2871
38.81667,2871
38.82500,2871
38.83333,2871
38.84167,2871
38.85000,2871
38.85833,2871
38.86667,2871
38.87500,2871
38.88333,2870
38.89167,2870
38.90000,2870
38.90833,2870
38.91667,2870
38.92500,2870
38.93333,2870
38.94167,2870
38.95000,2870
38.95833,2871
38.96667,2871
38.97500,2871
38.98333,2871
38.99167,2871
39.00000,2871
39.00833,2871
39.01667,2871
39.02500,2871
39.03333,2872
39.04167,2872
39.05000,2871
39.05833,2871
39.06667,2871
39.07500,2871
39.08333,2871
39.09167,2871
39.10000,2871
39.10833,2872
39.11667,2871
39.12500,2871
39.13333,2871
39.14167,2871
39.15000,2871
39.15833,2871
39.16667,2871
39.17500,2871
39.18333,2871
39.19167,2871
39.20000,2871
39.20833,2871
39.21667,2871
39.22500,2872
39.23333,2871
39.24167,2871
39.25000,2871
39.25833,2871
39.26667,2871
39.27500,2871
39.28333,2871
39.29167,2871
39.30000,2871
39.30833,2871
39.31667,2871
39.32500,2871
39.33333,2871
39.34167,2871
39.35000,2871
39.35833,2871
39.36667,2871
39.37500,2871
39.38333,2871
39.39167,2871
39.40000,2871
39.40833,2871
39.41667,2871
39.42500,2871
39.43333,2871
39.44167,2872
39.45000,2872
39.45833,2871
39.46667,2872
39.47500,2872
39.48333,2872
39.49167,2872
39.50000,2872
39.50833,2872
39.51667,2872
39.52500,2872
39.53333,2872
39.54167,2871
39.55000,2871
39.55833,2871
39.56667,2871
39.57500,2871
39.58333,2871
39.59167,2871
39.60000,2872
39.60833,2872
39.61667,2872
39.62500,2872
39.63333,2871
39.64167,2871
39.65000,2871
39.65833,2872
39.66667,2872
39.67500,2872
39.68333,2872
39.69167,2872
39.70000,2872
39.70833,2872
39.71667,2872
39.72500,2872
39.73333,2872
39.74167,2872
39.75000,2872
39.75833,2872
39.76667,2871
39.77500,2871
39.78333,2871
39.79167,2872
39.80000,2872
39.80833,2872
39.81667,2872
39.82500,2872
39.83333,2872
39.84167,2872
39.85000,2872
39.85833,2872
39.86667,2872
39.87500,2872
39.88333,2872
39.89167,2873
39.90000,2873
39.90833,2873
39.91667,2873
39.92500,2872
39.93333,2872
39.94167,2872
39.95000,2872
39.95833,2872
39.96667,2873
39.97500,2873
39.98333,2873
39.99167,2873
40.00000,2873

