[Header]
Application Name,LabSolutions
Version,5.97 SP1
Data File Name,C:\Users\cremerlab\Desktop\griffin\2021-03-31_NCM3722_NCglucose_turnover\2021-03-31_NCM3722_turnover_batch_3312021_002_023.lcd
Output Date,4/1/2021
Output Time,12:02:36 PM

[File Information]
Type,Data File
Generated,4/1/2021 11:22:17 AM
Generated by,System Administrator
Modified,4/1/2021 12:02:36 PM
Modified by,System Administrator

[Sample Information]
Operator Name,System Administrator
Acquired,4/1/2021 11:22:36 AM
Sample Type,1:Standard
Level,2
Sample Name,2021-03-31_NCM3722_NCglucose_replicate_04_timepoint_002
Sample ID,002
ISTD Amount1,1
ISTD Amount2,1
ISTD Amount3,1
ISTD Amount4,1
ISTD Amount5,1
ISTD Amount6,1
ISTD Amount7,1
ISTD Amount8,1
ISTD Amount9,1
ISTD Amount10,1
ISTD Amount11,1
ISTD Amount12,1
ISTD Amount13,1
ISTD Amount14,1
ISTD Amount15,1
ISTD Amount16,1
ISTD Amount17,1
ISTD Amount18,1
ISTD Amount19,1
ISTD Amount20,1
ISTD Amount21,1
ISTD Amount22,1
ISTD Amount23,1
ISTD Amount24,1
ISTD Amount25,1
ISTD Amount26,1
ISTD Amount27,1
ISTD Amount28,1
ISTD Amount29,1
ISTD Amount30,1
ISTD Amount31,1
ISTD Amount32,1
Sample Amount,1
Dilution Factor,1
Vial#,38
Injection Volume,20

[Original Files]
Data File,C:\Users\cremerlab\Desktop\griffin\2021-03-31_NCM3722_NCglucose_turnover\2021-03-31_NCM3722_turnover_batch_3312021_002_023.lcd
Method File,C:\LabSolutions\Data\Project1\organicacidsetc2.lcm
Batch File,C:\Users\cremerlab\Desktop\griffin\2021-03-31_NCM3722_NCglucose_turnover\2021-03-31_NCM3722_turnover_batch.lcb
Report Format File,c:\LabSolutions\System\DEFAULT.lsr

[File Description]


[Configuration]
Instrument Name,HPLC-PC-Instrument1
Instrument #,1
Line #,1
# of Detectors,2
Detector ID,Detector A,Detector B
Detector Name,Detector A,Detector B
# of Channels,1,1

[Peak Table(Detector A)]
# of Peaks,0

[Peak Table(Detector B)]
# of Peaks,5
Peak#,R.Time,I.Time,F.Time,Area,Height,A/H,Conc.,Mark,ID#,Name,k',Plate #,Plate Ht.,Tailing,Resolution,Sep.Factor,Area Ratio,Height Ratio,Conc. %,Norm Conc.
1,11.044,10.750,12.425,1109611,64768,17.132,0.000,   ,,,0.000,11209,13.382,1.360,0.000,0.000,0,0,0.000,0.000
2,15.068,14.092,15.367,2825346,110246,25.628,0.000,   ,,,0.364,7537,19.902,0.000,7.241,0.000,0,0,0.000,0.000
3,15.626,15.367,18.517,854573,35540,24.046,0.000, V ,,,0.415,9337,16.065,0.000,0.831,1.138,0,0,0.000,0.000
4,18.986,18.700,19.542,1962,93,21.139,0.000,   ,,,0.719,16759,8.950,1.228,5.448,1.733,0,0,0.000,0.000
5,25.053,24.642,25.617,3343,126,26.476,0.000,   ,,,1.268,18859,7.954,1.104,9.218,1.764,0,0,0.000,0.000

[LC Chromatogram(Detector B-Ch1)]
Interval(msec),500
# of Points,4801
Start Time(min),0.000
End Time(min),40.000
Intensity Units,mV
Intensity Multiplier,0.001
R.Time (min),Intensity
0.00000,1
0.00833,1
0.01667,0
0.02500,1
0.03333,1
0.04167,0
0.05000,-0
0.05833,-1
0.06667,-1
0.07500,-1
0.08333,-1
0.09167,-1
0.10000,-1
0.10833,-0
0.11667,-0
0.12500,-0
0.13333,0
0.14167,0
0.15000,0
0.15833,0
0.16667,0
0.17500,0
0.18333,0
0.19167,0
0.20000,1
0.20833,1
0.21667,2
0.22500,2
0.23333,2
0.24167,3
0.25000,3
0.25833,3
0.26667,4
0.27500,4
0.28333,4
0.29167,3
0.30000,3
0.30833,3
0.31667,2
0.32500,2
0.33333,2
0.34167,2
0.35000,1
0.35833,1
0.36667,1
0.37500,1
0.38333,1
0.39167,1
0.40000,2
0.40833,2
0.41667,2
0.42500,2
0.43333,2
0.44167,2
0.45000,3
0.45833,3
0.46667,3
0.47500,3
0.48333,4
0.49167,4
0.50000,4
0.50833,4
0.51667,4
0.52500,4
0.53333,4
0.54167,5
0.55000,5
0.55833,5
0.56667,6
0.57500,7
0.58333,8
0.59167,8
0.60000,8
0.60833,8
0.61667,8
0.62500,7
0.63333,6
0.64167,5
0.65000,4
0.65833,3
0.66667,2
0.67500,1
0.68333,0
0.69167,-1
0.70000,-1
0.70833,-2
0.71667,-2
0.72500,-2
0.73333,-3
0.74167,-3
0.75000,-3
0.75833,-3
0.76667,-3
0.77500,-3
0.78333,-3
0.79167,-2
0.80000,-2
0.80833,-1
0.81667,-1
0.82500,-1
0.83333,-0
0.84167,0
0.85000,1
0.85833,2
0.86667,2
0.87500,2
0.88333,2
0.89167,2
0.90000,2
0.90833,3
0.91667,3
0.92500,3
0.93333,4
0.94167,4
0.95000,5
0.95833,4
0.96667,4
0.97500,3
0.98333,3
0.99167,4
1.00000,4
1.00833,4
1.01667,4
1.02500,5
1.03333,5
1.04167,5
1.05000,5
1.05833,5
1.06667,6
1.07500,6
1.08333,6
1.09167,6
1.10000,6
1.10833,6
1.11667,5
1.12500,5
1.13333,5
1.14167,5
1.15000,5
1.15833,5
1.16667,5
1.17500,5
1.18333,5
1.19167,5
1.20000,5
1.20833,5
1.21667,5
1.22500,5
1.23333,5
1.24167,5
1.25000,5
1.25833,6
1.26667,6
1.27500,6
1.28333,6
1.29167,6
1.30000,6
1.30833,6
1.31667,6
1.32500,6
1.33333,6
1.34167,6
1.35000,6
1.35833,6
1.36667,6
1.37500,6
1.38333,6
1.39167,6
1.40000,6
1.40833,6
1.41667,5
1.42500,6
1.43333,6
1.44167,6
1.45000,6
1.45833,7
1.46667,7
1.47500,7
1.48333,7
1.49167,7
1.50000,7
1.50833,7
1.51667,7
1.52500,7
1.53333,7
1.54167,7
1.55000,7
1.55833,8
1.56667,8
1.57500,8
1.58333,8
1.59167,8
1.60000,8
1.60833,8
1.61667,7
1.62500,7
1.63333,7
1.64167,8
1.65000,8
1.65833,8
1.66667,8
1.67500,8
1.68333,8
1.69167,8
1.70000,8
1.70833,8
1.71667,9
1.72500,9
1.73333,9
1.74167,8
1.75000,8
1.75833,8
1.76667,8
1.77500,8
1.78333,9
1.79167,9
1.80000,9
1.80833,9
1.81667,8
1.82500,8
1.83333,8
1.84167,9
1.85000,9
1.85833,9
1.86667,8
1.87500,8
1.88333,8
1.89167,8
1.90000,8
1.90833,9
1.91667,9
1.92500,10
1.93333,10
1.94167,10
1.95000,11
1.95833,11
1.96667,11
1.97500,11
1.98333,11
1.99167,11
2.00000,11
2.00833,11
2.01667,11
2.02500,11
2.03333,11
2.04167,10
2.05000,10
2.05833,10
2.06667,9
2.07500,9
2.08333,9
2.09167,10
2.10000,10
2.10833,10
2.11667,10
2.12500,10
2.13333,10
2.14167,10
2.15000,10
2.15833,10
2.16667,10
2.17500,10
2.18333,9
2.19167,10
2.20000,10
2.20833,11
2.21667,11
2.22500,11
2.23333,11
2.24167,10
2.25000,10
2.25833,9
2.26667,9
2.27500,9
2.28333,8
2.29167,9
2.30000,9
2.30833,9
2.31667,9
2.32500,9
2.33333,9
2.34167,10
2.35000,10
2.35833,10
2.36667,10
2.37500,10
2.38333,10
2.39167,9
2.40000,10
2.40833,10
2.41667,9
2.42500,9
2.43333,9
2.44167,9
2.45000,9
2.45833,10
2.46667,10
2.47500,9
2.48333,9
2.49167,9
2.50000,9
2.50833,9
2.51667,8
2.52500,9
2.53333,9
2.54167,9
2.55000,8
2.55833,8
2.56667,8
2.57500,8
2.58333,8
2.59167,8
2.60000,8
2.60833,8
2.61667,8
2.62500,8
2.63333,9
2.64167,8
2.65000,8
2.65833,8
2.66667,8
2.67500,8
2.68333,8
2.69167,8
2.70000,8
2.70833,8
2.71667,7
2.72500,7
2.73333,7
2.74167,7
2.75000,7
2.75833,7
2.76667,8
2.77500,8
2.78333,8
2.79167,8
2.80000,8
2.80833,8
2.81667,8
2.82500,8
2.83333,8
2.84167,8
2.85000,8
2.85833,8
2.86667,8
2.87500,8
2.88333,8
2.89167,8
2.90000,8
2.90833,8
2.91667,8
2.92500,8
2.93333,7
2.94167,7
2.95000,7
2.95833,7
2.96667,7
2.97500,8
2.98333,8
2.99167,8
3.00000,8
3.00833,8
3.01667,8
3.02500,8
3.03333,8
3.04167,9
3.05000,9
3.05833,9
3.06667,9
3.07500,9
3.08333,9
3.09167,9
3.10000,8
3.10833,8
3.11667,8
3.12500,8
3.13333,8
3.14167,8
3.15000,8
3.15833,8
3.16667,8
3.17500,8
3.18333,8
3.19167,8
3.20000,8
3.20833,8
3.21667,8
3.22500,8
3.23333,8
3.24167,8
3.25000,8
3.25833,9
3.26667,9
3.27500,8
3.28333,8
3.29167,8
3.30000,8
3.30833,8
3.31667,8
3.32500,8
3.33333,8
3.34167,8
3.35000,8
3.35833,8
3.36667,8
3.37500,8
3.38333,8
3.39167,8
3.40000,8
3.40833,8
3.41667,8
3.42500,8
3.43333,8
3.44167,8
3.45000,8
3.45833,8
3.46667,8
3.47500,8
3.48333,8
3.49167,8
3.50000,8
3.50833,9
3.51667,8
3.52500,9
3.53333,9
3.54167,9
3.55000,9
3.55833,8
3.56667,8
3.57500,9
3.58333,9
3.59167,9
3.60000,9
3.60833,9
3.61667,9
3.62500,9
3.63333,9
3.64167,9
3.65000,9
3.65833,10
3.66667,10
3.67500,10
3.68333,11
3.69167,11
3.70000,11
3.70833,11
3.71667,11
3.72500,11
3.73333,10
3.74167,10
3.75000,10
3.75833,10
3.76667,10
3.77500,10
3.78333,10
3.79167,11
3.80000,11
3.80833,11
3.81667,11
3.82500,12
3.83333,12
3.84167,12
3.85000,12
3.85833,11
3.86667,11
3.87500,11
3.88333,11
3.89167,12
3.90000,12
3.90833,12
3.91667,13
3.92500,13
3.93333,13
3.94167,13
3.95000,13
3.95833,13
3.96667,13
3.97500,13
3.98333,12
3.99167,12
4.00000,13
4.00833,13
4.01667,13
4.02500,13
4.03333,13
4.04167,13
4.05000,13
4.05833,13
4.06667,13
4.07500,13
4.08333,13
4.09167,12
4.10000,13
4.10833,13
4.11667,13
4.12500,14
4.13333,14
4.14167,14
4.15000,13
4.15833,13
4.16667,13
4.17500,13
4.18333,13
4.19167,12
4.20000,12
4.20833,13
4.21667,13
4.22500,14
4.23333,14
4.24167,14
4.25000,14
4.25833,13
4.26667,13
4.27500,13
4.28333,13
4.29167,13
4.30000,13
4.30833,13
4.31667,13
4.32500,13
4.33333,13
4.34167,13
4.35000,13
4.35833,13
4.36667,13
4.37500,13
4.38333,13
4.39167,12
4.40000,12
4.40833,12
4.41667,12
4.42500,12
4.43333,12
4.44167,12
4.45000,13
4.45833,13
4.46667,13
4.47500,13
4.48333,13
4.49167,13
4.50000,13
4.50833,13
4.51667,13
4.52500,13
4.53333,13
4.54167,13
4.55000,13
4.55833,13
4.56667,13
4.57500,12
4.58333,12
4.59167,12
4.60000,12
4.60833,12
4.61667,12
4.62500,12
4.63333,12
4.64167,12
4.65000,12
4.65833,12
4.66667,12
4.67500,12
4.68333,12
4.69167,12
4.70000,12
4.70833,12
4.71667,11
4.72500,11
4.73333,11
4.74167,11
4.75000,11
4.75833,11
4.76667,11
4.77500,11
4.78333,11
4.79167,11
4.80000,11
4.80833,11
4.81667,11
4.82500,11
4.83333,11
4.84167,11
4.85000,11
4.85833,10
4.86667,10
4.87500,10
4.88333,10
4.89167,11
4.90000,11
4.90833,11
4.91667,12
4.92500,12
4.93333,12
4.94167,12
4.95000,12
4.95833,12
4.96667,13
4.97500,13
4.98333,13
4.99167,13
5.00000,13
5.00833,13
5.01667,12
5.02500,12
5.03333,12
5.04167,11
5.05000,11
5.05833,11
5.06667,11
5.07500,11
5.08333,11
5.09167,11
5.10000,11
5.10833,11
5.11667,11
5.12500,11
5.13333,11
5.14167,11
5.15000,11
5.15833,11
5.16667,11
5.17500,11
5.18333,11
5.19167,11
5.20000,11
5.20833,11
5.21667,11
5.22500,11
5.23333,10
5.24167,10
5.25000,10
5.25833,10
5.26667,10
5.27500,11
5.28333,11
5.29167,11
5.30000,11
5.30833,11
5.31667,12
5.32500,12
5.33333,12
5.34167,12
5.35000,12
5.35833,12
5.36667,11
5.37500,11
5.38333,11
5.39167,11
5.40000,11
5.40833,12
5.41667,12
5.42500,11
5.43333,11
5.44167,11
5.45000,11
5.45833,11
5.46667,11
5.47500,11
5.48333,11
5.49167,11
5.50000,11
5.50833,11
5.51667,11
5.52500,12
5.53333,12
5.54167,12
5.55000,11
5.55833,11
5.56667,11
5.57500,11
5.58333,11
5.59167,12
5.60000,12
5.60833,12
5.61667,12
5.62500,12
5.63333,12
5.64167,12
5.65000,12
5.65833,11
5.66667,11
5.67500,11
5.68333,11
5.69167,11
5.70000,11
5.70833,11
5.71667,11
5.72500,11
5.73333,12
5.74167,12
5.75000,12
5.75833,12
5.76667,13
5.77500,13
5.78333,13
5.79167,13
5.80000,13
5.80833,13
5.81667,13
5.82500,13
5.83333,13
5.84167,12
5.85000,12
5.85833,12
5.86667,12
5.87500,12
5.88333,12
5.89167,12
5.90000,12
5.90833,12
5.91667,12
5.92500,11
5.93333,11
5.94167,12
5.95000,11
5.95833,11
5.96667,11
5.97500,11
5.98333,11
5.99167,11
6.00000,11
6.00833,12
6.01667,12
6.02500,12
6.03333,12
6.04167,11
6.05000,11
6.05833,11
6.06667,11
6.07500,11
6.08333,11
6.09167,11
6.10000,11
6.10833,11
6.11667,11
6.12500,11
6.13333,11
6.14167,12
6.15000,12
6.15833,12
6.16667,12
6.17500,12
6.18333,13
6.19167,13
6.20000,13
6.20833,13
6.21667,12
6.22500,12
6.23333,12
6.24167,12
6.25000,12
6.25833,12
6.26667,12
6.27500,12
6.28333,12
6.29167,12
6.30000,11
6.30833,11
6.31667,11
6.32500,11
6.33333,11
6.34167,12
6.35000,12
6.35833,12
6.36667,12
6.37500,13
6.38333,13
6.39167,13
6.40000,13
6.40833,13
6.41667,13
6.42500,13
6.43333,13
6.44167,13
6.45000,13
6.45833,13
6.46667,12
6.47500,12
6.48333,12
6.49167,12
6.50000,13
6.50833,13
6.51667,12
6.52500,12
6.53333,12
6.54167,12
6.55000,13
6.55833,13
6.56667,13
6.57500,13
6.58333,13
6.59167,13
6.60000,14
6.60833,14
6.61667,14
6.62500,14
6.63333,14
6.64167,14
6.65000,14
6.65833,14
6.66667,14
6.67500,13
6.68333,13
6.69167,13
6.70000,13
6.70833,13
6.71667,12
6.72500,12
6.73333,12
6.74167,12
6.75000,12
6.75833,12
6.76667,12
6.77500,12
6.78333,12
6.79167,12
6.80000,13
6.80833,13
6.81667,13
6.82500,13
6.83333,14
6.84167,14
6.85000,13
6.85833,13
6.86667,13
6.87500,13
6.88333,13
6.89167,14
6.90000,13
6.90833,13
6.91667,13
6.92500,13
6.93333,12
6.94167,12
6.95000,12
6.95833,13
6.96667,13
6.97500,13
6.98333,13
6.99167,13
7.00000,13
7.00833,13
7.01667,14
7.02500,14
7.03333,15
7.04167,15
7.05000,15
7.05833,14
7.06667,14
7.07500,14
7.08333,14
7.09167,14
7.10000,14
7.10833,14
7.11667,14
7.12500,14
7.13333,14
7.14167,14
7.15000,14
7.15833,14
7.16667,14
7.17500,14
7.18333,14
7.19167,14
7.20000,14
7.20833,14
7.21667,14
7.22500,14
7.23333,14
7.24167,14
7.25000,14
7.25833,14
7.26667,14
7.27500,14
7.28333,14
7.29167,14
7.30000,14
7.30833,14
7.31667,14
7.32500,14
7.33333,14
7.34167,14
7.35000,14
7.35833,14
7.36667,14
7.37500,14
7.38333,14
7.39167,14
7.40000,14
7.40833,14
7.41667,14
7.42500,13
7.43333,14
7.44167,14
7.45000,14
7.45833,15
7.46667,15
7.47500,15
7.48333,15
7.49167,14
7.50000,14
7.50833,14
7.51667,14
7.52500,14
7.53333,14
7.54167,14
7.55000,14
7.55833,15
7.56667,15
7.57500,15
7.58333,15
7.59167,15
7.60000,14
7.60833,14
7.61667,14
7.62500,14
7.63333,14
7.64167,14
7.65000,14
7.65833,15
7.66667,15
7.67500,15
7.68333,15
7.69167,15
7.70000,15
7.70833,15
7.71667,15
7.72500,15
7.73333,15
7.74167,15
7.75000,15
7.75833,15
7.76667,15
7.77500,15
7.78333,15
7.79167,15
7.80000,15
7.80833,15
7.81667,15
7.82500,14
7.83333,14
7.84167,14
7.85000,14
7.85833,14
7.86667,14
7.87500,14
7.88333,14
7.89167,14
7.90000,14
7.90833,14
7.91667,14
7.92500,15
7.93333,15
7.94167,15
7.95000,15
7.95833,15
7.96667,15
7.97500,15
7.98333,15
7.99167,15
8.00000,15
8.00833,16
8.01667,16
8.02500,16
8.03333,16
8.04167,16
8.05000,16
8.05833,15
8.06667,15
8.07500,15
8.08333,15
8.09167,15
8.10000,14
8.10833,14
8.11667,14
8.12500,14
8.13333,14
8.14167,14
8.15000,14
8.15833,14
8.16667,14
8.17500,15
8.18333,15
8.19167,15
8.20000,16
8.20833,16
8.21667,16
8.22500,15
8.23333,15
8.24167,15
8.25000,16
8.25833,16
8.26667,15
8.27500,15
8.28333,15
8.29167,15
8.30000,15
8.30833,15
8.31667,15
8.32500,15
8.33333,15
8.34167,16
8.35000,16
8.35833,16
8.36667,16
8.37500,16
8.38333,16
8.39167,16
8.40000,15
8.40833,16
8.41667,16
8.42500,16
8.43333,16
8.44167,16
8.45000,16
8.45833,16
8.46667,16
8.47500,16
8.48333,16
8.49167,16
8.50000,15
8.50833,15
8.51667,15
8.52500,16
8.53333,16
8.54167,16
8.55000,16
8.55833,16
8.56667,16
8.57500,16
8.58333,16
8.59167,16
8.60000,17
8.60833,17
8.61667,17
8.62500,17
8.63333,17
8.64167,17
8.65000,17
8.65833,17
8.66667,17
8.67500,17
8.68333,17
8.69167,17
8.70000,17
8.70833,17
8.71667,17
8.72500,17
8.73333,17
8.74167,17
8.75000,17
8.75833,18
8.76667,18
8.77500,18
8.78333,18
8.79167,17
8.80000,17
8.80833,17
8.81667,17
8.82500,16
8.83333,17
8.84167,17
8.85000,17
8.85833,17
8.86667,17
8.87500,17
8.88333,17
8.89167,17
8.90000,17
8.90833,17
8.91667,16
8.92500,16
8.93333,16
8.94167,16
8.95000,16
8.95833,17
8.96667,17
8.97500,17
8.98333,17
8.99167,17
9.00000,17
9.00833,17
9.01667,18
9.02500,18
9.03333,18
9.04167,18
9.05000,17
9.05833,17
9.06667,17
9.07500,17
9.08333,17
9.09167,17
9.10000,17
9.10833,17
9.11667,17
9.12500,17
9.13333,18
9.14167,18
9.15000,18
9.15833,18
9.16667,17
9.17500,17
9.18333,18
9.19167,18
9.20000,18
9.20833,18
9.21667,17
9.22500,17
9.23333,17
9.24167,17
9.25000,17
9.25833,17
9.26667,18
9.27500,18
9.28333,18
9.29167,18
9.30000,18
9.30833,18
9.31667,18
9.32500,18
9.33333,18
9.34167,18
9.35000,18
9.35833,18
9.36667,18
9.37500,17
9.38333,18
9.39167,18
9.40000,18
9.40833,18
9.41667,18
9.42500,19
9.43333,19
9.44167,19
9.45000,19
9.45833,19
9.46667,19
9.47500,19
9.48333,19
9.49167,20
9.50000,20
9.50833,20
9.51667,20
9.52500,20
9.53333,20
9.54167,19
9.55000,19
9.55833,19
9.56667,19
9.57500,19
9.58333,18
9.59167,18
9.60000,18
9.60833,18
9.61667,18
9.62500,18
9.63333,19
9.64167,19
9.65000,19
9.65833,19
9.66667,19
9.67500,19
9.68333,19
9.69167,19
9.70000,19
9.70833,20
9.71667,20
9.72500,20
9.73333,20
9.74167,19
9.75000,20
9.75833,19
9.76667,19
9.77500,19
9.78333,20
9.79167,20
9.80000,20
9.80833,19
9.81667,19
9.82500,19
9.83333,20
9.84167,20
9.85000,20
9.85833,20
9.86667,20
9.87500,20
9.88333,20
9.89167,20
9.90000,20
9.90833,20
9.91667,20
9.92500,20
9.93333,20
9.94167,20
9.95000,20
9.95833,20
9.96667,20
9.97500,20
9.98333,20
9.99167,20
10.00000,20
10.00833,20
10.01667,21
10.02500,21
10.03333,21
10.04167,20
10.05000,20
10.05833,20
10.06667,19
10.07500,20
10.08333,20
10.09167,20
10.10000,21
10.10833,21
10.11667,21
10.12500,21
10.13333,21
10.14167,21
10.15000,21
10.15833,21
10.16667,21
10.17500,21
10.18333,22
10.19167,22
10.20000,22
10.20833,22
10.21667,22
10.22500,22
10.23333,22
10.24167,22
10.25000,22
10.25833,22
10.26667,22
10.27500,22
10.28333,22
10.29167,22
10.30000,23
10.30833,23
10.31667,24
10.32500,24
10.33333,25
10.34167,25
10.35000,25
10.35833,25
10.36667,26
10.37500,27
10.38333,27
10.39167,28
10.40000,29
10.40833,30
10.41667,31
10.42500,31
10.43333,31
10.44167,31
10.45000,31
10.45833,31
10.46667,32
10.47500,31
10.48333,31
10.49167,30
10.50000,29
10.50833,27
10.51667,23
10.52500,18
10.53333,10
10.54167,-0
10.55000,-15
10.55833,-35
10.56667,-61
10.57500,-96
10.58333,-142
10.59167,-200
10.60000,-273
10.60833,-362
10.61667,-471
10.62500,-602
10.63333,-755
10.64167,-934
10.65000,-1138
10.65833,-1367
10.66667,-1618
10.67500,-1889
10.68333,-2175
10.69167,-2471
10.70000,-2767
10.70833,-3055
10.71667,-3325
10.72500,-3563
10.73333,-3757
10.74167,-3894
10.75000,-3957
10.75833,-3934
10.76667,-3809
10.77500,-3569
10.78333,-3200
10.79167,-2690
10.80000,-2028
10.80833,-1205
10.81667,-212
10.82500,956
10.83333,2305
10.84167,3837
10.85000,5554
10.85833,7455
10.86667,9538
10.87500,11796
10.88333,14224
10.89167,16813
10.90000,19552
10.90833,22424
10.91667,25416
10.92500,28505
10.93333,31667
10.94167,34874
10.95000,38094
10.95833,41289
10.96667,44418
10.97500,47434
10.98333,50288
10.99167,52927
11.00000,55299
11.00833,57353
11.01667,59040
11.02500,60318
11.03333,61155
11.04167,61528
11.05000,61426
11.05833,60853
11.06667,59824
11.07500,58369
11.08333,56528
11.09167,54348
11.10000,51887
11.10833,49202
11.11667,46354
11.12500,43403
11.13333,40402
11.14167,37402
11.15000,34448
11.15833,31575
11.16667,28815
11.17500,26190
11.18333,23717
11.19167,21406
11.20000,19263
11.20833,17290
11.21667,15483
11.22500,13838
11.23333,12347
11.24167,11003
11.25000,9796
11.25833,8715
11.26667,7750
11.27500,6891
11.28333,6129
11.29167,5453
11.30000,4856
11.30833,4328
11.31667,3863
11.32500,3453
11.33333,3093
11.34167,2776
11.35000,2498
11.35833,2253
11.36667,2037
11.37500,1848
11.38333,1681
11.39167,1535
11.40000,1406
11.40833,1291
11.41667,1190
11.42500,1100
11.43333,1021
11.44167,950
11.45000,887
11.45833,831
11.46667,780
11.47500,735
11.48333,694
11.49167,657
11.50000,623
11.50833,593
11.51667,565
11.52500,539
11.53333,516
11.54167,494
11.55000,474
11.55833,456
11.56667,438
11.57500,422
11.58333,407
11.59167,394
11.60000,380
11.60833,368
11.61667,357
11.62500,346
11.63333,337
11.64167,327
11.65000,318
11.65833,310
11.66667,301
11.67500,294
11.68333,287
11.69167,280
11.70000,274
11.70833,268
11.71667,262
11.72500,257
11.73333,251
11.74167,246
11.75000,240
11.75833,236
11.76667,231
11.77500,227
11.78333,223
11.79167,220
11.80000,216
11.80833,213
11.81667,210
11.82500,207
11.83333,204
11.84167,201
11.85000,199
11.85833,196
11.86667,194
11.87500,192
11.88333,191
11.89167,189
11.90000,187
11.90833,185
11.91667,183
11.92500,182
11.93333,180
11.94167,179
11.95000,178
11.95833,176
11.96667,175
11.97500,173
11.98333,172
11.99167,170
12.00000,169
12.00833,167
12.01667,166
12.02500,165
12.03333,164
12.04167,163
12.05000,162
12.05833,161
12.06667,160
12.07500,159
12.08333,158
12.09167,157
12.10000,156
12.10833,155
12.11667,154
12.12500,153
12.13333,152
12.14167,151
12.15000,149
12.15833,148
12.16667,148
12.17500,147
12.18333,146
12.19167,144
12.20000,143
12.20833,142
12.21667,141
12.22500,141
12.23333,140
12.24167,139
12.25000,138
12.25833,137
12.26667,136
12.27500,136
12.28333,135
12.29167,135
12.30000,134
12.30833,133
12.31667,133
12.32500,132
12.33333,131
12.34167,131
12.35000,130
12.35833,129
12.36667,129
12.37500,128
12.38333,127
12.39167,126
12.40000,126
12.40833,125
12.41667,125
12.42500,125
12.43333,125
12.44167,124
12.45000,124
12.45833,123
12.46667,122
12.47500,122
12.48333,122
12.49167,122
12.50000,121
12.50833,121
12.51667,121
12.52500,120
12.53333,120
12.54167,119
12.55000,119
12.55833,118
12.56667,118
12.57500,117
12.58333,117
12.59167,116
12.60000,116
12.60833,116
12.61667,115
12.62500,114
12.63333,113
12.64167,113
12.65000,112
12.65833,111
12.66667,111
12.67500,111
12.68333,110
12.69167,110
12.70000,109
12.70833,109
12.71667,109
12.72500,108
12.73333,108
12.74167,108
12.75000,108
12.75833,107
12.76667,107
12.77500,107
12.78333,107
12.79167,107
12.80000,107
12.80833,107
12.81667,107
12.82500,107
12.83333,107
12.84167,107
12.85000,107
12.85833,107
12.86667,107
12.87500,107
12.88333,107
12.89167,107
12.90000,107
12.90833,107
12.91667,107
12.92500,107
12.93333,107
12.94167,107
12.95000,107
12.95833,107
12.96667,107
12.97500,107
12.98333,107
12.99167,107
13.00000,108
13.00833,108
13.01667,108
13.02500,108
13.03333,107
13.04167,107
13.05000,107
13.05833,107
13.06667,107
13.07500,107
13.08333,107
13.09167,107
13.10000,107
13.10833,106
13.11667,106
13.12500,106
13.13333,106
13.14167,106
13.15000,106
13.15833,106
13.16667,106
13.17500,105
13.18333,105
13.19167,105
13.20000,105
13.20833,104
13.21667,104
13.22500,104
13.23333,103
13.24167,103
13.25000,102
13.25833,102
13.26667,101
13.27500,100
13.28333,100
13.29167,99
13.30000,98
13.30833,98
13.31667,97
13.32500,96
13.33333,95
13.34167,94
13.35000,93
13.35833,93
13.36667,92
13.37500,91
13.38333,91
13.39167,90
13.40000,89
13.40833,89
13.41667,88
13.42500,87
13.43333,86
13.44167,85
13.45000,84
13.45833,84
13.46667,83
13.47500,81
13.48333,81
13.49167,80
13.50000,80
13.50833,79
13.51667,78
13.52500,78
13.53333,77
13.54167,77
13.55000,76
13.55833,76
13.56667,75
13.57500,75
13.58333,74
13.59167,74
13.60000,73
13.60833,73
13.61667,73
13.62500,72
13.63333,72
13.64167,72
13.65000,71
13.65833,71
13.66667,71
13.67500,71
13.68333,71
13.69167,71
13.70000,71
13.70833,70
13.71667,70
13.72500,70
13.73333,69
13.74167,69
13.75000,69
13.75833,69
13.76667,69
13.77500,69
13.78333,69
13.79167,69
13.80000,69
13.80833,69
13.81667,69
13.82500,69
13.83333,69
13.84167,70
13.85000,70
13.85833,70
13.86667,70
13.87500,71
13.88333,71
13.89167,71
13.90000,71
13.90833,72
13.91667,72
13.92500,72
13.93333,73
13.94167,73
13.95000,73
13.95833,73
13.96667,74
13.97500,74
13.98333,74
13.99167,75
14.00000,75
14.00833,76
14.01667,76
14.02500,77
14.03333,77
14.04167,78
14.05000,79
14.05833,79
14.06667,80
14.07500,80
14.08333,81
14.09167,82
14.10000,82
14.10833,83
14.11667,84
14.12500,86
14.13333,88
14.14167,89
14.15000,91
14.15833,93
14.16667,96
14.17500,99
14.18333,103
14.19167,107
14.20000,113
14.20833,119
14.21667,126
14.22500,135
14.23333,145
14.24167,158
14.25000,174
14.25833,193
14.26667,216
14.27500,243
14.28333,276
14.29167,315
14.30000,361
14.30833,416
14.31667,480
14.32500,555
14.33333,643
14.34167,744
14.35000,861
14.35833,995
14.36667,1148
14.37500,1322
14.38333,1519
14.39167,1740
14.40000,1987
14.40833,2261
14.41667,2565
14.42500,2899
14.43333,3265
14.44167,3664
14.45000,4097
14.45833,4565
14.46667,5069
14.47500,5609
14.48333,6187
14.49167,6802
14.50000,7455
14.50833,8145
14.51667,8873
14.52500,9638
14.53333,10440
14.54167,11279
14.55000,12155
14.55833,13067
14.56667,14014
14.57500,14997
14.58333,16013
14.59167,17064
14.60000,18148
14.60833,19265
14.61667,20414
14.62500,21595
14.63333,22806
14.64167,24048
14.65000,25320
14.65833,26621
14.66667,27950
14.67500,29308
14.68333,30694
14.69167,32106
14.70000,33546
14.70833,35012
14.71667,36504
14.72500,38022
14.73333,39565
14.74167,41133
14.75000,42725
14.75833,44342
14.76667,45984
14.77500,47649
14.78333,49338
14.79167,51050
14.80000,52785
14.80833,54543
14.81667,56323
14.82500,58126
14.83333,59952
14.84167,61798
14.85000,63667
14.85833,65556
14.86667,67467
14.87500,69398
14.88333,71349
14.89167,73319
14.90000,75307
14.90833,77314
14.91667,79337
14.92500,81375
14.93333,83427
14.94167,85492
14.95000,87567
14.95833,89648
14.96667,91731
14.97500,93809
14.98333,95874
14.99167,97913
15.00000,99911
15.00833,101844
15.01667,103685
15.02500,105398
15.03333,106941
15.04167,108263
15.05000,109310
15.05833,110022
15.06667,110339
15.07500,110206
15.08333,109572
15.09167,108398
15.10000,106661
15.10833,104352
15.11667,101483
15.12500,98083
15.13333,94200
15.14167,89899
15.15000,85257
15.15833,80357
15.16667,75289
15.17500,70141
15.18333,65000
15.19167,59941
15.20000,55033
15.20833,50333
15.21667,45885
15.22500,41722
15.23333,37865
15.24167,34327
15.25000,31110
15.25833,28211
15.26667,25621
15.27500,23327
15.28333,21313
15.29167,19564
15.30000,18062
15.30833,16791
15.31667,15735
15.32500,14878
15.33333,14207
15.34167,13708
15.35000,13371
15.35833,13185
15.36667,13142
15.37500,13231
15.38333,13446
15.39167,13778
15.40000,14221
15.40833,14768
15.41667,15411
15.42500,16142
15.43333,16953
15.44167,17837
15.45000,18785
15.45833,19787
15.46667,20834
15.47500,21916
15.48333,23022
15.49167,24141
15.50000,25262
15.50833,26375
15.51667,27468
15.52500,28530
15.53333,29551
15.54167,30520
15.55000,31428
15.55833,32264
15.56667,33023
15.57500,33694
15.58333,34273
15.59167,34755
15.60000,35135
15.60833,35410
15.61667,35579
15.62500,35640
15.63333,35595
15.64167,35444
15.65000,35191
15.65833,34840
15.66667,34394
15.67500,33859
15.68333,33240
15.69167,32545
15.70000,31780
15.70833,30953
15.71667,30070
15.72500,29140
15.73333,28170
15.74167,27168
15.75000,26140
15.75833,25094
15.76667,24037
15.77500,22976
15.78333,21916
15.79167,20862
15.80000,19821
15.80833,18796
15.81667,17792
15.82500,16812
15.83333,15860
15.84167,14937
15.85000,14047
15.85833,13191
15.86667,12370
15.87500,11585
15.88333,10837
15.89167,10126
15.90000,9452
15.90833,8815
15.91667,8214
15.92500,7648
15.93333,7116
15.94167,6618
15.95000,6152
15.95833,5717
15.96667,5312
15.97500,4935
15.98333,4585
15.99167,4260
16.00000,3960
16.00833,3681
16.01667,3424
16.02500,3187
16.03333,2968
16.04167,2767
16.05000,2582
16.05833,2411
16.06667,2255
16.07500,2112
16.08333,1980
16.09167,1859
16.10000,1749
16.10833,1647
16.11667,1554
16.12500,1469
16.13333,1391
16.14167,1320
16.15000,1254
16.15833,1194
16.16667,1139
16.17500,1089
16.18333,1042
16.19167,999
16.20000,960
16.20833,924
16.21667,890
16.22500,859
16.23333,830
16.24167,803
16.25000,779
16.25833,756
16.26667,735
16.27500,715
16.28333,697
16.29167,680
16.30000,664
16.30833,649
16.31667,635
16.32500,622
16.33333,609
16.34167,598
16.35000,587
16.35833,577
16.36667,567
16.37500,558
16.38333,549
16.39167,541
16.40000,533
16.40833,525
16.41667,517
16.42500,510
16.43333,503
16.44167,497
16.45000,491
16.45833,485
16.46667,480
16.47500,475
16.48333,470
16.49167,465
16.50000,460
16.50833,455
16.51667,451
16.52500,446
16.53333,441
16.54167,437
16.55000,434
16.55833,430
16.56667,426
16.57500,423
16.58333,419
16.59167,416
16.60000,413
16.60833,410
16.61667,407
16.62500,404
16.63333,401
16.64167,398
16.65000,396
16.65833,393
16.66667,390
16.67500,388
16.68333,385
16.69167,382
16.70000,380
16.70833,377
16.71667,375
16.72500,373
16.73333,370
16.74167,367
16.75000,365
16.75833,363
16.76667,361
16.77500,359
16.78333,356
16.79167,354
16.80000,352
16.80833,350
16.81667,348
16.82500,345
16.83333,343
16.84167,342
16.85000,340
16.85833,338
16.86667,336
16.87500,334
16.88333,332
16.89167,330
16.90000,328
16.90833,326
16.91667,324
16.92500,323
16.93333,321
16.94167,319
16.95000,317
16.95833,315
16.96667,313
16.97500,311
16.98333,309
16.99167,308
17.00000,306
17.00833,305
17.01667,303
17.02500,301
17.03333,300
17.04167,298
17.05000,296
17.05833,295
17.06667,293
17.07500,292
17.08333,290
17.09167,288
17.10000,286
17.10833,285
17.11667,283
17.12500,282
17.13333,281
17.14167,280
17.15000,278
17.15833,277
17.16667,275
17.17500,273
17.18333,272
17.19167,270
17.20000,269
17.20833,268
17.21667,266
17.22500,265
17.23333,264
17.24167,263
17.25000,262
17.25833,261
17.26667,260
17.27500,259
17.28333,258
17.29167,256
17.30000,255
17.30833,253
17.31667,252
17.32500,251
17.33333,250
17.34167,249
17.35000,247
17.35833,246
17.36667,245
17.37500,244
17.38333,243
17.39167,241
17.40000,240
17.40833,239
17.41667,237
17.42500,236
17.43333,235
17.44167,234
17.45000,233
17.45833,232
17.46667,231
17.47500,230
17.48333,229
17.49167,228
17.50000,227
17.50833,226
17.51667,225
17.52500,224
17.53333,222
17.54167,221
17.55000,220
17.55833,219
17.56667,218
17.57500,217
17.58333,216
17.59167,215
17.60000,214
17.60833,213
17.61667,212
17.62500,211
17.63333,210
17.64167,209
17.65000,208
17.65833,207
17.66667,206
17.67500,205
17.68333,204
17.69167,203
17.70000,202
17.70833,201
17.71667,200
17.72500,200
17.73333,199
17.74167,198
17.75000,198
17.75833,197
17.76667,196
17.77500,195
17.78333,194
17.79167,193
17.80000,192
17.80833,192
17.81667,191
17.82500,190
17.83333,189
17.84167,189
17.85000,188
17.85833,187
17.86667,186
17.87500,186
17.88333,185
17.89167,184
17.90000,184
17.90833,183
17.91667,183
17.92500,182
17.93333,181
17.94167,180
17.95000,180
17.95833,179
17.96667,178
17.97500,178
17.98333,177
17.99167,175
18.00000,174
18.00833,173
18.01667,172
18.02500,171
18.03333,170
18.04167,170
18.05000,169
18.05833,169
18.06667,168
18.07500,167
18.08333,167
18.09167,166
18.10000,166
18.10833,166
18.11667,165
18.12500,164
18.13333,163
18.14167,162
18.15000,161
18.15833,161
18.16667,160
18.17500,160
18.18333,159
18.19167,159
18.20000,158
18.20833,157
18.21667,156
18.22500,155
18.23333,154
18.24167,153
18.25000,153
18.25833,153
18.26667,152
18.27500,152
18.28333,151
18.29167,151
18.30000,150
18.30833,149
18.31667,148
18.32500,147
18.33333,147
18.34167,147
18.35000,146
18.35833,145
18.36667,145
18.37500,144
18.38333,144
18.39167,143
18.40000,143
18.40833,142
18.41667,142
18.42500,141
18.43333,141
18.44167,141
18.45000,140
18.45833,139
18.46667,138
18.47500,138
18.48333,137
18.49167,137
18.50000,136
18.50833,136
18.51667,136
18.52500,135
18.53333,135
18.54167,135
18.55000,135
18.55833,135
18.56667,134
18.57500,134
18.58333,134
18.59167,134
18.60000,133
18.60833,133
18.61667,133
18.62500,133
18.63333,134
18.64167,134
18.65000,134
18.65833,135
18.66667,135
18.67500,136
18.68333,136
18.69167,137
18.70000,138
18.70833,140
18.71667,141
18.72500,142
18.73333,144
18.74167,146
18.75000,148
18.75833,150
18.76667,153
18.77500,156
18.78333,159
18.79167,162
18.80000,165
18.80833,168
18.81667,171
18.82500,174
18.83333,178
18.84167,181
18.85000,184
18.85833,187
18.86667,189
18.87500,192
18.88333,195
18.89167,198
18.90000,201
18.90833,204
18.91667,206
18.92500,208
18.93333,210
18.94167,212
18.95000,213
18.95833,214
18.96667,215
18.97500,216
18.98333,216
18.99167,216
19.00000,216
19.00833,215
19.01667,214
19.02500,213
19.03333,212
19.04167,210
19.05000,208
19.05833,206
19.06667,203
19.07500,200
19.08333,197
19.09167,194
19.10000,191
19.10833,188
19.11667,185
19.12500,181
19.13333,178
19.14167,175
19.15000,172
19.15833,168
19.16667,165
19.17500,161
19.18333,158
19.19167,155
19.20000,152
19.20833,148
19.21667,145
19.22500,142
19.23333,139
19.24167,137
19.25000,134
19.25833,132
19.26667,130
19.27500,128
19.28333,125
19.29167,123
19.30000,121
19.30833,119
19.31667,118
19.32500,116
19.33333,114
19.34167,112
19.35000,111
19.35833,110
19.36667,108
19.37500,107
19.38333,106
19.39167,105
19.40000,104
19.40833,103
19.41667,102
19.42500,101
19.43333,101
19.44167,100
19.45000,100
19.45833,99
19.46667,99
19.47500,98
19.48333,98
19.49167,97
19.50000,96
19.50833,96
19.51667,95
19.52500,95
19.53333,94
19.54167,94
19.55000,94
19.55833,94
19.56667,94
19.57500,93
19.58333,93
19.59167,93
19.60000,92
19.60833,92
19.61667,92
19.62500,92
19.63333,91
19.64167,91
19.65000,90
19.65833,90
19.66667,89
19.67500,89
19.68333,89
19.69167,89
19.70000,89
19.70833,88
19.71667,88
19.72500,87
19.73333,87
19.74167,86
19.75000,86
19.75833,85
19.76667,85
19.77500,85
19.78333,85
19.79167,85
19.80000,85
19.80833,85
19.81667,85
19.82500,85
19.83333,85
19.84167,85
19.85000,85
19.85833,85
19.86667,84
19.87500,84
19.88333,84
19.89167,84
19.90000,84
19.90833,84
19.91667,84
19.92500,83
19.93333,83
19.94167,82
19.95000,82
19.95833,82
19.96667,81
19.97500,81
19.98333,81
19.99167,81
20.00000,81
20.00833,81
20.01667,81
20.02500,81
20.03333,81
20.04167,81
20.05000,81
20.05833,80
20.06667,80
20.07500,80
20.08333,80
20.09167,80
20.10000,80
20.10833,80
20.11667,80
20.12500,80
20.13333,80
20.14167,79
20.15000,79
20.15833,78
20.16667,78
20.17500,77
20.18333,77
20.19167,77
20.20000,77
20.20833,77
20.21667,77
20.22500,77
20.23333,76
20.24167,76
20.25000,76
20.25833,76
20.26667,76
20.27500,75
20.28333,76
20.29167,76
20.30000,76
20.30833,76
20.31667,75
20.32500,75
20.33333,75
20.34167,75
20.35000,75
20.35833,75
20.36667,75
20.37500,75
20.38333,75
20.39167,75
20.40000,75
20.40833,75
20.41667,75
20.42500,75
20.43333,74
20.44167,74
20.45000,74
20.45833,74
20.46667,74
20.47500,74
20.48333,74
20.49167,74
20.50000,74
20.50833,74
20.51667,75
20.52500,75
20.53333,75
20.54167,74
20.55000,74
20.55833,74
20.56667,74
20.57500,74
20.58333,74
20.59167,74
20.60000,74
20.60833,73
20.61667,73
20.62500,73
20.63333,72
20.64167,72
20.65000,73
20.65833,73
20.66667,73
20.67500,73
20.68333,72
20.69167,72
20.70000,72
20.70833,72
20.71667,72
20.72500,72
20.73333,72
20.74167,72
20.75000,72
20.75833,72
20.76667,72
20.77500,72
20.78333,72
20.79167,71
20.80000,71
20.80833,71
20.81667,70
20.82500,70
20.83333,70
20.84167,70
20.85000,70
20.85833,70
20.86667,69
20.87500,70
20.88333,70
20.89167,69
20.90000,70
20.90833,70
20.91667,70
20.92500,70
20.93333,70
20.94167,70
20.95000,70
20.95833,70
20.96667,69
20.97500,69
20.98333,69
20.99167,68
21.00000,68
21.00833,68
21.01667,68
21.02500,67
21.03333,67
21.04167,67
21.05000,67
21.05833,67
21.06667,67
21.07500,67
21.08333,67
21.09167,66
21.10000,66
21.10833,66
21.11667,66
21.12500,66
21.13333,66
21.14167,66
21.15000,66
21.15833,66
21.16667,66
21.17500,66
21.18333,66
21.19167,66
21.20000,66
21.20833,66
21.21667,65
21.22500,65
21.23333,65
21.24167,65
21.25000,64
21.25833,64
21.26667,64
21.27500,64
21.28333,64
21.29167,64
21.30000,65
21.30833,65
21.31667,65
21.32500,66
21.33333,66
21.34167,66
21.35000,67
21.35833,67
21.36667,66
21.37500,66
21.38333,66
21.39167,66
21.40000,66
21.40833,66
21.41667,65
21.42500,65
21.43333,65
21.44167,65
21.45000,65
21.45833,65
21.46667,65
21.47500,65
21.48333,65
21.49167,65
21.50000,65
21.50833,65
21.51667,65
21.52500,65
21.53333,64
21.54167,64
21.55000,64
21.55833,64
21.56667,64
21.57500,64
21.58333,64
21.59167,64
21.60000,65
21.60833,65
21.61667,65
21.62500,65
21.63333,65
21.64167,65
21.65000,65
21.65833,65
21.66667,64
21.67500,64
21.68333,64
21.69167,64
21.70000,64
21.70833,65
21.71667,65
21.72500,65
21.73333,65
21.74167,65
21.75000,65
21.75833,65
21.76667,65
21.77500,66
21.78333,66
21.79167,66
21.80000,66
21.80833,66
21.81667,66
21.82500,66
21.83333,66
21.84167,66
21.85000,65
21.85833,65
21.86667,65
21.87500,66
21.88333,66
21.89167,66
21.90000,66
21.90833,66
21.91667,65
21.92500,65
21.93333,64
21.94167,64
21.95000,65
21.95833,65
21.96667,65
21.97500,65
21.98333,66
21.99167,66
22.00000,66
22.00833,66
22.01667,66
22.02500,66
22.03333,65
22.04167,65
22.05000,65
22.05833,64
22.06667,64
22.07500,64
22.08333,64
22.09167,64
22.10000,64
22.10833,64
22.11667,63
22.12500,63
22.13333,63
22.14167,63
22.15000,63
22.15833,63
22.16667,63
22.17500,63
22.18333,63
22.19167,63
22.20000,63
22.20833,63
22.21667,63
22.22500,63
22.23333,63
22.24167,63
22.25000,63
22.25833,63
22.26667,63
22.27500,62
22.28333,61
22.29167,61
22.30000,61
22.30833,60
22.31667,60
22.32500,60
22.33333,60
22.34167,60
22.35000,60
22.35833,60
22.36667,61
22.37500,61
22.38333,61
22.39167,61
22.40000,61
22.40833,61
22.41667,62
22.42500,62
22.43333,62
22.44167,62
22.45000,62
22.45833,62
22.46667,61
22.47500,61
22.48333,61
22.49167,61
22.50000,61
22.50833,60
22.51667,60
22.52500,60
22.53333,60
22.54167,60
22.55000,59
22.55833,59
22.56667,59
22.57500,60
22.58333,60
22.59167,60
22.60000,60
22.60833,60
22.61667,60
22.62500,59
22.63333,59
22.64167,60
22.65000,60
22.65833,60
22.66667,60
22.67500,60
22.68333,60
22.69167,60
22.70000,60
22.70833,60
22.71667,60
22.72500,60
22.73333,60
22.74167,60
22.75000,60
22.75833,59
22.76667,59
22.77500,59
22.78333,59
22.79167,59
22.80000,59
22.80833,59
22.81667,60
22.82500,60
22.83333,60
22.84167,60
22.85000,61
22.85833,61
22.86667,62
22.87500,62
22.88333,62
22.89167,63
22.90000,63
22.90833,64
22.91667,64
22.92500,64
22.93333,64
22.94167,64
22.95000,64
22.95833,65
22.96667,65
22.97500,66
22.98333,67
22.99167,67
23.00000,67
23.00833,68
23.01667,68
23.02500,69
23.03333,70
23.04167,71
23.05000,72
23.05833,72
23.06667,73
23.07500,74
23.08333,74
23.09167,75
23.10000,76
23.10833,76
23.11667,77
23.12500,78
23.13333,79
23.14167,80
23.15000,80
23.15833,80
23.16667,81
23.17500,81
23.18333,81
23.19167,82
23.20000,82
23.20833,82
23.21667,82
23.22500,82
23.23333,83
23.24167,83
23.25000,83
23.25833,82
23.26667,82
23.27500,82
23.28333,82
23.29167,81
23.30000,81
23.30833,80
23.31667,80
23.32500,80
23.33333,79
23.34167,79
23.35000,79
23.35833,78
23.36667,78
23.37500,77
23.38333,76
23.39167,75
23.40000,74
23.40833,74
23.41667,73
23.42500,73
23.43333,72
23.44167,71
23.45000,71
23.45833,70
23.46667,69
23.47500,69
23.48333,68
23.49167,68
23.50000,68
23.50833,67
23.51667,67
23.52500,66
23.53333,65
23.54167,65
23.55000,65
23.55833,64
23.56667,64
23.57500,63
23.58333,63
23.59167,63
23.60000,63
23.60833,63
23.61667,62
23.62500,62
23.63333,61
23.64167,61
23.65000,60
23.65833,60
23.66667,60
23.67500,59
23.68333,59
23.69167,59
23.70000,59
23.70833,59
23.71667,59
23.72500,59
23.73333,59
23.74167,59
23.75000,59
23.75833,59
23.76667,59
23.77500,59
23.78333,59
23.79167,59
23.80000,59
23.80833,59
23.81667,59
23.82500,58
23.83333,58
23.84167,58
23.85000,58
23.85833,58
23.86667,58
23.87500,57
23.88333,57
23.89167,57
23.90000,57
23.90833,58
23.91667,58
23.92500,58
23.93333,58
23.94167,58
23.95000,58
23.95833,58
23.96667,58
23.97500,58
23.98333,58
23.99167,58
24.00000,58
24.00833,58
24.01667,58
24.02500,58
24.03333,58
24.04167,58
24.05000,58
24.05833,58
24.06667,58
24.07500,58
24.08333,58
24.09167,58
24.10000,57
24.10833,57
24.11667,57
24.12500,57
24.13333,57
24.14167,57
24.15000,58
24.15833,58
24.16667,58
24.17500,58
24.18333,58
24.19167,58
24.20000,58
24.20833,58
24.21667,59
24.22500,59
24.23333,59
24.24167,59
24.25000,58
24.25833,58
24.26667,58
24.27500,58
24.28333,58
24.29167,58
24.30000,58
24.30833,58
24.31667,58
24.32500,58
24.33333,58
24.34167,58
24.35000,58
24.35833,58
24.36667,58
24.37500,58
24.38333,59
24.39167,59
24.40000,59
24.40833,60
24.41667,60
24.42500,60
24.43333,60
24.44167,60
24.45000,60
24.45833,60
24.46667,60
24.47500,61
24.48333,61
24.49167,61
24.50000,61
24.50833,61
24.51667,61
24.52500,61
24.53333,62
24.54167,62
24.55000,62
24.55833,63
24.56667,63
24.57500,64
24.58333,64
24.59167,65
24.60000,66
24.60833,67
24.61667,68
24.62500,69
24.63333,70
24.64167,71
24.65000,72
24.65833,73
24.66667,75
24.67500,76
24.68333,78
24.69167,80
24.70000,82
24.70833,85
24.71667,87
24.72500,89
24.73333,91
24.74167,93
24.75000,96
24.75833,99
24.76667,102
24.77500,104
24.78333,108
24.79167,111
24.80000,114
24.80833,118
24.81667,121
24.82500,125
24.83333,129
24.84167,132
24.85000,136
24.85833,139
24.86667,143
24.87500,147
24.88333,150
24.89167,154
24.90000,158
24.90833,161
24.91667,165
24.92500,168
24.93333,172
24.94167,175
24.95000,177
24.95833,180
24.96667,183
24.97500,185
24.98333,187
24.99167,189
25.00000,190
25.00833,191
25.01667,192
25.02500,193
25.03333,193
25.04167,194
25.05000,194
25.05833,194
25.06667,194
25.07500,193
25.08333,192
25.09167,191
25.10000,189
25.10833,188
25.11667,185
25.12500,183
25.13333,181
25.14167,178
25.15000,176
25.15833,173
25.16667,170
25.17500,167
25.18333,163
25.19167,160
25.20000,156
25.20833,153
25.21667,150
25.22500,146
25.23333,143
25.24167,140
25.25000,137
25.25833,133
25.26667,130
25.27500,126
25.28333,123
25.29167,121
25.30000,118
25.30833,115
25.31667,111
25.32500,109
25.33333,106
25.34167,103
25.35000,101
25.35833,99
25.36667,97
25.37500,95
25.38333,92
25.39167,90
25.40000,88
25.40833,86
25.41667,84
25.42500,82
25.43333,81
25.44167,79
25.45000,78
25.45833,77
25.46667,76
25.47500,74
25.48333,73
25.49167,72
25.50000,72
25.50833,71
25.51667,71
25.52500,70
25.53333,69
25.54167,69
25.55000,69
25.55833,68
25.56667,67
25.57500,66
25.58333,66
25.59167,65
25.60000,65
25.60833,65
25.61667,64
25.62500,64
25.63333,63
25.64167,63
25.65000,63
25.65833,63
25.66667,63
25.67500,63
25.68333,63
25.69167,63
25.70000,63
25.70833,63
25.71667,63
25.72500,63
25.73333,63
25.74167,63
25.75000,63
25.75833,63
25.76667,63
25.77500,63
25.78333,63
25.79167,62
25.80000,62
25.80833,63
25.81667,63
25.82500,63
25.83333,63
25.84167,63
25.85000,63
25.85833,63
25.86667,62
25.87500,62
25.88333,62
25.89167,62
25.90000,62
25.90833,62
25.91667,62
25.92500,62
25.93333,63
25.94167,63
25.95000,62
25.95833,63
25.96667,63
25.97500,63
25.98333,63
25.99167,63
26.00000,64
26.00833,64
26.01667,64
26.02500,64
26.03333,64
26.04167,64
26.05000,64
26.05833,63
26.06667,64
26.07500,64
26.08333,64
26.09167,63
26.10000,63
26.10833,63
26.11667,63
26.12500,63
26.13333,63
26.14167,64
26.15000,64
26.15833,64
26.16667,64
26.17500,64
26.18333,64
26.19167,64
26.20000,64
26.20833,64
26.21667,64
26.22500,64
26.23333,65
26.24167,65
26.25000,65
26.25833,65
26.26667,64
26.27500,64
26.28333,64
26.29167,64
26.30000,64
26.30833,63
26.31667,63
26.32500,63
26.33333,63
26.34167,64
26.35000,64
26.35833,64
26.36667,64
26.37500,64
26.38333,65
26.39167,65
26.40000,65
26.40833,65
26.41667,64
26.42500,64
26.43333,64
26.44167,63
26.45000,63
26.45833,63
26.46667,63
26.47500,63
26.48333,63
26.49167,63
26.50000,63
26.50833,63
26.51667,63
26.52500,64
26.53333,64
26.54167,64
26.55000,63
26.55833,64
26.56667,64
26.57500,64
26.58333,64
26.59167,64
26.60000,64
26.60833,65
26.61667,65
26.62500,65
26.63333,65
26.64167,65
26.65000,65
26.65833,65
26.66667,65
26.67500,65
26.68333,65
26.69167,65
26.70000,65
26.70833,65
26.71667,65
26.72500,65
26.73333,65
26.74167,65
26.75000,65
26.75833,65
26.76667,65
26.77500,65
26.78333,65
26.79167,65
26.80000,65
26.80833,66
26.81667,66
26.82500,66
26.83333,66
26.84167,67
26.85000,67
26.85833,67
26.86667,67
26.87500,67
26.88333,67
26.89167,67
26.90000,67
26.90833,66
26.91667,66
26.92500,66
26.93333,66
26.94167,66
26.95000,66
26.95833,66
26.96667,66
26.97500,66
26.98333,66
26.99167,67
27.00000,66
27.00833,66
27.01667,67
27.02500,67
27.03333,67
27.04167,67
27.05000,67
27.05833,67
27.06667,67
27.07500,67
27.08333,67
27.09167,67
27.10000,67
27.10833,67
27.11667,67
27.12500,67
27.13333,68
27.14167,68
27.15000,68
27.15833,67
27.16667,67
27.17500,67
27.18333,67
27.19167,67
27.20000,67
27.20833,67
27.21667,67
27.22500,67
27.23333,68
27.24167,68
27.25000,68
27.25833,68
27.26667,68
27.27500,69
27.28333,69
27.29167,69
27.30000,69
27.30833,70
27.31667,70
27.32500,69
27.33333,69
27.34167,69
27.35000,69
27.35833,69
27.36667,69
27.37500,69
27.38333,69
27.39167,69
27.40000,69
27.40833,69
27.41667,69
27.42500,69
27.43333,69
27.44167,69
27.45000,69
27.45833,70
27.46667,70
27.47500,71
27.48333,71
27.49167,71
27.50000,71
27.50833,71
27.51667,71
27.52500,71
27.53333,71
27.54167,71
27.55000,72
27.55833,72
27.56667,71
27.57500,70
27.58333,70
27.59167,70
27.60000,70
27.60833,70
27.61667,70
27.62500,70
27.63333,70
27.64167,70
27.65000,69
27.65833,69
27.66667,69
27.67500,70
27.68333,70
27.69167,70
27.70000,69
27.70833,69
27.71667,69
27.72500,68
27.73333,67
27.74167,67
27.75000,67
27.75833,66
27.76667,66
27.77500,65
27.78333,65
27.79167,64
27.80000,63
27.80833,62
27.81667,61
27.82500,59
27.83333,57
27.84167,56
27.85000,54
27.85833,52
27.86667,51
27.87500,49
27.88333,47
27.89167,45
27.90000,42
27.90833,39
27.91667,36
27.92500,34
27.93333,30
27.94167,27
27.95000,23
27.95833,19
27.96667,15
27.97500,10
27.98333,6
27.99167,1
28.00000,-5
28.00833,-10
28.01667,-16
28.02500,-22
28.03333,-29
28.04167,-36
28.05000,-43
28.05833,-51
28.06667,-59
28.07500,-67
28.08333,-76
28.09167,-85
28.10000,-95
28.10833,-105
28.11667,-115
28.12500,-125
28.13333,-135
28.14167,-146
28.15000,-157
28.15833,-168
28.16667,-180
28.17500,-192
28.18333,-204
28.19167,-217
28.20000,-230
28.20833,-243
28.21667,-256
28.22500,-269
28.23333,-282
28.24167,-295
28.25000,-309
28.25833,-322
28.26667,-336
28.27500,-349
28.28333,-362
28.29167,-374
28.30000,-387
28.30833,-399
28.31667,-412
28.32500,-424
28.33333,-436
28.34167,-447
28.35000,-458
28.35833,-469
28.36667,-479
28.37500,-489
28.38333,-499
28.39167,-508
28.40000,-517
28.40833,-524
28.41667,-532
28.42500,-538
28.43333,-545
28.44167,-551
28.45000,-556
28.45833,-561
28.46667,-564
28.47500,-567
28.48333,-569
28.49167,-571
28.50000,-572
28.50833,-572
28.51667,-572
28.52500,-571
28.53333,-570
28.54167,-568
28.55000,-565
28.55833,-562
28.56667,-559
28.57500,-555
28.58333,-551
28.59167,-546
28.60000,-540
28.60833,-534
28.61667,-528
28.62500,-521
28.63333,-514
28.64167,-507
28.65000,-499
28.65833,-491
28.66667,-484
28.67500,-476
28.68333,-467
28.69167,-459
28.70000,-450
28.70833,-442
28.71667,-433
28.72500,-424
28.73333,-414
28.74167,-405
28.75000,-396
28.75833,-388
28.76667,-378
28.77500,-370
28.78333,-361
28.79167,-352
28.80000,-343
28.80833,-335
28.81667,-327
28.82500,-319
28.83333,-311
28.84167,-303
28.85000,-296
28.85833,-288
28.86667,-281
28.87500,-274
28.88333,-268
28.89167,-261
28.90000,-254
28.90833,-248
28.91667,-242
28.92500,-237
28.93333,-231
28.94167,-226
28.95000,-221
28.95833,-216
28.96667,-211
28.97500,-206
28.98333,-201
28.99167,-197
29.00000,-193
29.00833,-189
29.01667,-185
29.02500,-181
29.03333,-178
29.04167,-175
29.05000,-171
29.05833,-168
29.06667,-165
29.07500,-163
29.08333,-160
29.09167,-158
29.10000,-155
29.10833,-153
29.11667,-151
29.12500,-148
29.13333,-147
29.14167,-145
29.15000,-144
29.15833,-142
29.16667,-140
29.17500,-138
29.18333,-136
29.19167,-134
29.20000,-133
29.20833,-131
29.21667,-130
29.22500,-129
29.23333,-128
29.24167,-126
29.25000,-125
29.25833,-124
29.26667,-123
29.27500,-121
29.28333,-120
29.29167,-119
29.30000,-118
29.30833,-117
29.31667,-116
29.32500,-115
29.33333,-115
29.34167,-114
29.35000,-113
29.35833,-112
29.36667,-112
29.37500,-111
29.38333,-110
29.39167,-109
29.40000,-109
29.40833,-108
29.41667,-107
29.42500,-106
29.43333,-106
29.44167,-105
29.45000,-105
29.45833,-104
29.46667,-104
29.47500,-103
29.48333,-103
29.49167,-103
29.50000,-103
29.50833,-103
29.51667,-102
29.52500,-102
29.53333,-102
29.54167,-101
29.55000,-101
29.55833,-101
29.56667,-101
29.57500,-102
29.58333,-102
29.59167,-103
29.60000,-103
29.60833,-103
29.61667,-104
29.62500,-104
29.63333,-104
29.64167,-104
29.65000,-105
29.65833,-106
29.66667,-106
29.67500,-107
29.68333,-108
29.69167,-109
29.70000,-110
29.70833,-112
29.71667,-113
29.72500,-114
29.73333,-115
29.74167,-117
29.75000,-119
29.75833,-121
29.76667,-123
29.77500,-125
29.78333,-127
29.79167,-130
29.80000,-132
29.80833,-134
29.81667,-136
29.82500,-139
29.83333,-141
29.84167,-143
29.85000,-146
29.85833,-149
29.86667,-152
29.87500,-155
29.88333,-158
29.89167,-161
29.90000,-164
29.90833,-167
29.91667,-170
29.92500,-173
29.93333,-177
29.94167,-180
29.95000,-184
29.95833,-187
29.96667,-190
29.97500,-194
29.98333,-197
29.99167,-200
30.00000,-204
30.00833,-208
30.01667,-211
30.02500,-214
30.03333,-218
30.04167,-221
30.05000,-224
30.05833,-227
30.06667,-231
30.07500,-234
30.08333,-236
30.09167,-239
30.10000,-241
30.10833,-244
30.11667,-247
30.12500,-249
30.13333,-251
30.14167,-253
30.15000,-255
30.15833,-256
30.16667,-258
30.17500,-259
30.18333,-260
30.19167,-262
30.20000,-263
30.20833,-264
30.21667,-264
30.22500,-265
30.23333,-266
30.24167,-266
30.25000,-266
30.25833,-265
30.26667,-265
30.27500,-264
30.28333,-263
30.29167,-262
30.30000,-260
30.30833,-259
30.31667,-257
30.32500,-256
30.33333,-254
30.34167,-252
30.35000,-250
30.35833,-247
30.36667,-245
30.37500,-242
30.38333,-240
30.39167,-237
30.40000,-235
30.40833,-232
30.41667,-229
30.42500,-227
30.43333,-224
30.44167,-221
30.45000,-218
30.45833,-215
30.46667,-212
30.47500,-209
30.48333,-206
30.49167,-202
30.50000,-199
30.50833,-195
30.51667,-192
30.52500,-188
30.53333,-185
30.54167,-181
30.55000,-178
30.55833,-175
30.56667,-172
30.57500,-169
30.58333,-166
30.59167,-163
30.60000,-160
30.60833,-158
30.61667,-155
30.62500,-152
30.63333,-149
30.64167,-146
30.65000,-144
30.65833,-141
30.66667,-138
30.67500,-136
30.68333,-134
30.69167,-131
30.70000,-128
30.70833,-126
30.71667,-124
30.72500,-121
30.73333,-119
30.74167,-117
30.75000,-116
30.75833,-114
30.76667,-112
30.77500,-110
30.78333,-108
30.79167,-107
30.80000,-105
30.80833,-103
30.81667,-102
30.82500,-101
30.83333,-99
30.84167,-98
30.85000,-97
30.85833,-96
30.86667,-95
30.87500,-94
30.88333,-92
30.89167,-91
30.90000,-90
30.90833,-89
30.91667,-88
30.92500,-87
30.93333,-86
30.94167,-85
30.95000,-84
30.95833,-83
30.96667,-83
30.97500,-82
30.98333,-81
30.99167,-80
31.00000,-79
31.00833,-78
31.01667,-77
31.02500,-76
31.03333,-76
31.04167,-75
31.05000,-74
31.05833,-73
31.06667,-72
31.07500,-72
31.08333,-71
31.09167,-70
31.10000,-70
31.10833,-69
31.11667,-68
31.12500,-67
31.13333,-66
31.14167,-64
31.15000,-63
31.15833,-62
31.16667,-61
31.17500,-60
31.18333,-60
31.19167,-59
31.20000,-58
31.20833,-57
31.21667,-56
31.22500,-55
31.23333,-54
31.24167,-53
31.25000,-53
31.25833,-52
31.26667,-51
31.27500,-49
31.28333,-48
31.29167,-47
31.30000,-46
31.30833,-45
31.31667,-44
31.32500,-43
31.33333,-42
31.34167,-41
31.35000,-40
31.35833,-38
31.36667,-37
31.37500,-36
31.38333,-35
31.39167,-34
31.40000,-33
31.40833,-33
31.41667,-32
31.42500,-31
31.43333,-29
31.44167,-28
31.45000,-27
31.45833,-26
31.46667,-25
31.47500,-24
31.48333,-23
31.49167,-22
31.50000,-21
31.50833,-20
31.51667,-19
31.52500,-18
31.53333,-18
31.54167,-17
31.55000,-16
31.55833,-15
31.56667,-14
31.57500,-13
31.58333,-12
31.59167,-11
31.60000,-10
31.60833,-9
31.61667,-8
31.62500,-7
31.63333,-6
31.64167,-5
31.65000,-5
31.65833,-4
31.66667,-3
31.67500,-2
31.68333,-1
31.69167,-1
31.70000,-0
31.70833,1
31.71667,1
31.72500,1
31.73333,2
31.74167,3
31.75000,3
31.75833,4
31.76667,4
31.77500,5
31.78333,6
31.79167,7
31.80000,8
31.80833,9
31.81667,9
31.82500,10
31.83333,10
31.84167,11
31.85000,11
31.85833,12
31.86667,13
31.87500,13
31.88333,14
31.89167,14
31.90000,15
31.90833,15
31.91667,15
31.92500,16
31.93333,16
31.94167,16
31.95000,16
31.95833,16
31.96667,17
31.97500,17
31.98333,18
31.99167,18
32.00000,19
32.00833,19
32.01667,20
32.02500,20
32.03333,21
32.04167,22
32.05000,23
32.05833,23
32.06667,23
32.07500,24
32.08333,24
32.09167,25
32.10000,25
32.10833,25
32.11667,26
32.12500,26
32.13333,26
32.14167,27
32.15000,27
32.15833,27
32.16667,28
32.17500,28
32.18333,28
32.19167,29
32.20000,30
32.20833,31
32.21667,31
32.22500,32
32.23333,32
32.24167,33
32.25000,33
32.25833,34
32.26667,34
32.27500,34
32.28333,35
32.29167,35
32.30000,35
32.30833,36
32.31667,36
32.32500,37
32.33333,37
32.34167,37
32.35000,38
32.35833,38
32.36667,38
32.37500,39
32.38333,39
32.39167,39
32.40000,39
32.40833,40
32.41667,40
32.42500,41
32.43333,41
32.44167,41
32.45000,42
32.45833,42
32.46667,42
32.47500,43
32.48333,44
32.49167,44
32.50000,44
32.50833,45
32.51667,45
32.52500,46
32.53333,46
32.54167,46
32.55000,46
32.55833,46
32.56667,46
32.57500,47
32.58333,47
32.59167,48
32.60000,49
32.60833,49
32.61667,49
32.62500,49
32.63333,49
32.64167,49
32.65000,50
32.65833,50
32.66667,51
32.67500,52
32.68333,52
32.69167,52
32.70000,53
32.70833,53
32.71667,53
32.72500,53
32.73333,53
32.74167,54
32.75000,54
32.75833,55
32.76667,55
32.77500,55
32.78333,55
32.79167,55
32.80000,55
32.80833,55
32.81667,55
32.82500,55
32.83333,55
32.84167,55
32.85000,56
32.85833,56
32.86667,56
32.87500,56
32.88333,56
32.89167,57
32.90000,57
32.90833,58
32.91667,58
32.92500,58
32.93333,59
32.94167,59
32.95000,59
32.95833,59
32.96667,59
32.97500,59
32.98333,59
32.99167,59
33.00000,59
33.00833,58
33.01667,58
33.02500,59
33.03333,59
33.04167,59
33.05000,60
33.05833,60
33.06667,61
33.07500,61
33.08333,62
33.09167,62
33.10000,62
33.10833,62
33.11667,62
33.12500,62
33.13333,63
33.14167,63
33.15000,63
33.15833,63
33.16667,63
33.17500,63
33.18333,62
33.19167,62
33.20000,62
33.20833,62
33.21667,62
33.22500,62
33.23333,63
33.24167,63
33.25000,62
33.25833,62
33.26667,62
33.27500,62
33.28333,62
33.29167,62
33.30000,62
33.30833,62
33.31667,63
33.32500,63
33.33333,63
33.34167,63
33.35000,63
33.35833,64
33.36667,64
33.37500,63
33.38333,63
33.39167,64
33.40000,64
33.40833,64
33.41667,64
33.42500,64
33.43333,64
33.44167,64
33.45000,64
33.45833,64
33.46667,64
33.47500,64
33.48333,64
33.49167,64
33.50000,64
33.50833,64
33.51667,64
33.52500,64
33.53333,64
33.54167,64
33.55000,64
33.55833,64
33.56667,64
33.57500,64
33.58333,64
33.59167,64
33.60000,65
33.60833,65
33.61667,65
33.62500,65
33.63333,66
33.64167,66
33.65000,66
33.65833,66
33.66667,66
33.67500,66
33.68333,66
33.69167,66
33.70000,66
33.70833,66
33.71667,66
33.72500,66
33.73333,66
33.74167,66
33.75000,65
33.75833,65
33.76667,65
33.77500,65
33.78333,65
33.79167,65
33.80000,65
33.80833,65
33.81667,65
33.82500,66
33.83333,66
33.84167,65
33.85000,65
33.85833,65
33.86667,65
33.87500,65
33.88333,65
33.89167,65
33.90000,64
33.90833,64
33.91667,64
33.92500,65
33.93333,65
33.94167,65
33.95000,66
33.95833,66
33.96667,66
33.97500,66
33.98333,66
33.99167,66
34.00000,66
34.00833,66
34.01667,66
34.02500,66
34.03333,66
34.04167,66
34.05000,66
34.05833,66
34.06667,66
34.07500,66
34.08333,66
34.09167,66
34.10000,66
34.10833,66
34.11667,66
34.12500,66
34.13333,66
34.14167,66
34.15000,66
34.15833,66
34.16667,66
34.17500,66
34.18333,67
34.19167,67
34.20000,67
34.20833,67
34.21667,67
34.22500,67
34.23333,67
34.24167,67
34.25000,67
34.25833,68
34.26667,68
34.27500,68
34.28333,67
34.29167,67
34.30000,67
34.30833,67
34.31667,67
34.32500,67
34.33333,67
34.34167,67
34.35000,67
34.35833,67
34.36667,67
34.37500,67
34.38333,68
34.39167,68
34.40000,69
34.40833,69
34.41667,69
34.42500,69
34.43333,69
34.44167,69
34.45000,69
34.45833,68
34.46667,68
34.47500,68
34.48333,68
34.49167,68
34.50000,68
34.50833,68
34.51667,68
34.52500,68
34.53333,68
34.54167,68
34.55000,68
34.55833,68
34.56667,68
34.57500,68
34.58333,68
34.59167,69
34.60000,69
34.60833,69
34.61667,69
34.62500,69
34.63333,69
34.64167,69
34.65000,69
34.65833,69
34.66667,70
34.67500,70
34.68333,70
34.69167,70
34.70000,70
34.70833,70
34.71667,70
34.72500,70
34.73333,70
34.74167,70
34.75000,69
34.75833,69
34.76667,69
34.77500,70
34.78333,70
34.79167,70
34.80000,70
34.80833,70
34.81667,70
34.82500,70
34.83333,70
34.84167,70
34.85000,70
34.85833,70
34.86667,70
34.87500,70
34.88333,70
34.89167,70
34.90000,71
34.90833,71
34.91667,71
34.92500,71
34.93333,70
34.94167,70
34.95000,70
34.95833,70
34.96667,70
34.97500,70
34.98333,70
34.99167,70
35.00000,70
35.00833,70
35.01667,70
35.02500,71
35.03333,71
35.04167,71
35.05000,71
35.05833,71
35.06667,70
35.07500,71
35.08333,71
35.09167,71
35.10000,71
35.10833,71
35.11667,71
35.12500,71
35.13333,71
35.14167,71
35.15000,71
35.15833,71
35.16667,71
35.17500,70
35.18333,70
35.19167,70
35.20000,71
35.20833,71
35.21667,71
35.22500,71
35.23333,71
35.24167,71
35.25000,71
35.25833,72
35.26667,72
35.27500,73
35.28333,73
35.29167,72
35.30000,72
35.30833,72
35.31667,71
35.32500,71
35.33333,71
35.34167,71
35.35000,71
35.35833,70
35.36667,70
35.37500,70
35.38333,70
35.39167,70
35.40000,70
35.40833,70
35.41667,70
35.42500,71
35.43333,70
35.44167,71
35.45000,71
35.45833,70
35.46667,71
35.47500,71
35.48333,71
35.49167,71
35.50000,72
35.50833,72
35.51667,72
35.52500,73
35.53333,73
35.54167,73
35.55000,73
35.55833,73
35.56667,73
35.57500,73
35.58333,73
35.59167,73
35.60000,73
35.60833,73
35.61667,73
35.62500,73
35.63333,73
35.64167,73
35.65000,73
35.65833,73
35.66667,73
35.67500,73
35.68333,73
35.69167,73
35.70000,73
35.70833,73
35.71667,73
35.72500,73
35.73333,74
35.74167,74
35.75000,74
35.75833,74
35.76667,74
35.77500,74
35.78333,74
35.79167,74
35.80000,73
35.80833,73
35.81667,73
35.82500,73
35.83333,73
35.84167,73
35.85000,73
35.85833,73
35.86667,73
35.87500,73
35.88333,74
35.89167,74
35.90000,74
35.90833,75
35.91667,75
35.92500,75
35.93333,75
35.94167,75
35.95000,74
35.95833,74
35.96667,74
35.97500,74
35.98333,74
35.99167,73
36.00000,73
36.00833,73
36.01667,73
36.02500,73
36.03333,73
36.04167,73
36.05000,74
36.05833,74
36.06667,74
36.07500,74
36.08333,74
36.09167,74
36.10000,74
36.10833,74
36.11667,74
36.12500,74
36.13333,74
36.14167,74
36.15000,74
36.15833,74
36.16667,73
36.17500,73
36.18333,73
36.19167,73
36.20000,73
36.20833,74
36.21667,74
36.22500,74
36.23333,74
36.24167,74
36.25000,74
36.25833,74
36.26667,74
36.27500,73
36.28333,73
36.29167,73
36.30000,73
36.30833,73
36.31667,74
36.32500,74
36.33333,73
36.34167,73
36.35000,73
36.35833,73
36.36667,73
36.37500,74
36.38333,74
36.39167,74
36.40000,74
36.40833,73
36.41667,74
36.42500,74
36.43333,74
36.44167,74
36.45000,74
36.45833,74
36.46667,74
36.47500,74
36.48333,74
36.49167,75
36.50000,75
36.50833,75
36.51667,76
36.52500,76
36.53333,76
36.54167,76
36.55000,76
36.55833,76
36.56667,77
36.57500,77
36.58333,78
36.59167,78
36.60000,78
36.60833,78
36.61667,78
36.62500,78
36.63333,77
36.64167,77
36.65000,78
36.65833,78
36.66667,78
36.67500,78
36.68333,78
36.69167,78
36.70000,78
36.70833,78
36.71667,78
36.72500,79
36.73333,79
36.74167,79
36.75000,80
36.75833,80
36.76667,80
36.77500,81
36.78333,81
36.79167,81
36.80000,82
36.80833,82
36.81667,83
36.82500,83
36.83333,83
36.84167,84
36.85000,84
36.85833,84
36.86667,84
36.87500,84
36.88333,84
36.89167,84
36.90000,85
36.90833,85
36.91667,85
36.92500,85
36.93333,85
36.94167,86
36.95000,86
36.95833,86
36.96667,86
36.97500,87
36.98333,87
36.99167,87
37.00000,87
37.00833,87
37.01667,87
37.02500,88
37.03333,88
37.04167,89
37.05000,89
37.05833,89
37.06667,89
37.07500,89
37.08333,88
37.09167,88
37.10000,88
37.10833,88
37.11667,88
37.12500,88
37.13333,88
37.14167,88
37.15000,88
37.15833,89
37.16667,89
37.17500,89
37.18333,89
37.19167,88
37.20000,88
37.20833,88
37.21667,88
37.22500,88
37.23333,88
37.24167,88
37.25000,88
37.25833,88
37.26667,87
37.27500,87
37.28333,87
37.29167,87
37.30000,86
37.30833,86
37.31667,86
37.32500,86
37.33333,85
37.34167,85
37.35000,85
37.35833,85
37.36667,85
37.37500,86
37.38333,85
37.39167,85
37.40000,85
37.40833,84
37.41667,84
37.42500,84
37.43333,84
37.44167,84
37.45000,83
37.45833,83
37.46667,83
37.47500,83
37.48333,83
37.49167,83
37.50000,83
37.50833,82
37.51667,82
37.52500,81
37.53333,81
37.54167,81
37.55000,81
37.55833,81
37.56667,81
37.57500,81
37.58333,81
37.59167,81
37.60000,81
37.60833,81
37.61667,81
37.62500,81
37.63333,81
37.64167,80
37.65000,80
37.65833,80
37.66667,80
37.67500,80
37.68333,80
37.69167,79
37.70000,79
37.70833,79
37.71667,79
37.72500,78
37.73333,78
37.74167,78
37.75000,78
37.75833,78
37.76667,78
37.77500,78
37.78333,78
37.79167,78
37.80000,78
37.80833,78
37.81667,78
37.82500,78
37.83333,78
37.84167,77
37.85000,78
37.85833,78
37.86667,78
37.87500,78
37.88333,78
37.89167,78
37.90000,78
37.90833,78
37.91667,78
37.92500,78
37.93333,78
37.94167,77
37.95000,77
37.95833,77
37.96667,77
37.97500,76
37.98333,76
37.99167,76
38.00000,76
38.00833,76
38.01667,76
38.02500,76
38.03333,76
38.04167,76
38.05000,77
38.05833,77
38.06667,77
38.07500,77
38.08333,77
38.09167,77
38.10000,77
38.10833,77
38.11667,77
38.12500,77
38.13333,77
38.14167,76
38.15000,76
38.15833,76
38.16667,76
38.17500,76
38.18333,76
38.19167,77
38.20000,76
38.20833,76
38.21667,77
38.22500,77
38.23333,77
38.24167,77
38.25000,77
38.25833,77
38.26667,77
38.27500,77
38.28333,77
38.29167,77
38.30000,77
38.30833,77
38.31667,77
38.32500,77
38.33333,77
38.34167,77
38.35000,78
38.35833,78
38.36667,78
38.37500,78
38.38333,78
38.39167,78
38.40000,77
38.40833,77
38.41667,77
38.42500,77
38.43333,77
38.44167,77
38.45000,77
38.45833,77
38.46667,77
38.47500,77
38.48333,77
38.49167,77
38.50000,78
38.50833,78
38.51667,78
38.52500,78
38.53333,78
38.54167,78
38.55000,77
38.55833,77
38.56667,77
38.57500,77
38.58333,78
38.59167,78
38.60000,78
38.60833,78
38.61667,78
38.62500,78
38.63333,78
38.64167,77
38.65000,77
38.65833,77
38.66667,77
38.67500,77
38.68333,77
38.69167,77
38.70000,77
38.70833,78
38.71667,78
38.72500,77
38.73333,77
38.74167,77
38.75000,77
38.75833,77
38.76667,77
38.77500,77
38.78333,77
38.79167,77
38.80000,78
38.80833,78
38.81667,78
38.82500,78
38.83333,77
38.84167,77
38.85000,78
38.85833,78
38.86667,78
38.87500,78
38.88333,78
38.89167,78
38.90000,78
38.90833,78
38.91667,78
38.92500,78
38.93333,78
38.94167,78
38.95000,78
38.95833,78
38.96667,78
38.97500,78
38.98333,78
38.99167,78
39.00000,78
39.00833,78
39.01667,78
39.02500,78
39.03333,78
39.04167,78
39.05000,78
39.05833,78
39.06667,78
39.07500,77
39.08333,77
39.09167,77
39.10000,77
39.10833,77
39.11667,77
39.12500,77
39.13333,77
39.14167,78
39.15000,78
39.15833,78
39.16667,78
39.17500,78
39.18333,79
39.19167,79
39.20000,79
39.20833,79
39.21667,79
39.22500,79
39.23333,79
39.24167,79
39.25000,78
39.25833,78
39.26667,79
39.27500,79
39.28333,79
39.29167,79
39.30000,79
39.30833,78
39.31667,78
39.32500,78
39.33333,78
39.34167,78
39.35000,78
39.35833,79
39.36667,79
39.37500,79
39.38333,79
39.39167,79
39.40000,79
39.40833,79
39.41667,79
39.42500,79
39.43333,79
39.44167,79
39.45000,79
39.45833,79
39.46667,79
39.47500,79
39.48333,79
39.49167,79
39.50000,79
39.50833,79
39.51667,79
39.52500,79
39.53333,79
39.54167,79
39.55000,79
39.55833,79
39.56667,79
39.57500,79
39.58333,79
39.59167,79
39.60000,79
39.60833,79
39.61667,79
39.62500,79
39.63333,80
39.64167,80
39.65000,80
39.65833,80
39.66667,80
39.67500,80
39.68333,79
39.69167,79
39.70000,79
39.70833,79
39.71667,79
39.72500,79
39.73333,79
39.74167,78
39.75000,78
39.75833,78
39.76667,78
39.77500,78
39.78333,78
39.79167,78
39.80000,79
39.80833,79
39.81667,79
39.82500,79
39.83333,79
39.84167,79
39.85000,79
39.85833,79
39.86667,79
39.87500,79
39.88333,79
39.89167,79
39.90000,79
39.90833,80
39.91667,80
39.92500,80
39.93333,79
39.94167,79
39.95000,79
39.95833,80
39.96667,80
39.97500,79
39.98333,79
39.99167,79
40.00000,79

