[Header]
Application Name,LabSolutions
Version,5.97 SP1
Data File Name,C:\Users\cremerlab\Desktop\griffin\2021-03-31_NCM3722_NCglucose_turnover\2021-03-31_NCM3722_turnover_batch_3312021_002_002.lcd
Output Date,3/31/2021
Output Time,7:53:39 PM

[File Information]
Type,Data File
Generated,3/31/2021 7:13:19 PM
Generated by,System Administrator
Modified,3/31/2021 7:53:39 PM
Modified by,System Administrator

[Sample Information]
Operator Name,System Administrator
Acquired,3/31/2021 7:13:37 PM
Sample Type,1:Standard
Level,2
Sample Name,2021-03-31_NCM3722_NCglucose_replicate_01_timepoint_002
Sample ID,002
ISTD Amount1,1
ISTD Amount2,1
ISTD Amount3,1
ISTD Amount4,1
ISTD Amount5,1
ISTD Amount6,1
ISTD Amount7,1
ISTD Amount8,1
ISTD Amount9,1
ISTD Amount10,1
ISTD Amount11,1
ISTD Amount12,1
ISTD Amount13,1
ISTD Amount14,1
ISTD Amount15,1
ISTD Amount16,1
ISTD Amount17,1
ISTD Amount18,1
ISTD Amount19,1
ISTD Amount20,1
ISTD Amount21,1
ISTD Amount22,1
ISTD Amount23,1
ISTD Amount24,1
ISTD Amount25,1
ISTD Amount26,1
ISTD Amount27,1
ISTD Amount28,1
ISTD Amount29,1
ISTD Amount30,1
ISTD Amount31,1
ISTD Amount32,1
Sample Amount,1
Dilution Factor,1
Vial#,11
Injection Volume,20

[Original Files]
Data File,C:\Users\cremerlab\Desktop\griffin\2021-03-31_NCM3722_NCglucose_turnover\2021-03-31_NCM3722_turnover_batch_3312021_002_002.lcd
Method File,C:\LabSolutions\Data\Project1\organicacidsetc2.lcm
Batch File,C:\Users\cremerlab\Desktop\griffin\2021-03-31_NCM3722_NCglucose_turnover\2021-03-31_NCM3722_turnover_batch.lcb
Report Format File,c:\LabSolutions\System\DEFAULT.lsr

[File Description]


[Configuration]
Instrument Name,HPLC-PC-Instrument1
Instrument #,1
Line #,1
# of Detectors,2
Detector ID,Detector A,Detector B
Detector Name,Detector A,Detector B
# of Channels,1,1

[Peak Table(Detector A)]
# of Peaks,0

[Peak Table(Detector B)]
# of Peaks,4
Peak#,R.Time,I.Time,F.Time,Area,Height,A/H,Conc.,Mark,ID#,Name,k',Plate #,Plate Ht.,Tailing,Resolution,Sep.Factor,Area Ratio,Height Ratio,Conc. %,Norm Conc.
1,11.045,10.750,12.433,1150053,66908,17.188,0.000,   ,,,0.000,11069,13.551,1.332,0.000,0.000,0,0,0.000,0.000
2,15.068,14.100,15.367,2902391,111791,25.963,0.000,   ,,,0.364,7373,20.346,0.000,7.172,0.000,0,0,0.000,0.000
3,15.616,15.367,18.500,892600,36853,24.221,0.000, V ,,,0.414,8754,17.135,0.000,0.801,1.136,0,0,0.000,0.000
4,25.030,24.625,25.550,3345,128,26.146,0.000,   ,,,1.266,19069,7.866,1.108,13.519,3.059,0,0,0.000,0.000

[LC Chromatogram(Detector B-Ch1)]
Interval(msec),500
# of Points,4801
Start Time(min),0.000
End Time(min),40.000
Intensity Units,mV
Intensity Multiplier,0.001
R.Time (min),Intensity
0.00000,1
0.00833,1
0.01667,0
0.02500,0
0.03333,-0
0.04167,-1
0.05000,-1
0.05833,-1
0.06667,-2
0.07500,-2
0.08333,-2
0.09167,-2
0.10000,-2
0.10833,-2
0.11667,-1
0.12500,-1
0.13333,-1
0.14167,-1
0.15000,-0
0.15833,0
0.16667,1
0.17500,1
0.18333,1
0.19167,1
0.20000,1
0.20833,1
0.21667,1
0.22500,2
0.23333,2
0.24167,2
0.25000,3
0.25833,3
0.26667,2
0.27500,2
0.28333,2
0.29167,1
0.30000,1
0.30833,1
0.31667,1
0.32500,1
0.33333,1
0.34167,0
0.35000,-0
0.35833,-0
0.36667,-0
0.37500,0
0.38333,1
0.39167,1
0.40000,1
0.40833,1
0.41667,1
0.42500,2
0.43333,2
0.44167,1
0.45000,1
0.45833,1
0.46667,1
0.47500,1
0.48333,1
0.49167,1
0.50000,1
0.50833,1
0.51667,1
0.52500,1
0.53333,1
0.54167,2
0.55000,2
0.55833,3
0.56667,3
0.57500,4
0.58333,5
0.59167,5
0.60000,5
0.60833,6
0.61667,5
0.62500,4
0.63333,3
0.64167,2
0.65000,1
0.65833,0
0.66667,-1
0.67500,-2
0.68333,-3
0.69167,-4
0.70000,-4
0.70833,-5
0.71667,-5
0.72500,-5
0.73333,-5
0.74167,-5
0.75000,-5
0.75833,-5
0.76667,-5
0.77500,-5
0.78333,-5
0.79167,-5
0.80000,-4
0.80833,-4
0.81667,-4
0.82500,-4
0.83333,-3
0.84167,-3
0.85000,-3
0.85833,-3
0.86667,-3
0.87500,-3
0.88333,-2
0.89167,-2
0.90000,-1
0.90833,-1
0.91667,-0
0.92500,-1
0.93333,-1
0.94167,-1
0.95000,-1
0.95833,-1
0.96667,-1
0.97500,-1
0.98333,-1
0.99167,-1
1.00000,-0
1.00833,-0
1.01667,0
1.02500,0
1.03333,1
1.04167,1
1.05000,1
1.05833,1
1.06667,1
1.07500,1
1.08333,1
1.09167,1
1.10000,1
1.10833,1
1.11667,1
1.12500,1
1.13333,1
1.14167,2
1.15000,2
1.15833,2
1.16667,2
1.17500,2
1.18333,2
1.19167,1
1.20000,1
1.20833,1
1.21667,1
1.22500,1
1.23333,0
1.24167,0
1.25000,1
1.25833,1
1.26667,1
1.27500,1
1.28333,1
1.29167,1
1.30000,1
1.30833,1
1.31667,1
1.32500,1
1.33333,1
1.34167,1
1.35000,2
1.35833,2
1.36667,2
1.37500,2
1.38333,2
1.39167,2
1.40000,2
1.40833,1
1.41667,1
1.42500,2
1.43333,2
1.44167,2
1.45000,2
1.45833,3
1.46667,3
1.47500,3
1.48333,3
1.49167,2
1.50000,2
1.50833,2
1.51667,2
1.52500,1
1.53333,1
1.54167,1
1.55000,2
1.55833,2
1.56667,2
1.57500,2
1.58333,2
1.59167,2
1.60000,2
1.60833,2
1.61667,2
1.62500,2
1.63333,3
1.64167,3
1.65000,3
1.65833,3
1.66667,3
1.67500,3
1.68333,3
1.69167,3
1.70000,3
1.70833,2
1.71667,2
1.72500,2
1.73333,2
1.74167,3
1.75000,2
1.75833,2
1.76667,2
1.77500,3
1.78333,3
1.79167,3
1.80000,3
1.80833,3
1.81667,3
1.82500,4
1.83333,5
1.84167,5
1.85000,5
1.85833,5
1.86667,5
1.87500,5
1.88333,4
1.89167,5
1.90000,5
1.90833,5
1.91667,6
1.92500,6
1.93333,6
1.94167,6
1.95000,6
1.95833,6
1.96667,6
1.97500,6
1.98333,6
1.99167,5
2.00000,5
2.00833,5
2.01667,6
2.02500,6
2.03333,6
2.04167,6
2.05000,6
2.05833,6
2.06667,6
2.07500,7
2.08333,7
2.09167,7
2.10000,7
2.10833,6
2.11667,6
2.12500,6
2.13333,5
2.14167,5
2.15000,5
2.15833,6
2.16667,6
2.17500,6
2.18333,6
2.19167,6
2.20000,6
2.20833,5
2.21667,5
2.22500,6
2.23333,6
2.24167,6
2.25000,6
2.25833,6
2.26667,6
2.27500,6
2.28333,6
2.29167,6
2.30000,5
2.30833,5
2.31667,6
2.32500,6
2.33333,6
2.34167,6
2.35000,6
2.35833,5
2.36667,5
2.37500,5
2.38333,5
2.39167,5
2.40000,5
2.40833,5
2.41667,5
2.42500,5
2.43333,5
2.44167,5
2.45000,5
2.45833,5
2.46667,5
2.47500,5
2.48333,4
2.49167,4
2.50000,4
2.50833,4
2.51667,4
2.52500,4
2.53333,4
2.54167,4
2.55000,4
2.55833,4
2.56667,4
2.57500,4
2.58333,4
2.59167,4
2.60000,3
2.60833,3
2.61667,3
2.62500,3
2.63333,3
2.64167,2
2.65000,3
2.65833,3
2.66667,2
2.67500,2
2.68333,2
2.69167,1
2.70000,1
2.70833,1
2.71667,1
2.72500,2
2.73333,2
2.74167,2
2.75000,2
2.75833,2
2.76667,2
2.77500,2
2.78333,2
2.79167,2
2.80000,2
2.80833,2
2.81667,2
2.82500,1
2.83333,1
2.84167,1
2.85000,2
2.85833,2
2.86667,2
2.87500,2
2.88333,2
2.89167,2
2.90000,2
2.90833,2
2.91667,2
2.92500,2
2.93333,2
2.94167,2
2.95000,2
2.95833,2
2.96667,2
2.97500,2
2.98333,2
2.99167,2
3.00000,2
3.00833,2
3.01667,2
3.02500,2
3.03333,2
3.04167,2
3.05000,2
3.05833,2
3.06667,2
3.07500,2
3.08333,2
3.09167,2
3.10000,2
3.10833,2
3.11667,2
3.12500,2
3.13333,2
3.14167,2
3.15000,2
3.15833,2
3.16667,2
3.17500,2
3.18333,2
3.19167,2
3.20000,3
3.20833,3
3.21667,3
3.22500,3
3.23333,3
3.24167,3
3.25000,3
3.25833,3
3.26667,3
3.27500,3
3.28333,3
3.29167,3
3.30000,3
3.30833,3
3.31667,3
3.32500,3
3.33333,3
3.34167,4
3.35000,4
3.35833,3
3.36667,3
3.37500,3
3.38333,3
3.39167,3
3.40000,3
3.40833,3
3.41667,3
3.42500,3
3.43333,3
3.44167,3
3.45000,4
3.45833,3
3.46667,3
3.47500,3
3.48333,3
3.49167,3
3.50000,3
3.50833,3
3.51667,3
3.52500,3
3.53333,3
3.54167,3
3.55000,3
3.55833,4
3.56667,3
3.57500,3
3.58333,3
3.59167,3
3.60000,3
3.60833,3
3.61667,3
3.62500,3
3.63333,3
3.64167,3
3.65000,4
3.65833,4
3.66667,4
3.67500,4
3.68333,4
3.69167,3
3.70000,3
3.70833,3
3.71667,4
3.72500,4
3.73333,4
3.74167,5
3.75000,5
3.75833,5
3.76667,5
3.77500,5
3.78333,5
3.79167,5
3.80000,5
3.80833,5
3.81667,5
3.82500,5
3.83333,5
3.84167,5
3.85000,5
3.85833,5
3.86667,5
3.87500,6
3.88333,6
3.89167,6
3.90000,6
3.90833,6
3.91667,5
3.92500,5
3.93333,6
3.94167,6
3.95000,5
3.95833,6
3.96667,6
3.97500,6
3.98333,6
3.99167,6
4.00000,6
4.00833,6
4.01667,6
4.02500,6
4.03333,6
4.04167,6
4.05000,6
4.05833,6
4.06667,7
4.07500,7
4.08333,7
4.09167,7
4.10000,7
4.10833,7
4.11667,7
4.12500,7
4.13333,7
4.14167,7
4.15000,7
4.15833,7
4.16667,7
4.17500,7
4.18333,6
4.19167,6
4.20000,6
4.20833,6
4.21667,6
4.22500,6
4.23333,6
4.24167,6
4.25000,6
4.25833,6
4.26667,6
4.27500,6
4.28333,7
4.29167,7
4.30000,6
4.30833,7
4.31667,7
4.32500,7
4.33333,7
4.34167,7
4.35000,6
4.35833,6
4.36667,6
4.37500,6
4.38333,6
4.39167,6
4.40000,5
4.40833,5
4.41667,5
4.42500,5
4.43333,5
4.44167,5
4.45000,5
4.45833,4
4.46667,4
4.47500,3
4.48333,3
4.49167,3
4.50000,3
4.50833,3
4.51667,3
4.52500,4
4.53333,4
4.54167,4
4.55000,4
4.55833,4
4.56667,4
4.57500,4
4.58333,4
4.59167,4
4.60000,4
4.60833,4
4.61667,4
4.62500,4
4.63333,3
4.64167,3
4.65000,3
4.65833,3
4.66667,3
4.67500,3
4.68333,3
4.69167,3
4.70000,3
4.70833,3
4.71667,3
4.72500,3
4.73333,3
4.74167,3
4.75000,3
4.75833,3
4.76667,3
4.77500,3
4.78333,3
4.79167,3
4.80000,3
4.80833,3
4.81667,2
4.82500,2
4.83333,2
4.84167,2
4.85000,2
4.85833,2
4.86667,2
4.87500,2
4.88333,2
4.89167,2
4.90000,2
4.90833,3
4.91667,3
4.92500,3
4.93333,3
4.94167,3
4.95000,3
4.95833,3
4.96667,3
4.97500,3
4.98333,3
4.99167,2
5.00000,2
5.00833,2
5.01667,2
5.02500,2
5.03333,2
5.04167,2
5.05000,2
5.05833,2
5.06667,2
5.07500,2
5.08333,3
5.09167,3
5.10000,2
5.10833,2
5.11667,2
5.12500,1
5.13333,1
5.14167,1
5.15000,1
5.15833,1
5.16667,1
5.17500,1
5.18333,2
5.19167,2
5.20000,2
5.20833,2
5.21667,2
5.22500,1
5.23333,1
5.24167,1
5.25000,1
5.25833,1
5.26667,1
5.27500,1
5.28333,1
5.29167,1
5.30000,1
5.30833,1
5.31667,1
5.32500,2
5.33333,2
5.34167,2
5.35000,2
5.35833,2
5.36667,2
5.37500,2
5.38333,3
5.39167,3
5.40000,3
5.40833,3
5.41667,2
5.42500,2
5.43333,1
5.44167,1
5.45000,1
5.45833,1
5.46667,1
5.47500,1
5.48333,1
5.49167,1
5.50000,1
5.50833,1
5.51667,1
5.52500,2
5.53333,1
5.54167,1
5.55000,1
5.55833,1
5.56667,1
5.57500,1
5.58333,1
5.59167,1
5.60000,1
5.60833,1
5.61667,1
5.62500,1
5.63333,1
5.64167,1
5.65000,1
5.65833,2
5.66667,2
5.67500,2
5.68333,2
5.69167,2
5.70000,2
5.70833,2
5.71667,2
5.72500,2
5.73333,2
5.74167,2
5.75000,2
5.75833,2
5.76667,2
5.77500,2
5.78333,1
5.79167,1
5.80000,1
5.80833,2
5.81667,2
5.82500,2
5.83333,2
5.84167,2
5.85000,2
5.85833,2
5.86667,2
5.87500,2
5.88333,2
5.89167,2
5.90000,1
5.90833,1
5.91667,1
5.92500,1
5.93333,2
5.94167,2
5.95000,2
5.95833,1
5.96667,1
5.97500,1
5.98333,1
5.99167,1
6.00000,2
6.00833,2
6.01667,2
6.02500,2
6.03333,2
6.04167,2
6.05000,2
6.05833,2
6.06667,2
6.07500,2
6.08333,2
6.09167,2
6.10000,2
6.10833,2
6.11667,2
6.12500,2
6.13333,2
6.14167,2
6.15000,2
6.15833,2
6.16667,2
6.17500,2
6.18333,2
6.19167,2
6.20000,2
6.20833,2
6.21667,2
6.22500,3
6.23333,3
6.24167,3
6.25000,3
6.25833,3
6.26667,3
6.27500,3
6.28333,3
6.29167,3
6.30000,3
6.30833,3
6.31667,3
6.32500,3
6.33333,3
6.34167,3
6.35000,3
6.35833,3
6.36667,3
6.37500,3
6.38333,3
6.39167,3
6.40000,3
6.40833,3
6.41667,3
6.42500,3
6.43333,3
6.44167,3
6.45000,3
6.45833,3
6.46667,3
6.47500,4
6.48333,4
6.49167,4
6.50000,3
6.50833,3
6.51667,3
6.52500,4
6.53333,4
6.54167,3
6.55000,3
6.55833,3
6.56667,3
6.57500,3
6.58333,3
6.59167,3
6.60000,3
6.60833,2
6.61667,2
6.62500,3
6.63333,3
6.64167,3
6.65000,3
6.65833,3
6.66667,3
6.67500,3
6.68333,2
6.69167,2
6.70000,2
6.70833,2
6.71667,3
6.72500,3
6.73333,3
6.74167,3
6.75000,3
6.75833,3
6.76667,3
6.77500,3
6.78333,3
6.79167,3
6.80000,3
6.80833,3
6.81667,3
6.82500,4
6.83333,4
6.84167,3
6.85000,3
6.85833,3
6.86667,3
6.87500,3
6.88333,3
6.89167,3
6.90000,3
6.90833,3
6.91667,2
6.92500,2
6.93333,2
6.94167,2
6.95000,2
6.95833,2
6.96667,2
6.97500,2
6.98333,2
6.99167,2
7.00000,2
7.00833,2
7.01667,2
7.02500,2
7.03333,2
7.04167,3
7.05000,3
7.05833,3
7.06667,3
7.07500,3
7.08333,3
7.09167,3
7.10000,3
7.10833,3
7.11667,3
7.12500,2
7.13333,2
7.14167,2
7.15000,2
7.15833,2
7.16667,2
7.17500,2
7.18333,2
7.19167,2
7.20000,1
7.20833,1
7.21667,1
7.22500,1
7.23333,1
7.24167,1
7.25000,1
7.25833,1
7.26667,1
7.27500,1
7.28333,1
7.29167,1
7.30000,1
7.30833,1
7.31667,1
7.32500,1
7.33333,1
7.34167,1
7.35000,2
7.35833,2
7.36667,2
7.37500,2
7.38333,2
7.39167,3
7.40000,3
7.40833,2
7.41667,2
7.42500,2
7.43333,2
7.44167,2
7.45000,2
7.45833,2
7.46667,2
7.47500,2
7.48333,2
7.49167,2
7.50000,2
7.50833,2
7.51667,2
7.52500,2
7.53333,2
7.54167,2
7.55000,2
7.55833,2
7.56667,2
7.57500,2
7.58333,2
7.59167,2
7.60000,2
7.60833,2
7.61667,2
7.62500,2
7.63333,2
7.64167,2
7.65000,2
7.65833,3
7.66667,3
7.67500,3
7.68333,3
7.69167,3
7.70000,3
7.70833,3
7.71667,3
7.72500,3
7.73333,3
7.74167,3
7.75000,2
7.75833,2
7.76667,2
7.77500,2
7.78333,2
7.79167,2
7.80000,2
7.80833,3
7.81667,2
7.82500,2
7.83333,2
7.84167,2
7.85000,2
7.85833,2
7.86667,2
7.87500,2
7.88333,2
7.89167,2
7.90000,2
7.90833,2
7.91667,2
7.92500,2
7.93333,2
7.94167,2
7.95000,2
7.95833,2
7.96667,2
7.97500,2
7.98333,2
7.99167,3
8.00000,3
8.00833,3
8.01667,2
8.02500,2
8.03333,2
8.04167,2
8.05000,2
8.05833,2
8.06667,2
8.07500,2
8.08333,2
8.09167,2
8.10000,2
8.10833,2
8.11667,2
8.12500,2
8.13333,2
8.14167,2
8.15000,2
8.15833,2
8.16667,2
8.17500,2
8.18333,2
8.19167,2
8.20000,2
8.20833,2
8.21667,2
8.22500,2
8.23333,2
8.24167,2
8.25000,2
8.25833,2
8.26667,3
8.27500,3
8.28333,3
8.29167,3
8.30000,3
8.30833,3
8.31667,3
8.32500,2
8.33333,2
8.34167,2
8.35000,2
8.35833,2
8.36667,3
8.37500,3
8.38333,3
8.39167,3
8.40000,3
8.40833,3
8.41667,3
8.42500,2
8.43333,2
8.44167,2
8.45000,2
8.45833,2
8.46667,2
8.47500,3
8.48333,2
8.49167,2
8.50000,1
8.50833,1
8.51667,1
8.52500,1
8.53333,1
8.54167,2
8.55000,2
8.55833,2
8.56667,2
8.57500,2
8.58333,3
8.59167,3
8.60000,3
8.60833,3
8.61667,3
8.62500,2
8.63333,2
8.64167,2
8.65000,2
8.65833,2
8.66667,2
8.67500,2
8.68333,2
8.69167,3
8.70000,3
8.70833,3
8.71667,3
8.72500,3
8.73333,3
8.74167,2
8.75000,2
8.75833,2
8.76667,2
8.77500,2
8.78333,1
8.79167,1
8.80000,1
8.80833,1
8.81667,1
8.82500,1
8.83333,1
8.84167,1
8.85000,2
8.85833,2
8.86667,2
8.87500,2
8.88333,2
8.89167,2
8.90000,2
8.90833,2
8.91667,2
8.92500,1
8.93333,1
8.94167,1
8.95000,1
8.95833,2
8.96667,2
8.97500,2
8.98333,2
8.99167,2
9.00000,2
9.00833,2
9.01667,2
9.02500,2
9.03333,1
9.04167,1
9.05000,1
9.05833,2
9.06667,2
9.07500,2
9.08333,2
9.09167,1
9.10000,1
9.10833,1
9.11667,1
9.12500,1
9.13333,1
9.14167,1
9.15000,1
9.15833,1
9.16667,1
9.17500,1
9.18333,1
9.19167,1
9.20000,1
9.20833,1
9.21667,1
9.22500,1
9.23333,1
9.24167,1
9.25000,2
9.25833,2
9.26667,2
9.27500,2
9.28333,2
9.29167,2
9.30000,2
9.30833,2
9.31667,1
9.32500,1
9.33333,2
9.34167,2
9.35000,2
9.35833,2
9.36667,2
9.37500,2
9.38333,2
9.39167,2
9.40000,1
9.40833,1
9.41667,0
9.42500,0
9.43333,0
9.44167,0
9.45000,0
9.45833,0
9.46667,1
9.47500,1
9.48333,1
9.49167,1
9.50000,1
9.50833,1
9.51667,1
9.52500,1
9.53333,1
9.54167,1
9.55000,1
9.55833,1
9.56667,0
9.57500,-0
9.58333,0
9.59167,0
9.60000,1
9.60833,1
9.61667,1
9.62500,1
9.63333,1
9.64167,1
9.65000,1
9.65833,1
9.66667,1
9.67500,1
9.68333,1
9.69167,1
9.70000,2
9.70833,2
9.71667,2
9.72500,2
9.73333,1
9.74167,1
9.75000,0
9.75833,0
9.76667,0
9.77500,0
9.78333,0
9.79167,0
9.80000,-0
9.80833,0
9.81667,0
9.82500,0
9.83333,1
9.84167,1
9.85000,1
9.85833,1
9.86667,1
9.87500,1
9.88333,1
9.89167,2
9.90000,2
9.90833,1
9.91667,1
9.92500,1
9.93333,1
9.94167,1
9.95000,1
9.95833,1
9.96667,1
9.97500,1
9.98333,1
9.99167,1
10.00000,2
10.00833,2
10.01667,2
10.02500,2
10.03333,2
10.04167,2
10.05000,2
10.05833,2
10.06667,1
10.07500,1
10.08333,1
10.09167,1
10.10000,1
10.10833,1
10.11667,1
10.12500,1
10.13333,1
10.14167,1
10.15000,1
10.15833,1
10.16667,1
10.17500,1
10.18333,2
10.19167,2
10.20000,2
10.20833,2
10.21667,1
10.22500,1
10.23333,1
10.24167,1
10.25000,1
10.25833,1
10.26667,1
10.27500,2
10.28333,1
10.29167,2
10.30000,2
10.30833,2
10.31667,2
10.32500,3
10.33333,3
10.34167,4
10.35000,4
10.35833,4
10.36667,5
10.37500,5
10.38333,6
10.39167,6
10.40000,7
10.40833,8
10.41667,8
10.42500,9
10.43333,9
10.44167,10
10.45000,10
10.45833,10
10.46667,10
10.47500,10
10.48333,10
10.49167,9
10.50000,8
10.50833,5
10.51667,1
10.52500,-6
10.53333,-14
10.54167,-26
10.55000,-43
10.55833,-65
10.56667,-94
10.57500,-132
10.58333,-181
10.59167,-243
10.60000,-321
10.60833,-416
10.61667,-531
10.62500,-670
10.63333,-832
10.64167,-1019
10.65000,-1232
10.65833,-1469
10.66667,-1729
10.67500,-2006
10.68333,-2297
10.69167,-2595
10.70000,-2890
10.70833,-3174
10.71667,-3436
10.72500,-3661
10.73333,-3838
10.74167,-3951
10.75000,-3987
10.75833,-3931
10.76667,-3769
10.77500,-3486
10.78333,-3070
10.79167,-2509
10.80000,-1793
10.80833,-912
10.81667,141
10.82500,1371
10.83333,2784
10.84167,4381
10.85000,6163
10.85833,8129
10.86667,10275
10.87500,12598
10.88333,15089
10.89167,17740
10.90000,20539
10.90833,23472
10.91667,26522
10.92500,29670
10.93333,32891
10.94167,36157
10.95000,39437
10.95833,42695
10.96667,45888
10.97500,48972
10.98333,51896
10.99167,54608
11.00000,57055
11.00833,59185
11.01667,60948
11.02500,62300
11.03333,63205
11.04167,63638
11.05000,63587
11.05833,63052
11.06667,62047
11.07500,60600
11.08333,58750
11.09167,56545
11.10000,54042
11.10833,51300
11.11667,48382
11.12500,45348
11.13333,42255
11.14167,39155
11.15000,36096
11.15833,33116
11.16667,30248
11.17500,27515
11.18333,24936
11.19167,22522
11.20000,20281
11.20833,18214
11.21667,16319
11.22500,14591
11.23333,13023
11.24167,11608
11.25000,10334
11.25833,9192
11.26667,8172
11.27500,7263
11.28333,6455
11.29167,5739
11.30000,5104
11.30833,4544
11.31667,4049
11.32500,3613
11.33333,3229
11.34167,2891
11.35000,2594
11.35833,2333
11.36667,2103
11.37500,1900
11.38333,1722
11.39167,1565
11.40000,1427
11.40833,1305
11.41667,1197
11.42500,1101
11.43333,1016
11.44167,940
11.45000,873
11.45833,813
11.46667,759
11.47500,711
11.48333,668
11.49167,629
11.50000,593
11.50833,561
11.51667,532
11.52500,505
11.53333,481
11.54167,458
11.55000,438
11.55833,419
11.56667,401
11.57500,385
11.58333,370
11.59167,356
11.60000,343
11.60833,330
11.61667,319
11.62500,308
11.63333,298
11.64167,289
11.65000,280
11.65833,272
11.66667,264
11.67500,257
11.68333,249
11.69167,243
11.70000,236
11.70833,231
11.71667,225
11.72500,220
11.73333,215
11.74167,211
11.75000,207
11.75833,203
11.76667,199
11.77500,196
11.78333,192
11.79167,188
11.80000,185
11.80833,182
11.81667,179
11.82500,176
11.83333,173
11.84167,171
11.85000,169
11.85833,167
11.86667,166
11.87500,164
11.88333,162
11.89167,161
11.90000,159
11.90833,158
11.91667,156
11.92500,155
11.93333,153
11.94167,152
11.95000,151
11.95833,150
11.96667,149
11.97500,148
11.98333,147
11.99167,146
12.00000,145
12.00833,144
12.01667,143
12.02500,142
12.03333,141
12.04167,140
12.05000,139
12.05833,138
12.06667,137
12.07500,136
12.08333,135
12.09167,134
12.10000,133
12.10833,132
12.11667,132
12.12500,131
12.13333,130
12.14167,129
12.15000,128
12.15833,127
12.16667,127
12.17500,126
12.18333,125
12.19167,124
12.20000,123
12.20833,122
12.21667,121
12.22500,120
12.23333,119
12.24167,118
12.25000,117
12.25833,116
12.26667,116
12.27500,115
12.28333,114
12.29167,113
12.30000,113
12.30833,112
12.31667,111
12.32500,111
12.33333,110
12.34167,109
12.35000,108
12.35833,108
12.36667,107
12.37500,107
12.38333,106
12.39167,106
12.40000,105
12.40833,105
12.41667,104
12.42500,104
12.43333,104
12.44167,103
12.45000,103
12.45833,102
12.46667,102
12.47500,101
12.48333,100
12.49167,100
12.50000,99
12.50833,99
12.51667,98
12.52500,98
12.53333,97
12.54167,97
12.55000,96
12.55833,96
12.56667,95
12.57500,95
12.58333,94
12.59167,94
12.60000,93
12.60833,92
12.61667,92
12.62500,91
12.63333,91
12.64167,91
12.65000,90
12.65833,89
12.66667,89
12.67500,88
12.68333,87
12.69167,87
12.70000,87
12.70833,87
12.71667,86
12.72500,85
12.73333,85
12.74167,84
12.75000,84
12.75833,84
12.76667,83
12.77500,83
12.78333,83
12.79167,83
12.80000,82
12.80833,82
12.81667,82
12.82500,82
12.83333,81
12.84167,81
12.85000,81
12.85833,81
12.86667,82
12.87500,82
12.88333,82
12.89167,82
12.90000,82
12.90833,82
12.91667,82
12.92500,83
12.93333,83
12.94167,83
12.95000,83
12.95833,83
12.96667,83
12.97500,84
12.98333,84
12.99167,84
13.00000,84
13.00833,83
13.01667,84
13.02500,84
13.03333,84
13.04167,85
13.05000,85
13.05833,85
13.06667,85
13.07500,85
13.08333,85
13.09167,84
13.10000,84
13.10833,84
13.11667,84
13.12500,84
13.13333,83
13.14167,83
13.15000,83
13.15833,83
13.16667,83
13.17500,82
13.18333,82
13.19167,82
13.20000,82
13.20833,82
13.21667,82
13.22500,82
13.23333,81
13.24167,81
13.25000,80
13.25833,79
13.26667,78
13.27500,78
13.28333,77
13.29167,77
13.30000,76
13.30833,75
13.31667,74
13.32500,73
13.33333,71
13.34167,71
13.35000,70
13.35833,69
13.36667,69
13.37500,68
13.38333,67
13.39167,66
13.40000,65
13.40833,64
13.41667,63
13.42500,62
13.43333,61
13.44167,60
13.45000,59
13.45833,58
13.46667,58
13.47500,57
13.48333,56
13.49167,55
13.50000,54
13.50833,53
13.51667,52
13.52500,51
13.53333,51
13.54167,50
13.55000,49
13.55833,49
13.56667,48
13.57500,48
13.58333,48
13.59167,47
13.60000,46
13.60833,46
13.61667,45
13.62500,45
13.63333,45
13.64167,45
13.65000,45
13.65833,44
13.66667,44
13.67500,44
13.68333,43
13.69167,43
13.70000,43
13.70833,43
13.71667,43
13.72500,44
13.73333,43
13.74167,43
13.75000,43
13.75833,43
13.76667,43
13.77500,42
13.78333,42
13.79167,43
13.80000,43
13.80833,44
13.81667,44
13.82500,44
13.83333,44
13.84167,44
13.85000,44
13.85833,44
13.86667,44
13.87500,44
13.88333,44
13.89167,45
13.90000,45
13.90833,45
13.91667,46
13.92500,46
13.93333,47
13.94167,47
13.95000,48
13.95833,48
13.96667,49
13.97500,49
13.98333,50
13.99167,50
14.00000,50
14.00833,51
14.01667,52
14.02500,52
14.03333,53
14.04167,54
14.05000,54
14.05833,55
14.06667,55
14.07500,56
14.08333,57
14.09167,59
14.10000,60
14.10833,62
14.11667,63
14.12500,64
14.13333,66
14.14167,68
14.15000,70
14.15833,73
14.16667,76
14.17500,79
14.18333,83
14.19167,87
14.20000,93
14.20833,100
14.21667,109
14.22500,119
14.23333,131
14.24167,146
14.25000,164
14.25833,185
14.26667,210
14.27500,241
14.28333,277
14.29167,320
14.30000,371
14.30833,431
14.31667,502
14.32500,585
14.33333,682
14.34167,793
14.35000,921
14.35833,1067
14.36667,1234
14.37500,1422
14.38333,1634
14.39167,1872
14.40000,2136
14.40833,2430
14.41667,2754
14.42500,3109
14.43333,3497
14.44167,3919
14.45000,4376
14.45833,4868
14.46667,5398
14.47500,5964
14.48333,6567
14.49167,7209
14.50000,7887
14.50833,8604
14.51667,9359
14.52500,10151
14.53333,10980
14.54167,11846
14.55000,12748
14.55833,13687
14.56667,14660
14.57500,15669
14.58333,16711
14.59167,17788
14.60000,18898
14.60833,20040
14.61667,21213
14.62500,22417
14.63333,23652
14.64167,24917
14.65000,26211
14.65833,27534
14.66667,28886
14.67500,30265
14.68333,31671
14.69167,33105
14.70000,34566
14.70833,36053
14.71667,37566
14.72500,39105
14.73333,40669
14.74167,42257
14.75000,43870
14.75833,45507
14.76667,47168
14.77500,48852
14.78333,50560
14.79167,52292
14.80000,54046
14.80833,55823
14.81667,57623
14.82500,59445
14.83333,61288
14.84167,63154
14.85000,65041
14.85833,66949
14.86667,68877
14.87500,70826
14.88333,72794
14.89167,74782
14.90000,76788
14.90833,78811
14.91667,80851
14.92500,82906
14.93333,84974
14.94167,87054
14.95000,89143
14.95833,91238
14.96667,93333
14.97500,95422
14.98333,97496
14.99167,99542
15.00000,101543
15.00833,103477
15.01667,105313
15.02500,107018
15.03333,108547
15.04167,109852
15.05000,110877
15.05833,111566
15.06667,111859
15.07500,111703
15.08333,111050
15.09167,109861
15.10000,108115
15.10833,105803
15.11667,102939
15.12500,99550
15.13333,95686
15.14167,91409
15.15000,86794
15.15833,81925
15.16667,76889
15.17500,71776
15.18333,66668
15.19167,61644
15.20000,56770
15.20833,52104
15.21667,47689
15.22500,43558
15.23333,39732
15.24167,36225
15.25000,33039
15.25833,30170
15.26667,27610
15.27500,25346
15.28333,23364
15.29167,21646
15.30000,20177
15.30833,18939
15.31667,17917
15.32500,17095
15.33333,16459
15.34167,15997
15.35000,15698
15.35833,15551
15.36667,15546
15.37500,15674
15.38333,15927
15.39167,16296
15.40000,16775
15.40833,17355
15.41667,18029
15.42500,18787
15.43333,19621
15.44167,20523
15.45000,21483
15.45833,22491
15.46667,23536
15.47500,24608
15.48333,25696
15.49167,26789
15.50000,27875
15.50833,28944
15.51667,29984
15.52500,30984
15.53333,31935
15.54167,32825
15.55000,33646
15.55833,34389
15.56667,35047
15.57500,35614
15.58333,36084
15.59167,36453
15.60000,36717
15.60833,36875
15.61667,36925
15.62500,36869
15.63333,36708
15.64167,36443
15.65000,36079
15.65833,35620
15.66667,35071
15.67500,34438
15.68333,33728
15.69167,32946
15.70000,32101
15.70833,31199
15.71667,30249
15.72500,29257
15.73333,28232
15.74167,27180
15.75000,26110
15.75833,25027
15.76667,23938
15.77500,22850
15.78333,21767
15.79167,20696
15.80000,19641
15.80833,18607
15.81667,17596
15.82500,16612
15.83333,15658
15.84167,14736
15.85000,13848
15.85833,12996
15.86667,12180
15.87500,11401
15.88333,10660
15.89167,9956
15.90000,9290
15.90833,8660
15.91667,8067
15.92500,7510
15.93333,6986
15.94167,6496
15.95000,6038
15.95833,5611
15.96667,5212
15.97500,4842
15.98333,4497
15.99167,4178
16.00000,3882
16.00833,3609
16.01667,3357
16.02500,3124
16.03333,2909
16.04167,2711
16.05000,2529
16.05833,2362
16.06667,2207
16.07500,2066
16.08333,1936
16.09167,1817
16.10000,1708
16.10833,1608
16.11667,1516
16.12500,1432
16.13333,1355
16.14167,1284
16.15000,1219
16.15833,1160
16.16667,1106
16.17500,1056
16.18333,1010
16.19167,968
16.20000,929
16.20833,893
16.21667,860
16.22500,830
16.23333,802
16.24167,776
16.25000,751
16.25833,728
16.26667,707
16.27500,688
16.28333,670
16.29167,654
16.30000,638
16.30833,623
16.31667,609
16.32500,596
16.33333,584
16.34167,572
16.35000,562
16.35833,552
16.36667,542
16.37500,532
16.38333,524
16.39167,515
16.40000,507
16.40833,500
16.41667,492
16.42500,485
16.43333,479
16.44167,473
16.45000,467
16.45833,461
16.46667,456
16.47500,450
16.48333,445
16.49167,440
16.50000,435
16.50833,430
16.51667,426
16.52500,422
16.53333,417
16.54167,413
16.55000,409
16.55833,405
16.56667,401
16.57500,398
16.58333,394
16.59167,391
16.60000,387
16.60833,384
16.61667,381
16.62500,378
16.63333,375
16.64167,372
16.65000,369
16.65833,366
16.66667,364
16.67500,361
16.68333,358
16.69167,355
16.70000,353
16.70833,350
16.71667,347
16.72500,345
16.73333,342
16.74167,340
16.75000,337
16.75833,335
16.76667,333
16.77500,330
16.78333,328
16.79167,326
16.80000,324
16.80833,322
16.81667,320
16.82500,318
16.83333,316
16.84167,314
16.85000,311
16.85833,309
16.86667,307
16.87500,304
16.88333,302
16.89167,300
16.90000,298
16.90833,297
16.91667,295
16.92500,293
16.93333,291
16.94167,289
16.95000,287
16.95833,285
16.96667,283
16.97500,281
16.98333,280
16.99167,278
17.00000,276
17.00833,274
17.01667,273
17.02500,271
17.03333,269
17.04167,267
17.05000,265
17.05833,264
17.06667,262
17.07500,260
17.08333,259
17.09167,257
17.10000,255
17.10833,253
17.11667,252
17.12500,250
17.13333,249
17.14167,247
17.15000,246
17.15833,244
17.16667,243
17.17500,242
17.18333,240
17.19167,238
17.20000,237
17.20833,235
17.21667,233
17.22500,232
17.23333,230
17.24167,229
17.25000,228
17.25833,226
17.26667,225
17.27500,223
17.28333,222
17.29167,220
17.30000,219
17.30833,218
17.31667,217
17.32500,216
17.33333,214
17.34167,213
17.35000,212
17.35833,210
17.36667,208
17.37500,207
17.38333,206
17.39167,205
17.40000,204
17.40833,203
17.41667,201
17.42500,201
17.43333,199
17.44167,198
17.45000,197
17.45833,195
17.46667,194
17.47500,193
17.48333,192
17.49167,191
17.50000,189
17.50833,188
17.51667,187
17.52500,186
17.53333,185
17.54167,184
17.55000,183
17.55833,182
17.56667,181
17.57500,180
17.58333,179
17.59167,178
17.60000,177
17.60833,176
17.61667,175
17.62500,174
17.63333,172
17.64167,171
17.65000,170
17.65833,169
17.66667,168
17.67500,167
17.68333,166
17.69167,165
17.70000,164
17.70833,163
17.71667,162
17.72500,161
17.73333,160
17.74167,159
17.75000,159
17.75833,158
17.76667,157
17.77500,156
17.78333,155
17.79167,155
17.80000,154
17.80833,153
17.81667,152
17.82500,151
17.83333,150
17.84167,149
17.85000,148
17.85833,148
17.86667,147
17.87500,146
17.88333,145
17.89167,144
17.90000,144
17.90833,143
17.91667,142
17.92500,142
17.93333,141
17.94167,140
17.95000,139
17.95833,139
17.96667,138
17.97500,137
17.98333,136
17.99167,135
18.00000,134
18.00833,134
18.01667,133
18.02500,132
18.03333,131
18.04167,131
18.05000,130
18.05833,129
18.06667,129
18.07500,128
18.08333,128
18.09167,127
18.10000,126
18.10833,125
18.11667,124
18.12500,124
18.13333,123
18.14167,123
18.15000,122
18.15833,121
18.16667,120
18.17500,120
18.18333,119
18.19167,118
18.20000,118
18.20833,117
18.21667,116
18.22500,115
18.23333,115
18.24167,114
18.25000,113
18.25833,113
18.26667,112
18.27500,111
18.28333,111
18.29167,110
18.30000,109
18.30833,109
18.31667,108
18.32500,107
18.33333,107
18.34167,106
18.35000,105
18.35833,105
18.36667,104
18.37500,103
18.38333,103
18.39167,102
18.40000,102
18.40833,101
18.41667,101
18.42500,101
18.43333,100
18.44167,99
18.45000,99
18.45833,98
18.46667,97
18.47500,97
18.48333,96
18.49167,96
18.50000,96
18.50833,96
18.51667,95
18.52500,95
18.53333,95
18.54167,95
18.55000,94
18.55833,93
18.56667,93
18.57500,92
18.58333,92
18.59167,91
18.60000,91
18.60833,91
18.61667,91
18.62500,91
18.63333,92
18.64167,92
18.65000,92
18.65833,92
18.66667,92
18.67500,92
18.68333,92
18.69167,93
18.70000,94
18.70833,95
18.71667,95
18.72500,96
18.73333,97
18.74167,98
18.75000,99
18.75833,100
18.76667,101
18.77500,103
18.78333,104
18.79167,106
18.80000,107
18.80833,108
18.81667,110
18.82500,111
18.83333,113
18.84167,114
18.85000,116
18.85833,117
18.86667,119
18.87500,120
18.88333,121
18.89167,122
18.90000,123
18.90833,124
18.91667,125
18.92500,126
18.93333,127
18.94167,127
18.95000,127
18.95833,127
18.96667,127
18.97500,127
18.98333,126
18.99167,126
19.00000,125
19.00833,125
19.01667,124
19.02500,123
19.03333,122
19.04167,120
19.05000,119
19.05833,117
19.06667,116
19.07500,114
19.08333,112
19.09167,110
19.10000,107
19.10833,105
19.11667,103
19.12500,101
19.13333,99
19.14167,97
19.15000,95
19.15833,93
19.16667,91
19.17500,89
19.18333,87
19.19167,86
19.20000,84
19.20833,82
19.21667,80
19.22500,78
19.23333,77
19.24167,75
19.25000,73
19.25833,72
19.26667,70
19.27500,69
19.28333,68
19.29167,67
19.30000,66
19.30833,65
19.31667,65
19.32500,64
19.33333,63
19.34167,62
19.35000,61
19.35833,60
19.36667,59
19.37500,58
19.38333,57
19.39167,56
19.40000,56
19.40833,55
19.41667,54
19.42500,54
19.43333,54
19.44167,53
19.45000,52
19.45833,52
19.46667,51
19.47500,51
19.48333,50
19.49167,50
19.50000,50
19.50833,50
19.51667,49
19.52500,49
19.53333,48
19.54167,48
19.55000,48
19.55833,47
19.56667,48
19.57500,47
19.58333,47
19.59167,47
19.60000,47
19.60833,47
19.61667,47
19.62500,46
19.63333,46
19.64167,46
19.65000,46
19.65833,45
19.66667,45
19.67500,45
19.68333,44
19.69167,44
19.70000,43
19.70833,43
19.71667,43
19.72500,43
19.73333,43
19.74167,43
19.75000,42
19.75833,42
19.76667,42
19.77500,42
19.78333,41
19.79167,40
19.80000,40
19.80833,40
19.81667,40
19.82500,39
19.83333,39
19.84167,39
19.85000,39
19.85833,39
19.86667,39
19.87500,38
19.88333,38
19.89167,38
19.90000,38
19.90833,37
19.91667,37
19.92500,37
19.93333,37
19.94167,37
19.95000,37
19.95833,36
19.96667,36
19.97500,36
19.98333,35
19.99167,35
20.00000,35
20.00833,35
20.01667,35
20.02500,35
20.03333,34
20.04167,34
20.05000,34
20.05833,34
20.06667,34
20.07500,34
20.08333,34
20.09167,34
20.10000,34
20.10833,34
20.11667,34
20.12500,33
20.13333,33
20.14167,33
20.15000,33
20.15833,32
20.16667,32
20.17500,32
20.18333,31
20.19167,31
20.20000,31
20.20833,31
20.21667,31
20.22500,31
20.23333,31
20.24167,31
20.25000,31
20.25833,31
20.26667,31
20.27500,31
20.28333,30
20.29167,30
20.30000,30
20.30833,30
20.31667,30
20.32500,30
20.33333,30
20.34167,29
20.35000,29
20.35833,29
20.36667,28
20.37500,28
20.38333,28
20.39167,28
20.40000,28
20.40833,28
20.41667,28
20.42500,28
20.43333,28
20.44167,28
20.45000,28
20.45833,28
20.46667,28
20.47500,28
20.48333,28
20.49167,28
20.50000,27
20.50833,27
20.51667,27
20.52500,27
20.53333,26
20.54167,26
20.55000,26
20.55833,26
20.56667,26
20.57500,26
20.58333,26
20.59167,26
20.60000,26
20.60833,26
20.61667,26
20.62500,26
20.63333,26
20.64167,26
20.65000,26
20.65833,26
20.66667,26
20.67500,25
20.68333,25
20.69167,25
20.70000,25
20.70833,25
20.71667,25
20.72500,25
20.73333,25
20.74167,25
20.75000,25
20.75833,25
20.76667,25
20.77500,25
20.78333,24
20.79167,24
20.80000,24
20.80833,24
20.81667,24
20.82500,24
20.83333,24
20.84167,24
20.85000,24
20.85833,23
20.86667,23
20.87500,23
20.88333,23
20.89167,23
20.90000,22
20.90833,22
20.91667,22
20.92500,22
20.93333,22
20.94167,22
20.95000,22
20.95833,22
20.96667,22
20.97500,22
20.98333,22
20.99167,22
21.00000,22
21.00833,22
21.01667,21
21.02500,21
21.03333,21
21.04167,21
21.05000,21
21.05833,21
21.06667,21
21.07500,21
21.08333,21
21.09167,21
21.10000,21
21.10833,21
21.11667,21
21.12500,21
21.13333,21
21.14167,20
21.15000,20
21.15833,20
21.16667,20
21.17500,20
21.18333,20
21.19167,20
21.20000,20
21.20833,20
21.21667,20
21.22500,20
21.23333,20
21.24167,19
21.25000,19
21.25833,19
21.26667,19
21.27500,19
21.28333,19
21.29167,19
21.30000,19
21.30833,19
21.31667,19
21.32500,19
21.33333,19
21.34167,19
21.35000,18
21.35833,18
21.36667,18
21.37500,18
21.38333,18
21.39167,18
21.40000,18
21.40833,18
21.41667,18
21.42500,18
21.43333,18
21.44167,17
21.45000,18
21.45833,18
21.46667,18
21.47500,18
21.48333,17
21.49167,17
21.50000,17
21.50833,17
21.51667,18
21.52500,18
21.53333,18
21.54167,17
21.55000,17
21.55833,17
21.56667,18
21.57500,17
21.58333,17
21.59167,17
21.60000,17
21.60833,16
21.61667,16
21.62500,16
21.63333,16
21.64167,16
21.65000,16
21.65833,16
21.66667,17
21.67500,17
21.68333,17
21.69167,17
21.70000,16
21.70833,16
21.71667,16
21.72500,16
21.73333,16
21.74167,16
21.75000,16
21.75833,16
21.76667,16
21.77500,16
21.78333,16
21.79167,16
21.80000,17
21.80833,17
21.81667,17
21.82500,17
21.83333,17
21.84167,17
21.85000,16
21.85833,16
21.86667,16
21.87500,16
21.88333,16
21.89167,16
21.90000,16
21.90833,17
21.91667,17
21.92500,16
21.93333,16
21.94167,17
21.95000,16
21.95833,16
21.96667,16
21.97500,16
21.98333,16
21.99167,16
22.00000,16
22.00833,16
22.01667,15
22.02500,15
22.03333,15
22.04167,16
22.05000,16
22.05833,16
22.06667,16
22.07500,15
22.08333,15
22.09167,14
22.10000,13
22.10833,13
22.11667,13
22.12500,13
22.13333,13
22.14167,13
22.15000,13
22.15833,13
22.16667,13
22.17500,12
22.18333,12
22.19167,12
22.20000,12
22.20833,12
22.21667,12
22.22500,12
22.23333,12
22.24167,12
22.25000,12
22.25833,12
22.26667,11
22.27500,12
22.28333,12
22.29167,12
22.30000,12
22.30833,12
22.31667,12
22.32500,12
22.33333,11
22.34167,11
22.35000,11
22.35833,11
22.36667,11
22.37500,11
22.38333,11
22.39167,11
22.40000,11
22.40833,11
22.41667,10
22.42500,10
22.43333,10
22.44167,10
22.45000,11
22.45833,11
22.46667,11
22.47500,11
22.48333,11
22.49167,11
22.50000,10
22.50833,11
22.51667,11
22.52500,11
22.53333,11
22.54167,11
22.55000,10
22.55833,10
22.56667,11
22.57500,11
22.58333,11
22.59167,11
22.60000,11
22.60833,10
22.61667,10
22.62500,10
22.63333,10
22.64167,11
22.65000,11
22.65833,10
22.66667,10
22.67500,10
22.68333,10
22.69167,10
22.70000,11
22.70833,11
22.71667,11
22.72500,11
22.73333,10
22.74167,10
22.75000,10
22.75833,10
22.76667,10
22.77500,9
22.78333,9
22.79167,9
22.80000,10
22.80833,10
22.81667,10
22.82500,10
22.83333,11
22.84167,11
22.85000,11
22.85833,12
22.86667,12
22.87500,12
22.88333,13
22.89167,13
22.90000,13
22.90833,14
22.91667,14
22.92500,14
22.93333,15
22.94167,16
22.95000,16
22.95833,17
22.96667,17
22.97500,18
22.98333,18
22.99167,18
23.00000,19
23.00833,19
23.01667,19
23.02500,20
23.03333,20
23.04167,21
23.05000,22
23.05833,23
23.06667,23
23.07500,24
23.08333,25
23.09167,25
23.10000,26
23.10833,27
23.11667,27
23.12500,28
23.13333,28
23.14167,28
23.15000,29
23.15833,29
23.16667,29
23.17500,29
23.18333,29
23.19167,30
23.20000,30
23.20833,30
23.21667,30
23.22500,30
23.23333,30
23.24167,30
23.25000,29
23.25833,29
23.26667,29
23.27500,29
23.28333,29
23.29167,29
23.30000,28
23.30833,28
23.31667,28
23.32500,27
23.33333,27
23.34167,26
23.35000,26
23.35833,25
23.36667,25
23.37500,24
23.38333,24
23.39167,23
23.40000,22
23.40833,21
23.41667,20
23.42500,20
23.43333,19
23.44167,18
23.45000,18
23.45833,17
23.46667,17
23.47500,16
23.48333,16
23.49167,15
23.50000,15
23.50833,15
23.51667,14
23.52500,13
23.53333,13
23.54167,12
23.55000,12
23.55833,11
23.56667,10
23.57500,10
23.58333,10
23.59167,9
23.60000,9
23.60833,9
23.61667,9
23.62500,8
23.63333,8
23.64167,8
23.65000,8
23.65833,8
23.66667,8
23.67500,8
23.68333,8
23.69167,8
23.70000,8
23.70833,8
23.71667,7
23.72500,7
23.73333,7
23.74167,7
23.75000,6
23.75833,6
23.76667,6
23.77500,5
23.78333,5
23.79167,6
23.80000,6
23.80833,6
23.81667,7
23.82500,7
23.83333,7
23.84167,7
23.85000,7
23.85833,7
23.86667,7
23.87500,7
23.88333,6
23.89167,6
23.90000,6
23.90833,6
23.91667,6
23.92500,6
23.93333,6
23.94167,5
23.95000,5
23.95833,5
23.96667,6
23.97500,6
23.98333,6
23.99167,6
24.00000,6
24.00833,6
24.01667,6
24.02500,6
24.03333,6
24.04167,6
24.05000,6
24.05833,5
24.06667,5
24.07500,5
24.08333,5
24.09167,4
24.10000,4
24.10833,4
24.11667,4
24.12500,4
24.13333,5
24.14167,5
24.15000,4
24.15833,4
24.16667,4
24.17500,4
24.18333,4
24.19167,5
24.20000,5
24.20833,5
24.21667,4
24.22500,4
24.23333,4
24.24167,4
24.25000,4
24.25833,4
24.26667,4
24.27500,4
24.28333,4
24.29167,4
24.30000,4
24.30833,4
24.31667,4
24.32500,4
24.33333,4
24.34167,4
24.35000,4
24.35833,4
24.36667,4
24.37500,4
24.38333,4
24.39167,5
24.40000,5
24.40833,5
24.41667,5
24.42500,5
24.43333,5
24.44167,5
24.45000,5
24.45833,5
24.46667,6
24.47500,6
24.48333,6
24.49167,6
24.50000,7
24.50833,7
24.51667,7
24.52500,7
24.53333,7
24.54167,7
24.55000,8
24.55833,8
24.56667,9
24.57500,10
24.58333,11
24.59167,12
24.60000,12
24.60833,13
24.61667,14
24.62500,16
24.63333,16
24.64167,18
24.65000,19
24.65833,21
24.66667,22
24.67500,24
24.68333,26
24.69167,28
24.70000,30
24.70833,32
24.71667,34
24.72500,37
24.73333,40
24.74167,43
24.75000,46
24.75833,49
24.76667,52
24.77500,55
24.78333,58
24.79167,61
24.80000,64
24.80833,68
24.81667,72
24.82500,75
24.83333,78
24.84167,82
24.85000,86
24.85833,90
24.86667,94
24.87500,97
24.88333,101
24.89167,104
24.90000,108
24.90833,111
24.91667,115
24.92500,118
24.93333,122
24.94167,125
24.95000,127
24.95833,129
24.96667,131
24.97500,133
24.98333,135
24.99167,136
25.00000,138
25.00833,140
25.01667,141
25.02500,141
25.03333,141
25.04167,141
25.05000,141
25.05833,140
25.06667,139
25.07500,138
25.08333,137
25.09167,135
25.10000,133
25.10833,131
25.11667,128
25.12500,126
25.13333,124
25.14167,121
25.15000,118
25.15833,115
25.16667,111
25.17500,108
25.18333,105
25.19167,102
25.20000,99
25.20833,95
25.21667,92
25.22500,89
25.23333,85
25.24167,82
25.25000,79
25.25833,75
25.26667,72
25.27500,69
25.28333,65
25.29167,62
25.30000,59
25.30833,56
25.31667,53
25.32500,50
25.33333,47
25.34167,44
25.35000,42
25.35833,40
25.36667,38
25.37500,36
25.38333,34
25.39167,31
25.40000,29
25.40833,28
25.41667,26
25.42500,24
25.43333,23
25.44167,22
25.45000,21
25.45833,20
25.46667,19
25.47500,18
25.48333,16
25.49167,15
25.50000,14
25.50833,13
25.51667,13
25.52500,12
25.53333,12
25.54167,11
25.55000,11
25.55833,11
25.56667,10
25.57500,10
25.58333,9
25.59167,8
25.60000,8
25.60833,7
25.61667,7
25.62500,7
25.63333,7
25.64167,7
25.65000,6
25.65833,6
25.66667,6
25.67500,5
25.68333,5
25.69167,6
25.70000,6
25.70833,6
25.71667,6
25.72500,6
25.73333,6
25.74167,6
25.75000,5
25.75833,5
25.76667,5
25.77500,5
25.78333,5
25.79167,5
25.80000,5
25.80833,5
25.81667,5
25.82500,5
25.83333,5
25.84167,5
25.85000,5
25.85833,5
25.86667,4
25.87500,4
25.88333,4
25.89167,4
25.90000,4
25.90833,4
25.91667,5
25.92500,5
25.93333,5
25.94167,5
25.95000,5
25.95833,5
25.96667,6
25.97500,6
25.98333,6
25.99167,5
26.00000,5
26.00833,5
26.01667,5
26.02500,4
26.03333,4
26.04167,4
26.05000,4
26.05833,4
26.06667,4
26.07500,4
26.08333,4
26.09167,4
26.10000,5
26.10833,4
26.11667,4
26.12500,4
26.13333,5
26.14167,5
26.15000,5
26.15833,5
26.16667,5
26.17500,5
26.18333,4
26.19167,4
26.20000,4
26.20833,4
26.21667,5
26.22500,5
26.23333,5
26.24167,5
26.25000,4
26.25833,4
26.26667,4
26.27500,4
26.28333,4
26.29167,4
26.30000,4
26.30833,5
26.31667,5
26.32500,5
26.33333,5
26.34167,5
26.35000,5
26.35833,4
26.36667,4
26.37500,4
26.38333,4
26.39167,4
26.40000,4
26.40833,4
26.41667,5
26.42500,5
26.43333,4
26.44167,4
26.45000,4
26.45833,3
26.46667,3
26.47500,4
26.48333,4
26.49167,4
26.50000,4
26.50833,5
26.51667,5
26.52500,4
26.53333,4
26.54167,4
26.55000,4
26.55833,4
26.56667,4
26.57500,4
26.58333,4
26.59167,4
26.60000,4
26.60833,4
26.61667,4
26.62500,4
26.63333,3
26.64167,3
26.65000,3
26.65833,4
26.66667,4
26.67500,4
26.68333,4
26.69167,4
26.70000,4
26.70833,4
26.71667,4
26.72500,4
26.73333,4
26.74167,4
26.75000,4
26.75833,4
26.76667,4
26.77500,4
26.78333,3
26.79167,4
26.80000,4
26.80833,3
26.81667,3
26.82500,3
26.83333,3
26.84167,3
26.85000,3
26.85833,4
26.86667,4
26.87500,4
26.88333,4
26.89167,4
26.90000,5
26.90833,5
26.91667,5
26.92500,5
26.93333,5
26.94167,5
26.95000,5
26.95833,5
26.96667,5
26.97500,5
26.98333,5
26.99167,5
27.00000,5
27.00833,5
27.01667,5
27.02500,5
27.03333,6
27.04167,6
27.05000,6
27.05833,6
27.06667,6
27.07500,5
27.08333,5
27.09167,5
27.10000,5
27.10833,5
27.11667,6
27.12500,6
27.13333,6
27.14167,6
27.15000,6
27.15833,6
27.16667,6
27.17500,6
27.18333,6
27.19167,6
27.20000,6
27.20833,6
27.21667,6
27.22500,6
27.23333,6
27.24167,6
27.25000,6
27.25833,6
27.26667,6
27.27500,6
27.28333,6
27.29167,6
27.30000,6
27.30833,6
27.31667,6
27.32500,7
27.33333,7
27.34167,7
27.35000,7
27.35833,7
27.36667,7
27.37500,7
27.38333,7
27.39167,7
27.40000,7
27.40833,7
27.41667,7
27.42500,7
27.43333,7
27.44167,7
27.45000,7
27.45833,8
27.46667,8
27.47500,8
27.48333,7
27.49167,7
27.50000,7
27.50833,7
27.51667,8
27.52500,8
27.53333,8
27.54167,9
27.55000,9
27.55833,9
27.56667,8
27.57500,8
27.58333,8
27.59167,7
27.60000,7
27.60833,7
27.61667,7
27.62500,7
27.63333,7
27.64167,7
27.65000,6
27.65833,6
27.66667,6
27.67500,6
27.68333,7
27.69167,7
27.70000,6
27.70833,6
27.71667,6
27.72500,6
27.73333,5
27.74167,5
27.75000,4
27.75833,4
27.76667,4
27.77500,4
27.78333,3
27.79167,2
27.80000,2
27.80833,1
27.81667,0
27.82500,-1
27.83333,-2
27.84167,-3
27.85000,-5
27.85833,-6
27.86667,-7
27.87500,-9
27.88333,-11
27.89167,-12
27.90000,-14
27.90833,-16
27.91667,-19
27.92500,-21
27.93333,-24
27.94167,-27
27.95000,-30
27.95833,-33
27.96667,-36
27.97500,-39
27.98333,-43
27.99167,-47
28.00000,-51
28.00833,-55
28.01667,-60
28.02500,-64
28.03333,-69
28.04167,-75
28.05000,-81
28.05833,-87
28.06667,-93
28.07500,-100
28.08333,-108
28.09167,-115
28.10000,-123
28.10833,-132
28.11667,-140
28.12500,-149
28.13333,-158
28.14167,-167
28.15000,-177
28.15833,-187
28.16667,-198
28.17500,-208
28.18333,-219
28.19167,-229
28.20000,-240
28.20833,-251
28.21667,-263
28.22500,-274
28.23333,-286
28.24167,-298
28.25000,-310
28.25833,-322
28.26667,-335
28.27500,-347
28.28333,-360
28.29167,-372
28.30000,-384
28.30833,-396
28.31667,-408
28.32500,-420
28.33333,-431
28.34167,-443
28.35000,-454
28.35833,-465
28.36667,-475
28.37500,-486
28.38333,-496
28.39167,-505
28.40000,-513
28.40833,-522
28.41667,-529
28.42500,-537
28.43333,-544
28.44167,-550
28.45000,-557
28.45833,-562
28.46667,-567
28.47500,-571
28.48333,-574
28.49167,-577
28.50000,-580
28.50833,-582
28.51667,-583
28.52500,-584
28.53333,-584
28.54167,-583
28.55000,-582
28.55833,-581
28.56667,-579
28.57500,-577
28.58333,-574
28.59167,-570
28.60000,-566
28.60833,-561
28.61667,-556
28.62500,-551
28.63333,-545
28.64167,-539
28.65000,-533
28.65833,-526
28.66667,-519
28.67500,-511
28.68333,-504
28.69167,-496
28.70000,-488
28.70833,-480
28.71667,-472
28.72500,-464
28.73333,-456
28.74167,-448
28.75000,-439
28.75833,-430
28.76667,-422
28.77500,-413
28.78333,-405
28.79167,-396
28.80000,-388
28.80833,-380
28.81667,-372
28.82500,-364
28.83333,-356
28.84167,-349
28.85000,-341
28.85833,-334
28.86667,-327
28.87500,-320
28.88333,-313
28.89167,-307
28.90000,-300
28.90833,-294
28.91667,-288
28.92500,-282
28.93333,-276
28.94167,-271
28.95000,-266
28.95833,-260
28.96667,-255
28.97500,-250
28.98333,-245
28.99167,-241
29.00000,-237
29.00833,-232
29.01667,-229
29.02500,-225
29.03333,-221
29.04167,-217
29.05000,-214
29.05833,-210
29.06667,-207
29.07500,-205
29.08333,-202
29.09167,-200
29.10000,-197
29.10833,-195
29.11667,-193
29.12500,-190
29.13333,-188
29.14167,-186
29.15000,-183
29.15833,-181
29.16667,-179
29.17500,-177
29.18333,-175
29.19167,-174
29.20000,-172
29.20833,-171
29.21667,-169
29.22500,-168
29.23333,-167
29.24167,-165
29.25000,-164
29.25833,-163
29.26667,-162
29.27500,-161
29.28333,-160
29.29167,-160
29.30000,-159
29.30833,-158
29.31667,-157
29.32500,-156
29.33333,-155
29.34167,-154
29.35000,-153
29.35833,-152
29.36667,-151
29.37500,-151
29.38333,-150
29.39167,-149
29.40000,-149
29.40833,-149
29.41667,-148
29.42500,-147
29.43333,-146
29.44167,-146
29.45000,-145
29.45833,-144
29.46667,-144
29.47500,-143
29.48333,-143
29.49167,-143
29.50000,-142
29.50833,-142
29.51667,-142
29.52500,-141
29.53333,-141
29.54167,-141
29.55000,-141
29.55833,-141
29.56667,-141
29.57500,-141
29.58333,-141
29.59167,-141
29.60000,-141
29.60833,-141
29.61667,-142
29.62500,-142
29.63333,-143
29.64167,-143
29.65000,-144
29.65833,-144
29.66667,-145
29.67500,-145
29.68333,-146
29.69167,-146
29.70000,-147
29.70833,-147
29.71667,-148
29.72500,-149
29.73333,-150
29.74167,-151
29.75000,-152
29.75833,-154
29.76667,-155
29.77500,-157
29.78333,-159
29.79167,-160
29.80000,-162
29.80833,-164
29.81667,-165
29.82500,-167
29.83333,-169
29.84167,-171
29.85000,-173
29.85833,-175
29.86667,-178
29.87500,-181
29.88333,-183
29.89167,-186
29.90000,-188
29.90833,-191
29.91667,-194
29.92500,-197
29.93333,-200
29.94167,-204
29.95000,-207
29.95833,-210
29.96667,-213
29.97500,-216
29.98333,-219
29.99167,-222
30.00000,-225
30.00833,-228
30.01667,-231
30.02500,-234
30.03333,-237
30.04167,-240
30.05000,-243
30.05833,-247
30.06667,-250
30.07500,-253
30.08333,-256
30.09167,-259
30.10000,-262
30.10833,-264
30.11667,-267
30.12500,-269
30.13333,-271
30.14167,-274
30.15000,-276
30.15833,-278
30.16667,-280
30.17500,-281
30.18333,-283
30.19167,-284
30.20000,-286
30.20833,-287
30.21667,-288
30.22500,-289
30.23333,-290
30.24167,-290
30.25000,-291
30.25833,-291
30.26667,-290
30.27500,-290
30.28333,-289
30.29167,-289
30.30000,-288
30.30833,-288
30.31667,-287
30.32500,-286
30.33333,-285
30.34167,-284
30.35000,-282
30.35833,-281
30.36667,-279
30.37500,-278
30.38333,-276
30.39167,-274
30.40000,-272
30.40833,-269
30.41667,-267
30.42500,-264
30.43333,-261
30.44167,-258
30.45000,-256
30.45833,-253
30.46667,-250
30.47500,-247
30.48333,-244
30.49167,-241
30.50000,-238
30.50833,-235
30.51667,-233
30.52500,-230
30.53333,-227
30.54167,-223
30.55000,-221
30.55833,-218
30.56667,-214
30.57500,-212
30.58333,-209
30.59167,-206
30.60000,-204
30.60833,-201
30.61667,-198
30.62500,-195
30.63333,-192
30.64167,-189
30.65000,-187
30.65833,-184
30.66667,-182
30.67500,-180
30.68333,-178
30.69167,-176
30.70000,-174
30.70833,-172
30.71667,-170
30.72500,-168
30.73333,-166
30.74167,-164
30.75000,-162
30.75833,-160
30.76667,-158
30.77500,-156
30.78333,-154
30.79167,-152
30.80000,-151
30.80833,-150
30.81667,-148
30.82500,-147
30.83333,-146
30.84167,-144
30.85000,-143
30.85833,-142
30.86667,-141
30.87500,-140
30.88333,-139
30.89167,-138
30.90000,-137
30.90833,-136
30.91667,-135
30.92500,-134
30.93333,-133
30.94167,-132
30.95000,-132
30.95833,-131
30.96667,-131
30.97500,-130
30.98333,-129
30.99167,-128
31.00000,-127
31.00833,-126
31.01667,-126
31.02500,-125
31.03333,-124
31.04167,-124
31.05000,-123
31.05833,-122
31.06667,-121
31.07500,-120
31.08333,-120
31.09167,-119
31.10000,-118
31.10833,-117
31.11667,-117
31.12500,-116
31.13333,-116
31.14167,-115
31.15000,-114
31.15833,-113
31.16667,-113
31.17500,-112
31.18333,-111
31.19167,-111
31.20000,-110
31.20833,-110
31.21667,-109
31.22500,-108
31.23333,-108
31.24167,-107
31.25000,-106
31.25833,-105
31.26667,-104
31.27500,-103
31.28333,-102
31.29167,-100
31.30000,-99
31.30833,-98
31.31667,-97
31.32500,-96
31.33333,-94
31.34167,-93
31.35000,-92
31.35833,-91
31.36667,-91
31.37500,-90
31.38333,-90
31.39167,-89
31.40000,-88
31.40833,-87
31.41667,-86
31.42500,-85
31.43333,-84
31.44167,-83
31.45000,-82
31.45833,-81
31.46667,-80
31.47500,-80
31.48333,-78
31.49167,-77
31.50000,-76
31.50833,-75
31.51667,-73
31.52500,-72
31.53333,-72
31.54167,-71
31.55000,-71
31.55833,-70
31.56667,-69
31.57500,-68
31.58333,-67
31.59167,-66
31.60000,-65
31.60833,-65
31.61667,-64
31.62500,-63
31.63333,-62
31.64167,-62
31.65000,-61
31.65833,-60
31.66667,-60
31.67500,-59
31.68333,-58
31.69167,-57
31.70000,-56
31.70833,-56
31.71667,-55
31.72500,-55
31.73333,-55
31.74167,-54
31.75000,-54
31.75833,-53
31.76667,-52
31.77500,-51
31.78333,-50
31.79167,-50
31.80000,-49
31.80833,-49
31.81667,-49
31.82500,-48
31.83333,-47
31.84167,-47
31.85000,-46
31.85833,-46
31.86667,-45
31.87500,-45
31.88333,-45
31.89167,-45
31.90000,-44
31.90833,-44
31.91667,-44
31.92500,-44
31.93333,-43
31.94167,-43
31.95000,-43
31.95833,-42
31.96667,-42
31.97500,-41
31.98333,-41
31.99167,-41
32.00000,-41
32.00833,-41
32.01667,-41
32.02500,-40
32.03333,-40
32.04167,-39
32.05000,-39
32.05833,-38
32.06667,-38
32.07500,-37
32.08333,-37
32.09167,-37
32.10000,-36
32.10833,-37
32.11667,-37
32.12500,-37
32.13333,-36
32.14167,-36
32.15000,-36
32.15833,-35
32.16667,-35
32.17500,-35
32.18333,-35
32.19167,-34
32.20000,-34
32.20833,-34
32.21667,-33
32.22500,-33
32.23333,-33
32.24167,-33
32.25000,-33
32.25833,-33
32.26667,-33
32.27500,-32
32.28333,-31
32.29167,-31
32.30000,-31
32.30833,-31
32.31667,-31
32.32500,-31
32.33333,-30
32.34167,-30
32.35000,-30
32.35833,-30
32.36667,-29
32.37500,-29
32.38333,-29
32.39167,-29
32.40000,-28
32.40833,-28
32.41667,-28
32.42500,-28
32.43333,-28
32.44167,-27
32.45000,-27
32.45833,-27
32.46667,-27
32.47500,-27
32.48333,-26
32.49167,-26
32.50000,-26
32.50833,-25
32.51667,-25
32.52500,-25
32.53333,-25
32.54167,-25
32.55000,-25
32.55833,-24
32.56667,-24
32.57500,-23
32.58333,-23
32.59167,-23
32.60000,-23
32.60833,-23
32.61667,-23
32.62500,-22
32.63333,-22
32.64167,-22
32.65000,-22
32.65833,-21
32.66667,-21
32.67500,-21
32.68333,-21
32.69167,-20
32.70000,-20
32.70833,-20
32.71667,-20
32.72500,-20
32.73333,-19
32.74167,-19
32.75000,-19
32.75833,-19
32.76667,-19
32.77500,-19
32.78333,-19
32.79167,-19
32.80000,-19
32.80833,-18
32.81667,-18
32.82500,-18
32.83333,-18
32.84167,-17
32.85000,-17
32.85833,-18
32.86667,-17
32.87500,-17
32.88333,-17
32.89167,-17
32.90000,-17
32.90833,-18
32.91667,-18
32.92500,-18
32.93333,-18
32.94167,-18
32.95000,-18
32.95833,-18
32.96667,-18
32.97500,-17
32.98333,-17
32.99167,-17
33.00000,-17
33.00833,-17
33.01667,-17
33.02500,-17
33.03333,-16
33.04167,-16
33.05000,-16
33.05833,-16
33.06667,-15
33.07500,-15
33.08333,-15
33.09167,-15
33.10000,-15
33.10833,-15
33.11667,-16
33.12500,-15
33.13333,-15
33.14167,-15
33.15000,-15
33.15833,-15
33.16667,-16
33.17500,-16
33.18333,-15
33.19167,-15
33.20000,-15
33.20833,-15
33.21667,-15
33.22500,-15
33.23333,-15
33.24167,-15
33.25000,-15
33.25833,-15
33.26667,-15
33.27500,-15
33.28333,-15
33.29167,-15
33.30000,-16
33.30833,-16
33.31667,-15
33.32500,-15
33.33333,-15
33.34167,-15
33.35000,-15
33.35833,-15
33.36667,-15
33.37500,-15
33.38333,-16
33.39167,-16
33.40000,-16
33.40833,-15
33.41667,-15
33.42500,-15
33.43333,-15
33.44167,-15
33.45000,-16
33.45833,-16
33.46667,-16
33.47500,-16
33.48333,-15
33.49167,-15
33.50000,-15
33.50833,-14
33.51667,-14
33.52500,-14
33.53333,-14
33.54167,-14
33.55000,-14
33.55833,-15
33.56667,-15
33.57500,-15
33.58333,-15
33.59167,-15
33.60000,-15
33.60833,-15
33.61667,-15
33.62500,-15
33.63333,-14
33.64167,-14
33.65000,-14
33.65833,-14
33.66667,-14
33.67500,-15
33.68333,-15
33.69167,-15
33.70000,-14
33.70833,-14
33.71667,-14
33.72500,-14
33.73333,-14
33.74167,-14
33.75000,-14
33.75833,-13
33.76667,-14
33.77500,-14
33.78333,-14
33.79167,-14
33.80000,-14
33.80833,-14
33.81667,-13
33.82500,-13
33.83333,-13
33.84167,-13
33.85000,-14
33.85833,-14
33.86667,-14
33.87500,-14
33.88333,-14
33.89167,-14
33.90000,-14
33.90833,-14
33.91667,-14
33.92500,-14
33.93333,-13
33.94167,-14
33.95000,-14
33.95833,-14
33.96667,-14
33.97500,-13
33.98333,-13
33.99167,-13
34.00000,-13
34.00833,-13
34.01667,-13
34.02500,-13
34.03333,-13
34.04167,-13
34.05000,-13
34.05833,-12
34.06667,-12
34.07500,-12
34.08333,-12
34.09167,-12
34.10000,-12
34.10833,-12
34.11667,-12
34.12500,-12
34.13333,-12
34.14167,-12
34.15000,-13
34.15833,-13
34.16667,-12
34.17500,-12
34.18333,-12
34.19167,-12
34.20000,-12
34.20833,-12
34.21667,-12
34.22500,-12
34.23333,-13
34.24167,-13
34.25000,-13
34.25833,-13
34.26667,-13
34.27500,-13
34.28333,-13
34.29167,-13
34.30000,-13
34.30833,-13
34.31667,-13
34.32500,-13
34.33333,-12
34.34167,-12
34.35000,-12
34.35833,-12
34.36667,-13
34.37500,-13
34.38333,-13
34.39167,-13
34.40000,-13
34.40833,-13
34.41667,-12
34.42500,-12
34.43333,-11
34.44167,-12
34.45000,-12
34.45833,-12
34.46667,-12
34.47500,-13
34.48333,-13
34.49167,-13
34.50000,-13
34.50833,-13
34.51667,-13
34.52500,-13
34.53333,-13
34.54167,-13
34.55000,-13
34.55833,-13
34.56667,-13
34.57500,-13
34.58333,-12
34.59167,-12
34.60000,-12
34.60833,-12
34.61667,-12
34.62500,-12
34.63333,-12
34.64167,-12
34.65000,-13
34.65833,-13
34.66667,-12
34.67500,-12
34.68333,-12
34.69167,-12
34.70000,-11
34.70833,-11
34.71667,-11
34.72500,-12
34.73333,-12
34.74167,-12
34.75000,-13
34.75833,-13
34.76667,-13
34.77500,-13
34.78333,-13
34.79167,-13
34.80000,-13
34.80833,-13
34.81667,-13
34.82500,-13
34.83333,-13
34.84167,-13
34.85000,-13
34.85833,-13
34.86667,-13
34.87500,-13
34.88333,-13
34.89167,-13
34.90000,-13
34.90833,-13
34.91667,-13
34.92500,-14
34.93333,-14
34.94167,-13
34.95000,-13
34.95833,-13
34.96667,-13
34.97500,-13
34.98333,-13
34.99167,-14
35.00000,-14
35.00833,-14
35.01667,-14
35.02500,-14
35.03333,-14
35.04167,-13
35.05000,-13
35.05833,-13
35.06667,-13
35.07500,-13
35.08333,-13
35.09167,-13
35.10000,-13
35.10833,-13
35.11667,-13
35.12500,-13
35.13333,-13
35.14167,-13
35.15000,-14
35.15833,-14
35.16667,-13
35.17500,-14
35.18333,-14
35.19167,-14
35.20000,-14
35.20833,-14
35.21667,-14
35.22500,-13
35.23333,-13
35.24167,-13
35.25000,-13
35.25833,-13
35.26667,-13
35.27500,-13
35.28333,-13
35.29167,-13
35.30000,-14
35.30833,-14
35.31667,-14
35.32500,-13
35.33333,-14
35.34167,-14
35.35000,-13
35.35833,-13
35.36667,-13
35.37500,-13
35.38333,-13
35.39167,-13
35.40000,-13
35.40833,-13
35.41667,-13
35.42500,-14
35.43333,-14
35.44167,-14
35.45000,-14
35.45833,-14
35.46667,-14
35.47500,-13
35.48333,-13
35.49167,-14
35.50000,-14
35.50833,-14
35.51667,-14
35.52500,-14
35.53333,-14
35.54167,-13
35.55000,-13
35.55833,-13
35.56667,-13
35.57500,-14
35.58333,-14
35.59167,-13
35.60000,-13
35.60833,-13
35.61667,-13
35.62500,-13
35.63333,-14
35.64167,-14
35.65000,-14
35.65833,-14
35.66667,-14
35.67500,-14
35.68333,-14
35.69167,-14
35.70000,-14
35.70833,-14
35.71667,-14
35.72500,-14
35.73333,-14
35.74167,-14
35.75000,-14
35.75833,-13
35.76667,-13
35.77500,-13
35.78333,-13
35.79167,-14
35.80000,-14
35.80833,-14
35.81667,-14
35.82500,-14
35.83333,-14
35.84167,-13
35.85000,-13
35.85833,-13
35.86667,-13
35.87500,-13
35.88333,-13
35.89167,-13
35.90000,-14
35.90833,-14
35.91667,-14
35.92500,-15
35.93333,-15
35.94167,-15
35.95000,-15
35.95833,-15
35.96667,-15
35.97500,-15
35.98333,-14
35.99167,-14
36.00000,-14
36.00833,-14
36.01667,-14
36.02500,-13
36.03333,-13
36.04167,-14
36.05000,-14
36.05833,-14
36.06667,-14
36.07500,-14
36.08333,-14
36.09167,-14
36.10000,-13
36.10833,-13
36.11667,-14
36.12500,-14
36.13333,-14
36.14167,-14
36.15000,-14
36.15833,-13
36.16667,-13
36.17500,-13
36.18333,-13
36.19167,-13
36.20000,-13
36.20833,-14
36.21667,-14
36.22500,-14
36.23333,-14
36.24167,-14
36.25000,-14
36.25833,-14
36.26667,-14
36.27500,-14
36.28333,-14
36.29167,-14
36.30000,-14
36.30833,-14
36.31667,-14
36.32500,-14
36.33333,-14
36.34167,-14
36.35000,-14
36.35833,-14
36.36667,-14
36.37500,-14
36.38333,-14
36.39167,-14
36.40000,-14
36.40833,-14
36.41667,-14
36.42500,-14
36.43333,-14
36.44167,-14
36.45000,-14
36.45833,-14
36.46667,-14
36.47500,-14
36.48333,-14
36.49167,-14
36.50000,-14
36.50833,-14
36.51667,-14
36.52500,-13
36.53333,-13
36.54167,-13
36.55000,-12
36.55833,-12
36.56667,-11
36.57500,-12
36.58333,-12
36.59167,-12
36.60000,-12
36.60833,-12
36.61667,-12
36.62500,-12
36.63333,-12
36.64167,-12
36.65000,-12
36.65833,-13
36.66667,-12
36.67500,-12
36.68333,-11
36.69167,-11
36.70000,-11
36.70833,-11
36.71667,-10
36.72500,-10
36.73333,-10
36.74167,-10
36.75000,-10
36.75833,-10
36.76667,-10
36.77500,-10
36.78333,-10
36.79167,-10
36.80000,-9
36.80833,-9
36.81667,-9
36.82500,-9
36.83333,-8
36.84167,-8
36.85000,-8
36.85833,-8
36.86667,-8
36.87500,-7
36.88333,-7
36.89167,-7
36.90000,-7
36.90833,-7
36.91667,-6
36.92500,-6
36.93333,-6
36.94167,-6
36.95000,-6
36.95833,-6
36.96667,-6
36.97500,-6
36.98333,-6
36.99167,-6
37.00000,-5
37.00833,-5
37.01667,-5
37.02500,-5
37.03333,-4
37.04167,-4
37.05000,-4
37.05833,-4
37.06667,-4
37.07500,-4
37.08333,-4
37.09167,-4
37.10000,-4
37.10833,-4
37.11667,-4
37.12500,-4
37.13333,-4
37.14167,-4
37.15000,-4
37.15833,-4
37.16667,-4
37.17500,-4
37.18333,-4
37.19167,-4
37.20000,-4
37.20833,-4
37.21667,-4
37.22500,-5
37.23333,-5
37.24167,-5
37.25000,-5
37.25833,-5
37.26667,-5
37.27500,-5
37.28333,-5
37.29167,-5
37.30000,-5
37.30833,-5
37.31667,-5
37.32500,-5
37.33333,-5
37.34167,-5
37.35000,-5
37.35833,-6
37.36667,-6
37.37500,-6
37.38333,-6
37.39167,-6
37.40000,-6
37.40833,-7
37.41667,-7
37.42500,-7
37.43333,-7
37.44167,-7
37.45000,-7
37.45833,-7
37.46667,-7
37.47500,-7
37.48333,-7
37.49167,-7
37.50000,-7
37.50833,-7
37.51667,-8
37.52500,-8
37.53333,-8
37.54167,-9
37.55000,-9
37.55833,-10
37.56667,-10
37.57500,-10
37.58333,-11
37.59167,-11
37.60000,-11
37.60833,-11
37.61667,-11
37.62500,-11
37.63333,-11
37.64167,-11
37.65000,-12
37.65833,-12
37.66667,-12
37.67500,-12
37.68333,-12
37.69167,-12
37.70000,-12
37.70833,-12
37.71667,-12
37.72500,-12
37.73333,-12
37.74167,-11
37.75000,-11
37.75833,-11
37.76667,-11
37.77500,-12
37.78333,-12
37.79167,-12
37.80000,-13
37.80833,-13
37.81667,-13
37.82500,-13
37.83333,-13
37.84167,-13
37.85000,-13
37.85833,-13
37.86667,-13
37.87500,-13
37.88333,-13
37.89167,-13
37.90000,-13
37.90833,-13
37.91667,-13
37.92500,-13
37.93333,-13
37.94167,-14
37.95000,-14
37.95833,-14
37.96667,-15
37.97500,-15
37.98333,-15
37.99167,-15
38.00000,-15
38.00833,-15
38.01667,-15
38.02500,-15
38.03333,-15
38.04167,-15
38.05000,-15
38.05833,-15
38.06667,-15
38.07500,-15
38.08333,-15
38.09167,-15
38.10000,-15
38.10833,-15
38.11667,-15
38.12500,-15
38.13333,-15
38.14167,-15
38.15000,-15
38.15833,-15
38.16667,-15
38.17500,-15
38.18333,-16
38.19167,-16
38.20000,-16
38.20833,-17
38.21667,-17
38.22500,-17
38.23333,-17
38.24167,-17
38.25000,-17
38.25833,-16
38.26667,-16
38.27500,-16
38.28333,-16
38.29167,-16
38.30000,-16
38.30833,-16
38.31667,-15
38.32500,-15
38.33333,-15
38.34167,-15
38.35000,-16
38.35833,-16
38.36667,-16
38.37500,-16
38.38333,-16
38.39167,-16
38.40000,-16
38.40833,-16
38.41667,-16
38.42500,-16
38.43333,-16
38.44167,-16
38.45000,-16
38.45833,-16
38.46667,-16
38.47500,-16
38.48333,-16
38.49167,-16
38.50000,-16
38.50833,-16
38.51667,-16
38.52500,-16
38.53333,-17
38.54167,-17
38.55000,-17
38.55833,-17
38.56667,-17
38.57500,-16
38.58333,-16
38.59167,-16
38.60000,-17
38.60833,-17
38.61667,-17
38.62500,-17
38.63333,-17
38.64167,-17
38.65000,-17
38.65833,-16
38.66667,-16
38.67500,-16
38.68333,-16
38.69167,-16
38.70000,-16
38.70833,-16
38.71667,-16
38.72500,-16
38.73333,-16
38.74167,-16
38.75000,-16
38.75833,-16
38.76667,-16
38.77500,-16
38.78333,-16
38.79167,-16
38.80000,-17
38.80833,-17
38.81667,-17
38.82500,-17
38.83333,-17
38.84167,-17
38.85000,-17
38.85833,-16
38.86667,-16
38.87500,-16
38.88333,-17
38.89167,-17
38.90000,-17
38.90833,-17
38.91667,-17
38.92500,-17
38.93333,-16
38.94167,-16
38.95000,-16
38.95833,-17
38.96667,-17
38.97500,-17
38.98333,-17
38.99167,-17
39.00000,-17
39.00833,-17
39.01667,-17
39.02500,-17
39.03333,-17
39.04167,-17
39.05000,-17
39.05833,-17
39.06667,-17
39.07500,-17
39.08333,-16
39.09167,-16
39.10000,-17
39.10833,-17
39.11667,-17
39.12500,-17
39.13333,-17
39.14167,-17
39.15000,-17
39.15833,-17
39.16667,-17
39.17500,-17
39.18333,-17
39.19167,-18
39.20000,-18
39.20833,-18
39.21667,-18
39.22500,-18
39.23333,-18
39.24167,-18
39.25000,-19
39.25833,-18
39.26667,-18
39.27500,-18
39.28333,-17
39.29167,-17
39.30000,-17
39.30833,-17
39.31667,-17
39.32500,-17
39.33333,-17
39.34167,-17
39.35000,-17
39.35833,-17
39.36667,-17
39.37500,-18
39.38333,-18
39.39167,-18
39.40000,-18
39.40833,-18
39.41667,-17
39.42500,-17
39.43333,-17
39.44167,-17
39.45000,-17
39.45833,-17
39.46667,-17
39.47500,-17
39.48333,-17
39.49167,-18
39.50000,-18
39.50833,-18
39.51667,-18
39.52500,-18
39.53333,-18
39.54167,-18
39.55000,-18
39.55833,-18
39.56667,-18
39.57500,-18
39.58333,-18
39.59167,-18
39.60000,-18
39.60833,-18
39.61667,-18
39.62500,-19
39.63333,-19
39.64167,-19
39.65000,-18
39.65833,-18
39.66667,-18
39.67500,-18
39.68333,-18
39.69167,-18
39.70000,-18
39.70833,-18
39.71667,-18
39.72500,-18
39.73333,-17
39.74167,-18
39.75000,-18
39.75833,-17
39.76667,-17
39.77500,-17
39.78333,-17
39.79167,-18
39.80000,-18
39.80833,-18
39.81667,-18
39.82500,-19
39.83333,-18
39.84167,-18
39.85000,-18
39.85833,-18
39.86667,-18
39.87500,-18
39.88333,-18
39.89167,-18
39.90000,-18
39.90833,-18
39.91667,-18
39.92500,-18
39.93333,-18
39.94167,-18
39.95000,-18
39.95833,-19
39.96667,-19
39.97500,-19
39.98333,-19
39.99167,-19
40.00000,-19

