[Header]
Application Name,LabSolutions
Version,5.97 SP1
Data File Name,C:\Users\cremerlab\Desktop\griffin\2021-03-31_NCM3722_NCglucose_turnover\2021-03-31_NCM3722_turnover_batch_3312021_009_037.lcd
Output Date,4/1/2021
Output Time,10:08:04 PM

[File Information]
Type,Data File
Generated,4/1/2021 9:27:42 PM
Generated by,System Administrator
Modified,4/1/2021 10:08:04 PM
Modified by,System Administrator

[Sample Information]
Operator Name,System Administrator
Acquired,4/1/2021 9:28:03 PM
Sample Type,1:Standard
Level,9
Sample Name,2021-03-31_glucose_glycerol_acetate_calibration_01mM
Sample ID,009
ISTD Amount1,1
ISTD Amount2,1
ISTD Amount3,1
ISTD Amount4,1
ISTD Amount5,1
ISTD Amount6,1
ISTD Amount7,1
ISTD Amount8,1
ISTD Amount9,1
ISTD Amount10,1
ISTD Amount11,1
ISTD Amount12,1
ISTD Amount13,1
ISTD Amount14,1
ISTD Amount15,1
ISTD Amount16,1
ISTD Amount17,1
ISTD Amount18,1
ISTD Amount19,1
ISTD Amount20,1
ISTD Amount21,1
ISTD Amount22,1
ISTD Amount23,1
ISTD Amount24,1
ISTD Amount25,1
ISTD Amount26,1
ISTD Amount27,1
ISTD Amount28,1
ISTD Amount29,1
ISTD Amount30,1
ISTD Amount31,1
ISTD Amount32,1
Sample Amount,1
Dilution Factor,1
Vial#,9
Injection Volume,20

[Original Files]
Data File,C:\Users\cremerlab\Desktop\griffin\2021-03-31_NCM3722_NCglucose_turnover\2021-03-31_NCM3722_turnover_batch_3312021_009_037.lcd
Method File,C:\LabSolutions\Data\Project1\organicacidsetc2.lcm
Batch File,C:\Users\cremerlab\Desktop\griffin\2021-03-31_NCM3722_NCglucose_turnover\2021-03-31_NCM3722_turnover_batch.lcb
Report Format File,c:\LabSolutions\System\DEFAULT.lsr

[File Description]


[Configuration]
Instrument Name,HPLC-PC-Instrument1
Instrument #,1
Line #,1
# of Detectors,2
Detector ID,Detector A,Detector B
Detector Name,Detector A,Detector B
# of Channels,1,1

[Peak Table(Detector A)]
# of Peaks,0

[Peak Table(Detector B)]
# of Peaks,3
Peak#,R.Time,I.Time,F.Time,Area,Height,A/H,Conc.,Mark,ID#,Name,k',Plate #,Plate Ht.,Tailing,Resolution,Sep.Factor,Area Ratio,Height Ratio,Conc. %,Norm Conc.
1,15.647,15.025,16.517,94857,3941,24.068,70.812,   ,,,0.000,9727,15.421,1.145,0.000,0.000,0,0,0.000,0.000
2,22.075,21.542,22.792,27756,1044,26.588,20.720,   ,,,0.411,15547,9.648,1.089,9.575,0.000,0,0,0.000,0.000
3,25.068,24.550,25.717,11344,400,28.358,8.468,   ,,,0.602,17127,8.758,1.070,4.059,1.465,0,0,0.000,0.000

[LC Chromatogram(Detector B-Ch1)]
Interval(msec),500
# of Points,4801
Start Time(min),0.000
End Time(min),40.000
Intensity Units,mV
Intensity Multiplier,0.001
R.Time (min),Intensity
0.00000,1
0.00833,1
0.01667,0
0.02500,0
0.03333,0
0.04167,1
0.05000,1
0.05833,1
0.06667,1
0.07500,0
0.08333,0
0.09167,0
0.10000,1
0.10833,1
0.11667,1
0.12500,1
0.13333,1
0.14167,2
0.15000,2
0.15833,2
0.16667,1
0.17500,1
0.18333,1
0.19167,1
0.20000,0
0.20833,0
0.21667,0
0.22500,0
0.23333,0
0.24167,0
0.25000,0
0.25833,0
0.26667,0
0.27500,1
0.28333,1
0.29167,1
0.30000,1
0.30833,1
0.31667,1
0.32500,1
0.33333,1
0.34167,0
0.35000,0
0.35833,0
0.36667,0
0.37500,1
0.38333,1
0.39167,1
0.40000,1
0.40833,1
0.41667,1
0.42500,0
0.43333,0
0.44167,-0
0.45000,-1
0.45833,-1
0.46667,-0
0.47500,0
0.48333,1
0.49167,1
0.50000,1
0.50833,1
0.51667,1
0.52500,1
0.53333,2
0.54167,2
0.55000,2
0.55833,2
0.56667,2
0.57500,2
0.58333,2
0.59167,3
0.60000,3
0.60833,3
0.61667,3
0.62500,2
0.63333,2
0.64167,2
0.65000,1
0.65833,1
0.66667,1
0.67500,1
0.68333,0
0.69167,-0
0.70000,-1
0.70833,-1
0.71667,-0
0.72500,-0
0.73333,-0
0.74167,0
0.75000,0
0.75833,1
0.76667,1
0.77500,1
0.78333,1
0.79167,1
0.80000,1
0.80833,1
0.81667,1
0.82500,1
0.83333,1
0.84167,1
0.85000,1
0.85833,1
0.86667,0
0.87500,1
0.88333,1
0.89167,1
0.90000,1
0.90833,1
0.91667,1
0.92500,0
0.93333,0
0.94167,0
0.95000,0
0.95833,0
0.96667,0
0.97500,1
0.98333,1
0.99167,1
1.00000,1
1.00833,1
1.01667,1
1.02500,1
1.03333,1
1.04167,1
1.05000,1
1.05833,1
1.06667,1
1.07500,2
1.08333,2
1.09167,2
1.10000,2
1.10833,2
1.11667,2
1.12500,2
1.13333,1
1.14167,1
1.15000,1
1.15833,1
1.16667,1
1.17500,1
1.18333,1
1.19167,1
1.20000,1
1.20833,1
1.21667,1
1.22500,1
1.23333,1
1.24167,1
1.25000,1
1.25833,2
1.26667,2
1.27500,2
1.28333,2
1.29167,3
1.30000,3
1.30833,3
1.31667,3
1.32500,3
1.33333,2
1.34167,2
1.35000,2
1.35833,2
1.36667,2
1.37500,1
1.38333,1
1.39167,1
1.40000,1
1.40833,1
1.41667,1
1.42500,1
1.43333,0
1.44167,0
1.45000,1
1.45833,2
1.46667,2
1.47500,3
1.48333,2
1.49167,2
1.50000,2
1.50833,2
1.51667,2
1.52500,2
1.53333,2
1.54167,2
1.55000,2
1.55833,2
1.56667,2
1.57500,3
1.58333,2
1.59167,2
1.60000,2
1.60833,2
1.61667,2
1.62500,2
1.63333,2
1.64167,2
1.65000,2
1.65833,2
1.66667,2
1.67500,1
1.68333,1
1.69167,1
1.70000,1
1.70833,1
1.71667,2
1.72500,2
1.73333,2
1.74167,2
1.75000,3
1.75833,3
1.76667,3
1.77500,3
1.78333,4
1.79167,4
1.80000,3
1.80833,3
1.81667,3
1.82500,3
1.83333,3
1.84167,3
1.85000,3
1.85833,3
1.86667,3
1.87500,2
1.88333,2
1.89167,2
1.90000,2
1.90833,2
1.91667,3
1.92500,3
1.93333,3
1.94167,3
1.95000,3
1.95833,3
1.96667,3
1.97500,3
1.98333,3
1.99167,4
2.00000,4
2.00833,4
2.01667,4
2.02500,4
2.03333,4
2.04167,4
2.05000,4
2.05833,4
2.06667,4
2.07500,4
2.08333,4
2.09167,4
2.10000,4
2.10833,4
2.11667,3
2.12500,3
2.13333,3
2.14167,3
2.15000,3
2.15833,3
2.16667,3
2.17500,3
2.18333,4
2.19167,4
2.20000,4
2.20833,4
2.21667,4
2.22500,4
2.23333,4
2.24167,4
2.25000,4
2.25833,5
2.26667,5
2.27500,5
2.28333,5
2.29167,5
2.30000,5
2.30833,5
2.31667,5
2.32500,5
2.33333,5
2.34167,5
2.35000,4
2.35833,4
2.36667,3
2.37500,3
2.38333,3
2.39167,3
2.40000,4
2.40833,4
2.41667,4
2.42500,4
2.43333,4
2.44167,4
2.45000,4
2.45833,4
2.46667,4
2.47500,4
2.48333,4
2.49167,4
2.50000,4
2.50833,4
2.51667,4
2.52500,4
2.53333,4
2.54167,4
2.55000,5
2.55833,4
2.56667,4
2.57500,4
2.58333,4
2.59167,4
2.60000,4
2.60833,4
2.61667,3
2.62500,3
2.63333,3
2.64167,3
2.65000,3
2.65833,3
2.66667,3
2.67500,3
2.68333,3
2.69167,3
2.70000,4
2.70833,4
2.71667,4
2.72500,5
2.73333,5
2.74167,5
2.75000,5
2.75833,5
2.76667,5
2.77500,5
2.78333,5
2.79167,5
2.80000,5
2.80833,5
2.81667,5
2.82500,5
2.83333,5
2.84167,5
2.85000,5
2.85833,5
2.86667,5
2.87500,5
2.88333,5
2.89167,4
2.90000,4
2.90833,4
2.91667,4
2.92500,4
2.93333,4
2.94167,4
2.95000,4
2.95833,4
2.96667,4
2.97500,4
2.98333,4
2.99167,5
3.00000,5
3.00833,5
3.01667,5
3.02500,5
3.03333,5
3.04167,5
3.05000,5
3.05833,5
3.06667,5
3.07500,5
3.08333,5
3.09167,5
3.10000,5
3.10833,5
3.11667,5
3.12500,5
3.13333,4
3.14167,4
3.15000,4
3.15833,4
3.16667,3
3.17500,3
3.18333,3
3.19167,3
3.20000,3
3.20833,3
3.21667,4
3.22500,4
3.23333,4
3.24167,4
3.25000,5
3.25833,5
3.26667,5
3.27500,5
3.28333,5
3.29167,5
3.30000,4
3.30833,4
3.31667,4
3.32500,4
3.33333,5
3.34167,5
3.35000,5
3.35833,5
3.36667,5
3.37500,5
3.38333,5
3.39167,5
3.40000,5
3.40833,4
3.41667,4
3.42500,4
3.43333,4
3.44167,4
3.45000,4
3.45833,4
3.46667,4
3.47500,4
3.48333,4
3.49167,4
3.50000,4
3.50833,4
3.51667,5
3.52500,5
3.53333,5
3.54167,5
3.55000,5
3.55833,5
3.56667,6
3.57500,6
3.58333,5
3.59167,5
3.60000,5
3.60833,5
3.61667,5
3.62500,5
3.63333,5
3.64167,5
3.65000,5
3.65833,5
3.66667,5
3.67500,5
3.68333,5
3.69167,5
3.70000,5
3.70833,5
3.71667,5
3.72500,5
3.73333,5
3.74167,5
3.75000,5
3.75833,6
3.76667,6
3.77500,5
3.78333,5
3.79167,5
3.80000,5
3.80833,5
3.81667,6
3.82500,6
3.83333,6
3.84167,6
3.85000,6
3.85833,6
3.86667,6
3.87500,6
3.88333,6
3.89167,5
3.90000,5
3.90833,5
3.91667,5
3.92500,5
3.93333,5
3.94167,5
3.95000,5
3.95833,5
3.96667,6
3.97500,6
3.98333,6
3.99167,6
4.00000,6
4.00833,6
4.01667,6
4.02500,6
4.03333,6
4.04167,6
4.05000,7
4.05833,7
4.06667,7
4.07500,7
4.08333,7
4.09167,7
4.10000,6
4.10833,6
4.11667,6
4.12500,6
4.13333,6
4.14167,6
4.15000,6
4.15833,6
4.16667,6
4.17500,6
4.18333,6
4.19167,6
4.20000,6
4.20833,6
4.21667,6
4.22500,6
4.23333,7
4.24167,7
4.25000,7
4.25833,7
4.26667,7
4.27500,7
4.28333,8
4.29167,8
4.30000,8
4.30833,8
4.31667,8
4.32500,8
4.33333,7
4.34167,7
4.35000,7
4.35833,7
4.36667,6
4.37500,6
4.38333,6
4.39167,6
4.40000,6
4.40833,7
4.41667,7
4.42500,6
4.43333,6
4.44167,5
4.45000,5
4.45833,5
4.46667,6
4.47500,6
4.48333,7
4.49167,7
4.50000,7
4.50833,7
4.51667,7
4.52500,7
4.53333,7
4.54167,7
4.55000,7
4.55833,7
4.56667,7
4.57500,7
4.58333,8
4.59167,8
4.60000,7
4.60833,7
4.61667,6
4.62500,6
4.63333,6
4.64167,6
4.65000,6
4.65833,7
4.66667,7
4.67500,6
4.68333,6
4.69167,6
4.70000,6
4.70833,6
4.71667,6
4.72500,6
4.73333,6
4.74167,7
4.75000,7
4.75833,7
4.76667,7
4.77500,7
4.78333,7
4.79167,7
4.80000,8
4.80833,8
4.81667,8
4.82500,7
4.83333,7
4.84167,7
4.85000,7
4.85833,7
4.86667,7
4.87500,7
4.88333,7
4.89167,7
4.90000,6
4.90833,6
4.91667,6
4.92500,7
4.93333,7
4.94167,7
4.95000,7
4.95833,7
4.96667,7
4.97500,7
4.98333,7
4.99167,7
5.00000,8
5.00833,8
5.01667,7
5.02500,7
5.03333,7
5.04167,7
5.05000,8
5.05833,8
5.06667,8
5.07500,8
5.08333,9
5.09167,8
5.10000,8
5.10833,8
5.11667,8
5.12500,8
5.13333,8
5.14167,7
5.15000,7
5.15833,7
5.16667,7
5.17500,7
5.18333,7
5.19167,7
5.20000,7
5.20833,7
5.21667,8
5.22500,8
5.23333,8
5.24167,8
5.25000,8
5.25833,8
5.26667,9
5.27500,9
5.28333,9
5.29167,9
5.30000,9
5.30833,9
5.31667,9
5.32500,9
5.33333,9
5.34167,9
5.35000,9
5.35833,9
5.36667,8
5.37500,8
5.38333,8
5.39167,8
5.40000,8
5.40833,8
5.41667,8
5.42500,8
5.43333,8
5.44167,7
5.45000,7
5.45833,7
5.46667,7
5.47500,7
5.48333,7
5.49167,7
5.50000,7
5.50833,7
5.51667,8
5.52500,8
5.53333,8
5.54167,8
5.55000,8
5.55833,8
5.56667,8
5.57500,8
5.58333,8
5.59167,9
5.60000,9
5.60833,9
5.61667,9
5.62500,9
5.63333,8
5.64167,8
5.65000,7
5.65833,7
5.66667,7
5.67500,7
5.68333,8
5.69167,7
5.70000,7
5.70833,8
5.71667,8
5.72500,8
5.73333,8
5.74167,8
5.75000,8
5.75833,8
5.76667,8
5.77500,8
5.78333,7
5.79167,7
5.80000,7
5.80833,7
5.81667,8
5.82500,8
5.83333,8
5.84167,8
5.85000,8
5.85833,8
5.86667,8
5.87500,8
5.88333,8
5.89167,8
5.90000,8
5.90833,8
5.91667,8
5.92500,8
5.93333,8
5.94167,8
5.95000,9
5.95833,9
5.96667,9
5.97500,9
5.98333,9
5.99167,9
6.00000,8
6.00833,9
6.01667,9
6.02500,8
6.03333,8
6.04167,8
6.05000,8
6.05833,8
6.06667,9
6.07500,9
6.08333,9
6.09167,9
6.10000,9
6.10833,8
6.11667,8
6.12500,8
6.13333,8
6.14167,8
6.15000,7
6.15833,8
6.16667,8
6.17500,8
6.18333,8
6.19167,8
6.20000,9
6.20833,9
6.21667,9
6.22500,8
6.23333,8
6.24167,8
6.25000,8
6.25833,8
6.26667,8
6.27500,8
6.28333,9
6.29167,9
6.30000,9
6.30833,9
6.31667,9
6.32500,9
6.33333,9
6.34167,9
6.35000,9
6.35833,9
6.36667,9
6.37500,9
6.38333,8
6.39167,8
6.40000,9
6.40833,9
6.41667,9
6.42500,9
6.43333,9
6.44167,9
6.45000,9
6.45833,9
6.46667,9
6.47500,9
6.48333,9
6.49167,9
6.50000,9
6.50833,9
6.51667,9
6.52500,10
6.53333,10
6.54167,11
6.55000,11
6.55833,11
6.56667,11
6.57500,10
6.58333,10
6.59167,10
6.60000,10
6.60833,9
6.61667,9
6.62500,9
6.63333,9
6.64167,9
6.65000,9
6.65833,10
6.66667,10
6.67500,10
6.68333,10
6.69167,9
6.70000,9
6.70833,9
6.71667,10
6.72500,9
6.73333,10
6.74167,10
6.75000,10
6.75833,10
6.76667,10
6.77500,10
6.78333,10
6.79167,10
6.80000,10
6.80833,11
6.81667,11
6.82500,11
6.83333,11
6.84167,11
6.85000,10
6.85833,10
6.86667,10
6.87500,10
6.88333,10
6.89167,10
6.90000,10
6.90833,10
6.91667,10
6.92500,10
6.93333,10
6.94167,10
6.95000,10
6.95833,10
6.96667,10
6.97500,10
6.98333,10
6.99167,11
7.00000,11
7.00833,11
7.01667,11
7.02500,11
7.03333,11
7.04167,11
7.05000,11
7.05833,11
7.06667,11
7.07500,11
7.08333,12
7.09167,12
7.10000,11
7.10833,11
7.11667,11
7.12500,11
7.13333,11
7.14167,10
7.15000,10
7.15833,11
7.16667,11
7.17500,10
7.18333,10
7.19167,10
7.20000,10
7.20833,10
7.21667,10
7.22500,10
7.23333,10
7.24167,11
7.25000,11
7.25833,11
7.26667,11
7.27500,10
7.28333,10
7.29167,11
7.30000,11
7.30833,11
7.31667,12
7.32500,12
7.33333,12
7.34167,12
7.35000,11
7.35833,11
7.36667,11
7.37500,11
7.38333,11
7.39167,11
7.40000,11
7.40833,11
7.41667,11
7.42500,11
7.43333,10
7.44167,11
7.45000,11
7.45833,10
7.46667,10
7.47500,11
7.48333,11
7.49167,11
7.50000,11
7.50833,12
7.51667,12
7.52500,12
7.53333,12
7.54167,12
7.55000,12
7.55833,12
7.56667,12
7.57500,12
7.58333,12
7.59167,12
7.60000,12
7.60833,12
7.61667,12
7.62500,12
7.63333,11
7.64167,11
7.65000,11
7.65833,12
7.66667,12
7.67500,11
7.68333,11
7.69167,11
7.70000,12
7.70833,12
7.71667,12
7.72500,12
7.73333,12
7.74167,12
7.75000,12
7.75833,12
7.76667,12
7.77500,13
7.78333,13
7.79167,13
7.80000,12
7.80833,12
7.81667,12
7.82500,12
7.83333,12
7.84167,12
7.85000,12
7.85833,12
7.86667,12
7.87500,11
7.88333,12
7.89167,12
7.90000,12
7.90833,12
7.91667,12
7.92500,11
7.93333,12
7.94167,12
7.95000,12
7.95833,13
7.96667,13
7.97500,13
7.98333,13
7.99167,12
8.00000,12
8.00833,13
8.01667,13
8.02500,13
8.03333,13
8.04167,13
8.05000,13
8.05833,13
8.06667,13
8.07500,13
8.08333,12
8.09167,12
8.10000,12
8.10833,12
8.11667,12
8.12500,12
8.13333,12
8.14167,12
8.15000,12
8.15833,12
8.16667,12
8.17500,12
8.18333,11
8.19167,11
8.20000,11
8.20833,11
8.21667,11
8.22500,11
8.23333,11
8.24167,11
8.25000,11
8.25833,11
8.26667,11
8.27500,12
8.28333,12
8.29167,12
8.30000,12
8.30833,13
8.31667,13
8.32500,13
8.33333,13
8.34167,13
8.35000,13
8.35833,13
8.36667,12
8.37500,12
8.38333,12
8.39167,12
8.40000,12
8.40833,12
8.41667,12
8.42500,12
8.43333,12
8.44167,12
8.45000,12
8.45833,12
8.46667,12
8.47500,13
8.48333,13
8.49167,13
8.50000,13
8.50833,13
8.51667,13
8.52500,13
8.53333,13
8.54167,13
8.55000,13
8.55833,13
8.56667,13
8.57500,13
8.58333,12
8.59167,12
8.60000,12
8.60833,12
8.61667,12
8.62500,12
8.63333,12
8.64167,12
8.65000,12
8.65833,12
8.66667,12
8.67500,12
8.68333,12
8.69167,12
8.70000,12
8.70833,12
8.71667,12
8.72500,12
8.73333,13
8.74167,13
8.75000,13
8.75833,13
8.76667,13
8.77500,12
8.78333,13
8.79167,13
8.80000,13
8.80833,13
8.81667,13
8.82500,13
8.83333,13
8.84167,13
8.85000,13
8.85833,13
8.86667,13
8.87500,13
8.88333,12
8.89167,12
8.90000,12
8.90833,12
8.91667,12
8.92500,12
8.93333,12
8.94167,12
8.95000,12
8.95833,12
8.96667,13
8.97500,13
8.98333,13
8.99167,13
9.00000,13
9.00833,13
9.01667,13
9.02500,13
9.03333,13
9.04167,13
9.05000,13
9.05833,13
9.06667,13
9.07500,13
9.08333,13
9.09167,13
9.10000,13
9.10833,13
9.11667,13
9.12500,13
9.13333,12
9.14167,12
9.15000,13
9.15833,13
9.16667,13
9.17500,13
9.18333,13
9.19167,13
9.20000,13
9.20833,13
9.21667,13
9.22500,13
9.23333,13
9.24167,13
9.25000,13
9.25833,13
9.26667,13
9.27500,13
9.28333,13
9.29167,13
9.30000,13
9.30833,13
9.31667,13
9.32500,14
9.33333,14
9.34167,14
9.35000,14
9.35833,14
9.36667,14
9.37500,14
9.38333,14
9.39167,14
9.40000,13
9.40833,13
9.41667,13
9.42500,14
9.43333,14
9.44167,14
9.45000,14
9.45833,14
9.46667,14
9.47500,14
9.48333,14
9.49167,14
9.50000,14
9.50833,14
9.51667,14
9.52500,15
9.53333,15
9.54167,15
9.55000,15
9.55833,15
9.56667,15
9.57500,15
9.58333,15
9.59167,15
9.60000,15
9.60833,15
9.61667,15
9.62500,15
9.63333,15
9.64167,15
9.65000,15
9.65833,14
9.66667,14
9.67500,14
9.68333,15
9.69167,15
9.70000,15
9.70833,15
9.71667,15
9.72500,15
9.73333,15
9.74167,15
9.75000,15
9.75833,15
9.76667,15
9.77500,15
9.78333,15
9.79167,15
9.80000,15
9.80833,15
9.81667,15
9.82500,16
9.83333,15
9.84167,15
9.85000,15
9.85833,14
9.86667,14
9.87500,14
9.88333,15
9.89167,15
9.90000,15
9.90833,15
9.91667,15
9.92500,15
9.93333,15
9.94167,14
9.95000,14
9.95833,14
9.96667,15
9.97500,15
9.98333,15
9.99167,16
10.00000,16
10.00833,16
10.01667,16
10.02500,15
10.03333,15
10.04167,16
10.05000,16
10.05833,16
10.06667,16
10.07500,16
10.08333,15
10.09167,15
10.10000,15
10.10833,15
10.11667,15
10.12500,15
10.13333,14
10.14167,14
10.15000,14
10.15833,15
10.16667,15
10.17500,15
10.18333,15
10.19167,16
10.20000,16
10.20833,16
10.21667,16
10.22500,16
10.23333,16
10.24167,16
10.25000,16
10.25833,16
10.26667,16
10.27500,16
10.28333,16
10.29167,16
10.30000,16
10.30833,16
10.31667,16
10.32500,16
10.33333,16
10.34167,16
10.35000,15
10.35833,15
10.36667,15
10.37500,15
10.38333,15
10.39167,15
10.40000,15
10.40833,16
10.41667,16
10.42500,16
10.43333,15
10.44167,15
10.45000,15
10.45833,15
10.46667,15
10.47500,14
10.48333,14
10.49167,14
10.50000,14
10.50833,13
10.51667,12
10.52500,12
10.53333,11
10.54167,10
10.55000,9
10.55833,7
10.56667,5
10.57500,2
10.58333,-2
10.59167,-7
10.60000,-15
10.60833,-24
10.61667,-38
10.62500,-56
10.63333,-80
10.64167,-111
10.65000,-151
10.65833,-203
10.66667,-271
10.67500,-356
10.68333,-463
10.69167,-598
10.70000,-764
10.70833,-966
10.71667,-1211
10.72500,-1504
10.73333,-1852
10.74167,-2258
10.75000,-2728
10.75833,-3266
10.76667,-3875
10.77500,-4554
10.78333,-5305
10.79167,-6124
10.80000,-7006
10.80833,-7946
10.81667,-8933
10.82500,-9958
10.83333,-11008
10.84167,-12069
10.85000,-13126
10.85833,-14164
10.86667,-15167
10.87500,-16121
10.88333,-17012
10.89167,-17826
10.90000,-18554
10.90833,-19184
10.91667,-19711
10.92500,-20128
10.93333,-20433
10.94167,-20626
10.95000,-20705
10.95833,-20675
10.96667,-20540
10.97500,-20305
10.98333,-19978
10.99167,-19565
11.00000,-19077
11.00833,-18521
11.01667,-17907
11.02500,-17243
11.03333,-16540
11.04167,-15806
11.05000,-15049
11.05833,-14278
11.06667,-13501
11.07500,-12723
11.08333,-11952
11.09167,-11193
11.10000,-10451
11.10833,-9730
11.11667,-9033
11.12500,-8364
11.13333,-7725
11.14167,-7118
11.15000,-6543
11.15833,-6001
11.16667,-5493
11.17500,-5018
11.18333,-4577
11.19167,-4167
11.20000,-3789
11.20833,-3440
11.21667,-3121
11.22500,-2828
11.23333,-2561
11.24167,-2318
11.25000,-2097
11.25833,-1896
11.26667,-1715
11.27500,-1552
11.28333,-1404
11.29167,-1272
11.30000,-1153
11.30833,-1046
11.31667,-950
11.32500,-865
11.33333,-788
11.34167,-719
11.35000,-658
11.35833,-603
11.36667,-555
11.37500,-511
11.38333,-471
11.39167,-435
11.40000,-403
11.40833,-374
11.41667,-349
11.42500,-325
11.43333,-304
11.44167,-285
11.45000,-267
11.45833,-251
11.46667,-237
11.47500,-224
11.48333,-213
11.49167,-202
11.50000,-191
11.50833,-182
11.51667,-174
11.52500,-166
11.53333,-159
11.54167,-152
11.55000,-145
11.55833,-139
11.56667,-134
11.57500,-129
11.58333,-124
11.59167,-119
11.60000,-115
11.60833,-111
11.61667,-107
11.62500,-104
11.63333,-101
11.64167,-98
11.65000,-94
11.65833,-91
11.66667,-88
11.67500,-85
11.68333,-83
11.69167,-81
11.70000,-78
11.70833,-76
11.71667,-73
11.72500,-71
11.73333,-69
11.74167,-67
11.75000,-65
11.75833,-64
11.76667,-63
11.77500,-62
11.78333,-60
11.79167,-59
11.80000,-58
11.80833,-57
11.81667,-56
11.82500,-55
11.83333,-54
11.84167,-53
11.85000,-52
11.85833,-50
11.86667,-50
11.87500,-49
11.88333,-48
11.89167,-47
11.90000,-46
11.90833,-45
11.91667,-44
11.92500,-43
11.93333,-42
11.94167,-41
11.95000,-41
11.95833,-40
11.96667,-39
11.97500,-39
11.98333,-38
11.99167,-38
12.00000,-37
12.00833,-37
12.01667,-36
12.02500,-36
12.03333,-35
12.04167,-35
12.05000,-35
12.05833,-34
12.06667,-34
12.07500,-34
12.08333,-33
12.09167,-33
12.10000,-33
12.10833,-32
12.11667,-32
12.12500,-31
12.13333,-31
12.14167,-30
12.15000,-30
12.15833,-29
12.16667,-28
12.17500,-28
12.18333,-27
12.19167,-27
12.20000,-27
12.20833,-26
12.21667,-26
12.22500,-26
12.23333,-26
12.24167,-26
12.25000,-25
12.25833,-25
12.26667,-25
12.27500,-25
12.28333,-25
12.29167,-25
12.30000,-25
12.30833,-24
12.31667,-24
12.32500,-23
12.33333,-23
12.34167,-24
12.35000,-23
12.35833,-23
12.36667,-23
12.37500,-22
12.38333,-22
12.39167,-21
12.40000,-21
12.40833,-21
12.41667,-20
12.42500,-19
12.43333,-19
12.44167,-19
12.45000,-18
12.45833,-18
12.46667,-17
12.47500,-17
12.48333,-16
12.49167,-16
12.50000,-15
12.50833,-15
12.51667,-14
12.52500,-14
12.53333,-14
12.54167,-14
12.55000,-14
12.55833,-14
12.56667,-14
12.57500,-14
12.58333,-14
12.59167,-13
12.60000,-13
12.60833,-13
12.61667,-13
12.62500,-13
12.63333,-12
12.64167,-12
12.65000,-12
12.65833,-12
12.66667,-12
12.67500,-12
12.68333,-11
12.69167,-11
12.70000,-11
12.70833,-11
12.71667,-11
12.72500,-10
12.73333,-10
12.74167,-10
12.75000,-9
12.75833,-9
12.76667,-9
12.77500,-9
12.78333,-9
12.79167,-8
12.80000,-8
12.80833,-8
12.81667,-8
12.82500,-7
12.83333,-7
12.84167,-7
12.85000,-7
12.85833,-7
12.86667,-6
12.87500,-6
12.88333,-6
12.89167,-5
12.90000,-5
12.90833,-5
12.91667,-4
12.92500,-4
12.93333,-3
12.94167,-3
12.95000,-2
12.95833,-2
12.96667,-2
12.97500,-2
12.98333,-2
12.99167,-1
13.00000,-1
13.00833,-1
13.01667,-1
13.02500,-1
13.03333,-1
13.04167,-1
13.05000,-1
13.05833,-1
13.06667,-1
13.07500,-1
13.08333,-0
13.09167,-1
13.10000,-0
13.10833,-0
13.11667,0
13.12500,1
13.13333,1
13.14167,1
13.15000,1
13.15833,2
13.16667,2
13.17500,3
13.18333,3
13.19167,3
13.20000,3
13.20833,2
13.21667,3
13.22500,3
13.23333,3
13.24167,4
13.25000,4
13.25833,4
13.26667,4
13.27500,4
13.28333,4
13.29167,4
13.30000,4
13.30833,4
13.31667,4
13.32500,4
13.33333,3
13.34167,3
13.35000,3
13.35833,3
13.36667,4
13.37500,4
13.38333,4
13.39167,5
13.40000,5
13.40833,4
13.41667,4
13.42500,4
13.43333,4
13.44167,5
13.45000,5
13.45833,5
13.46667,6
13.47500,6
13.48333,6
13.49167,7
13.50000,7
13.50833,7
13.51667,6
13.52500,6
13.53333,6
13.54167,6
13.55000,6
13.55833,6
13.56667,7
13.57500,7
13.58333,6
13.59167,6
13.60000,6
13.60833,6
13.61667,7
13.62500,7
13.63333,7
13.64167,7
13.65000,7
13.65833,7
13.66667,8
13.67500,8
13.68333,8
13.69167,8
13.70000,7
13.70833,7
13.71667,7
13.72500,7
13.73333,8
13.74167,8
13.75000,8
13.75833,8
13.76667,8
13.77500,8
13.78333,8
13.79167,8
13.80000,8
13.80833,7
13.81667,7
13.82500,7
13.83333,7
13.84167,7
13.85000,7
13.85833,7
13.86667,8
13.87500,8
13.88333,9
13.89167,8
13.90000,9
13.90833,9
13.91667,9
13.92500,9
13.93333,10
13.94167,10
13.95000,10
13.95833,10
13.96667,10
13.97500,10
13.98333,10
13.99167,10
14.00000,10
14.00833,10
14.01667,10
14.02500,10
14.03333,10
14.04167,10
14.05000,9
14.05833,9
14.06667,10
14.07500,10
14.08333,10
14.09167,10
14.10000,10
14.10833,11
14.11667,11
14.12500,11
14.13333,11
14.14167,11
14.15000,11
14.15833,11
14.16667,12
14.17500,12
14.18333,11
14.19167,11
14.20000,11
14.20833,11
14.21667,12
14.22500,12
14.23333,12
14.24167,12
14.25000,12
14.25833,12
14.26667,12
14.27500,12
14.28333,12
14.29167,12
14.30000,12
14.30833,12
14.31667,12
14.32500,12
14.33333,12
14.34167,13
14.35000,13
14.35833,13
14.36667,13
14.37500,13
14.38333,13
14.39167,14
14.40000,14
14.40833,14
14.41667,14
14.42500,14
14.43333,14
14.44167,14
14.45000,15
14.45833,15
14.46667,15
14.47500,15
14.48333,15
14.49167,15
14.50000,15
14.50833,15
14.51667,15
14.52500,15
14.53333,15
14.54167,16
14.55000,16
14.55833,15
14.56667,15
14.57500,16
14.58333,16
14.59167,16
14.60000,16
14.60833,16
14.61667,16
14.62500,17
14.63333,16
14.64167,16
14.65000,17
14.65833,17
14.66667,17
14.67500,18
14.68333,18
14.69167,19
14.70000,19
14.70833,19
14.71667,19
14.72500,18
14.73333,18
14.74167,18
14.75000,17
14.75833,17
14.76667,17
14.77500,17
14.78333,17
14.79167,17
14.80000,17
14.80833,18
14.81667,18
14.82500,18
14.83333,18
14.84167,19
14.85000,19
14.85833,20
14.86667,20
14.87500,21
14.88333,21
14.89167,22
14.90000,22
14.90833,23
14.91667,23
14.92500,24
14.93333,25
14.94167,26
14.95000,27
14.95833,28
14.96667,28
14.97500,29
14.98333,30
14.99167,31
15.00000,32
15.00833,34
15.01667,35
15.02500,36
15.03333,37
15.04167,39
15.05000,40
15.05833,42
15.06667,43
15.07500,45
15.08333,47
15.09167,49
15.10000,50
15.10833,52
15.11667,54
15.12500,55
15.13333,57
15.14167,58
15.15000,60
15.15833,62
15.16667,65
15.17500,68
15.18333,72
15.19167,75
15.20000,80
15.20833,85
15.21667,91
15.22500,99
15.23333,108
15.24167,118
15.25000,129
15.25833,143
15.26667,159
15.27500,177
15.28333,199
15.29167,223
15.30000,251
15.30833,283
15.31667,319
15.32500,360
15.33333,406
15.34167,456
15.35000,513
15.35833,575
15.36667,643
15.37500,717
15.38333,797
15.39167,883
15.40000,976
15.40833,1074
15.41667,1179
15.42500,1290
15.43333,1406
15.44167,1528
15.45000,1654
15.45833,1785
15.46667,1918
15.47500,2054
15.48333,2193
15.49167,2332
15.50000,2471
15.50833,2610
15.51667,2747
15.52500,2881
15.53333,3011
15.54167,3136
15.55000,3255
15.55833,3368
15.56667,3473
15.57500,3571
15.58333,3659
15.59167,3738
15.60000,3806
15.60833,3863
15.61667,3909
15.62500,3944
15.63333,3967
15.64167,3980
15.65000,3981
15.65833,3971
15.66667,3950
15.67500,3918
15.68333,3875
15.69167,3824
15.70000,3763
15.70833,3694
15.71667,3616
15.72500,3532
15.73333,3442
15.74167,3346
15.75000,3246
15.75833,3141
15.76667,3033
15.77500,2922
15.78333,2810
15.79167,2696
15.80000,2581
15.80833,2467
15.81667,2354
15.82500,2241
15.83333,2130
15.84167,2022
15.85000,1915
15.85833,1811
15.86667,1710
15.87500,1612
15.88333,1517
15.89167,1426
15.90000,1338
15.90833,1255
15.91667,1175
15.92500,1099
15.93333,1027
15.94167,958
15.95000,893
15.95833,832
15.96667,774
15.97500,720
15.98333,670
15.99167,623
16.00000,579
16.00833,538
16.01667,500
16.02500,464
16.03333,431
16.04167,399
16.05000,370
16.05833,343
16.06667,319
16.07500,296
16.08333,275
16.09167,256
16.10000,239
16.10833,223
16.11667,208
16.12500,195
16.13333,182
16.14167,171
16.15000,161
16.15833,151
16.16667,142
16.17500,134
16.18333,126
16.19167,119
16.20000,113
16.20833,107
16.21667,101
16.22500,96
16.23333,92
16.24167,88
16.25000,84
16.25833,81
16.26667,78
16.27500,75
16.28333,72
16.29167,70
16.30000,67
16.30833,66
16.31667,64
16.32500,63
16.33333,61
16.34167,60
16.35000,58
16.35833,57
16.36667,56
16.37500,55
16.38333,54
16.39167,54
16.40000,53
16.40833,52
16.41667,51
16.42500,50
16.43333,50
16.44167,49
16.45000,48
16.45833,48
16.46667,47
16.47500,47
16.48333,45
16.49167,45
16.50000,44
16.50833,44
16.51667,44
16.52500,44
16.53333,43
16.54167,43
16.55000,43
16.55833,43
16.56667,43
16.57500,43
16.58333,42
16.59167,42
16.60000,42
16.60833,41
16.61667,41
16.62500,41
16.63333,41
16.64167,41
16.65000,41
16.65833,41
16.66667,41
16.67500,40
16.68333,40
16.69167,39
16.70000,39
16.70833,38
16.71667,38
16.72500,38
16.73333,38
16.74167,38
16.75000,38
16.75833,38
16.76667,38
16.77500,38
16.78333,38
16.79167,38
16.80000,38
16.80833,38
16.81667,38
16.82500,38
16.83333,38
16.84167,38
16.85000,39
16.85833,39
16.86667,39
16.87500,38
16.88333,38
16.89167,38
16.90000,38
16.90833,38
16.91667,37
16.92500,37
16.93333,37
16.94167,36
16.95000,36
16.95833,36
16.96667,36
16.97500,37
16.98333,37
16.99167,37
17.00000,37
17.00833,36
17.01667,36
17.02500,36
17.03333,36
17.04167,36
17.05000,36
17.05833,36
17.06667,36
17.07500,36
17.08333,36
17.09167,36
17.10000,36
17.10833,35
17.11667,35
17.12500,35
17.13333,35
17.14167,35
17.15000,34
17.15833,34
17.16667,34
17.17500,34
17.18333,34
17.19167,34
17.20000,33
17.20833,33
17.21667,33
17.22500,33
17.23333,33
17.24167,32
17.25000,32
17.25833,32
17.26667,32
17.27500,32
17.28333,32
17.29167,32
17.30000,33
17.30833,33
17.31667,33
17.32500,33
17.33333,33
17.34167,33
17.35000,33
17.35833,33
17.36667,33
17.37500,33
17.38333,33
17.39167,32
17.40000,32
17.40833,32
17.41667,31
17.42500,31
17.43333,30
17.44167,30
17.45000,30
17.45833,30
17.46667,30
17.47500,30
17.48333,30
17.49167,30
17.50000,31
17.50833,31
17.51667,31
17.52500,31
17.53333,32
17.54167,32
17.55000,32
17.55833,31
17.56667,31
17.57500,31
17.58333,31
17.59167,31
17.60000,31
17.60833,31
17.61667,31
17.62500,31
17.63333,31
17.64167,30
17.65000,30
17.65833,30
17.66667,30
17.67500,30
17.68333,30
17.69167,30
17.70000,30
17.70833,30
17.71667,30
17.72500,31
17.73333,31
17.74167,31
17.75000,31
17.75833,31
17.76667,32
17.77500,32
17.78333,32
17.79167,32
17.80000,32
17.80833,32
17.81667,32
17.82500,32
17.83333,32
17.84167,32
17.85000,32
17.85833,31
17.86667,31
17.87500,31
17.88333,31
17.89167,31
17.90000,31
17.90833,30
17.91667,30
17.92500,30
17.93333,30
17.94167,30
17.95000,30
17.95833,30
17.96667,30
17.97500,30
17.98333,30
17.99167,30
18.00000,31
18.00833,31
18.01667,31
18.02500,31
18.03333,31
18.04167,31
18.05000,31
18.05833,31
18.06667,31
18.07500,31
18.08333,31
18.09167,31
18.10000,31
18.10833,31
18.11667,31
18.12500,31
18.13333,31
18.14167,31
18.15000,31
18.15833,31
18.16667,30
18.17500,30
18.18333,31
18.19167,30
18.20000,30
18.20833,30
18.21667,30
18.22500,30
18.23333,30
18.24167,30
18.25000,30
18.25833,30
18.26667,30
18.27500,31
18.28333,31
18.29167,31
18.30000,31
18.30833,31
18.31667,31
18.32500,31
18.33333,31
18.34167,31
18.35000,31
18.35833,30
18.36667,30
18.37500,30
18.38333,30
18.39167,30
18.40000,30
18.40833,30
18.41667,30
18.42500,30
18.43333,30
18.44167,30
18.45000,30
18.45833,30
18.46667,30
18.47500,30
18.48333,29
18.49167,29
18.50000,29
18.50833,30
18.51667,31
18.52500,31
18.53333,31
18.54167,31
18.55000,32
18.55833,31
18.56667,31
18.57500,31
18.58333,31
18.59167,31
18.60000,32
18.60833,32
18.61667,32
18.62500,32
18.63333,32
18.64167,32
18.65000,32
18.65833,32
18.66667,32
18.67500,33
18.68333,33
18.69167,34
18.70000,34
18.70833,34
18.71667,34
18.72500,35
18.73333,36
18.74167,37
18.75000,38
18.75833,38
18.76667,39
18.77500,40
18.78333,41
18.79167,42
18.80000,44
18.80833,45
18.81667,47
18.82500,48
18.83333,49
18.84167,51
18.85000,52
18.85833,53
18.86667,54
18.87500,55
18.88333,57
18.89167,59
18.90000,60
18.90833,62
18.91667,63
18.92500,64
18.93333,65
18.94167,65
18.95000,66
18.95833,66
18.96667,67
18.97500,67
18.98333,68
18.99167,68
19.00000,69
19.00833,69
19.01667,69
19.02500,69
19.03333,69
19.04167,69
19.05000,69
19.05833,68
19.06667,68
19.07500,67
19.08333,66
19.09167,65
19.10000,64
19.10833,63
19.11667,62
19.12500,61
19.13333,60
19.14167,58
19.15000,57
19.15833,56
19.16667,55
19.17500,54
19.18333,53
19.19167,52
19.20000,51
19.20833,50
19.21667,49
19.22500,48
19.23333,47
19.24167,46
19.25000,45
19.25833,44
19.26667,43
19.27500,42
19.28333,41
19.29167,40
19.30000,39
19.30833,39
19.31667,38
19.32500,38
19.33333,37
19.34167,37
19.35000,36
19.35833,36
19.36667,35
19.37500,35
19.38333,34
19.39167,34
19.40000,33
19.40833,33
19.41667,32
19.42500,32
19.43333,32
19.44167,31
19.45000,31
19.45833,31
19.46667,30
19.47500,30
19.48333,31
19.49167,31
19.50000,31
19.50833,31
19.51667,31
19.52500,31
19.53333,31
19.54167,31
19.55000,31
19.55833,31
19.56667,31
19.57500,31
19.58333,31
19.59167,31
19.60000,31
19.60833,31
19.61667,31
19.62500,30
19.63333,30
19.64167,30
19.65000,30
19.65833,30
19.66667,29
19.67500,29
19.68333,29
19.69167,29
19.70000,29
19.70833,29
19.71667,29
19.72500,28
19.73333,28
19.74167,28
19.75000,28
19.75833,28
19.76667,28
19.77500,29
19.78333,29
19.79167,29
19.80000,29
19.80833,29
19.81667,29
19.82500,29
19.83333,29
19.84167,29
19.85000,29
19.85833,30
19.86667,30
19.87500,30
19.88333,29
19.89167,29
19.90000,29
19.90833,29
19.91667,29
19.92500,29
19.93333,29
19.94167,29
19.95000,28
19.95833,28
19.96667,29
19.97500,29
19.98333,29
19.99167,29
20.00000,29
20.00833,28
20.01667,28
20.02500,28
20.03333,28
20.04167,28
20.05000,28
20.05833,28
20.06667,28
20.07500,29
20.08333,29
20.09167,30
20.10000,30
20.10833,30
20.11667,30
20.12500,30
20.13333,29
20.14167,29
20.15000,29
20.15833,29
20.16667,29
20.17500,29
20.18333,29
20.19167,29
20.20000,28
20.20833,28
20.21667,28
20.22500,28
20.23333,28
20.24167,28
20.25000,28
20.25833,28
20.26667,28
20.27500,28
20.28333,28
20.29167,28
20.30000,28
20.30833,28
20.31667,28
20.32500,28
20.33333,28
20.34167,28
20.35000,28
20.35833,29
20.36667,29
20.37500,29
20.38333,29
20.39167,29
20.40000,29
20.40833,28
20.41667,28
20.42500,29
20.43333,29
20.44167,29
20.45000,29
20.45833,29
20.46667,29
20.47500,28
20.48333,28
20.49167,28
20.50000,28
20.50833,28
20.51667,28
20.52500,28
20.53333,28
20.54167,28
20.55000,28
20.55833,29
20.56667,29
20.57500,29
20.58333,29
20.59167,30
20.60000,30
20.60833,30
20.61667,30
20.62500,29
20.63333,29
20.64167,29
20.65000,29
20.65833,28
20.66667,28
20.67500,28
20.68333,28
20.69167,28
20.70000,28
20.70833,28
20.71667,28
20.72500,28
20.73333,27
20.74167,27
20.75000,27
20.75833,28
20.76667,28
20.77500,28
20.78333,28
20.79167,29
20.80000,29
20.80833,29
20.81667,29
20.82500,29
20.83333,29
20.84167,29
20.85000,29
20.85833,29
20.86667,29
20.87500,29
20.88333,29
20.89167,29
20.90000,29
20.90833,29
20.91667,29
20.92500,29
20.93333,29
20.94167,29
20.95000,29
20.95833,29
20.96667,28
20.97500,28
20.98333,29
20.99167,29
21.00000,29
21.00833,29
21.01667,29
21.02500,29
21.03333,29
21.04167,29
21.05000,29
21.05833,29
21.06667,29
21.07500,29
21.08333,29
21.09167,29
21.10000,29
21.10833,29
21.11667,29
21.12500,29
21.13333,29
21.14167,30
21.15000,29
21.15833,30
21.16667,30
21.17500,30
21.18333,30
21.19167,30
21.20000,30
21.20833,30
21.21667,30
21.22500,30
21.23333,29
21.24167,29
21.25000,29
21.25833,29
21.26667,29
21.27500,29
21.28333,29
21.29167,29
21.30000,29
21.30833,29
21.31667,29
21.32500,29
21.33333,30
21.34167,30
21.35000,30
21.35833,30
21.36667,30
21.37500,31
21.38333,31
21.39167,32
21.40000,32
21.40833,32
21.41667,32
21.42500,32
21.43333,32
21.44167,32
21.45000,32
21.45833,32
21.46667,33
21.47500,33
21.48333,34
21.49167,34
21.50000,34
21.50833,35
21.51667,36
21.52500,38
21.53333,39
21.54167,40
21.55000,41
21.55833,42
21.56667,44
21.57500,46
21.58333,48
21.59167,50
21.60000,52
21.60833,55
21.61667,59
21.62500,63
21.63333,67
21.64167,71
21.65000,76
21.65833,82
21.66667,89
21.67500,96
21.68333,103
21.69167,112
21.70000,120
21.70833,130
21.71667,141
21.72500,153
21.73333,166
21.74167,180
21.75000,195
21.75833,212
21.76667,229
21.77500,247
21.78333,267
21.79167,288
21.80000,310
21.80833,334
21.81667,359
21.82500,384
21.83333,411
21.84167,439
21.85000,467
21.85833,497
21.86667,527
21.87500,557
21.88333,588
21.89167,619
21.90000,651
21.90833,683
21.91667,714
21.92500,746
21.93333,777
21.94167,807
21.95000,836
21.95833,865
21.96667,892
21.97500,918
21.98333,943
21.99167,966
22.00000,987
22.00833,1007
22.01667,1024
22.02500,1040
22.03333,1053
22.04167,1064
22.05000,1073
22.05833,1079
22.06667,1082
22.07500,1084
22.08333,1083
22.09167,1079
22.10000,1074
22.10833,1066
22.11667,1056
22.12500,1044
22.13333,1030
22.14167,1014
22.15000,996
22.15833,976
22.16667,955
22.17500,932
22.18333,909
22.19167,884
22.20000,858
22.20833,832
22.21667,804
22.22500,776
22.23333,749
22.24167,721
22.25000,693
22.25833,665
22.26667,637
22.27500,609
22.28333,582
22.29167,556
22.30000,530
22.30833,504
22.31667,479
22.32500,455
22.33333,431
22.34167,408
22.35000,386
22.35833,365
22.36667,345
22.37500,325
22.38333,306
22.39167,289
22.40000,272
22.40833,256
22.41667,240
22.42500,226
22.43333,213
22.44167,200
22.45000,188
22.45833,177
22.46667,166
22.47500,157
22.48333,148
22.49167,139
22.50000,131
22.50833,123
22.51667,116
22.52500,110
22.53333,104
22.54167,99
22.55000,93
22.55833,88
22.56667,84
22.57500,80
22.58333,76
22.59167,73
22.60000,71
22.60833,68
22.61667,65
22.62500,63
22.63333,61
22.64167,59
22.65000,57
22.65833,55
22.66667,53
22.67500,51
22.68333,50
22.69167,48
22.70000,47
22.70833,46
22.71667,45
22.72500,44
22.73333,43
22.74167,43
22.75000,42
22.75833,41
22.76667,41
22.77500,40
22.78333,40
22.79167,40
22.80000,40
22.80833,39
22.81667,39
22.82500,39
22.83333,39
22.84167,38
22.85000,37
22.85833,37
22.86667,37
22.87500,36
22.88333,36
22.89167,36
22.90000,36
22.90833,35
22.91667,35
22.92500,35
22.93333,35
22.94167,34
22.95000,34
22.95833,34
22.96667,34
22.97500,34
22.98333,33
22.99167,33
23.00000,33
23.00833,33
23.01667,33
23.02500,33
23.03333,33
23.04167,33
23.05000,33
23.05833,33
23.06667,33
23.07500,33
23.08333,33
23.09167,33
23.10000,33
23.10833,34
23.11667,34
23.12500,34
23.13333,34
23.14167,34
23.15000,34
23.15833,35
23.16667,34
23.17500,34
23.18333,34
23.19167,34
23.20000,33
23.20833,33
23.21667,33
23.22500,33
23.23333,33
23.24167,33
23.25000,33
23.25833,33
23.26667,33
23.27500,33
23.28333,34
23.29167,34
23.30000,33
23.30833,33
23.31667,33
23.32500,33
23.33333,33
23.34167,33
23.35000,33
23.35833,34
23.36667,34
23.37500,34
23.38333,33
23.39167,33
23.40000,33
23.40833,33
23.41667,33
23.42500,32
23.43333,32
23.44167,32
23.45000,32
23.45833,32
23.46667,32
23.47500,31
23.48333,32
23.49167,32
23.50000,32
23.50833,32
23.51667,32
23.52500,32
23.53333,32
23.54167,32
23.55000,32
23.55833,32
23.56667,32
23.57500,32
23.58333,32
23.59167,32
23.60000,32
23.60833,32
23.61667,32
23.62500,32
23.63333,32
23.64167,32
23.65000,32
23.65833,32
23.66667,32
23.67500,31
23.68333,31
23.69167,31
23.70000,31
23.70833,31
23.71667,31
23.72500,31
23.73333,32
23.74167,32
23.75000,32
23.75833,32
23.76667,31
23.77500,31
23.78333,31
23.79167,31
23.80000,32
23.80833,32
23.81667,32
23.82500,33
23.83333,33
23.84167,32
23.85000,32
23.85833,33
23.86667,33
23.87500,32
23.88333,32
23.89167,32
23.90000,32
23.90833,33
23.91667,32
23.92500,32
23.93333,32
23.94167,32
23.95000,32
23.95833,32
23.96667,32
23.97500,32
23.98333,32
23.99167,32
24.00000,32
24.00833,32
24.01667,31
24.02500,32
24.03333,32
24.04167,32
24.05000,32
24.05833,32
24.06667,32
24.07500,32
24.08333,32
24.09167,33
24.10000,33
24.10833,33
24.11667,33
24.12500,33
24.13333,33
24.14167,33
24.15000,33
24.15833,33
24.16667,33
24.17500,33
24.18333,33
24.19167,33
24.20000,33
24.20833,33
24.21667,33
24.22500,32
24.23333,32
24.24167,32
24.25000,32
24.25833,32
24.26667,32
24.27500,32
24.28333,32
24.29167,33
24.30000,33
24.30833,33
24.31667,32
24.32500,32
24.33333,32
24.34167,33
24.35000,32
24.35833,32
24.36667,32
24.37500,32
24.38333,32
24.39167,32
24.40000,32
24.40833,32
24.41667,32
24.42500,32
24.43333,33
24.44167,33
24.45000,33
24.45833,34
24.46667,34
24.47500,35
24.48333,36
24.49167,36
24.50000,37
24.50833,38
24.51667,38
24.52500,39
24.53333,40
24.54167,41
24.55000,42
24.55833,43
24.56667,45
24.57500,47
24.58333,48
24.59167,50
24.60000,52
24.60833,54
24.61667,55
24.62500,57
24.63333,60
24.64167,62
24.65000,66
24.65833,70
24.66667,74
24.67500,78
24.68333,83
24.69167,88
24.70000,93
24.70833,98
24.71667,104
24.72500,110
24.73333,116
24.74167,124
24.75000,131
24.75833,139
24.76667,147
24.77500,156
24.78333,165
24.79167,174
24.80000,183
24.80833,193
24.81667,203
24.82500,213
24.83333,223
24.84167,234
24.85000,244
24.85833,255
24.86667,266
24.87500,277
24.88333,288
24.89167,299
24.90000,310
24.90833,320
24.91667,331
24.92500,341
24.93333,351
24.94167,361
24.95000,371
24.95833,380
24.96667,389
24.97500,396
24.98333,403
24.99167,410
25.00000,416
25.00833,422
25.01667,428
25.02500,432
25.03333,435
25.04167,437
25.05000,439
25.05833,440
25.06667,441
25.07500,441
25.08333,439
25.09167,437
25.10000,434
25.10833,431
25.11667,427
25.12500,422
25.13333,417
25.14167,411
25.15000,404
25.15833,397
25.16667,389
25.17500,381
25.18333,373
25.19167,364
25.20000,355
25.20833,345
25.21667,335
25.22500,325
25.23333,315
25.24167,305
25.25000,295
25.25833,285
25.26667,275
25.27500,265
25.28333,255
25.29167,246
25.30000,236
25.30833,226
25.31667,216
25.32500,206
25.33333,197
25.34167,189
25.35000,180
25.35833,172
25.36667,164
25.37500,156
25.38333,149
25.39167,142
25.40000,135
25.40833,129
25.41667,123
25.42500,117
25.43333,112
25.44167,106
25.45000,101
25.45833,96
25.46667,92
25.47500,88
25.48333,84
25.49167,81
25.50000,77
25.50833,74
25.51667,71
25.52500,68
25.53333,66
25.54167,63
25.55000,61
25.55833,59
25.56667,57
25.57500,55
25.58333,54
25.59167,52
25.60000,51
25.60833,49
25.61667,48
25.62500,47
25.63333,46
25.64167,45
25.65000,44
25.65833,43
25.66667,43
25.67500,42
25.68333,42
25.69167,41
25.70000,40
25.70833,40
25.71667,39
25.72500,39
25.73333,39
25.74167,39
25.75000,38
25.75833,39
25.76667,39
25.77500,38
25.78333,38
25.79167,38
25.80000,38
25.80833,38
25.81667,37
25.82500,37
25.83333,37
25.84167,37
25.85000,37
25.85833,37
25.86667,37
25.87500,37
25.88333,36
25.89167,36
25.90000,35
25.90833,35
25.91667,35
25.92500,35
25.93333,35
25.94167,35
25.95000,35
25.95833,35
25.96667,35
25.97500,35
25.98333,35
25.99167,34
26.00000,34
26.00833,34
26.01667,34
26.02500,34
26.03333,34
26.04167,34
26.05000,34
26.05833,34
26.06667,34
26.07500,34
26.08333,35
26.09167,35
26.10000,35
26.10833,35
26.11667,34
26.12500,34
26.13333,34
26.14167,35
26.15000,34
26.15833,35
26.16667,34
26.17500,34
26.18333,34
26.19167,33
26.20000,33
26.20833,34
26.21667,34
26.22500,34
26.23333,34
26.24167,35
26.25000,35
26.25833,35
26.26667,35
26.27500,34
26.28333,34
26.29167,34
26.30000,34
26.30833,34
26.31667,34
26.32500,34
26.33333,34
26.34167,34
26.35000,34
26.35833,35
26.36667,35
26.37500,34
26.38333,34
26.39167,34
26.40000,34
26.40833,34
26.41667,33
26.42500,34
26.43333,33
26.44167,33
26.45000,33
26.45833,33
26.46667,33
26.47500,33
26.48333,33
26.49167,33
26.50000,34
26.50833,34
26.51667,34
26.52500,34
26.53333,34
26.54167,34
26.55000,34
26.55833,34
26.56667,34
26.57500,34
26.58333,34
26.59167,34
26.60000,34
26.60833,33
26.61667,33
26.62500,33
26.63333,33
26.64167,33
26.65000,33
26.65833,34
26.66667,34
26.67500,34
26.68333,33
26.69167,33
26.70000,33
26.70833,33
26.71667,33
26.72500,34
26.73333,34
26.74167,34
26.75000,34
26.75833,34
26.76667,34
26.77500,34
26.78333,34
26.79167,34
26.80000,34
26.80833,34
26.81667,34
26.82500,34
26.83333,34
26.84167,34
26.85000,34
26.85833,34
26.86667,34
26.87500,34
26.88333,33
26.89167,33
26.90000,34
26.90833,34
26.91667,34
26.92500,34
26.93333,34
26.94167,34
26.95000,33
26.95833,33
26.96667,33
26.97500,33
26.98333,34
26.99167,34
27.00000,34
27.00833,34
27.01667,34
27.02500,34
27.03333,34
27.04167,34
27.05000,34
27.05833,34
27.06667,34
27.07500,34
27.08333,34
27.09167,34
27.10000,34
27.10833,34
27.11667,34
27.12500,34
27.13333,34
27.14167,34
27.15000,34
27.15833,34
27.16667,34
27.17500,34
27.18333,34
27.19167,34
27.20000,34
27.20833,34
27.21667,34
27.22500,34
27.23333,34
27.24167,34
27.25000,34
27.25833,34
27.26667,34
27.27500,34
27.28333,34
27.29167,34
27.30000,33
27.30833,33
27.31667,33
27.32500,33
27.33333,33
27.34167,33
27.35000,33
27.35833,33
27.36667,33
27.37500,33
27.38333,33
27.39167,34
27.40000,33
27.40833,33
27.41667,33
27.42500,33
27.43333,32
27.44167,33
27.45000,33
27.45833,33
27.46667,33
27.47500,33
27.48333,34
27.49167,34
27.50000,34
27.50833,34
27.51667,34
27.52500,34
27.53333,34
27.54167,34
27.55000,34
27.55833,34
27.56667,34
27.57500,35
27.58333,35
27.59167,35
27.60000,35
27.60833,35
27.61667,35
27.62500,35
27.63333,35
27.64167,34
27.65000,34
27.65833,34
27.66667,34
27.67500,33
27.68333,34
27.69167,33
27.70000,33
27.70833,34
27.71667,34
27.72500,34
27.73333,33
27.74167,33
27.75000,32
27.75833,32
27.76667,32
27.77500,31
27.78333,31
27.79167,31
27.80000,30
27.80833,30
27.81667,30
27.82500,29
27.83333,29
27.84167,29
27.85000,29
27.85833,29
27.86667,28
27.87500,27
27.88333,26
27.89167,25
27.90000,24
27.90833,23
27.91667,22
27.92500,21
27.93333,20
27.94167,19
27.95000,18
27.95833,17
27.96667,15
27.97500,14
27.98333,12
27.99167,11
28.00000,10
28.00833,8
28.01667,7
28.02500,5
28.03333,3
28.04167,1
28.05000,-2
28.05833,-4
28.06667,-7
28.07500,-10
28.08333,-12
28.09167,-15
28.10000,-18
28.10833,-21
28.11667,-23
28.12500,-26
28.13333,-30
28.14167,-33
28.15000,-35
28.15833,-38
28.16667,-42
28.17500,-45
28.18333,-48
28.19167,-52
28.20000,-56
28.20833,-59
28.21667,-63
28.22500,-66
28.23333,-69
28.24167,-73
28.25000,-77
28.25833,-80
28.26667,-83
28.27500,-87
28.28333,-90
28.29167,-93
28.30000,-95
28.30833,-98
28.31667,-101
28.32500,-103
28.33333,-106
28.34167,-108
28.35000,-111
28.35833,-113
28.36667,-116
28.37500,-118
28.38333,-121
28.39167,-123
28.40000,-124
28.40833,-125
28.41667,-126
28.42500,-127
28.43333,-128
28.44167,-129
28.45000,-129
28.45833,-129
28.46667,-129
28.47500,-129
28.48333,-128
28.49167,-128
28.50000,-127
28.50833,-126
28.51667,-124
28.52500,-123
28.53333,-122
28.54167,-121
28.55000,-119
28.55833,-117
28.56667,-115
28.57500,-113
28.58333,-111
28.59167,-109
28.60000,-107
28.60833,-104
28.61667,-102
28.62500,-99
28.63333,-96
28.64167,-93
28.65000,-91
28.65833,-88
28.66667,-85
28.67500,-82
28.68333,-79
28.69167,-76
28.70000,-73
28.70833,-70
28.71667,-67
28.72500,-64
28.73333,-61
28.74167,-58
28.75000,-55
28.75833,-52
28.76667,-49
28.77500,-46
28.78333,-43
28.79167,-41
28.80000,-39
28.80833,-36
28.81667,-33
28.82500,-31
28.83333,-29
28.84167,-26
28.85000,-24
28.85833,-21
28.86667,-19
28.87500,-17
28.88333,-15
28.89167,-13
28.90000,-11
28.90833,-9
28.91667,-7
28.92500,-6
28.93333,-4
28.94167,-2
28.95000,-1
28.95833,1
28.96667,2
28.97500,3
28.98333,5
28.99167,6
29.00000,6
29.00833,7
29.01667,8
29.02500,9
29.03333,11
29.04167,12
29.05000,13
29.05833,13
29.06667,14
29.07500,14
29.08333,15
29.09167,16
29.10000,16
29.10833,17
29.11667,18
29.12500,18
29.13333,19
29.14167,19
29.15000,20
29.15833,20
29.16667,21
29.17500,21
29.18333,21
29.19167,21
29.20000,22
29.20833,22
29.21667,23
29.22500,23
29.23333,24
29.24167,24
29.25000,24
29.25833,25
29.26667,25
29.27500,25
29.28333,25
29.29167,25
29.30000,26
29.30833,26
29.31667,26
29.32500,27
29.33333,27
29.34167,27
29.35000,27
29.35833,27
29.36667,27
29.37500,26
29.38333,26
29.39167,26
29.40000,26
29.40833,26
29.41667,27
29.42500,27
29.43333,27
29.44167,27
29.45000,28
29.45833,28
29.46667,28
29.47500,27
29.48333,27
29.49167,27
29.50000,27
29.50833,27
29.51667,27
29.52500,27
29.53333,27
29.54167,27
29.55000,27
29.55833,26
29.56667,26
29.57500,26
29.58333,26
29.59167,25
29.60000,25
29.60833,24
29.61667,23
29.62500,23
29.63333,23
29.64167,23
29.65000,22
29.65833,22
29.66667,22
29.67500,21
29.68333,21
29.69167,20
29.70000,20
29.70833,19
29.71667,19
29.72500,18
29.73333,17
29.74167,17
29.75000,16
29.75833,16
29.76667,15
29.77500,14
29.78333,14
29.79167,13
29.80000,12
29.80833,10
29.81667,9
29.82500,8
29.83333,7
29.84167,6
29.85000,5
29.85833,4
29.86667,3
29.87500,2
29.88333,1
29.89167,0
29.90000,-1
29.90833,-2
29.91667,-3
29.92500,-4
29.93333,-5
29.94167,-6
29.95000,-8
29.95833,-9
29.96667,-10
29.97500,-11
29.98333,-13
29.99167,-14
30.00000,-15
30.00833,-16
30.01667,-17
30.02500,-17
30.03333,-19
30.04167,-20
30.05000,-21
30.05833,-22
30.06667,-23
30.07500,-24
30.08333,-25
30.09167,-25
30.10000,-26
30.10833,-27
30.11667,-27
30.12500,-28
30.13333,-28
30.14167,-29
30.15000,-29
30.15833,-30
30.16667,-30
30.17500,-31
30.18333,-31
30.19167,-31
30.20000,-31
30.20833,-31
30.21667,-32
30.22500,-32
30.23333,-32
30.24167,-31
30.25000,-31
30.25833,-31
30.26667,-30
30.27500,-30
30.28333,-30
30.29167,-29
30.30000,-28
30.30833,-28
30.31667,-27
30.32500,-26
30.33333,-26
30.34167,-25
30.35000,-24
30.35833,-23
30.36667,-22
30.37500,-21
30.38333,-21
30.39167,-20
30.40000,-19
30.40833,-18
30.41667,-17
30.42500,-15
30.43333,-14
30.44167,-13
30.45000,-12
30.45833,-11
30.46667,-9
30.47500,-8
30.48333,-7
30.49167,-6
30.50000,-5
30.50833,-4
30.51667,-3
30.52500,-2
30.53333,-1
30.54167,-0
30.55000,1
30.55833,1
30.56667,2
30.57500,3
30.58333,5
30.59167,5
30.60000,6
30.60833,7
30.61667,8
30.62500,9
30.63333,10
30.64167,11
30.65000,11
30.65833,12
30.66667,13
30.67500,14
30.68333,15
30.69167,16
30.70000,16
30.70833,17
30.71667,18
30.72500,18
30.73333,19
30.74167,19
30.75000,20
30.75833,20
30.76667,21
30.77500,21
30.78333,22
30.79167,22
30.80000,22
30.80833,23
30.81667,23
30.82500,23
30.83333,23
30.84167,23
30.85000,23
30.85833,24
30.86667,24
30.87500,24
30.88333,24
30.89167,24
30.90000,24
30.90833,25
30.91667,25
30.92500,25
30.93333,25
30.94167,26
30.95000,26
30.95833,26
30.96667,26
30.97500,26
30.98333,27
30.99167,27
31.00000,27
31.00833,27
31.01667,26
31.02500,26
31.03333,26
31.04167,26
31.05000,26
31.05833,26
31.06667,26
31.07500,26
31.08333,26
31.09167,26
31.10000,26
31.10833,26
31.11667,27
31.12500,27
31.13333,27
31.14167,27
31.15000,27
31.15833,27
31.16667,27
31.17500,28
31.18333,28
31.19167,28
31.20000,29
31.20833,29
31.21667,29
31.22500,29
31.23333,29
31.24167,29
31.25000,29
31.25833,29
31.26667,29
31.27500,30
31.28333,30
31.29167,30
31.30000,30
31.30833,30
31.31667,30
31.32500,30
31.33333,30
31.34167,30
31.35000,30
31.35833,30
31.36667,30
31.37500,30
31.38333,30
31.39167,30
31.40000,31
31.40833,31
31.41667,31
31.42500,31
31.43333,32
31.44167,32
31.45000,32
31.45833,32
31.46667,33
31.47500,32
31.48333,32
31.49167,32
31.50000,32
31.50833,32
31.51667,32
31.52500,31
31.53333,31
31.54167,31
31.55000,32
31.55833,32
31.56667,32
31.57500,32
31.58333,33
31.59167,33
31.60000,33
31.60833,33
31.61667,33
31.62500,33
31.63333,33
31.64167,33
31.65000,33
31.65833,33
31.66667,33
31.67500,34
31.68333,34
31.69167,34
31.70000,34
31.70833,35
31.71667,35
31.72500,35
31.73333,35
31.74167,34
31.75000,34
31.75833,34
31.76667,34
31.77500,34
31.78333,34
31.79167,34
31.80000,34
31.80833,34
31.81667,34
31.82500,34
31.83333,34
31.84167,35
31.85000,35
31.85833,35
31.86667,36
31.87500,36
31.88333,36
31.89167,35
31.90000,35
31.90833,35
31.91667,36
31.92500,36
31.93333,36
31.94167,36
31.95000,36
31.95833,36
31.96667,36
31.97500,36
31.98333,36
31.99167,36
32.00000,35
32.00833,35
32.01667,35
32.02500,35
32.03333,35
32.04167,35
32.05000,35
32.05833,35
32.06667,35
32.07500,34
32.08333,34
32.09167,34
32.10000,34
32.10833,35
32.11667,35
32.12500,35
32.13333,35
32.14167,35
32.15000,35
32.15833,35
32.16667,35
32.17500,36
32.18333,36
32.19167,36
32.20000,36
32.20833,36
32.21667,36
32.22500,36
32.23333,36
32.24167,36
32.25000,36
32.25833,36
32.26667,36
32.27500,35
32.28333,35
32.29167,35
32.30000,35
32.30833,34
32.31667,34
32.32500,35
32.33333,35
32.34167,35
32.35000,35
32.35833,35
32.36667,35
32.37500,35
32.38333,35
32.39167,35
32.40000,35
32.40833,35
32.41667,35
32.42500,35
32.43333,36
32.44167,36
32.45000,36
32.45833,36
32.46667,36
32.47500,36
32.48333,36
32.49167,36
32.50000,36
32.50833,36
32.51667,36
32.52500,36
32.53333,35
32.54167,35
32.55000,35
32.55833,35
32.56667,35
32.57500,35
32.58333,35
32.59167,35
32.60000,35
32.60833,36
32.61667,36
32.62500,36
32.63333,36
32.64167,36
32.65000,36
32.65833,36
32.66667,36
32.67500,36
32.68333,36
32.69167,36
32.70000,36
32.70833,37
32.71667,37
32.72500,36
32.73333,36
32.74167,36
32.75000,36
32.75833,37
32.76667,37
32.77500,37
32.78333,37
32.79167,37
32.80000,37
32.80833,37
32.81667,37
32.82500,37
32.83333,37
32.84167,37
32.85000,37
32.85833,37
32.86667,38
32.87500,38
32.88333,38
32.89167,38
32.90000,38
32.90833,38
32.91667,38
32.92500,38
32.93333,38
32.94167,38
32.95000,38
32.95833,38
32.96667,38
32.97500,38
32.98333,38
32.99167,38
33.00000,38
33.00833,38
33.01667,37
33.02500,37
33.03333,37
33.04167,37
33.05000,37
33.05833,37
33.06667,37
33.07500,36
33.08333,36
33.09167,37
33.10000,37
33.10833,38
33.11667,38
33.12500,38
33.13333,38
33.14167,38
33.15000,39
33.15833,39
33.16667,39
33.17500,39
33.18333,39
33.19167,40
33.20000,40
33.20833,40
33.21667,39
33.22500,39
33.23333,39
33.24167,39
33.25000,38
33.25833,38
33.26667,38
33.27500,38
33.28333,38
33.29167,38
33.30000,38
33.30833,37
33.31667,37
33.32500,37
33.33333,37
33.34167,37
33.35000,38
33.35833,38
33.36667,38
33.37500,39
33.38333,39
33.39167,39
33.40000,39
33.40833,39
33.41667,39
33.42500,39
33.43333,39
33.44167,39
33.45000,39
33.45833,39
33.46667,38
33.47500,38
33.48333,38
33.49167,38
33.50000,38
33.50833,39
33.51667,38
33.52500,38
33.53333,38
33.54167,38
33.55000,37
33.55833,37
33.56667,37
33.57500,37
33.58333,38
33.59167,38
33.60000,38
33.60833,39
33.61667,39
33.62500,39
33.63333,39
33.64167,39
33.65000,39
33.65833,39
33.66667,39
33.67500,39
33.68333,39
33.69167,39
33.70000,39
33.70833,39
33.71667,39
33.72500,39
33.73333,39
33.74167,39
33.75000,39
33.75833,39
33.76667,39
33.77500,39
33.78333,39
33.79167,38
33.80000,38
33.80833,38
33.81667,38
33.82500,38
33.83333,38
33.84167,38
33.85000,38
33.85833,38
33.86667,39
33.87500,39
33.88333,39
33.89167,39
33.90000,39
33.90833,39
33.91667,39
33.92500,39
33.93333,38
33.94167,38
33.95000,38
33.95833,38
33.96667,39
33.97500,39
33.98333,39
33.99167,39
34.00000,39
34.00833,39
34.01667,38
34.02500,38
34.03333,38
34.04167,38
34.05000,38
34.05833,38
34.06667,38
34.07500,38
34.08333,38
34.09167,38
34.10000,38
34.10833,38
34.11667,38
34.12500,38
34.13333,39
34.14167,39
34.15000,39
34.15833,39
34.16667,39
34.17500,39
34.18333,39
34.19167,39
34.20000,39
34.20833,39
34.21667,39
34.22500,39
34.23333,39
34.24167,39
34.25000,39
34.25833,39
34.26667,39
34.27500,39
34.28333,39
34.29167,39
34.30000,39
34.30833,39
34.31667,39
34.32500,39
34.33333,39
34.34167,39
34.35000,39
34.35833,40
34.36667,40
34.37500,40
34.38333,39
34.39167,40
34.40000,40
34.40833,40
34.41667,40
34.42500,40
34.43333,41
34.44167,40
34.45000,41
34.45833,41
34.46667,41
34.47500,41
34.48333,40
34.49167,40
34.50000,40
34.50833,40
34.51667,40
34.52500,40
34.53333,40
34.54167,40
34.55000,40
34.55833,40
34.56667,40
34.57500,40
34.58333,40
34.59167,40
34.60000,40
34.60833,40
34.61667,40
34.62500,40
34.63333,41
34.64167,41
34.65000,41
34.65833,41
34.66667,40
34.67500,40
34.68333,40
34.69167,40
34.70000,40
34.70833,40
34.71667,40
34.72500,40
34.73333,40
34.74167,41
34.75000,40
34.75833,40
34.76667,40
34.77500,40
34.78333,40
34.79167,40
34.80000,39
34.80833,40
34.81667,40
34.82500,40
34.83333,40
34.84167,40
34.85000,40
34.85833,40
34.86667,40
34.87500,40
34.88333,40
34.89167,40
34.90000,41
34.90833,41
34.91667,41
34.92500,41
34.93333,41
34.94167,41
34.95000,41
34.95833,41
34.96667,41
34.97500,41
34.98333,40
34.99167,41
35.00000,40
35.00833,40
35.01667,40
35.02500,40
35.03333,40
35.04167,40
35.05000,40
35.05833,40
35.06667,40
35.07500,40
35.08333,40
35.09167,39
35.10000,39
35.10833,39
35.11667,39
35.12500,39
35.13333,39
35.14167,39
35.15000,40
35.15833,40
35.16667,40
35.17500,40
35.18333,41
35.19167,41
35.20000,41
35.20833,41
35.21667,41
35.22500,41
35.23333,41
35.24167,41
35.25000,41
35.25833,40
35.26667,40
35.27500,40
35.28333,40
35.29167,40
35.30000,40
35.30833,40
35.31667,40
35.32500,40
35.33333,40
35.34167,40
35.35000,41
35.35833,41
35.36667,41
35.37500,41
35.38333,41
35.39167,42
35.40000,42
35.40833,42
35.41667,42
35.42500,42
35.43333,42
35.44167,42
35.45000,42
35.45833,42
35.46667,42
35.47500,42
35.48333,42
35.49167,42
35.50000,41
35.50833,41
35.51667,41
35.52500,40
35.53333,40
35.54167,41
35.55000,41
35.55833,41
35.56667,41
35.57500,41
35.58333,41
35.59167,40
35.60000,40
35.60833,40
35.61667,40
35.62500,41
35.63333,41
35.64167,41
35.65000,41
35.65833,41
35.66667,41
35.67500,41
35.68333,41
35.69167,42
35.70000,42
35.70833,42
35.71667,42
35.72500,42
35.73333,41
35.74167,41
35.75000,41
35.75833,41
35.76667,41
35.77500,41
35.78333,41
35.79167,41
35.80000,41
35.80833,41
35.81667,41
35.82500,42
35.83333,42
35.84167,42
35.85000,41
35.85833,41
35.86667,41
35.87500,41
35.88333,42
35.89167,42
35.90000,42
35.90833,42
35.91667,42
35.92500,42
35.93333,42
35.94167,42
35.95000,42
35.95833,42
35.96667,42
35.97500,42
35.98333,42
35.99167,42
36.00000,42
36.00833,42
36.01667,42
36.02500,41
36.03333,41
36.04167,41
36.05000,41
36.05833,41
36.06667,41
36.07500,41
36.08333,41
36.09167,41
36.10000,41
36.10833,41
36.11667,41
36.12500,41
36.13333,41
36.14167,41
36.15000,41
36.15833,41
36.16667,41
36.17500,41
36.18333,41
36.19167,41
36.20000,41
36.20833,41
36.21667,41
36.22500,40
36.23333,40
36.24167,40
36.25000,40
36.25833,40
36.26667,40
36.27500,41
36.28333,40
36.29167,40
36.30000,40
36.30833,40
36.31667,40
36.32500,40
36.33333,40
36.34167,40
36.35000,40
36.35833,41
36.36667,41
36.37500,41
36.38333,41
36.39167,42
36.40000,42
36.40833,42
36.41667,42
36.42500,42
36.43333,42
36.44167,42
36.45000,43
36.45833,43
36.46667,43
36.47500,42
36.48333,42
36.49167,42
36.50000,42
36.50833,42
36.51667,42
36.52500,43
36.53333,43
36.54167,43
36.55000,42
36.55833,42
36.56667,42
36.57500,41
36.58333,41
36.59167,41
36.60000,41
36.60833,42
36.61667,42
36.62500,42
36.63333,42
36.64167,42
36.65000,42
36.65833,41
36.66667,41
36.67500,41
36.68333,41
36.69167,42
36.70000,42
36.70833,42
36.71667,42
36.72500,42
36.73333,42
36.74167,42
36.75000,42
36.75833,42
36.76667,42
36.77500,43
36.78333,43
36.79167,43
36.80000,43
36.80833,43
36.81667,43
36.82500,43
36.83333,43
36.84167,43
36.85000,43
36.85833,43
36.86667,43
36.87500,43
36.88333,43
36.89167,43
36.90000,43
36.90833,43
36.91667,43
36.92500,43
36.93333,43
36.94167,43
36.95000,43
36.95833,43
36.96667,43
36.97500,44
36.98333,44
36.99167,44
37.00000,44
37.00833,43
37.01667,43
37.02500,43
37.03333,43
37.04167,43
37.05000,43
37.05833,43
37.06667,43
37.07500,43
37.08333,43
37.09167,43
37.10000,43
37.10833,43
37.11667,44
37.12500,44
37.13333,45
37.14167,45
37.15000,45
37.15833,45
37.16667,45
37.17500,45
37.18333,44
37.19167,44
37.20000,44
37.20833,44
37.21667,44
37.22500,44
37.23333,44
37.24167,44
37.25000,44
37.25833,44
37.26667,44
37.27500,44
37.28333,44
37.29167,43
37.30000,43
37.30833,43
37.31667,43
37.32500,43
37.33333,43
37.34167,43
37.35000,43
37.35833,44
37.36667,44
37.37500,44
37.38333,44
37.39167,44
37.40000,43
37.40833,43
37.41667,43
37.42500,44
37.43333,44
37.44167,44
37.45000,44
37.45833,44
37.46667,44
37.47500,44
37.48333,44
37.49167,44
37.50000,45
37.50833,45
37.51667,45
37.52500,45
37.53333,45
37.54167,45
37.55000,44
37.55833,44
37.56667,44
37.57500,44
37.58333,44
37.59167,44
37.60000,44
37.60833,43
37.61667,44
37.62500,44
37.63333,44
37.64167,44
37.65000,44
37.65833,44
37.66667,44
37.67500,44
37.68333,44
37.69167,45
37.70000,45
37.70833,45
37.71667,46
37.72500,46
37.73333,46
37.74167,46
37.75000,46
37.75833,45
37.76667,45
37.77500,45
37.78333,45
37.79167,45
37.80000,45
37.80833,45
37.81667,45
37.82500,45
37.83333,45
37.84167,45
37.85000,44
37.85833,44
37.86667,44
37.87500,44
37.88333,45
37.89167,45
37.90000,45
37.90833,45
37.91667,46
37.92500,46
37.93333,46
37.94167,46
37.95000,46
37.95833,46
37.96667,46
37.97500,46
37.98333,46
37.99167,46
38.00000,46
38.00833,46
38.01667,46
38.02500,46
38.03333,46
38.04167,46
38.05000,46
38.05833,46
38.06667,45
38.07500,45
38.08333,45
38.09167,45
38.10000,45
38.10833,45
38.11667,45
38.12500,46
38.13333,46
38.14167,46
38.15000,47
38.15833,47
38.16667,47
38.17500,47
38.18333,47
38.19167,47
38.20000,47
38.20833,47
38.21667,47
38.22500,47
38.23333,47
38.24167,47
38.25000,47
38.25833,48
38.26667,48
38.27500,48
38.28333,48
38.29167,47
38.30000,47
38.30833,47
38.31667,48
38.32500,48
38.33333,48
38.34167,48
38.35000,49
38.35833,49
38.36667,49
38.37500,49
38.38333,49
38.39167,49
38.40000,49
38.40833,49
38.41667,49
38.42500,49
38.43333,49
38.44167,49
38.45000,49
38.45833,49
38.46667,49
38.47500,49
38.48333,49
38.49167,49
38.50000,49
38.50833,50
38.51667,49
38.52500,49
38.53333,49
38.54167,49
38.55000,48
38.55833,48
38.56667,48
38.57500,48
38.58333,48
38.59167,48
38.60000,49
38.60833,49
38.61667,49
38.62500,49
38.63333,49
38.64167,48
38.65000,48
38.65833,48
38.66667,48
38.67500,48
38.68333,48
38.69167,48
38.70000,48
38.70833,48
38.71667,48
38.72500,48
38.73333,48
38.74167,48
38.75000,48
38.75833,48
38.76667,48
38.77500,47
38.78333,47
38.79167,47
38.80000,47
38.80833,47
38.81667,47
38.82500,46
38.83333,46
38.84167,46
38.85000,46
38.85833,46
38.86667,46
38.87500,47
38.88333,47
38.89167,47
38.90000,48
38.90833,48
38.91667,48
38.92500,48
38.93333,48
38.94167,48
38.95000,47
38.95833,47
38.96667,47
38.97500,47
38.98333,47
38.99167,47
39.00000,47
39.00833,47
39.01667,47
39.02500,47
39.03333,46
39.04167,46
39.05000,46
39.05833,46
39.06667,46
39.07500,47
39.08333,47
39.09167,47
39.10000,47
39.10833,46
39.11667,46
39.12500,46
39.13333,47
39.14167,47
39.15000,47
39.15833,46
39.16667,46
39.17500,47
39.18333,47
39.19167,47
39.20000,47
39.20833,46
39.21667,46
39.22500,46
39.23333,46
39.24167,46
39.25000,46
39.25833,46
39.26667,47
39.27500,46
39.28333,46
39.29167,46
39.30000,45
39.30833,45
39.31667,45
39.32500,45
39.33333,45
39.34167,45
39.35000,45
39.35833,45
39.36667,45
39.37500,45
39.38333,45
39.39167,46
39.40000,46
39.40833,46
39.41667,46
39.42500,46
39.43333,46
39.44167,46
39.45000,46
39.45833,46
39.46667,46
39.47500,46
39.48333,46
39.49167,46
39.50000,46
39.50833,46
39.51667,46
39.52500,46
39.53333,46
39.54167,46
39.55000,46
39.55833,46
39.56667,46
39.57500,46
39.58333,46
39.59167,46
39.60000,46
39.60833,46
39.61667,46
39.62500,46
39.63333,46
39.64167,47
39.65000,46
39.65833,46
39.66667,46
39.67500,46
39.68333,46
39.69167,46
39.70000,46
39.70833,46
39.71667,46
39.72500,46
39.73333,47
39.74167,47
39.75000,46
39.75833,46
39.76667,47
39.77500,47
39.78333,46
39.79167,46
39.80000,46
39.80833,46
39.81667,46
39.82500,46
39.83333,46
39.84167,46
39.85000,46
39.85833,46
39.86667,46
39.87500,46
39.88333,46
39.89167,46
39.90000,46
39.90833,46
39.91667,46
39.92500,46
39.93333,46
39.94167,47
39.95000,47
39.95833,47
39.96667,47
39.97500,47
39.98333,47
39.99167,46
40.00000,46

