[Header]
Application Name,LabSolutions
Version,5.97 SP1
Data File Name,C:\Users\cremerlab\Desktop\griffin\2021-03-31_NCM3722_NCglucose_turnover\2021-03-31_NCM3722_turnover_batch_3312021_005_033.lcd
Output Date,4/1/2021
Output Time,7:26:41 PM

[File Information]
Type,Data File
Generated,4/1/2021 6:46:22 PM
Generated by,System Administrator
Modified,4/1/2021 7:26:41 PM
Modified by,System Administrator

[Sample Information]
Operator Name,System Administrator
Acquired,4/1/2021 6:46:40 PM
Sample Type,1:Standard
Level,5
Sample Name,2021-03-31_glucose_glycerol_acetate_calibration_10mM
Sample ID,005
ISTD Amount1,1
ISTD Amount2,1
ISTD Amount3,1
ISTD Amount4,1
ISTD Amount5,1
ISTD Amount6,1
ISTD Amount7,1
ISTD Amount8,1
ISTD Amount9,1
ISTD Amount10,1
ISTD Amount11,1
ISTD Amount12,1
ISTD Amount13,1
ISTD Amount14,1
ISTD Amount15,1
ISTD Amount16,1
ISTD Amount17,1
ISTD Amount18,1
ISTD Amount19,1
ISTD Amount20,1
ISTD Amount21,1
ISTD Amount22,1
ISTD Amount23,1
ISTD Amount24,1
ISTD Amount25,1
ISTD Amount26,1
ISTD Amount27,1
ISTD Amount28,1
ISTD Amount29,1
ISTD Amount30,1
ISTD Amount31,1
ISTD Amount32,1
Sample Amount,1
Dilution Factor,1
Vial#,5
Injection Volume,20

[Original Files]
Data File,C:\Users\cremerlab\Desktop\griffin\2021-03-31_NCM3722_NCglucose_turnover\2021-03-31_NCM3722_turnover_batch_3312021_005_033.lcd
Method File,C:\LabSolutions\Data\Project1\organicacidsetc2.lcm
Batch File,C:\Users\cremerlab\Desktop\griffin\2021-03-31_NCM3722_NCglucose_turnover\2021-03-31_NCM3722_turnover_batch.lcb
Report Format File,c:\LabSolutions\System\DEFAULT.lsr

[File Description]


[Configuration]
Instrument Name,HPLC-PC-Instrument1
Instrument #,1
Line #,1
# of Detectors,2
Detector ID,Detector A,Detector B
Detector Name,Detector A,Detector B
# of Channels,1,1

[Peak Table(Detector A)]
# of Peaks,0

[Peak Table(Detector B)]
# of Peaks,3
Peak#,R.Time,I.Time,F.Time,Area,Height,A/H,Conc.,Mark,ID#,Name,k',Plate #,Plate Ht.,Tailing,Resolution,Sep.Factor,Area Ratio,Height Ratio,Conc. %,Norm Conc.
1,15.649,14.950,17.417,1027781,42508,24.179,0.000,   ,,,0.000,9755,15.377,1.155,0.000,0.000,0,0,0.000,0.000
2,22.079,21.367,23.192,287998,10660,27.017,0.000,   ,,,0.411,15410,9.734,1.090,9.559,0.000,0,0,0.000,0.000
3,25.068,24.383,26.033,118163,4040,29.249,0.000,   ,,,0.602,16786,8.936,1.064,4.024,1.465,0,0,0.000,0.000

[LC Chromatogram(Detector B-Ch1)]
Interval(msec),500
# of Points,4801
Start Time(min),0.000
End Time(min),40.000
Intensity Units,mV
Intensity Multiplier,0.001
R.Time (min),Intensity
0.00000,2
0.00833,2
0.01667,1
0.02500,-0
0.03333,-0
0.04167,-0
0.05000,-1
0.05833,-1
0.06667,-1
0.07500,-1
0.08333,-1
0.09167,-1
0.10000,-1
0.10833,-1
0.11667,-0
0.12500,0
0.13333,0
0.14167,1
0.15000,1
0.15833,1
0.16667,1
0.17500,0
0.18333,0
0.19167,0
0.20000,0
0.20833,0
0.21667,1
0.22500,1
0.23333,1
0.24167,0
0.25000,0
0.25833,0
0.26667,1
0.27500,1
0.28333,0
0.29167,0
0.30000,0
0.30833,0
0.31667,0
0.32500,0
0.33333,0
0.34167,0
0.35000,0
0.35833,0
0.36667,1
0.37500,1
0.38333,1
0.39167,1
0.40000,1
0.40833,1
0.41667,1
0.42500,1
0.43333,1
0.44167,1
0.45000,1
0.45833,1
0.46667,1
0.47500,1
0.48333,1
0.49167,1
0.50000,1
0.50833,1
0.51667,1
0.52500,1
0.53333,1
0.54167,1
0.55000,1
0.55833,1
0.56667,2
0.57500,2
0.58333,1
0.59167,1
0.60000,1
0.60833,1
0.61667,1
0.62500,1
0.63333,2
0.64167,2
0.65000,2
0.65833,2
0.66667,2
0.67500,1
0.68333,1
0.69167,1
0.70000,1
0.70833,1
0.71667,1
0.72500,0
0.73333,1
0.74167,1
0.75000,0
0.75833,-0
0.76667,-0
0.77500,-1
0.78333,-1
0.79167,-1
0.80000,-0
0.80833,-0
0.81667,-0
0.82500,0
0.83333,0
0.84167,1
0.85000,1
0.85833,1
0.86667,1
0.87500,1
0.88333,2
0.89167,2
0.90000,2
0.90833,2
0.91667,2
0.92500,2
0.93333,1
0.94167,1
0.95000,1
0.95833,1
0.96667,1
0.97500,2
0.98333,2
0.99167,2
1.00000,2
1.00833,2
1.01667,2
1.02500,2
1.03333,2
1.04167,2
1.05000,2
1.05833,2
1.06667,2
1.07500,2
1.08333,2
1.09167,2
1.10000,2
1.10833,3
1.11667,3
1.12500,2
1.13333,2
1.14167,2
1.15000,2
1.15833,2
1.16667,2
1.17500,3
1.18333,3
1.19167,3
1.20000,3
1.20833,3
1.21667,3
1.22500,3
1.23333,2
1.24167,3
1.25000,3
1.25833,3
1.26667,3
1.27500,3
1.28333,3
1.29167,3
1.30000,3
1.30833,3
1.31667,3
1.32500,3
1.33333,2
1.34167,2
1.35000,2
1.35833,2
1.36667,2
1.37500,2
1.38333,2
1.39167,2
1.40000,2
1.40833,3
1.41667,3
1.42500,3
1.43333,3
1.44167,3
1.45000,3
1.45833,3
1.46667,3
1.47500,3
1.48333,3
1.49167,3
1.50000,3
1.50833,2
1.51667,2
1.52500,3
1.53333,3
1.54167,3
1.55000,3
1.55833,3
1.56667,3
1.57500,3
1.58333,3
1.59167,3
1.60000,3
1.60833,3
1.61667,3
1.62500,4
1.63333,4
1.64167,4
1.65000,4
1.65833,4
1.66667,4
1.67500,4
1.68333,4
1.69167,4
1.70000,4
1.70833,3
1.71667,3
1.72500,3
1.73333,3
1.74167,3
1.75000,3
1.75833,3
1.76667,3
1.77500,4
1.78333,4
1.79167,5
1.80000,4
1.80833,4
1.81667,4
1.82500,4
1.83333,4
1.84167,4
1.85000,4
1.85833,4
1.86667,4
1.87500,4
1.88333,4
1.89167,4
1.90000,4
1.90833,4
1.91667,4
1.92500,4
1.93333,4
1.94167,4
1.95000,4
1.95833,4
1.96667,4
1.97500,4
1.98333,4
1.99167,4
2.00000,4
2.00833,4
2.01667,4
2.02500,4
2.03333,5
2.04167,4
2.05000,5
2.05833,5
2.06667,5
2.07500,5
2.08333,5
2.09167,5
2.10000,5
2.10833,5
2.11667,5
2.12500,5
2.13333,5
2.14167,5
2.15000,5
2.15833,5
2.16667,5
2.17500,5
2.18333,5
2.19167,4
2.20000,4
2.20833,4
2.21667,4
2.22500,4
2.23333,5
2.24167,5
2.25000,5
2.25833,5
2.26667,5
2.27500,5
2.28333,5
2.29167,5
2.30000,6
2.30833,6
2.31667,6
2.32500,6
2.33333,6
2.34167,6
2.35000,6
2.35833,6
2.36667,6
2.37500,5
2.38333,5
2.39167,5
2.40000,5
2.40833,4
2.41667,4
2.42500,4
2.43333,4
2.44167,4
2.45000,4
2.45833,4
2.46667,4
2.47500,4
2.48333,4
2.49167,4
2.50000,5
2.50833,5
2.51667,5
2.52500,5
2.53333,5
2.54167,5
2.55000,6
2.55833,6
2.56667,6
2.57500,7
2.58333,7
2.59167,6
2.60000,6
2.60833,6
2.61667,6
2.62500,5
2.63333,6
2.64167,6
2.65000,6
2.65833,5
2.66667,5
2.67500,5
2.68333,5
2.69167,5
2.70000,5
2.70833,5
2.71667,5
2.72500,5
2.73333,5
2.74167,5
2.75000,5
2.75833,5
2.76667,6
2.77500,6
2.78333,6
2.79167,6
2.80000,6
2.80833,6
2.81667,6
2.82500,6
2.83333,6
2.84167,6
2.85000,6
2.85833,6
2.86667,6
2.87500,6
2.88333,6
2.89167,6
2.90000,7
2.90833,7
2.91667,7
2.92500,7
2.93333,7
2.94167,7
2.95000,7
2.95833,7
2.96667,6
2.97500,6
2.98333,6
2.99167,6
3.00000,7
3.00833,7
3.01667,7
3.02500,7
3.03333,7
3.04167,7
3.05000,7
3.05833,7
3.06667,7
3.07500,6
3.08333,6
3.09167,6
3.10000,6
3.10833,6
3.11667,6
3.12500,6
3.13333,6
3.14167,6
3.15000,7
3.15833,6
3.16667,6
3.17500,6
3.18333,6
3.19167,6
3.20000,6
3.20833,7
3.21667,7
3.22500,7
3.23333,8
3.24167,8
3.25000,8
3.25833,7
3.26667,7
3.27500,7
3.28333,7
3.29167,7
3.30000,7
3.30833,7
3.31667,7
3.32500,7
3.33333,7
3.34167,7
3.35000,7
3.35833,7
3.36667,7
3.37500,7
3.38333,7
3.39167,7
3.40000,7
3.40833,8
3.41667,8
3.42500,8
3.43333,8
3.44167,7
3.45000,7
3.45833,7
3.46667,7
3.47500,7
3.48333,7
3.49167,7
3.50000,7
3.50833,7
3.51667,7
3.52500,7
3.53333,7
3.54167,7
3.55000,7
3.55833,7
3.56667,7
3.57500,7
3.58333,7
3.59167,7
3.60000,7
3.60833,7
3.61667,8
3.62500,8
3.63333,7
3.64167,8
3.65000,8
3.65833,8
3.66667,8
3.67500,8
3.68333,8
3.69167,8
3.70000,8
3.70833,8
3.71667,8
3.72500,8
3.73333,8
3.74167,8
3.75000,9
3.75833,9
3.76667,8
3.77500,8
3.78333,8
3.79167,8
3.80000,8
3.80833,8
3.81667,8
3.82500,8
3.83333,7
3.84167,7
3.85000,7
3.85833,7
3.86667,7
3.87500,7
3.88333,7
3.89167,7
3.90000,7
3.90833,7
3.91667,7
3.92500,8
3.93333,8
3.94167,8
3.95000,8
3.95833,7
3.96667,7
3.97500,8
3.98333,8
3.99167,8
4.00000,8
4.00833,9
4.01667,9
4.02500,8
4.03333,8
4.04167,8
4.05000,8
4.05833,8
4.06667,8
4.07500,8
4.08333,8
4.09167,8
4.10000,8
4.10833,8
4.11667,9
4.12500,9
4.13333,9
4.14167,9
4.15000,9
4.15833,9
4.16667,9
4.17500,9
4.18333,10
4.19167,10
4.20000,10
4.20833,10
4.21667,10
4.22500,10
4.23333,9
4.24167,9
4.25000,9
4.25833,9
4.26667,9
4.27500,9
4.28333,9
4.29167,9
4.30000,9
4.30833,9
4.31667,9
4.32500,9
4.33333,9
4.34167,9
4.35000,10
4.35833,10
4.36667,10
4.37500,10
4.38333,10
4.39167,10
4.40000,10
4.40833,10
4.41667,10
4.42500,10
4.43333,10
4.44167,9
4.45000,10
4.45833,10
4.46667,10
4.47500,10
4.48333,10
4.49167,10
4.50000,10
4.50833,10
4.51667,10
4.52500,10
4.53333,10
4.54167,10
4.55000,10
4.55833,10
4.56667,11
4.57500,11
4.58333,11
4.59167,11
4.60000,10
4.60833,10
4.61667,11
4.62500,11
4.63333,11
4.64167,10
4.65000,11
4.65833,11
4.66667,11
4.67500,11
4.68333,11
4.69167,12
4.70000,12
4.70833,12
4.71667,11
4.72500,11
4.73333,11
4.74167,11
4.75000,11
4.75833,11
4.76667,11
4.77500,11
4.78333,11
4.79167,12
4.80000,12
4.80833,12
4.81667,12
4.82500,12
4.83333,12
4.84167,11
4.85000,11
4.85833,11
4.86667,11
4.87500,11
4.88333,11
4.89167,11
4.90000,12
4.90833,12
4.91667,12
4.92500,12
4.93333,12
4.94167,12
4.95000,12
4.95833,12
4.96667,12
4.97500,11
4.98333,11
4.99167,11
5.00000,11
5.00833,12
5.01667,12
5.02500,12
5.03333,12
5.04167,12
5.05000,12
5.05833,12
5.06667,12
5.07500,12
5.08333,12
5.09167,12
5.10000,12
5.10833,13
5.11667,13
5.12500,13
5.13333,13
5.14167,13
5.15000,13
5.15833,13
5.16667,13
5.17500,13
5.18333,12
5.19167,12
5.20000,12
5.20833,12
5.21667,12
5.22500,12
5.23333,12
5.24167,12
5.25000,12
5.25833,12
5.26667,12
5.27500,13
5.28333,13
5.29167,13
5.30000,13
5.30833,13
5.31667,13
5.32500,13
5.33333,13
5.34167,13
5.35000,13
5.35833,13
5.36667,14
5.37500,14
5.38333,14
5.39167,14
5.40000,14
5.40833,13
5.41667,13
5.42500,13
5.43333,13
5.44167,13
5.45000,13
5.45833,13
5.46667,13
5.47500,13
5.48333,13
5.49167,13
5.50000,13
5.50833,13
5.51667,13
5.52500,13
5.53333,13
5.54167,13
5.55000,13
5.55833,13
5.56667,13
5.57500,13
5.58333,13
5.59167,13
5.60000,14
5.60833,14
5.61667,14
5.62500,14
5.63333,14
5.64167,13
5.65000,13
5.65833,13
5.66667,13
5.67500,13
5.68333,13
5.69167,13
5.70000,13
5.70833,14
5.71667,14
5.72500,14
5.73333,14
5.74167,14
5.75000,14
5.75833,14
5.76667,15
5.77500,15
5.78333,15
5.79167,15
5.80000,15
5.80833,15
5.81667,15
5.82500,15
5.83333,15
5.84167,15
5.85000,15
5.85833,15
5.86667,15
5.87500,15
5.88333,15
5.89167,15
5.90000,14
5.90833,14
5.91667,14
5.92500,15
5.93333,15
5.94167,14
5.95000,14
5.95833,14
5.96667,14
5.97500,14
5.98333,14
5.99167,14
6.00000,14
6.00833,14
6.01667,15
6.02500,15
6.03333,15
6.04167,15
6.05000,15
6.05833,15
6.06667,15
6.07500,15
6.08333,15
6.09167,15
6.10000,15
6.10833,15
6.11667,15
6.12500,15
6.13333,15
6.14167,15
6.15000,15
6.15833,15
6.16667,16
6.17500,16
6.18333,16
6.19167,16
6.20000,16
6.20833,16
6.21667,16
6.22500,17
6.23333,17
6.24167,17
6.25000,17
6.25833,17
6.26667,17
6.27500,17
6.28333,17
6.29167,16
6.30000,16
6.30833,16
6.31667,16
6.32500,16
6.33333,16
6.34167,16
6.35000,16
6.35833,16
6.36667,16
6.37500,16
6.38333,16
6.39167,15
6.40000,15
6.40833,15
6.41667,15
6.42500,15
6.43333,15
6.44167,16
6.45000,16
6.45833,16
6.46667,16
6.47500,16
6.48333,16
6.49167,16
6.50000,16
6.50833,16
6.51667,16
6.52500,16
6.53333,16
6.54167,17
6.55000,17
6.55833,17
6.56667,17
6.57500,17
6.58333,16
6.59167,16
6.60000,16
6.60833,15
6.61667,15
6.62500,15
6.63333,15
6.64167,15
6.65000,16
6.65833,16
6.66667,16
6.67500,16
6.68333,17
6.69167,17
6.70000,16
6.70833,17
6.71667,17
6.72500,17
6.73333,17
6.74167,17
6.75000,17
6.75833,17
6.76667,16
6.77500,16
6.78333,16
6.79167,16
6.80000,16
6.80833,16
6.81667,16
6.82500,16
6.83333,16
6.84167,16
6.85000,16
6.85833,16
6.86667,16
6.87500,16
6.88333,16
6.89167,17
6.90000,17
6.90833,17
6.91667,17
6.92500,17
6.93333,17
6.94167,17
6.95000,17
6.95833,17
6.96667,17
6.97500,17
6.98333,17
6.99167,17
7.00000,17
7.00833,17
7.01667,17
7.02500,17
7.03333,17
7.04167,17
7.05000,16
7.05833,16
7.06667,16
7.07500,16
7.08333,16
7.09167,16
7.10000,17
7.10833,17
7.11667,17
7.12500,17
7.13333,17
7.14167,17
7.15000,17
7.15833,17
7.16667,18
7.17500,18
7.18333,17
7.19167,17
7.20000,17
7.20833,17
7.21667,17
7.22500,18
7.23333,18
7.24167,18
7.25000,17
7.25833,17
7.26667,17
7.27500,17
7.28333,17
7.29167,17
7.30000,17
7.30833,17
7.31667,17
7.32500,17
7.33333,16
7.34167,16
7.35000,16
7.35833,16
7.36667,16
7.37500,16
7.38333,17
7.39167,17
7.40000,17
7.40833,18
7.41667,18
7.42500,18
7.43333,18
7.44167,18
7.45000,18
7.45833,18
7.46667,19
7.47500,19
7.48333,19
7.49167,18
7.50000,18
7.50833,18
7.51667,18
7.52500,18
7.53333,18
7.54167,17
7.55000,17
7.55833,17
7.56667,18
7.57500,18
7.58333,18
7.59167,18
7.60000,18
7.60833,18
7.61667,18
7.62500,18
7.63333,18
7.64167,18
7.65000,17
7.65833,17
7.66667,17
7.67500,18
7.68333,18
7.69167,18
7.70000,18
7.70833,18
7.71667,18
7.72500,19
7.73333,19
7.74167,18
7.75000,18
7.75833,18
7.76667,18
7.77500,18
7.78333,18
7.79167,18
7.80000,17
7.80833,17
7.81667,17
7.82500,17
7.83333,17
7.84167,17
7.85000,17
7.85833,17
7.86667,18
7.87500,18
7.88333,18
7.89167,19
7.90000,19
7.90833,18
7.91667,18
7.92500,19
7.93333,19
7.94167,19
7.95000,19
7.95833,19
7.96667,19
7.97500,19
7.98333,19
7.99167,19
8.00000,19
8.00833,19
8.01667,18
8.02500,18
8.03333,18
8.04167,18
8.05000,18
8.05833,18
8.06667,19
8.07500,19
8.08333,19
8.09167,19
8.10000,19
8.10833,19
8.11667,19
8.12500,19
8.13333,19
8.14167,19
8.15000,19
8.15833,19
8.16667,18
8.17500,18
8.18333,19
8.19167,19
8.20000,19
8.20833,18
8.21667,18
8.22500,18
8.23333,18
8.24167,18
8.25000,18
8.25833,18
8.26667,18
8.27500,18
8.28333,18
8.29167,19
8.30000,19
8.30833,19
8.31667,18
8.32500,18
8.33333,19
8.34167,19
8.35000,19
8.35833,19
8.36667,19
8.37500,20
8.38333,20
8.39167,20
8.40000,20
8.40833,21
8.41667,21
8.42500,21
8.43333,21
8.44167,21
8.45000,21
8.45833,21
8.46667,20
8.47500,20
8.48333,20
8.49167,20
8.50000,20
8.50833,19
8.51667,19
8.52500,19
8.53333,19
8.54167,18
8.55000,18
8.55833,18
8.56667,19
8.57500,19
8.58333,20
8.59167,20
8.60000,20
8.60833,20
8.61667,20
8.62500,20
8.63333,20
8.64167,20
8.65000,20
8.65833,20
8.66667,20
8.67500,20
8.68333,20
8.69167,20
8.70000,20
8.70833,20
8.71667,20
8.72500,20
8.73333,19
8.74167,19
8.75000,19
8.75833,19
8.76667,19
8.77500,19
8.78333,20
8.79167,20
8.80000,20
8.80833,21
8.81667,20
8.82500,21
8.83333,20
8.84167,20
8.85000,20
8.85833,20
8.86667,20
8.87500,21
8.88333,21
8.89167,21
8.90000,22
8.90833,22
8.91667,22
8.92500,22
8.93333,22
8.94167,21
8.95000,21
8.95833,22
8.96667,22
8.97500,22
8.98333,21
8.99167,21
9.00000,21
9.00833,21
9.01667,21
9.02500,21
9.03333,21
9.04167,21
9.05000,20
9.05833,20
9.06667,21
9.07500,21
9.08333,21
9.09167,21
9.10000,21
9.10833,21
9.11667,21
9.12500,21
9.13333,21
9.14167,21
9.15000,21
9.15833,22
9.16667,22
9.17500,22
9.18333,21
9.19167,21
9.20000,21
9.20833,20
9.21667,21
9.22500,21
9.23333,21
9.24167,21
9.25000,21
9.25833,21
9.26667,21
9.27500,21
9.28333,21
9.29167,21
9.30000,21
9.30833,21
9.31667,21
9.32500,21
9.33333,21
9.34167,21
9.35000,21
9.35833,22
9.36667,22
9.37500,22
9.38333,23
9.39167,23
9.40000,23
9.40833,23
9.41667,22
9.42500,22
9.43333,22
9.44167,22
9.45000,22
9.45833,22
9.46667,22
9.47500,22
9.48333,22
9.49167,22
9.50000,22
9.50833,22
9.51667,22
9.52500,22
9.53333,22
9.54167,22
9.55000,22
9.55833,22
9.56667,22
9.57500,22
9.58333,22
9.59167,22
9.60000,22
9.60833,23
9.61667,23
9.62500,23
9.63333,23
9.64167,23
9.65000,22
9.65833,22
9.66667,22
9.67500,21
9.68333,21
9.69167,22
9.70000,22
9.70833,21
9.71667,21
9.72500,21
9.73333,21
9.74167,21
9.75000,21
9.75833,22
9.76667,22
9.77500,21
9.78333,21
9.79167,22
9.80000,22
9.80833,22
9.81667,22
9.82500,22
9.83333,22
9.84167,22
9.85000,22
9.85833,23
9.86667,22
9.87500,23
9.88333,23
9.89167,23
9.90000,23
9.90833,23
9.91667,23
9.92500,23
9.93333,23
9.94167,23
9.95000,23
9.95833,23
9.96667,23
9.97500,23
9.98333,23
9.99167,23
10.00000,22
10.00833,22
10.01667,22
10.02500,22
10.03333,22
10.04167,22
10.05000,22
10.05833,22
10.06667,22
10.07500,22
10.08333,22
10.09167,23
10.10000,23
10.10833,23
10.11667,23
10.12500,23
10.13333,23
10.14167,23
10.15000,24
10.15833,24
10.16667,24
10.17500,23
10.18333,23
10.19167,23
10.20000,23
10.20833,23
10.21667,23
10.22500,23
10.23333,23
10.24167,24
10.25000,24
10.25833,24
10.26667,23
10.27500,23
10.28333,23
10.29167,24
10.30000,24
10.30833,24
10.31667,24
10.32500,24
10.33333,24
10.34167,24
10.35000,24
10.35833,24
10.36667,24
10.37500,24
10.38333,25
10.39167,25
10.40000,25
10.40833,24
10.41667,24
10.42500,23
10.43333,23
10.44167,23
10.45000,22
10.45833,22
10.46667,22
10.47500,22
10.48333,22
10.49167,21
10.50000,21
10.50833,21
10.51667,21
10.52500,21
10.53333,20
10.54167,20
10.55000,19
10.55833,18
10.56667,16
10.57500,13
10.58333,10
10.59167,6
10.60000,1
10.60833,-6
10.61667,-16
10.62500,-29
10.63333,-47
10.64167,-71
10.65000,-103
10.65833,-144
10.66667,-199
10.67500,-268
10.68333,-358
10.69167,-470
10.70000,-611
10.70833,-787
10.71667,-1002
10.72500,-1264
10.73333,-1579
10.74167,-1953
10.75000,-2392
10.75833,-2901
10.76667,-3485
10.77500,-4146
10.78333,-4886
10.79167,-5704
10.80000,-6594
10.80833,-7553
10.81667,-8572
10.82500,-9641
10.83333,-10745
10.84167,-11872
10.85000,-13003
10.85833,-14123
10.86667,-15213
10.87500,-16257
10.88333,-17239
10.89167,-18143
10.90000,-18955
10.90833,-19663
10.91667,-20260
10.92500,-20738
10.93333,-21092
10.94167,-21321
10.95000,-21425
10.95833,-21408
10.96667,-21272
10.97500,-21026
10.98333,-20676
10.99167,-20232
11.00000,-19703
11.00833,-19099
11.01667,-18431
11.02500,-17710
11.03333,-16946
11.04167,-16150
11.05000,-15330
11.05833,-14497
11.06667,-13659
11.07500,-12823
11.08333,-11997
11.09167,-11187
11.10000,-10398
11.10833,-9635
11.11667,-8902
11.12500,-8201
11.13333,-7535
11.14167,-6905
11.15000,-6312
11.15833,-5758
11.16667,-5241
11.17500,-4760
11.18333,-4317
11.19167,-3908
11.20000,-3533
11.20833,-3190
11.21667,-2878
11.22500,-2593
11.23333,-2336
11.24167,-2103
11.25000,-1894
11.25833,-1706
11.26667,-1536
11.27500,-1385
11.28333,-1249
11.29167,-1128
11.30000,-1021
11.30833,-925
11.31667,-839
11.32500,-763
11.33333,-695
11.34167,-634
11.35000,-580
11.35833,-532
11.36667,-489
11.37500,-450
11.38333,-416
11.39167,-385
11.40000,-357
11.40833,-333
11.41667,-310
11.42500,-290
11.43333,-272
11.44167,-256
11.45000,-241
11.45833,-227
11.46667,-215
11.47500,-203
11.48333,-193
11.49167,-183
11.50000,-174
11.50833,-165
11.51667,-157
11.52500,-149
11.53333,-143
11.54167,-136
11.55000,-130
11.55833,-125
11.56667,-119
11.57500,-115
11.58333,-110
11.59167,-106
11.60000,-102
11.60833,-98
11.61667,-95
11.62500,-92
11.63333,-88
11.64167,-86
11.65000,-83
11.65833,-80
11.66667,-77
11.67500,-75
11.68333,-72
11.69167,-70
11.70000,-68
11.70833,-66
11.71667,-63
11.72500,-61
11.73333,-59
11.74167,-57
11.75000,-55
11.75833,-53
11.76667,-51
11.77500,-50
11.78333,-48
11.79167,-46
11.80000,-45
11.80833,-44
11.81667,-43
11.82500,-41
11.83333,-40
11.84167,-39
11.85000,-38
11.85833,-37
11.86667,-36
11.87500,-35
11.88333,-34
11.89167,-32
11.90000,-31
11.90833,-30
11.91667,-29
11.92500,-29
11.93333,-28
11.94167,-28
11.95000,-27
11.95833,-26
11.96667,-25
11.97500,-25
11.98333,-24
11.99167,-24
12.00000,-23
12.00833,-23
12.01667,-22
12.02500,-21
12.03333,-21
12.04167,-20
12.05000,-20
12.05833,-19
12.06667,-19
12.07500,-19
12.08333,-19
12.09167,-19
12.10000,-19
12.10833,-18
12.11667,-18
12.12500,-18
12.13333,-18
12.14167,-17
12.15000,-17
12.15833,-17
12.16667,-17
12.17500,-17
12.18333,-16
12.19167,-16
12.20000,-16
12.20833,-16
12.21667,-15
12.22500,-15
12.23333,-15
12.24167,-14
12.25000,-15
12.25833,-15
12.26667,-15
12.27500,-15
12.28333,-15
12.29167,-15
12.30000,-14
12.30833,-14
12.31667,-13
12.32500,-13
12.33333,-13
12.34167,-13
12.35000,-12
12.35833,-12
12.36667,-12
12.37500,-12
12.38333,-11
12.39167,-11
12.40000,-11
12.40833,-11
12.41667,-11
12.42500,-11
12.43333,-11
12.44167,-10
12.45000,-10
12.45833,-10
12.46667,-9
12.47500,-9
12.48333,-9
12.49167,-9
12.50000,-8
12.50833,-8
12.51667,-7
12.52500,-7
12.53333,-6
12.54167,-6
12.55000,-6
12.55833,-6
12.56667,-5
12.57500,-6
12.58333,-6
12.59167,-6
12.60000,-6
12.60833,-6
12.61667,-5
12.62500,-5
12.63333,-5
12.64167,-4
12.65000,-4
12.65833,-3
12.66667,-3
12.67500,-2
12.68333,-2
12.69167,-1
12.70000,-1
12.70833,-1
12.71667,-1
12.72500,-0
12.73333,0
12.74167,1
12.75000,1
12.75833,2
12.76667,3
12.77500,3
12.78333,3
12.79167,4
12.80000,4
12.80833,4
12.81667,5
12.82500,5
12.83333,5
12.84167,6
12.85000,7
12.85833,8
12.86667,8
12.87500,9
12.88333,10
12.89167,11
12.90000,12
12.90833,13
12.91667,14
12.92500,15
12.93333,15
12.94167,17
12.95000,18
12.95833,19
12.96667,20
12.97500,21
12.98333,22
12.99167,22
13.00000,23
13.00833,24
13.01667,25
13.02500,25
13.03333,26
13.04167,27
13.05000,28
13.05833,28
13.06667,29
13.07500,30
13.08333,30
13.09167,31
13.10000,32
13.10833,32
13.11667,33
13.12500,33
13.13333,34
13.14167,34
13.15000,35
13.15833,35
13.16667,35
13.17500,36
13.18333,36
13.19167,37
13.20000,38
13.20833,38
13.21667,38
13.22500,39
13.23333,39
13.24167,39
13.25000,40
13.25833,40
13.26667,39
13.27500,39
13.28333,38
13.29167,38
13.30000,38
13.30833,38
13.31667,38
13.32500,38
13.33333,37
13.34167,37
13.35000,37
13.35833,36
13.36667,36
13.37500,36
13.38333,36
13.39167,35
13.40000,35
13.40833,34
13.41667,33
13.42500,33
13.43333,32
13.44167,32
13.45000,32
13.45833,31
13.46667,31
13.47500,31
13.48333,30
13.49167,29
13.50000,29
13.50833,28
13.51667,28
13.52500,27
13.53333,26
13.54167,25
13.55000,25
13.55833,25
13.56667,24
13.57500,24
13.58333,23
13.59167,22
13.60000,22
13.60833,21
13.61667,21
13.62500,21
13.63333,21
13.64167,21
13.65000,21
13.65833,21
13.66667,21
13.67500,21
13.68333,21
13.69167,21
13.70000,21
13.70833,21
13.71667,21
13.72500,21
13.73333,21
13.74167,21
13.75000,21
13.75833,21
13.76667,20
13.77500,20
13.78333,20
13.79167,20
13.80000,20
13.80833,20
13.81667,19
13.82500,19
13.83333,19
13.84167,19
13.85000,20
13.85833,20
13.86667,20
13.87500,20
13.88333,20
13.89167,20
13.90000,20
13.90833,21
13.91667,21
13.92500,21
13.93333,21
13.94167,21
13.95000,21
13.95833,21
13.96667,21
13.97500,21
13.98333,21
13.99167,21
14.00000,21
14.00833,21
14.01667,21
14.02500,21
14.03333,21
14.04167,21
14.05000,21
14.05833,21
14.06667,21
14.07500,21
14.08333,21
14.09167,21
14.10000,21
14.10833,21
14.11667,22
14.12500,22
14.13333,22
14.14167,22
14.15000,23
14.15833,23
14.16667,23
14.17500,23
14.18333,23
14.19167,23
14.20000,23
14.20833,23
14.21667,24
14.22500,24
14.23333,23
14.24167,23
14.25000,23
14.25833,23
14.26667,23
14.27500,23
14.28333,24
14.29167,24
14.30000,24
14.30833,24
14.31667,24
14.32500,24
14.33333,24
14.34167,24
14.35000,24
14.35833,24
14.36667,24
14.37500,24
14.38333,24
14.39167,25
14.40000,25
14.40833,25
14.41667,25
14.42500,25
14.43333,25
14.44167,26
14.45000,26
14.45833,26
14.46667,26
14.47500,26
14.48333,26
14.49167,26
14.50000,25
14.50833,25
14.51667,25
14.52500,25
14.53333,25
14.54167,25
14.55000,25
14.55833,26
14.56667,26
14.57500,26
14.58333,26
14.59167,26
14.60000,26
14.60833,26
14.61667,27
14.62500,27
14.63333,27
14.64167,28
14.65000,28
14.65833,28
14.66667,28
14.67500,28
14.68333,28
14.69167,28
14.70000,28
14.70833,29
14.71667,29
14.72500,29
14.73333,28
14.74167,28
14.75000,28
14.75833,27
14.76667,27
14.77500,27
14.78333,27
14.79167,28
14.80000,28
14.80833,28
14.81667,28
14.82500,29
14.83333,29
14.84167,30
14.85000,30
14.85833,30
14.86667,31
14.87500,31
14.88333,32
14.89167,32
14.90000,32
14.90833,33
14.91667,33
14.92500,34
14.93333,35
14.94167,35
14.95000,36
14.95833,37
14.96667,37
14.97500,39
14.98333,40
14.99167,42
15.00000,44
15.00833,46
15.01667,48
15.02500,50
15.03333,52
15.04167,55
15.05000,58
15.05833,62
15.06667,65
15.07500,69
15.08333,74
15.09167,80
15.10000,87
15.10833,95
15.11667,104
15.12500,114
15.13333,127
15.14167,142
15.15000,159
15.15833,180
15.16667,204
15.17500,233
15.18333,268
15.19167,308
15.20000,357
15.20833,414
15.21667,482
15.22500,562
15.23333,656
15.24167,766
15.25000,894
15.25833,1042
15.26667,1215
15.27500,1414
15.28333,1642
15.29167,1904
15.30000,2201
15.30833,2539
15.31667,2920
15.32500,3347
15.33333,3825
15.34167,4357
15.35000,4946
15.35833,5595
15.36667,6306
15.37500,7082
15.38333,7924
15.39167,8834
15.40000,9811
15.40833,10855
15.41667,11965
15.42500,13139
15.43333,14373
15.44167,15664
15.45000,17006
15.45833,18394
15.46667,19822
15.47500,21281
15.48333,22764
15.49167,24261
15.50000,25763
15.50833,27260
15.51667,28741
15.52500,30196
15.53333,31614
15.54167,32984
15.55000,34296
15.55833,35540
15.56667,36706
15.57500,37785
15.58333,38770
15.59167,39652
15.60000,40425
15.60833,41085
15.61667,41626
15.62500,42046
15.63333,42342
15.64167,42515
15.65000,42565
15.65833,42493
15.66667,42301
15.67500,41993
15.68333,41573
15.69167,41048
15.70000,40422
15.70833,39703
15.71667,38898
15.72500,38014
15.73333,37059
15.74167,36041
15.75000,34968
15.75833,33850
15.76667,32692
15.77500,31505
15.78333,30295
15.79167,29070
15.80000,27837
15.80833,26602
15.81667,25371
15.82500,24151
15.83333,22947
15.84167,21763
15.85000,20604
15.85833,19472
15.86667,18373
15.87500,17307
15.88333,16278
15.89167,15286
15.90000,14334
15.90833,13423
15.91667,12553
15.92500,11724
15.93333,10937
15.94167,10190
15.95000,9485
15.95833,8819
15.96667,8193
15.97500,7603
15.98333,7051
15.99167,6534
16.00000,6051
16.00833,5600
16.01667,5181
16.02500,4790
16.03333,4428
16.04167,4091
16.05000,3780
16.05833,3493
16.06667,3227
16.07500,2982
16.08333,2755
16.09167,2547
16.10000,2356
16.10833,2180
16.11667,2018
16.12500,1870
16.13333,1733
16.14167,1609
16.15000,1494
16.15833,1389
16.16667,1293
16.17500,1206
16.18333,1126
16.19167,1052
16.20000,984
16.20833,922
16.21667,866
16.22500,815
16.23333,767
16.24167,724
16.25000,685
16.25833,648
16.26667,615
16.27500,584
16.28333,556
16.29167,530
16.30000,506
16.30833,485
16.31667,464
16.32500,446
16.33333,429
16.34167,413
16.35000,398
16.35833,385
16.36667,372
16.37500,360
16.38333,349
16.39167,338
16.40000,329
16.40833,320
16.41667,311
16.42500,304
16.43333,297
16.44167,290
16.45000,284
16.45833,278
16.46667,272
16.47500,267
16.48333,262
16.49167,258
16.50000,253
16.50833,249
16.51667,246
16.52500,242
16.53333,238
16.54167,235
16.55000,232
16.55833,229
16.56667,226
16.57500,223
16.58333,221
16.59167,218
16.60000,215
16.60833,213
16.61667,210
16.62500,208
16.63333,206
16.64167,204
16.65000,202
16.65833,201
16.66667,199
16.67500,197
16.68333,195
16.69167,194
16.70000,193
16.70833,191
16.71667,190
16.72500,189
16.73333,187
16.74167,185
16.75000,184
16.75833,182
16.76667,181
16.77500,180
16.78333,178
16.79167,177
16.80000,176
16.80833,175
16.81667,173
16.82500,172
16.83333,171
16.84167,169
16.85000,168
16.85833,167
16.86667,166
16.87500,165
16.88333,163
16.89167,162
16.90000,161
16.90833,160
16.91667,159
16.92500,158
16.93333,157
16.94167,156
16.95000,155
16.95833,154
16.96667,153
16.97500,152
16.98333,150
16.99167,149
17.00000,148
17.00833,147
17.01667,146
17.02500,145
17.03333,144
17.04167,143
17.05000,142
17.05833,141
17.06667,140
17.07500,140
17.08333,139
17.09167,137
17.10000,136
17.10833,135
17.11667,134
17.12500,133
17.13333,132
17.14167,131
17.15000,130
17.15833,129
17.16667,129
17.17500,128
17.18333,128
17.19167,127
17.20000,126
17.20833,126
17.21667,125
17.22500,124
17.23333,124
17.24167,123
17.25000,123
17.25833,122
17.26667,121
17.27500,120
17.28333,119
17.29167,118
17.30000,118
17.30833,118
17.31667,117
17.32500,117
17.33333,116
17.34167,116
17.35000,115
17.35833,115
17.36667,114
17.37500,114
17.38333,113
17.39167,112
17.40000,112
17.40833,112
17.41667,111
17.42500,111
17.43333,110
17.44167,110
17.45000,110
17.45833,110
17.46667,109
17.47500,109
17.48333,108
17.49167,108
17.50000,108
17.50833,108
17.51667,107
17.52500,107
17.53333,107
17.54167,107
17.55000,106
17.55833,106
17.56667,105
17.57500,105
17.58333,105
17.59167,104
17.60000,103
17.60833,103
17.61667,102
17.62500,102
17.63333,102
17.64167,101
17.65000,102
17.65833,101
17.66667,101
17.67500,101
17.68333,100
17.69167,100
17.70000,100
17.70833,100
17.71667,100
17.72500,100
17.73333,100
17.74167,99
17.75000,99
17.75833,98
17.76667,98
17.77500,98
17.78333,98
17.79167,98
17.80000,97
17.80833,97
17.81667,97
17.82500,97
17.83333,96
17.84167,96
17.85000,95
17.85833,95
17.86667,94
17.87500,94
17.88333,95
17.89167,95
17.90000,95
17.90833,94
17.91667,94
17.92500,94
17.93333,93
17.94167,93
17.95000,93
17.95833,93
17.96667,93
17.97500,92
17.98333,92
17.99167,92
18.00000,91
18.00833,91
18.01667,90
18.02500,90
18.03333,90
18.04167,89
18.05000,89
18.05833,89
18.06667,89
18.07500,89
18.08333,88
18.09167,88
18.10000,87
18.10833,87
18.11667,87
18.12500,87
18.13333,87
18.14167,87
18.15000,87
18.15833,86
18.16667,86
18.17500,86
18.18333,86
18.19167,85
18.20000,85
18.20833,84
18.21667,84
18.22500,85
18.23333,85
18.24167,85
18.25000,84
18.25833,84
18.26667,84
18.27500,83
18.28333,83
18.29167,82
18.30000,82
18.30833,82
18.31667,82
18.32500,82
18.33333,81
18.34167,81
18.35000,81
18.35833,80
18.36667,81
18.37500,81
18.38333,81
18.39167,81
18.40000,81
18.40833,80
18.41667,80
18.42500,80
18.43333,79
18.44167,79
18.45000,78
18.45833,78
18.46667,78
18.47500,78
18.48333,77
18.49167,78
18.50000,78
18.50833,78
18.51667,78
18.52500,78
18.53333,78
18.54167,77
18.55000,77
18.55833,77
18.56667,76
18.57500,76
18.58333,76
18.59167,75
18.60000,75
18.60833,75
18.61667,75
18.62500,76
18.63333,76
18.64167,76
18.65000,76
18.65833,76
18.66667,76
18.67500,76
18.68333,76
18.69167,76
18.70000,77
18.70833,77
18.71667,77
18.72500,78
18.73333,78
18.74167,79
18.75000,79
18.75833,80
18.76667,80
18.77500,81
18.78333,82
18.79167,83
18.80000,84
18.80833,85
18.81667,86
18.82500,87
18.83333,88
18.84167,89
18.85000,90
18.85833,90
18.86667,91
18.87500,91
18.88333,92
18.89167,93
18.90000,95
18.90833,97
18.91667,98
18.92500,99
18.93333,99
18.94167,100
18.95000,101
18.95833,102
18.96667,102
18.97500,103
18.98333,103
18.99167,103
19.00000,103
19.00833,103
19.01667,103
19.02500,102
19.03333,102
19.04167,102
19.05000,101
19.05833,101
19.06667,100
19.07500,99
19.08333,99
19.09167,98
19.10000,97
19.10833,96
19.11667,95
19.12500,95
19.13333,93
19.14167,92
19.15000,92
19.15833,91
19.16667,90
19.17500,89
19.18333,88
19.19167,87
19.20000,86
19.20833,84
19.21667,83
19.22500,82
19.23333,81
19.24167,80
19.25000,79
19.25833,78
19.26667,77
19.27500,76
19.28333,76
19.29167,75
19.30000,74
19.30833,73
19.31667,73
19.32500,73
19.33333,72
19.34167,72
19.35000,71
19.35833,71
19.36667,70
19.37500,70
19.38333,70
19.39167,70
19.40000,69
19.40833,69
19.41667,68
19.42500,68
19.43333,68
19.44167,67
19.45000,66
19.45833,66
19.46667,65
19.47500,65
19.48333,65
19.49167,64
19.50000,64
19.50833,65
19.51667,64
19.52500,64
19.53333,64
19.54167,64
19.55000,64
19.55833,64
19.56667,64
19.57500,64
19.58333,64
19.59167,64
19.60000,64
19.60833,64
19.61667,63
19.62500,63
19.63333,63
19.64167,63
19.65000,63
19.65833,63
19.66667,63
19.67500,62
19.68333,62
19.69167,62
19.70000,62
19.70833,62
19.71667,61
19.72500,61
19.73333,61
19.74167,61
19.75000,61
19.75833,61
19.76667,61
19.77500,60
19.78333,61
19.79167,61
19.80000,61
19.80833,61
19.81667,60
19.82500,60
19.83333,60
19.84167,60
19.85000,60
19.85833,60
19.86667,60
19.87500,60
19.88333,61
19.89167,60
19.90000,60
19.90833,60
19.91667,60
19.92500,60
19.93333,60
19.94167,59
19.95000,59
19.95833,59
19.96667,58
19.97500,58
19.98333,59
19.99167,59
20.00000,59
20.00833,59
20.01667,59
20.02500,59
20.03333,60
20.04167,60
20.05000,60
20.05833,59
20.06667,59
20.07500,59
20.08333,59
20.09167,59
20.10000,59
20.10833,59
20.11667,59
20.12500,59
20.13333,59
20.14167,60
20.15000,60
20.15833,60
20.16667,60
20.17500,60
20.18333,59
20.19167,59
20.20000,58
20.20833,58
20.21667,58
20.22500,58
20.23333,58
20.24167,58
20.25000,58
20.25833,58
20.26667,58
20.27500,58
20.28333,58
20.29167,58
20.30000,58
20.30833,58
20.31667,58
20.32500,57
20.33333,57
20.34167,57
20.35000,57
20.35833,57
20.36667,58
20.37500,58
20.38333,57
20.39167,57
20.40000,57
20.40833,58
20.41667,58
20.42500,58
20.43333,58
20.44167,57
20.45000,57
20.45833,57
20.46667,57
20.47500,57
20.48333,57
20.49167,57
20.50000,57
20.50833,57
20.51667,57
20.52500,57
20.53333,57
20.54167,57
20.55000,57
20.55833,56
20.56667,56
20.57500,56
20.58333,56
20.59167,57
20.60000,57
20.60833,57
20.61667,57
20.62500,57
20.63333,57
20.64167,57
20.65000,57
20.65833,57
20.66667,57
20.67500,57
20.68333,57
20.69167,56
20.70000,56
20.70833,57
20.71667,57
20.72500,57
20.73333,57
20.74167,57
20.75000,57
20.75833,56
20.76667,57
20.77500,57
20.78333,57
20.79167,57
20.80000,57
20.80833,57
20.81667,57
20.82500,57
20.83333,57
20.84167,57
20.85000,57
20.85833,56
20.86667,56
20.87500,56
20.88333,56
20.89167,56
20.90000,56
20.90833,56
20.91667,55
20.92500,55
20.93333,55
20.94167,55
20.95000,56
20.95833,56
20.96667,56
20.97500,56
20.98333,56
20.99167,56
21.00000,56
21.00833,55
21.01667,55
21.02500,55
21.03333,55
21.04167,56
21.05000,56
21.05833,56
21.06667,56
21.07500,56
21.08333,56
21.09167,55
21.10000,55
21.10833,55
21.11667,55
21.12500,55
21.13333,55
21.14167,55
21.15000,55
21.15833,55
21.16667,55
21.17500,56
21.18333,56
21.19167,56
21.20000,56
21.20833,56
21.21667,56
21.22500,57
21.23333,57
21.24167,57
21.25000,57
21.25833,57
21.26667,58
21.27500,58
21.28333,58
21.29167,58
21.30000,58
21.30833,58
21.31667,58
21.32500,59
21.33333,59
21.34167,59
21.35000,59
21.35833,60
21.36667,61
21.37500,62
21.38333,63
21.39167,64
21.40000,66
21.40833,68
21.41667,69
21.42500,71
21.43333,74
21.44167,76
21.45000,79
21.45833,82
21.46667,85
21.47500,89
21.48333,94
21.49167,99
21.50000,105
21.50833,111
21.51667,119
21.52500,127
21.53333,137
21.54167,147
21.55000,160
21.55833,174
21.56667,190
21.57500,207
21.58333,227
21.59167,250
21.60000,274
21.60833,303
21.61667,335
21.62500,370
21.63333,410
21.64167,454
21.65000,504
21.65833,559
21.66667,620
21.67500,688
21.68333,762
21.69167,844
21.70000,933
21.70833,1031
21.71667,1138
21.72500,1255
21.73333,1383
21.74167,1520
21.75000,1669
21.75833,1828
21.76667,2000
21.77500,2182
21.78333,2377
21.79167,2584
21.80000,2803
21.80833,3034
21.81667,3277
21.82500,3531
21.83333,3796
21.84167,4072
21.85000,4357
21.85833,4651
21.86667,4952
21.87500,5260
21.88333,5574
21.89167,5892
21.90000,6213
21.90833,6536
21.91667,6857
21.92500,7177
21.93333,7494
21.94167,7805
21.95000,8108
21.95833,8402
21.96667,8686
21.97500,8958
21.98333,9215
21.99167,9456
22.00000,9680
22.00833,9885
22.01667,10071
22.02500,10235
22.03333,10377
22.04167,10497
22.05000,10593
22.05833,10665
22.06667,10713
22.07500,10736
22.08333,10736
22.09167,10711
22.10000,10662
22.10833,10590
22.11667,10496
22.12500,10380
22.13333,10244
22.14167,10088
22.15000,9914
22.15833,9722
22.16667,9515
22.17500,9293
22.18333,9059
22.19167,8813
22.20000,8558
22.20833,8294
22.21667,8022
22.22500,7745
22.23333,7464
22.24167,7181
22.25000,6896
22.25833,6610
22.26667,6326
22.27500,6045
22.28333,5766
22.29167,5491
22.30000,5222
22.30833,4958
22.31667,4700
22.32500,4450
22.33333,4207
22.34167,3972
22.35000,3745
22.35833,3527
22.36667,3317
22.37500,3116
22.38333,2924
22.39167,2742
22.40000,2568
22.40833,2403
22.41667,2246
22.42500,2099
22.43333,1959
22.44167,1828
22.45000,1704
22.45833,1588
22.46667,1479
22.47500,1377
22.48333,1282
22.49167,1193
22.50000,1111
22.50833,1034
22.51667,963
22.52500,896
22.53333,834
22.54167,777
22.55000,725
22.55833,676
22.56667,631
22.57500,589
22.58333,551
22.59167,516
22.60000,483
22.60833,454
22.61667,426
22.62500,401
22.63333,378
22.64167,357
22.65000,338
22.65833,320
22.66667,304
22.67500,288
22.68333,274
22.69167,262
22.70000,250
22.70833,239
22.71667,229
22.72500,220
22.73333,211
22.74167,203
22.75000,196
22.75833,190
22.76667,184
22.77500,178
22.78333,173
22.79167,168
22.80000,164
22.80833,160
22.81667,156
22.82500,153
22.83333,150
22.84167,147
22.85000,144
22.85833,142
22.86667,139
22.87500,137
22.88333,135
22.89167,133
22.90000,131
22.90833,130
22.91667,128
22.92500,127
22.93333,126
22.94167,124
22.95000,123
22.95833,121
22.96667,120
22.97500,119
22.98333,118
22.99167,117
23.00000,116
23.00833,115
23.01667,114
23.02500,113
23.03333,112
23.04167,111
23.05000,111
23.05833,110
23.06667,109
23.07500,108
23.08333,107
23.09167,107
23.10000,106
23.10833,106
23.11667,105
23.12500,105
23.13333,104
23.14167,104
23.15000,103
23.15833,103
23.16667,102
23.17500,102
23.18333,101
23.19167,101
23.20000,101
23.20833,100
23.21667,100
23.22500,99
23.23333,99
23.24167,98
23.25000,98
23.25833,97
23.26667,97
23.27500,96
23.28333,96
23.29167,95
23.30000,95
23.30833,95
23.31667,95
23.32500,94
23.33333,94
23.34167,93
23.35000,93
23.35833,93
23.36667,93
23.37500,93
23.38333,93
23.39167,93
23.40000,92
23.40833,92
23.41667,92
23.42500,91
23.43333,91
23.44167,91
23.45000,90
23.45833,90
23.46667,89
23.47500,89
23.48333,88
23.49167,87
23.50000,87
23.50833,87
23.51667,86
23.52500,86
23.53333,86
23.54167,85
23.55000,85
23.55833,85
23.56667,84
23.57500,84
23.58333,84
23.59167,84
23.60000,85
23.60833,85
23.61667,84
23.62500,84
23.63333,84
23.64167,84
23.65000,83
23.65833,84
23.66667,84
23.67500,84
23.68333,83
23.69167,83
23.70000,83
23.70833,83
23.71667,82
23.72500,81
23.73333,81
23.74167,81
23.75000,81
23.75833,81
23.76667,81
23.77500,81
23.78333,81
23.79167,81
23.80000,81
23.80833,81
23.81667,81
23.82500,80
23.83333,80
23.84167,80
23.85000,80
23.85833,80
23.86667,80
23.87500,80
23.88333,80
23.89167,80
23.90000,80
23.90833,80
23.91667,80
23.92500,80
23.93333,80
23.94167,80
23.95000,80
23.95833,79
23.96667,79
23.97500,79
23.98333,78
23.99167,78
24.00000,78
24.00833,78
24.01667,78
24.02500,78
24.03333,78
24.04167,78
24.05000,78
24.05833,78
24.06667,78
24.07500,78
24.08333,78
24.09167,78
24.10000,78
24.10833,78
24.11667,78
24.12500,78
24.13333,78
24.14167,78
24.15000,78
24.15833,78
24.16667,78
24.17500,78
24.18333,78
24.19167,77
24.20000,77
24.20833,77
24.21667,77
24.22500,77
24.23333,77
24.24167,77
24.25000,77
24.25833,78
24.26667,78
24.27500,78
24.28333,78
24.29167,78
24.30000,78
24.30833,78
24.31667,79
24.32500,79
24.33333,79
24.34167,80
24.35000,81
24.35833,82
24.36667,83
24.37500,85
24.38333,86
24.39167,87
24.40000,89
24.40833,91
24.41667,92
24.42500,94
24.43333,96
24.44167,99
24.45000,102
24.45833,104
24.46667,108
24.47500,111
24.48333,116
24.49167,120
24.50000,126
24.50833,132
24.51667,138
24.52500,146
24.53333,154
24.54167,164
24.55000,175
24.55833,186
24.56667,198
24.57500,212
24.58333,227
24.59167,244
24.60000,262
24.60833,283
24.61667,305
24.62500,329
24.63333,356
24.64167,385
24.65000,417
24.65833,451
24.66667,487
24.67500,527
24.68333,569
24.69167,615
24.70000,663
24.70833,716
24.71667,772
24.72500,831
24.73333,894
24.74167,961
24.75000,1031
24.75833,1106
24.76667,1184
24.77500,1265
24.78333,1351
24.79167,1439
24.80000,1531
24.80833,1626
24.81667,1724
24.82500,1825
24.83333,1927
24.84167,2033
24.85000,2140
24.85833,2248
24.86667,2358
24.87500,2468
24.88333,2579
24.89167,2689
24.90000,2799
24.90833,2907
24.91667,3013
24.92500,3117
24.93333,3219
24.94167,3317
24.95000,3412
24.95833,3503
24.96667,3589
24.97500,3670
24.98333,3745
24.99167,3815
25.00000,3878
25.00833,3934
25.01667,3984
25.02500,4027
25.03333,4063
25.04167,4091
25.05000,4111
25.05833,4123
25.06667,4128
25.07500,4125
25.08333,4114
25.09167,4096
25.10000,4070
25.10833,4038
25.11667,3998
25.12500,3952
25.13333,3899
25.14167,3840
25.15000,3776
25.15833,3706
25.16667,3631
25.17500,3551
25.18333,3467
25.19167,3381
25.20000,3290
25.20833,3197
25.21667,3102
25.22500,3005
25.23333,2906
25.24167,2806
25.25000,2706
25.25833,2605
25.26667,2504
25.27500,2404
25.28333,2305
25.29167,2206
25.30000,2109
25.30833,2013
25.31667,1920
25.32500,1828
25.33333,1739
25.34167,1652
25.35000,1568
25.35833,1486
25.36667,1407
25.37500,1331
25.38333,1258
25.39167,1188
25.40000,1120
25.40833,1055
25.41667,994
25.42500,936
25.43333,880
25.44167,827
25.45000,777
25.45833,730
25.46667,685
25.47500,643
25.48333,604
25.49167,567
25.50000,532
25.50833,500
25.51667,470
25.52500,442
25.53333,415
25.54167,390
25.55000,367
25.55833,346
25.56667,326
25.57500,307
25.58333,291
25.59167,275
25.60000,260
25.60833,247
25.61667,235
25.62500,223
25.63333,213
25.64167,203
25.65000,194
25.65833,185
25.66667,178
25.67500,171
25.68333,164
25.69167,159
25.70000,153
25.70833,148
25.71667,143
25.72500,139
25.73333,135
25.74167,131
25.75000,128
25.75833,126
25.76667,123
25.77500,120
25.78333,118
25.79167,116
25.80000,114
25.80833,112
25.81667,110
25.82500,109
25.83333,108
25.84167,107
25.85000,105
25.85833,104
25.86667,103
25.87500,102
25.88333,101
25.89167,100
25.90000,99
25.90833,98
25.91667,98
25.92500,97
25.93333,96
25.94167,96
25.95000,95
25.95833,94
25.96667,94
25.97500,93
25.98333,93
25.99167,92
26.00000,91
26.00833,91
26.01667,91
26.02500,90
26.03333,90
26.04167,90
26.05000,90
26.05833,90
26.06667,89
26.07500,89
26.08333,89
26.09167,88
26.10000,88
26.10833,87
26.11667,87
26.12500,87
26.13333,86
26.14167,86
26.15000,86
26.15833,85
26.16667,85
26.17500,84
26.18333,84
26.19167,84
26.20000,84
26.20833,84
26.21667,84
26.22500,84
26.23333,84
26.24167,84
26.25000,84
26.25833,84
26.26667,84
26.27500,83
26.28333,83
26.29167,83
26.30000,83
26.30833,83
26.31667,83
26.32500,83
26.33333,83
26.34167,82
26.35000,82
26.35833,82
26.36667,82
26.37500,82
26.38333,81
26.39167,81
26.40000,81
26.40833,81
26.41667,81
26.42500,81
26.43333,81
26.44167,80
26.45000,80
26.45833,80
26.46667,79
26.47500,79
26.48333,79
26.49167,79
26.50000,79
26.50833,80
26.51667,80
26.52500,80
26.53333,80
26.54167,80
26.55000,80
26.55833,80
26.56667,80
26.57500,80
26.58333,80
26.59167,80
26.60000,80
26.60833,80
26.61667,80
26.62500,80
26.63333,80
26.64167,79
26.65000,79
26.65833,79
26.66667,79
26.67500,80
26.68333,80
26.69167,79
26.70000,80
26.70833,79
26.71667,79
26.72500,79
26.73333,79
26.74167,79
26.75000,79
26.75833,79
26.76667,79
26.77500,79
26.78333,79
26.79167,79
26.80000,79
26.80833,79
26.81667,78
26.82500,78
26.83333,78
26.84167,78
26.85000,78
26.85833,78
26.86667,78
26.87500,78
26.88333,78
26.89167,78
26.90000,78
26.90833,78
26.91667,77
26.92500,77
26.93333,77
26.94167,77
26.95000,77
26.95833,77
26.96667,77
26.97500,77
26.98333,77
26.99167,77
27.00000,77
27.00833,77
27.01667,77
27.02500,77
27.03333,76
27.04167,76
27.05000,76
27.05833,76
27.06667,76
27.07500,76
27.08333,76
27.09167,76
27.10000,75
27.10833,75
27.11667,76
27.12500,76
27.13333,76
27.14167,75
27.15000,75
27.15833,75
27.16667,75
27.17500,75
27.18333,76
27.19167,76
27.20000,75
27.20833,75
27.21667,75
27.22500,75
27.23333,75
27.24167,75
27.25000,75
27.25833,75
27.26667,75
27.27500,75
27.28333,75
27.29167,75
27.30000,75
27.30833,75
27.31667,75
27.32500,76
27.33333,75
27.34167,75
27.35000,75
27.35833,75
27.36667,75
27.37500,75
27.38333,75
27.39167,75
27.40000,75
27.40833,74
27.41667,74
27.42500,74
27.43333,74
27.44167,75
27.45000,75
27.45833,75
27.46667,75
27.47500,75
27.48333,75
27.49167,75
27.50000,75
27.50833,75
27.51667,75
27.52500,75
27.53333,74
27.54167,74
27.55000,74
27.55833,74
27.56667,74
27.57500,75
27.58333,75
27.59167,75
27.60000,75
27.60833,75
27.61667,74
27.62500,74
27.63333,74
27.64167,74
27.65000,74
27.65833,74
27.66667,74
27.67500,74
27.68333,74
27.69167,74
27.70000,74
27.70833,74
27.71667,74
27.72500,74
27.73333,74
27.74167,74
27.75000,74
27.75833,74
27.76667,74
27.77500,74
27.78333,73
27.79167,73
27.80000,72
27.80833,72
27.81667,71
27.82500,70
27.83333,70
27.84167,69
27.85000,69
27.85833,68
27.86667,67
27.87500,67
27.88333,66
27.89167,66
27.90000,65
27.90833,65
27.91667,64
27.92500,63
27.93333,62
27.94167,61
27.95000,60
27.95833,58
27.96667,57
27.97500,56
27.98333,55
27.99167,53
28.00000,52
28.00833,50
28.01667,49
28.02500,47
28.03333,44
28.04167,42
28.05000,40
28.05833,37
28.06667,35
28.07500,33
28.08333,30
28.09167,28
28.10000,25
28.10833,22
28.11667,19
28.12500,16
28.13333,13
28.14167,10
28.15000,7
28.15833,4
28.16667,1
28.17500,-2
28.18333,-5
28.19167,-8
28.20000,-12
28.20833,-15
28.21667,-18
28.22500,-21
28.23333,-24
28.24167,-27
28.25000,-31
28.25833,-34
28.26667,-37
28.27500,-41
28.28333,-44
28.29167,-47
28.30000,-50
28.30833,-53
28.31667,-56
28.32500,-59
28.33333,-62
28.34167,-65
28.35000,-67
28.35833,-69
28.36667,-72
28.37500,-74
28.38333,-75
28.39167,-77
28.40000,-78
28.40833,-79
28.41667,-80
28.42500,-81
28.43333,-82
28.44167,-83
28.45000,-83
28.45833,-84
28.46667,-84
28.47500,-84
28.48333,-84
28.49167,-83
28.50000,-83
28.50833,-82
28.51667,-81
28.52500,-79
28.53333,-78
28.54167,-77
28.55000,-76
28.55833,-74
28.56667,-73
28.57500,-71
28.58333,-69
28.59167,-67
28.60000,-65
28.60833,-63
28.61667,-60
28.62500,-58
28.63333,-55
28.64167,-52
28.65000,-49
28.65833,-46
28.66667,-43
28.67500,-40
28.68333,-37
28.69167,-34
28.70000,-31
28.70833,-28
28.71667,-25
28.72500,-22
28.73333,-20
28.74167,-17
28.75000,-14
28.75833,-11
28.76667,-8
28.77500,-5
28.78333,-3
28.79167,-0
28.80000,2
28.80833,4
28.81667,6
28.82500,9
28.83333,11
28.84167,14
28.85000,16
28.85833,18
28.86667,21
28.87500,23
28.88333,25
28.89167,27
28.90000,29
28.90833,30
28.91667,32
28.92500,34
28.93333,35
28.94167,37
28.95000,39
28.95833,40
28.96667,42
28.97500,43
28.98333,44
28.99167,45
29.00000,47
29.00833,48
29.01667,48
29.02500,49
29.03333,50
29.04167,51
29.05000,51
29.05833,52
29.06667,53
29.07500,54
29.08333,55
29.09167,55
29.10000,56
29.10833,57
29.11667,58
29.12500,58
29.13333,59
29.14167,59
29.15000,60
29.15833,60
29.16667,61
29.17500,61
29.18333,62
29.19167,62
29.20000,63
29.20833,63
29.21667,64
29.22500,64
29.23333,64
29.24167,64
29.25000,64
29.25833,64
29.26667,65
29.27500,65
29.28333,66
29.29167,66
29.30000,66
29.30833,66
29.31667,66
29.32500,66
29.33333,66
29.34167,66
29.35000,66
29.35833,67
29.36667,67
29.37500,67
29.38333,68
29.39167,68
29.40000,68
29.40833,68
29.41667,68
29.42500,68
29.43333,68
29.44167,68
29.45000,68
29.45833,68
29.46667,68
29.47500,68
29.48333,68
29.49167,68
29.50000,68
29.50833,67
29.51667,67
29.52500,67
29.53333,67
29.54167,67
29.55000,68
29.55833,68
29.56667,67
29.57500,67
29.58333,67
29.59167,66
29.60000,66
29.60833,66
29.61667,65
29.62500,65
29.63333,65
29.64167,65
29.65000,64
29.65833,64
29.66667,63
29.67500,63
29.68333,62
29.69167,62
29.70000,61
29.70833,61
29.71667,60
29.72500,60
29.73333,59
29.74167,58
29.75000,57
29.75833,57
29.76667,56
29.77500,55
29.78333,54
29.79167,53
29.80000,52
29.80833,51
29.81667,50
29.82500,49
29.83333,49
29.84167,48
29.85000,48
29.85833,47
29.86667,46
29.87500,45
29.88333,44
29.89167,42
29.90000,41
29.90833,40
29.91667,39
29.92500,38
29.93333,36
29.94167,35
29.95000,34
29.95833,32
29.96667,31
29.97500,30
29.98333,28
29.99167,27
30.00000,26
30.00833,25
30.01667,24
30.02500,23
30.03333,22
30.04167,21
30.05000,19
30.05833,19
30.06667,18
30.07500,17
30.08333,16
30.09167,15
30.10000,14
30.10833,13
30.11667,13
30.12500,12
30.13333,12
30.14167,12
30.15000,11
30.15833,11
30.16667,10
30.17500,10
30.18333,10
30.19167,10
30.20000,10
30.20833,9
30.21667,9
30.22500,9
30.23333,10
30.24167,10
30.25000,10
30.25833,10
30.26667,10
30.27500,10
30.28333,11
30.29167,11
30.30000,11
30.30833,12
30.31667,13
30.32500,13
30.33333,14
30.34167,15
30.35000,16
30.35833,17
30.36667,18
30.37500,20
30.38333,21
30.39167,22
30.40000,23
30.40833,24
30.41667,25
30.42500,25
30.43333,26
30.44167,27
30.45000,28
30.45833,29
30.46667,30
30.47500,31
30.48333,32
30.49167,33
30.50000,33
30.50833,34
30.51667,35
30.52500,36
30.53333,37
30.54167,38
30.55000,39
30.55833,41
30.56667,42
30.57500,43
30.58333,45
30.59167,46
30.60000,47
30.60833,48
30.61667,49
30.62500,50
30.63333,51
30.64167,52
30.65000,53
30.65833,53
30.66667,54
30.67500,55
30.68333,55
30.69167,55
30.70000,55
30.70833,56
30.71667,56
30.72500,57
30.73333,57
30.74167,57
30.75000,58
30.75833,58
30.76667,59
30.77500,59
30.78333,60
30.79167,61
30.80000,61
30.80833,62
30.81667,62
30.82500,63
30.83333,64
30.84167,64
30.85000,64
30.85833,64
30.86667,64
30.87500,65
30.88333,65
30.89167,65
30.90000,65
30.90833,66
30.91667,66
30.92500,67
30.93333,67
30.94167,67
30.95000,67
30.95833,67
30.96667,67
30.97500,67
30.98333,67
30.99167,66
31.00000,66
31.00833,66
31.01667,67
31.02500,67
31.03333,67
31.04167,67
31.05000,68
31.05833,68
31.06667,68
31.07500,68
31.08333,68
31.09167,69
31.10000,69
31.10833,69
31.11667,69
31.12500,69
31.13333,69
31.14167,69
31.15000,69
31.15833,69
31.16667,69
31.17500,69
31.18333,69
31.19167,69
31.20000,70
31.20833,70
31.21667,69
31.22500,69
31.23333,69
31.24167,69
31.25000,69
31.25833,69
31.26667,69
31.27500,69
31.28333,70
31.29167,70
31.30000,70
31.30833,71
31.31667,71
31.32500,71
31.33333,71
31.34167,71
31.35000,72
31.35833,72
31.36667,72
31.37500,72
31.38333,71
31.39167,71
31.40000,71
31.40833,71
31.41667,71
31.42500,71
31.43333,71
31.44167,72
31.45000,72
31.45833,72
31.46667,72
31.47500,72
31.48333,72
31.49167,73
31.50000,73
31.50833,73
31.51667,73
31.52500,73
31.53333,73
31.54167,73
31.55000,74
31.55833,74
31.56667,75
31.57500,75
31.58333,75
31.59167,75
31.60000,75
31.60833,75
31.61667,75
31.62500,76
31.63333,76
31.64167,76
31.65000,76
31.65833,76
31.66667,76
31.67500,76
31.68333,76
31.69167,76
31.70000,76
31.70833,76
31.71667,76
31.72500,76
31.73333,76
31.74167,76
31.75000,76
31.75833,76
31.76667,76
31.77500,76
31.78333,77
31.79167,77
31.80000,77
31.80833,77
31.81667,77
31.82500,77
31.83333,77
31.84167,77
31.85000,77
31.85833,76
31.86667,76
31.87500,76
31.88333,76
31.89167,76
31.90000,75
31.90833,75
31.91667,76
31.92500,76
31.93333,76
31.94167,76
31.95000,76
31.95833,76
31.96667,76
31.97500,76
31.98333,76
31.99167,77
32.00000,77
32.00833,77
32.01667,77
32.02500,77
32.03333,77
32.04167,77
32.05000,77
32.05833,77
32.06667,77
32.07500,77
32.08333,77
32.09167,77
32.10000,78
32.10833,78
32.11667,78
32.12500,78
32.13333,78
32.14167,78
32.15000,78
32.15833,79
32.16667,78
32.17500,78
32.18333,78
32.19167,77
32.20000,77
32.20833,77
32.21667,77
32.22500,77
32.23333,78
32.24167,78
32.25000,78
32.25833,78
32.26667,79
32.27500,79
32.28333,79
32.29167,79
32.30000,79
32.30833,80
32.31667,80
32.32500,80
32.33333,80
32.34167,80
32.35000,80
32.35833,79
32.36667,79
32.37500,79
32.38333,79
32.39167,79
32.40000,79
32.40833,79
32.41667,79
32.42500,79
32.43333,78
32.44167,78
32.45000,78
32.45833,78
32.46667,78
32.47500,78
32.48333,79
32.49167,79
32.50000,79
32.50833,80
32.51667,80
32.52500,80
32.53333,80
32.54167,80
32.55000,80
32.55833,80
32.56667,80
32.57500,80
32.58333,80
32.59167,80
32.60000,79
32.60833,79
32.61667,79
32.62500,79
32.63333,79
32.64167,79
32.65000,79
32.65833,79
32.66667,79
32.67500,79
32.68333,79
32.69167,79
32.70000,79
32.70833,79
32.71667,79
32.72500,80
32.73333,80
32.74167,80
32.75000,80
32.75833,80
32.76667,80
32.77500,80
32.78333,80
32.79167,81
32.80000,81
32.80833,80
32.81667,80
32.82500,80
32.83333,80
32.84167,80
32.85000,80
32.85833,80
32.86667,79
32.87500,79
32.88333,79
32.89167,79
32.90000,79
32.90833,79
32.91667,79
32.92500,80
32.93333,80
32.94167,80
32.95000,80
32.95833,80
32.96667,80
32.97500,80
32.98333,80
32.99167,80
33.00000,80
33.00833,80
33.01667,80
33.02500,80
33.03333,80
33.04167,80
33.05000,80
33.05833,80
33.06667,80
33.07500,79
33.08333,79
33.09167,79
33.10000,80
33.10833,80
33.11667,80
33.12500,80
33.13333,80
33.14167,80
33.15000,80
33.15833,81
33.16667,81
33.17500,81
33.18333,81
33.19167,81
33.20000,81
33.20833,81
33.21667,81
33.22500,81
33.23333,81
33.24167,80
33.25000,80
33.25833,80
33.26667,80
33.27500,81
33.28333,81
33.29167,81
33.30000,81
33.30833,81
33.31667,81
33.32500,80
33.33333,81
33.34167,81
33.35000,81
33.35833,81
33.36667,81
33.37500,80
33.38333,80
33.39167,81
33.40000,81
33.40833,81
33.41667,81
33.42500,81
33.43333,81
33.44167,81
33.45000,81
33.45833,81
33.46667,81
33.47500,81
33.48333,81
33.49167,81
33.50000,82
33.50833,82
33.51667,82
33.52500,81
33.53333,82
33.54167,82
33.55000,82
33.55833,82
33.56667,82
33.57500,82
33.58333,82
33.59167,82
33.60000,82
33.60833,81
33.61667,81
33.62500,81
33.63333,81
33.64167,82
33.65000,82
33.65833,81
33.66667,81
33.67500,81
33.68333,81
33.69167,81
33.70000,81
33.70833,81
33.71667,81
33.72500,82
33.73333,81
33.74167,81
33.75000,81
33.75833,82
33.76667,82
33.77500,82
33.78333,83
33.79167,83
33.80000,82
33.80833,82
33.81667,82
33.82500,82
33.83333,82
33.84167,82
33.85000,82
33.85833,82
33.86667,82
33.87500,82
33.88333,82
33.89167,82
33.90000,82
33.90833,82
33.91667,82
33.92500,82
33.93333,82
33.94167,82
33.95000,82
33.95833,82
33.96667,82
33.97500,82
33.98333,83
33.99167,82
34.00000,83
34.00833,82
34.01667,82
34.02500,82
34.03333,82
34.04167,82
34.05000,82
34.05833,82
34.06667,82
34.07500,82
34.08333,82
34.09167,82
34.10000,82
34.10833,82
34.11667,82
34.12500,83
34.13333,83
34.14167,84
34.15000,84
34.15833,84
34.16667,83
34.17500,83
34.18333,83
34.19167,83
34.20000,83
34.20833,83
34.21667,83
34.22500,83
34.23333,83
34.24167,83
34.25000,83
34.25833,83
34.26667,83
34.27500,83
34.28333,83
34.29167,83
34.30000,83
34.30833,83
34.31667,83
34.32500,83
34.33333,83
34.34167,83
34.35000,83
34.35833,83
34.36667,83
34.37500,83
34.38333,83
34.39167,83
34.40000,83
34.40833,83
34.41667,83
34.42500,83
34.43333,83
34.44167,83
34.45000,83
34.45833,83
34.46667,83
34.47500,83
34.48333,84
34.49167,84
34.50000,84
34.50833,84
34.51667,84
34.52500,84
34.53333,84
34.54167,84
34.55000,83
34.55833,83
34.56667,83
34.57500,83
34.58333,83
34.59167,83
34.60000,84
34.60833,84
34.61667,84
34.62500,84
34.63333,84
34.64167,84
34.65000,84
34.65833,84
34.66667,83
34.67500,84
34.68333,84
34.69167,84
34.70000,84
34.70833,85
34.71667,85
34.72500,85
34.73333,85
34.74167,85
34.75000,85
34.75833,84
34.76667,84
34.77500,84
34.78333,84
34.79167,84
34.80000,84
34.80833,84
34.81667,84
34.82500,85
34.83333,85
34.84167,85
34.85000,85
34.85833,85
34.86667,85
34.87500,85
34.88333,85
34.89167,85
34.90000,85
34.90833,85
34.91667,85
34.92500,86
34.93333,86
34.94167,86
34.95000,86
34.95833,86
34.96667,86
34.97500,85
34.98333,85
34.99167,85
35.00000,85
35.00833,85
35.01667,85
35.02500,85
35.03333,86
35.04167,86
35.05000,86
35.05833,86
35.06667,86
35.07500,86
35.08333,85
35.09167,86
35.10000,86
35.10833,86
35.11667,86
35.12500,86
35.13333,86
35.14167,87
35.15000,87
35.15833,87
35.16667,87
35.17500,87
35.18333,87
35.19167,87
35.20000,87
35.20833,86
35.21667,86
35.22500,86
35.23333,86
35.24167,85
35.25000,85
35.25833,85
35.26667,84
35.27500,84
35.28333,85
35.29167,86
35.30000,86
35.30833,86
35.31667,86
35.32500,86
35.33333,86
35.34167,86
35.35000,86
35.35833,86
35.36667,86
35.37500,86
35.38333,87
35.39167,87
35.40000,87
35.40833,87
35.41667,87
35.42500,87
35.43333,87
35.44167,87
35.45000,86
35.45833,86
35.46667,86
35.47500,86
35.48333,86
35.49167,85
35.50000,85
35.50833,85
35.51667,86
35.52500,86
35.53333,86
35.54167,86
35.55000,86
35.55833,86
35.56667,86
35.57500,87
35.58333,87
35.59167,87
35.60000,87
35.60833,87
35.61667,87
35.62500,87
35.63333,87
35.64167,87
35.65000,86
35.65833,86
35.66667,86
35.67500,86
35.68333,86
35.69167,86
35.70000,86
35.70833,86
35.71667,86
35.72500,86
35.73333,86
35.74167,86
35.75000,86
35.75833,86
35.76667,86
35.77500,86
35.78333,86
35.79167,86
35.80000,86
35.80833,86
35.81667,87
35.82500,87
35.83333,87
35.84167,88
35.85000,88
35.85833,88
35.86667,88
35.87500,88
35.88333,88
35.89167,87
35.90000,87
35.90833,87
35.91667,87
35.92500,87
35.93333,87
35.94167,87
35.95000,87
35.95833,87
35.96667,87
35.97500,87
35.98333,86
35.99167,86
36.00000,86
36.00833,86
36.01667,86
36.02500,86
36.03333,87
36.04167,87
36.05000,87
36.05833,87
36.06667,87
36.07500,88
36.08333,87
36.09167,88
36.10000,88
36.10833,88
36.11667,88
36.12500,88
36.13333,88
36.14167,87
36.15000,87
36.15833,86
36.16667,86
36.17500,86
36.18333,86
36.19167,86
36.20000,86
36.20833,86
36.21667,86
36.22500,86
36.23333,86
36.24167,86
36.25000,87
36.25833,87
36.26667,87
36.27500,87
36.28333,87
36.29167,87
36.30000,87
36.30833,87
36.31667,87
36.32500,87
36.33333,87
36.34167,87
36.35000,87
36.35833,87
36.36667,87
36.37500,87
36.38333,86
36.39167,86
36.40000,86
36.40833,86
36.41667,87
36.42500,87
36.43333,88
36.44167,88
36.45000,88
36.45833,88
36.46667,88
36.47500,88
36.48333,88
36.49167,88
36.50000,88
36.50833,88
36.51667,88
36.52500,87
36.53333,88
36.54167,88
36.55000,88
36.55833,88
36.56667,88
36.57500,88
36.58333,88
36.59167,88
36.60000,87
36.60833,88
36.61667,88
36.62500,87
36.63333,88
36.64167,88
36.65000,87
36.65833,87
36.66667,87
36.67500,87
36.68333,87
36.69167,87
36.70000,87
36.70833,87
36.71667,88
36.72500,88
36.73333,88
36.74167,88
36.75000,89
36.75833,89
36.76667,90
36.77500,90
36.78333,90
36.79167,90
36.80000,90
36.80833,90
36.81667,90
36.82500,90
36.83333,90
36.84167,90
36.85000,90
36.85833,90
36.86667,89
36.87500,89
36.88333,89
36.89167,89
36.90000,89
36.90833,90
36.91667,89
36.92500,89
36.93333,90
36.94167,89
36.95000,89
36.95833,89
36.96667,89
36.97500,89
36.98333,89
36.99167,90
37.00000,90
37.00833,90
37.01667,91
37.02500,91
37.03333,91
37.04167,92
37.05000,91
37.05833,91
37.06667,91
37.07500,91
37.08333,91
37.09167,91
37.10000,91
37.10833,91
37.11667,90
37.12500,90
37.13333,90
37.14167,90
37.15000,90
37.15833,90
37.16667,90
37.17500,90
37.18333,90
37.19167,90
37.20000,90
37.20833,90
37.21667,90
37.22500,90
37.23333,90
37.24167,91
37.25000,91
37.25833,91
37.26667,91
37.27500,91
37.28333,91
37.29167,91
37.30000,91
37.30833,91
37.31667,91
37.32500,91
37.33333,91
37.34167,91
37.35000,91
37.35833,91
37.36667,90
37.37500,90
37.38333,90
37.39167,90
37.40000,90
37.40833,90
37.41667,90
37.42500,90
37.43333,90
37.44167,90
37.45000,90
37.45833,91
37.46667,91
37.47500,91
37.48333,91
37.49167,91
37.50000,91
37.50833,91
37.51667,91
37.52500,91
37.53333,90
37.54167,90
37.55000,89
37.55833,89
37.56667,89
37.57500,89
37.58333,90
37.59167,90
37.60000,90
37.60833,90
37.61667,90
37.62500,90
37.63333,90
37.64167,91
37.65000,91
37.65833,91
37.66667,91
37.67500,91
37.68333,91
37.69167,91
37.70000,91
37.70833,92
37.71667,92
37.72500,92
37.73333,92
37.74167,92
37.75000,92
37.75833,92
37.76667,92
37.77500,92
37.78333,92
37.79167,92
37.80000,91
37.80833,91
37.81667,91
37.82500,91
37.83333,91
37.84167,91
37.85000,91
37.85833,91
37.86667,92
37.87500,92
37.88333,92
37.89167,92
37.90000,92
37.90833,92
37.91667,92
37.92500,92
37.93333,92
37.94167,92
37.95000,92
37.95833,93
37.96667,93
37.97500,93
37.98333,92
37.99167,92
38.00000,92
38.00833,92
38.01667,92
38.02500,92
38.03333,92
38.04167,92
38.05000,92
38.05833,92
38.06667,92
38.07500,92
38.08333,92
38.09167,92
38.10000,92
38.10833,92
38.11667,92
38.12500,92
38.13333,93
38.14167,93
38.15000,93
38.15833,93
38.16667,93
38.17500,93
38.18333,93
38.19167,93
38.20000,93
38.20833,94
38.21667,94
38.22500,94
38.23333,94
38.24167,94
38.25000,94
38.25833,95
38.26667,95
38.27500,95
38.28333,95
38.29167,95
38.30000,94
38.30833,94
38.31667,94
38.32500,94
38.33333,94
38.34167,93
38.35000,93
38.35833,93
38.36667,94
38.37500,94
38.38333,95
38.39167,95
38.40000,95
38.40833,95
38.41667,95
38.42500,95
38.43333,95
38.44167,95
38.45000,95
38.45833,95
38.46667,95
38.47500,95
38.48333,96
38.49167,96
38.50000,96
38.50833,96
38.51667,96
38.52500,96
38.53333,95
38.54167,95
38.55000,95
38.55833,94
38.56667,94
38.57500,94
38.58333,94
38.59167,94
38.60000,94
38.60833,94
38.61667,94
38.62500,94
38.63333,94
38.64167,95
38.65000,95
38.65833,95
38.66667,95
38.67500,96
38.68333,96
38.69167,96
38.70000,95
38.70833,95
38.71667,95
38.72500,95
38.73333,95
38.74167,95
38.75000,95
38.75833,95
38.76667,95
38.77500,95
38.78333,95
38.79167,95
38.80000,95
38.80833,95
38.81667,95
38.82500,94
38.83333,94
38.84167,94
38.85000,94
38.85833,94
38.86667,94
38.87500,94
38.88333,95
38.89167,95
38.90000,95
38.90833,95
38.91667,95
38.92500,95
38.93333,95
38.94167,95
38.95000,94
38.95833,95
38.96667,95
38.97500,95
38.98333,95
38.99167,95
39.00000,94
39.00833,94
39.01667,94
39.02500,94
39.03333,94
39.04167,94
39.05000,94
39.05833,94
39.06667,94
39.07500,94
39.08333,94
39.09167,94
39.10000,95
39.10833,95
39.11667,95
39.12500,95
39.13333,95
39.14167,95
39.15000,95
39.15833,95
39.16667,95
39.17500,95
39.18333,95
39.19167,94
39.20000,94
39.20833,94
39.21667,94
39.22500,94
39.23333,94
39.24167,94
39.25000,94
39.25833,94
39.26667,94
39.27500,94
39.28333,94
39.29167,94
39.30000,94
39.30833,94
39.31667,93
39.32500,93
39.33333,93
39.34167,94
39.35000,94
39.35833,94
39.36667,94
39.37500,94
39.38333,94
39.39167,94
39.40000,94
39.40833,94
39.41667,93
39.42500,93
39.43333,93
39.44167,94
39.45000,95
39.45833,95
39.46667,95
39.47500,95
39.48333,95
39.49167,95
39.50000,94
39.50833,94
39.51667,94
39.52500,93
39.53333,93
39.54167,93
39.55000,93
39.55833,93
39.56667,94
39.57500,94
39.58333,94
39.59167,94
39.60000,94
39.60833,94
39.61667,94
39.62500,94
39.63333,94
39.64167,95
39.65000,95
39.65833,95
39.66667,95
39.67500,95
39.68333,95
39.69167,95
39.70000,95
39.70833,95
39.71667,96
39.72500,95
39.73333,95
39.74167,95
39.75000,95
39.75833,95
39.76667,94
39.77500,94
39.78333,94
39.79167,94
39.80000,94
39.80833,94
39.81667,94
39.82500,94
39.83333,94
39.84167,94
39.85000,94
39.85833,94
39.86667,93
39.87500,93
39.88333,94
39.89167,94
39.90000,95
39.90833,95
39.91667,95
39.92500,96
39.93333,96
39.94167,96
39.95000,96
39.95833,96
39.96667,96
39.97500,95
39.98333,95
39.99167,95
40.00000,95

