[Header]
Application Name,LabSolutions
Version,5.97 SP1
Data File Name,C:\Users\cremerlab\Desktop\griffin\2021-03-31_NCM3722_NCglucose_turnover\2021-03-31_NCM3722_turnover_batch_3312021_001_029.lcd
Output Date,4/1/2021
Output Time,4:45:18 PM

[File Information]
Type,Data File
Generated,4/1/2021 4:04:58 PM
Generated by,System Administrator
Modified,4/1/2021 4:45:18 PM
Modified by,System Administrator

[Sample Information]
Operator Name,System Administrator
Acquired,4/1/2021 4:05:17 PM
Sample Type,1:Standard
Level,1
Sample Name,2021-03-31_glucose_glycerol_acetate_calibration_30mM
Sample ID,001
ISTD Amount1,1
ISTD Amount2,1
ISTD Amount3,1
ISTD Amount4,1
ISTD Amount5,1
ISTD Amount6,1
ISTD Amount7,1
ISTD Amount8,1
ISTD Amount9,1
ISTD Amount10,1
ISTD Amount11,1
ISTD Amount12,1
ISTD Amount13,1
ISTD Amount14,1
ISTD Amount15,1
ISTD Amount16,1
ISTD Amount17,1
ISTD Amount18,1
ISTD Amount19,1
ISTD Amount20,1
ISTD Amount21,1
ISTD Amount22,1
ISTD Amount23,1
ISTD Amount24,1
ISTD Amount25,1
ISTD Amount26,1
ISTD Amount27,1
ISTD Amount28,1
ISTD Amount29,1
ISTD Amount30,1
ISTD Amount31,1
ISTD Amount32,1
Sample Amount,1
Dilution Factor,1
Vial#,1
Injection Volume,20

[Original Files]
Data File,C:\Users\cremerlab\Desktop\griffin\2021-03-31_NCM3722_NCglucose_turnover\2021-03-31_NCM3722_turnover_batch_3312021_001_029.lcd
Method File,C:\LabSolutions\Data\Project1\organicacidsetc2.lcm
Batch File,C:\Users\cremerlab\Desktop\griffin\2021-03-31_NCM3722_NCglucose_turnover\2021-03-31_NCM3722_turnover_batch.lcb
Report Format File,c:\LabSolutions\System\DEFAULT.lsr

[File Description]


[Configuration]
Instrument Name,HPLC-PC-Instrument1
Instrument #,1
Line #,1
# of Detectors,2
Detector ID,Detector A,Detector B
Detector Name,Detector A,Detector B
# of Channels,1,1

[Peak Table(Detector A)]
# of Peaks,0

[Peak Table(Detector B)]
# of Peaks,4
Peak#,R.Time,I.Time,F.Time,Area,Height,A/H,Conc.,Mark,ID#,Name,k',Plate #,Plate Ht.,Tailing,Resolution,Sep.Factor,Area Ratio,Height Ratio,Conc. %,Norm Conc.
1,11.895,10.958,12.800,1092387,11859,92.113,0.000,   ,,,0.000,714,210.219,0.972,0.000,0.000,0,0,0.000,0.000
2,15.654,14.900,18.583,3207323,132003,24.297,0.000,   ,,,0.316,9755,15.377,1.152,3.113,0.000,0,0,0.000,0.000
3,22.079,21.300,23.675,894983,32944,27.167,0.000,   ,,,0.856,15364,9.763,1.092,9.544,2.709,0,0,0.000,0.000
4,25.062,24.300,26.300,366229,12433,29.455,0.000,   ,,,1.107,16652,9.008,1.072,4.005,1.293,0,0,0.000,0.000

[LC Chromatogram(Detector B-Ch1)]
Interval(msec),500
# of Points,4801
Start Time(min),0.000
End Time(min),40.000
Intensity Units,mV
Intensity Multiplier,0.001
R.Time (min),Intensity
0.00000,99
0.00833,99
0.01667,1
0.02500,3
0.03333,4
0.04167,6
0.05000,7
0.05833,8
0.06667,9
0.07500,10
0.08333,11
0.09167,12
0.10000,13
0.10833,14
0.11667,15
0.12500,16
0.13333,17
0.14167,18
0.15000,19
0.15833,20
0.16667,21
0.17500,21
0.18333,22
0.19167,23
0.20000,24
0.20833,24
0.21667,25
0.22500,25
0.23333,25
0.24167,26
0.25000,26
0.25833,27
0.26667,27
0.27500,27
0.28333,27
0.29167,27
0.30000,27
0.30833,27
0.31667,27
0.32500,27
0.33333,28
0.34167,28
0.35000,28
0.35833,28
0.36667,28
0.37500,28
0.38333,29
0.39167,29
0.40000,29
0.40833,28
0.41667,28
0.42500,29
0.43333,29
0.44167,29
0.45000,29
0.45833,29
0.46667,29
0.47500,29
0.48333,29
0.49167,28
0.50000,28
0.50833,28
0.51667,28
0.52500,28
0.53333,28
0.54167,28
0.55000,28
0.55833,28
0.56667,28
0.57500,28
0.58333,28
0.59167,27
0.60000,27
0.60833,27
0.61667,27
0.62500,26
0.63333,26
0.64167,25
0.65000,24
0.65833,24
0.66667,23
0.67500,23
0.68333,23
0.69167,23
0.70000,22
0.70833,22
0.71667,21
0.72500,21
0.73333,20
0.74167,20
0.75000,20
0.75833,19
0.76667,19
0.77500,18
0.78333,18
0.79167,18
0.80000,18
0.80833,17
0.81667,17
0.82500,17
0.83333,17
0.84167,17
0.85000,16
0.85833,16
0.86667,16
0.87500,15
0.88333,15
0.89167,15
0.90000,15
0.90833,15
0.91667,14
0.92500,14
0.93333,13
0.94167,13
0.95000,13
0.95833,12
0.96667,12
0.97500,11
0.98333,11
0.99167,10
1.00000,10
1.00833,10
1.01667,10
1.02500,9
1.03333,8
1.04167,7
1.05000,7
1.05833,7
1.06667,6
1.07500,6
1.08333,6
1.09167,5
1.10000,5
1.10833,5
1.11667,5
1.12500,5
1.13333,5
1.14167,4
1.15000,4
1.15833,4
1.16667,3
1.17500,3
1.18333,2
1.19167,2
1.20000,1
1.20833,0
1.21667,-0
1.22500,-1
1.23333,-1
1.24167,-1
1.25000,-1
1.25833,-2
1.26667,-2
1.27500,-2
1.28333,-2
1.29167,-2
1.30000,-3
1.30833,-3
1.31667,-3
1.32500,-3
1.33333,-3
1.34167,-3
1.35000,-4
1.35833,-4
1.36667,-4
1.37500,-5
1.38333,-5
1.39167,-5
1.40000,-5
1.40833,-6
1.41667,-6
1.42500,-7
1.43333,-7
1.44167,-8
1.45000,-8
1.45833,-8
1.46667,-9
1.47500,-9
1.48333,-9
1.49167,-10
1.50000,-10
1.50833,-10
1.51667,-11
1.52500,-11
1.53333,-11
1.54167,-11
1.55000,-12
1.55833,-12
1.56667,-12
1.57500,-12
1.58333,-12
1.59167,-12
1.60000,-13
1.60833,-13
1.61667,-13
1.62500,-14
1.63333,-14
1.64167,-14
1.65000,-14
1.65833,-15
1.66667,-15
1.67500,-15
1.68333,-16
1.69167,-16
1.70000,-16
1.70833,-16
1.71667,-16
1.72500,-16
1.73333,-16
1.74167,-16
1.75000,-16
1.75833,-17
1.76667,-17
1.77500,-17
1.78333,-18
1.79167,-18
1.80000,-18
1.80833,-18
1.81667,-18
1.82500,-18
1.83333,-18
1.84167,-18
1.85000,-18
1.85833,-18
1.86667,-19
1.87500,-19
1.88333,-19
1.89167,-19
1.90000,-20
1.90833,-20
1.91667,-21
1.92500,-21
1.93333,-22
1.94167,-22
1.95000,-22
1.95833,-22
1.96667,-22
1.97500,-22
1.98333,-22
1.99167,-22
2.00000,-22
2.00833,-23
2.01667,-23
2.02500,-23
2.03333,-23
2.04167,-23
2.05000,-23
2.05833,-23
2.06667,-23
2.07500,-23
2.08333,-24
2.09167,-24
2.10000,-24
2.10833,-25
2.11667,-25
2.12500,-25
2.13333,-25
2.14167,-25
2.15000,-25
2.15833,-26
2.16667,-26
2.17500,-27
2.18333,-27
2.19167,-27
2.20000,-26
2.20833,-26
2.21667,-26
2.22500,-26
2.23333,-26
2.24167,-26
2.25000,-26
2.25833,-26
2.26667,-26
2.27500,-26
2.28333,-27
2.29167,-27
2.30000,-27
2.30833,-27
2.31667,-28
2.32500,-28
2.33333,-28
2.34167,-28
2.35000,-29
2.35833,-29
2.36667,-29
2.37500,-30
2.38333,-30
2.39167,-30
2.40000,-30
2.40833,-30
2.41667,-30
2.42500,-30
2.43333,-30
2.44167,-30
2.45000,-30
2.45833,-30
2.46667,-31
2.47500,-31
2.48333,-30
2.49167,-30
2.50000,-30
2.50833,-30
2.51667,-31
2.52500,-31
2.53333,-32
2.54167,-33
2.55000,-33
2.55833,-34
2.56667,-35
2.57500,-35
2.58333,-36
2.59167,-37
2.60000,-38
2.60833,-39
2.61667,-40
2.62500,-41
2.63333,-42
2.64167,-44
2.65000,-45
2.65833,-47
2.66667,-49
2.67500,-51
2.68333,-52
2.69167,-54
2.70000,-56
2.70833,-58
2.71667,-60
2.72500,-63
2.73333,-66
2.74167,-69
2.75000,-72
2.75833,-75
2.76667,-79
2.77500,-83
2.78333,-87
2.79167,-92
2.80000,-96
2.80833,-101
2.81667,-106
2.82500,-111
2.83333,-117
2.84167,-122
2.85000,-128
2.85833,-134
2.86667,-141
2.87500,-147
2.88333,-154
2.89167,-162
2.90000,-169
2.90833,-177
2.91667,-185
2.92500,-194
2.93333,-202
2.94167,-211
2.95000,-221
2.95833,-230
2.96667,-240
2.97500,-250
2.98333,-261
2.99167,-272
3.00000,-284
3.00833,-296
3.01667,-307
3.02500,-319
3.03333,-331
3.04167,-343
3.05000,-356
3.05833,-368
3.06667,-381
3.07500,-394
3.08333,-407
3.09167,-420
3.10000,-433
3.10833,-446
3.11667,-460
3.12500,-474
3.13333,-488
3.14167,-502
3.15000,-515
3.15833,-529
3.16667,-542
3.17500,-556
3.18333,-569
3.19167,-583
3.20000,-596
3.20833,-609
3.21667,-623
3.22500,-636
3.23333,-649
3.24167,-662
3.25000,-675
3.25833,-688
3.26667,-700
3.27500,-713
3.28333,-724
3.29167,-736
3.30000,-747
3.30833,-758
3.31667,-769
3.32500,-780
3.33333,-791
3.34167,-801
3.35000,-811
3.35833,-821
3.36667,-831
3.37500,-840
3.38333,-850
3.39167,-859
3.40000,-868
3.40833,-876
3.41667,-885
3.42500,-893
3.43333,-901
3.44167,-909
3.45000,-916
3.45833,-924
3.46667,-931
3.47500,-937
3.48333,-944
3.49167,-951
3.50000,-957
3.50833,-963
3.51667,-969
3.52500,-974
3.53333,-979
3.54167,-985
3.55000,-990
3.55833,-995
3.56667,-1000
3.57500,-1004
3.58333,-1009
3.59167,-1013
3.60000,-1018
3.60833,-1022
3.61667,-1027
3.62500,-1031
3.63333,-1036
3.64167,-1040
3.65000,-1044
3.65833,-1047
3.66667,-1051
3.67500,-1055
3.68333,-1059
3.69167,-1063
3.70000,-1067
3.70833,-1071
3.71667,-1075
3.72500,-1079
3.73333,-1083
3.74167,-1088
3.75000,-1092
3.75833,-1096
3.76667,-1100
3.77500,-1104
3.78333,-1108
3.79167,-1112
3.80000,-1116
3.80833,-1121
3.81667,-1125
3.82500,-1129
3.83333,-1134
3.84167,-1138
3.85000,-1142
3.85833,-1146
3.86667,-1150
3.87500,-1155
3.88333,-1159
3.89167,-1162
3.90000,-1166
3.90833,-1170
3.91667,-1174
3.92500,-1179
3.93333,-1183
3.94167,-1187
3.95000,-1192
3.95833,-1196
3.96667,-1200
3.97500,-1204
3.98333,-1208
3.99167,-1212
4.00000,-1215
4.00833,-1218
4.01667,-1222
4.02500,-1225
4.03333,-1229
4.04167,-1232
4.05000,-1235
4.05833,-1237
4.06667,-1240
4.07500,-1243
4.08333,-1246
4.09167,-1248
4.10000,-1250
4.10833,-1252
4.11667,-1255
4.12500,-1257
4.13333,-1258
4.14167,-1259
4.15000,-1261
4.15833,-1261
4.16667,-1262
4.17500,-1262
4.18333,-1263
4.19167,-1263
4.20000,-1263
4.20833,-1262
4.21667,-1262
4.22500,-1262
4.23333,-1261
4.24167,-1261
4.25000,-1260
4.25833,-1258
4.26667,-1257
4.27500,-1254
4.28333,-1252
4.29167,-1250
4.30000,-1247
4.30833,-1245
4.31667,-1243
4.32500,-1240
4.33333,-1237
4.34167,-1234
4.35000,-1231
4.35833,-1228
4.36667,-1225
4.37500,-1222
4.38333,-1218
4.39167,-1215
4.40000,-1212
4.40833,-1208
4.41667,-1205
4.42500,-1201
4.43333,-1197
4.44167,-1193
4.45000,-1189
4.45833,-1185
4.46667,-1181
4.47500,-1177
4.48333,-1174
4.49167,-1169
4.50000,-1166
4.50833,-1162
4.51667,-1158
4.52500,-1154
4.53333,-1151
4.54167,-1147
4.55000,-1144
4.55833,-1140
4.56667,-1137
4.57500,-1133
4.58333,-1130
4.59167,-1127
4.60000,-1123
4.60833,-1120
4.61667,-1117
4.62500,-1115
4.63333,-1113
4.64167,-1111
4.65000,-1108
4.65833,-1106
4.66667,-1104
4.67500,-1102
4.68333,-1100
4.69167,-1098
4.70000,-1096
4.70833,-1095
4.71667,-1093
4.72500,-1092
4.73333,-1090
4.74167,-1089
4.75000,-1087
4.75833,-1086
4.76667,-1084
4.77500,-1083
4.78333,-1082
4.79167,-1081
4.80000,-1081
4.80833,-1080
4.81667,-1080
4.82500,-1080
4.83333,-1079
4.84167,-1079
4.85000,-1079
4.85833,-1078
4.86667,-1078
4.87500,-1078
4.88333,-1077
4.89167,-1077
4.90000,-1077
4.90833,-1076
4.91667,-1076
4.92500,-1076
4.93333,-1075
4.94167,-1075
4.95000,-1075
4.95833,-1074
4.96667,-1074
4.97500,-1073
4.98333,-1072
4.99167,-1071
5.00000,-1070
5.00833,-1069
5.01667,-1068
5.02500,-1067
5.03333,-1065
5.04167,-1064
5.05000,-1062
5.05833,-1061
5.06667,-1060
5.07500,-1058
5.08333,-1057
5.09167,-1055
5.10000,-1054
5.10833,-1052
5.11667,-1050
5.12500,-1048
5.13333,-1046
5.14167,-1043
5.15000,-1041
5.15833,-1038
5.16667,-1035
5.17500,-1033
5.18333,-1030
5.19167,-1027
5.20000,-1024
5.20833,-1021
5.21667,-1018
5.22500,-1014
5.23333,-1011
5.24167,-1008
5.25000,-1004
5.25833,-1001
5.26667,-997
5.27500,-993
5.28333,-989
5.29167,-986
5.30000,-982
5.30833,-978
5.31667,-974
5.32500,-971
5.33333,-967
5.34167,-963
5.35000,-959
5.35833,-956
5.36667,-952
5.37500,-948
5.38333,-945
5.39167,-941
5.40000,-937
5.40833,-933
5.41667,-930
5.42500,-926
5.43333,-922
5.44167,-918
5.45000,-915
5.45833,-911
5.46667,-907
5.47500,-904
5.48333,-900
5.49167,-897
5.50000,-893
5.50833,-890
5.51667,-886
5.52500,-883
5.53333,-879
5.54167,-876
5.55000,-873
5.55833,-870
5.56667,-867
5.57500,-864
5.58333,-861
5.59167,-859
5.60000,-856
5.60833,-853
5.61667,-851
5.62500,-848
5.63333,-845
5.64167,-842
5.65000,-839
5.65833,-837
5.66667,-834
5.67500,-831
5.68333,-829
5.69167,-826
5.70000,-823
5.70833,-821
5.71667,-819
5.72500,-816
5.73333,-814
5.74167,-812
5.75000,-810
5.75833,-807
5.76667,-806
5.77500,-804
5.78333,-802
5.79167,-800
5.80000,-797
5.80833,-795
5.81667,-793
5.82500,-791
5.83333,-789
5.84167,-787
5.85000,-784
5.85833,-782
5.86667,-780
5.87500,-777
5.88333,-774
5.89167,-772
5.90000,-770
5.90833,-768
5.91667,-766
5.92500,-764
5.93333,-761
5.94167,-758
5.95000,-755
5.95833,-753
5.96667,-750
5.97500,-748
5.98333,-745
5.99167,-743
6.00000,-740
6.00833,-737
6.01667,-734
6.02500,-731
6.03333,-729
6.04167,-726
6.05000,-723
6.05833,-720
6.06667,-717
6.07500,-714
6.08333,-712
6.09167,-709
6.10000,-706
6.10833,-702
6.11667,-699
6.12500,-695
6.13333,-692
6.14167,-689
6.15000,-686
6.15833,-682
6.16667,-679
6.17500,-676
6.18333,-673
6.19167,-669
6.20000,-666
6.20833,-663
6.21667,-660
6.22500,-656
6.23333,-653
6.24167,-649
6.25000,-645
6.25833,-641
6.26667,-637
6.27500,-634
6.28333,-630
6.29167,-627
6.30000,-624
6.30833,-620
6.31667,-617
6.32500,-613
6.33333,-609
6.34167,-605
6.35000,-601
6.35833,-598
6.36667,-594
6.37500,-591
6.38333,-587
6.39167,-583
6.40000,-579
6.40833,-575
6.41667,-571
6.42500,-567
6.43333,-564
6.44167,-560
6.45000,-556
6.45833,-552
6.46667,-548
6.47500,-543
6.48333,-539
6.49167,-535
6.50000,-532
6.50833,-528
6.51667,-524
6.52500,-521
6.53333,-518
6.54167,-514
6.55000,-510
6.55833,-506
6.56667,-502
6.57500,-498
6.58333,-494
6.59167,-490
6.60000,-486
6.60833,-482
6.61667,-478
6.62500,-474
6.63333,-470
6.64167,-466
6.65000,-462
6.65833,-458
6.66667,-454
6.67500,-451
6.68333,-446
6.69167,-443
6.70000,-439
6.70833,-435
6.71667,-432
6.72500,-428
6.73333,-425
6.74167,-421
6.75000,-417
6.75833,-413
6.76667,-409
6.77500,-405
6.78333,-402
6.79167,-398
6.80000,-395
6.80833,-391
6.81667,-388
6.82500,-384
6.83333,-380
6.84167,-377
6.85000,-373
6.85833,-369
6.86667,-366
6.87500,-362
6.88333,-359
6.89167,-355
6.90000,-352
6.90833,-349
6.91667,-345
6.92500,-342
6.93333,-338
6.94167,-335
6.95000,-332
6.95833,-329
6.96667,-327
6.97500,-324
6.98333,-321
6.99167,-318
7.00000,-315
7.00833,-312
7.01667,-309
7.02500,-306
7.03333,-303
7.04167,-300
7.05000,-297
7.05833,-294
7.06667,-291
7.07500,-288
7.08333,-286
7.09167,-283
7.10000,-281
7.10833,-279
7.11667,-276
7.12500,-273
7.13333,-271
7.14167,-269
7.15000,-267
7.15833,-265
7.16667,-263
7.17500,-260
7.18333,-258
7.19167,-257
7.20000,-255
7.20833,-253
7.21667,-251
7.22500,-249
7.23333,-247
7.24167,-245
7.25000,-243
7.25833,-242
7.26667,-240
7.27500,-238
7.28333,-236
7.29167,-235
7.30000,-233
7.30833,-232
7.31667,-230
7.32500,-228
7.33333,-227
7.34167,-226
7.35000,-224
7.35833,-223
7.36667,-222
7.37500,-220
7.38333,-219
7.39167,-217
7.40000,-216
7.40833,-215
7.41667,-213
7.42500,-213
7.43333,-212
7.44167,-211
7.45000,-210
7.45833,-209
7.46667,-208
7.47500,-207
7.48333,-206
7.49167,-205
7.50000,-205
7.50833,-203
7.51667,-203
7.52500,-202
7.53333,-201
7.54167,-200
7.55000,-199
7.55833,-198
7.56667,-197
7.57500,-197
7.58333,-196
7.59167,-196
7.60000,-195
7.60833,-195
7.61667,-194
7.62500,-193
7.63333,-192
7.64167,-191
7.65000,-191
7.65833,-191
7.66667,-191
7.67500,-190
7.68333,-190
7.69167,-190
7.70000,-190
7.70833,-190
7.71667,-189
7.72500,-189
7.73333,-188
7.74167,-188
7.75000,-187
7.75833,-187
7.76667,-186
7.77500,-186
7.78333,-185
7.79167,-185
7.80000,-184
7.80833,-183
7.81667,-183
7.82500,-182
7.83333,-182
7.84167,-181
7.85000,-181
7.85833,-181
7.86667,-181
7.87500,-180
7.88333,-180
7.89167,-180
7.90000,-180
7.90833,-179
7.91667,-179
7.92500,-178
7.93333,-178
7.94167,-178
7.95000,-177
7.95833,-177
7.96667,-176
7.97500,-176
7.98333,-176
7.99167,-175
8.00000,-175
8.00833,-174
8.01667,-173
8.02500,-173
8.03333,-172
8.04167,-172
8.05000,-172
8.05833,-172
8.06667,-171
8.07500,-171
8.08333,-171
8.09167,-170
8.10000,-169
8.10833,-169
8.11667,-169
8.12500,-169
8.13333,-168
8.14167,-168
8.15000,-168
8.15833,-167
8.16667,-167
8.17500,-166
8.18333,-165
8.19167,-165
8.20000,-164
8.20833,-163
8.21667,-163
8.22500,-163
8.23333,-162
8.24167,-162
8.25000,-162
8.25833,-162
8.26667,-162
8.27500,-161
8.28333,-161
8.29167,-160
8.30000,-160
8.30833,-159
8.31667,-158
8.32500,-158
8.33333,-158
8.34167,-157
8.35000,-157
8.35833,-157
8.36667,-157
8.37500,-157
8.38333,-156
8.39167,-156
8.40000,-156
8.40833,-156
8.41667,-155
8.42500,-155
8.43333,-154
8.44167,-154
8.45000,-153
8.45833,-152
8.46667,-152
8.47500,-152
8.48333,-151
8.49167,-151
8.50000,-150
8.50833,-150
8.51667,-150
8.52500,-150
8.53333,-149
8.54167,-149
8.55000,-148
8.55833,-148
8.56667,-147
8.57500,-147
8.58333,-146
8.59167,-146
8.60000,-146
8.60833,-145
8.61667,-145
8.62500,-145
8.63333,-144
8.64167,-144
8.65000,-143
8.65833,-142
8.66667,-141
8.67500,-141
8.68333,-141
8.69167,-140
8.70000,-140
8.70833,-140
8.71667,-139
8.72500,-139
8.73333,-139
8.74167,-138
8.75000,-138
8.75833,-138
8.76667,-138
8.77500,-137
8.78333,-137
8.79167,-136
8.80000,-136
8.80833,-135
8.81667,-135
8.82500,-134
8.83333,-134
8.84167,-133
8.85000,-133
8.85833,-133
8.86667,-132
8.87500,-132
8.88333,-132
8.89167,-131
8.90000,-130
8.90833,-130
8.91667,-129
8.92500,-130
8.93333,-129
8.94167,-129
8.95000,-128
8.95833,-127
8.96667,-127
8.97500,-126
8.98333,-126
8.99167,-125
9.00000,-125
9.00833,-124
9.01667,-124
9.02500,-124
9.03333,-124
9.04167,-124
9.05000,-124
9.05833,-124
9.06667,-124
9.07500,-124
9.08333,-123
9.09167,-122
9.10000,-122
9.10833,-122
9.11667,-121
9.12500,-121
9.13333,-120
9.14167,-120
9.15000,-120
9.15833,-119
9.16667,-119
9.17500,-118
9.18333,-118
9.19167,-117
9.20000,-117
9.20833,-117
9.21667,-116
9.22500,-116
9.23333,-115
9.24167,-115
9.25000,-115
9.25833,-114
9.26667,-114
9.27500,-114
9.28333,-113
9.29167,-113
9.30000,-113
9.30833,-113
9.31667,-113
9.32500,-112
9.33333,-112
9.34167,-113
9.35000,-112
9.35833,-112
9.36667,-111
9.37500,-111
9.38333,-110
9.39167,-109
9.40000,-109
9.40833,-108
9.41667,-108
9.42500,-108
9.43333,-108
9.44167,-108
9.45000,-107
9.45833,-107
9.46667,-107
9.47500,-106
9.48333,-106
9.49167,-106
9.50000,-106
9.50833,-106
9.51667,-105
9.52500,-105
9.53333,-105
9.54167,-105
9.55000,-105
9.55833,-104
9.56667,-104
9.57500,-104
9.58333,-104
9.59167,-103
9.60000,-102
9.60833,-102
9.61667,-101
9.62500,-101
9.63333,-100
9.64167,-100
9.65000,-100
9.65833,-100
9.66667,-100
9.67500,-100
9.68333,-99
9.69167,-99
9.70000,-99
9.70833,-98
9.71667,-98
9.72500,-98
9.73333,-97
9.74167,-97
9.75000,-97
9.75833,-97
9.76667,-96
9.77500,-96
9.78333,-96
9.79167,-96
9.80000,-96
9.80833,-96
9.81667,-95
9.82500,-95
9.83333,-95
9.84167,-95
9.85000,-95
9.85833,-95
9.86667,-94
9.87500,-94
9.88333,-93
9.89167,-93
9.90000,-93
9.90833,-92
9.91667,-92
9.92500,-92
9.93333,-91
9.94167,-90
9.95000,-90
9.95833,-90
9.96667,-90
9.97500,-90
9.98333,-90
9.99167,-89
10.00000,-89
10.00833,-89
10.01667,-89
10.02500,-89
10.03333,-89
10.04167,-89
10.05000,-89
10.05833,-88
10.06667,-88
10.07500,-88
10.08333,-88
10.09167,-87
10.10000,-87
10.10833,-87
10.11667,-87
10.12500,-87
10.13333,-87
10.14167,-87
10.15000,-87
10.15833,-87
10.16667,-86
10.17500,-86
10.18333,-85
10.19167,-84
10.20000,-84
10.20833,-84
10.21667,-84
10.22500,-84
10.23333,-84
10.24167,-84
10.25000,-84
10.25833,-84
10.26667,-84
10.27500,-84
10.28333,-84
10.29167,-84
10.30000,-83
10.30833,-83
10.31667,-82
10.32500,-82
10.33333,-81
10.34167,-81
10.35000,-80
10.35833,-80
10.36667,-80
10.37500,-80
10.38333,-80
10.39167,-80
10.40000,-79
10.40833,-79
10.41667,-79
10.42500,-79
10.43333,-78
10.44167,-78
10.45000,-79
10.45833,-79
10.46667,-79
10.47500,-80
10.48333,-80
10.49167,-80
10.50000,-80
10.50833,-80
10.51667,-80
10.52500,-81
10.53333,-81
10.54167,-81
10.55000,-81
10.55833,-82
10.56667,-82
10.57500,-83
10.58333,-84
10.59167,-86
10.60000,-88
10.60833,-91
10.61667,-95
10.62500,-101
10.63333,-109
10.64167,-121
10.65000,-138
10.65833,-162
10.66667,-194
10.67500,-237
10.68333,-296
10.69167,-373
10.70000,-474
10.70833,-605
10.71667,-771
10.72500,-981
10.73333,-1241
10.74167,-1559
10.75000,-1944
10.75833,-2403
10.76667,-2944
10.77500,-3572
10.78333,-4290
10.79167,-5100
10.80000,-6002
10.80833,-6991
10.81667,-8060
10.82500,-9200
10.83333,-10396
10.84167,-11632
10.85000,-12892
10.85833,-14153
10.86667,-15396
10.87500,-16599
10.88333,-17742
10.89167,-18804
10.90000,-19768
10.90833,-20618
10.91667,-21342
10.92500,-21930
10.93333,-22375
10.94167,-22674
10.95000,-22826
10.95833,-22834
10.96667,-22703
10.97500,-22440
10.98333,-22054
10.99167,-21556
11.00000,-20957
11.00833,-20270
11.01667,-19508
11.02500,-18684
11.03333,-17811
11.04167,-16901
11.05000,-15967
11.05833,-15019
11.06667,-14068
11.07500,-13123
11.08333,-12193
11.09167,-11286
11.10000,-10407
11.10833,-9562
11.11667,-8755
11.12500,-7989
11.13333,-7267
11.14167,-6589
11.15000,-5957
11.15833,-5371
11.16667,-4830
11.17500,-4332
11.18333,-3878
11.19167,-3464
11.20000,-3088
11.20833,-2749
11.21667,-2444
11.22500,-2171
11.23333,-1926
11.24167,-1707
11.25000,-1513
11.25833,-1341
11.26667,-1187
11.27500,-1052
11.28333,-932
11.29167,-825
11.30000,-731
11.30833,-647
11.31667,-573
11.32500,-507
11.33333,-448
11.34167,-395
11.35000,-348
11.35833,-305
11.36667,-265
11.37500,-230
11.38333,-197
11.39167,-166
11.40000,-137
11.40833,-110
11.41667,-85
11.42500,-60
11.43333,-37
11.44167,-14
11.45000,7
11.45833,29
11.46667,49
11.47500,69
11.48333,89
11.49167,108
11.50000,127
11.50833,146
11.51667,163
11.52500,181
11.53333,198
11.54167,215
11.55000,232
11.55833,249
11.56667,265
11.57500,281
11.58333,297
11.59167,312
11.60000,328
11.60833,343
11.61667,357
11.62500,372
11.63333,386
11.64167,400
11.65000,413
11.65833,426
11.66667,439
11.67500,452
11.68333,465
11.69167,477
11.70000,488
11.70833,499
11.71667,509
11.72500,519
11.73333,529
11.74167,538
11.75000,546
11.75833,554
11.76667,562
11.77500,569
11.78333,576
11.79167,582
11.80000,588
11.80833,594
11.81667,598
11.82500,603
11.83333,606
11.84167,610
11.85000,612
11.85833,615
11.86667,617
11.87500,618
11.88333,619
11.89167,619
11.90000,619
11.90833,619
11.91667,617
11.92500,616
11.93333,613
11.94167,610
11.95000,607
11.95833,603
11.96667,599
11.97500,594
11.98333,589
11.99167,584
12.00000,578
12.00833,572
12.01667,565
12.02500,558
12.03333,551
12.04167,543
12.05000,534
12.05833,526
12.06667,517
12.07500,507
12.08333,498
12.09167,489
12.10000,479
12.10833,469
12.11667,459
12.12500,449
12.13333,439
12.14167,428
12.15000,418
12.15833,407
12.16667,397
12.17500,387
12.18333,376
12.19167,366
12.20000,355
12.20833,345
12.21667,334
12.22500,324
12.23333,314
12.24167,303
12.25000,293
12.25833,282
12.26667,272
12.27500,262
12.28333,252
12.29167,243
12.30000,234
12.30833,225
12.31667,216
12.32500,207
12.33333,198
12.34167,189
12.35000,181
12.35833,173
12.36667,165
12.37500,157
12.38333,149
12.39167,142
12.40000,134
12.40833,127
12.41667,121
12.42500,114
12.43333,108
12.44167,102
12.45000,96
12.45833,90
12.46667,84
12.47500,79
12.48333,74
12.49167,68
12.50000,63
12.50833,57
12.51667,52
12.52500,48
12.53333,43
12.54167,39
12.55000,35
12.55833,31
12.56667,27
12.57500,23
12.58333,19
12.59167,16
12.60000,13
12.60833,10
12.61667,7
12.62500,4
12.63333,1
12.64167,-1
12.65000,-3
12.65833,-5
12.66667,-7
12.67500,-9
12.68333,-11
12.69167,-14
12.70000,-15
12.70833,-17
12.71667,-19
12.72500,-21
12.73333,-22
12.74167,-23
12.75000,-25
12.75833,-25
12.76667,-26
12.77500,-27
12.78333,-28
12.79167,-28
12.80000,-28
12.80833,-28
12.81667,-28
12.82500,-27
12.83333,-27
12.84167,-26
12.85000,-25
12.85833,-25
12.86667,-24
12.87500,-23
12.88333,-22
12.89167,-21
12.90000,-20
12.90833,-19
12.91667,-18
12.92500,-16
12.93333,-14
12.94167,-13
12.95000,-11
12.95833,-10
12.96667,-8
12.97500,-7
12.98333,-5
12.99167,-4
13.00000,-2
13.00833,-1
13.01667,1
13.02500,2
13.03333,4
13.04167,5
13.05000,7
13.05833,9
13.06667,10
13.07500,11
13.08333,12
13.09167,13
13.10000,15
13.10833,16
13.11667,18
13.12500,19
13.13333,21
13.14167,22
13.15000,23
13.15833,24
13.16667,25
13.17500,25
13.18333,26
13.19167,26
13.20000,27
13.20833,28
13.21667,28
13.22500,28
13.23333,28
13.24167,28
13.25000,28
13.25833,27
13.26667,27
13.27500,27
13.28333,26
13.29167,26
13.30000,26
13.30833,25
13.31667,24
13.32500,22
13.33333,21
13.34167,19
13.35000,18
13.35833,16
13.36667,14
13.37500,12
13.38333,11
13.39167,9
13.40000,7
13.40833,5
13.41667,3
13.42500,1
13.43333,-1
13.44167,-4
13.45000,-6
13.45833,-8
13.46667,-10
13.47500,-12
13.48333,-14
13.49167,-16
13.50000,-18
13.50833,-21
13.51667,-23
13.52500,-25
13.53333,-27
13.54167,-28
13.55000,-30
13.55833,-31
13.56667,-32
13.57500,-34
13.58333,-35
13.59167,-36
13.60000,-38
13.60833,-39
13.61667,-40
13.62500,-41
13.63333,-42
13.64167,-43
13.65000,-44
13.65833,-45
13.66667,-46
13.67500,-47
13.68333,-48
13.69167,-49
13.70000,-49
13.70833,-50
13.71667,-50
13.72500,-50
13.73333,-51
13.74167,-51
13.75000,-52
13.75833,-52
13.76667,-52
13.77500,-52
13.78333,-53
13.79167,-53
13.80000,-53
13.80833,-53
13.81667,-53
13.82500,-53
13.83333,-53
13.84167,-53
13.85000,-53
13.85833,-53
13.86667,-54
13.87500,-54
13.88333,-54
13.89167,-54
13.90000,-53
13.90833,-53
13.91667,-54
13.92500,-54
13.93333,-54
13.94167,-54
13.95000,-53
13.95833,-53
13.96667,-53
13.97500,-54
13.98333,-53
13.99167,-53
14.00000,-53
14.00833,-53
14.01667,-53
14.02500,-53
14.03333,-53
14.04167,-53
14.05000,-52
14.05833,-52
14.06667,-52
14.07500,-52
14.08333,-51
14.09167,-52
14.10000,-52
14.10833,-52
14.11667,-52
14.12500,-52
14.13333,-52
14.14167,-52
14.15000,-52
14.15833,-53
14.16667,-53
14.17500,-53
14.18333,-52
14.19167,-52
14.20000,-52
14.20833,-51
14.21667,-51
14.22500,-51
14.23333,-51
14.24167,-51
14.25000,-51
14.25833,-50
14.26667,-50
14.27500,-50
14.28333,-50
14.29167,-49
14.30000,-49
14.30833,-49
14.31667,-49
14.32500,-49
14.33333,-48
14.34167,-48
14.35000,-48
14.35833,-48
14.36667,-48
14.37500,-48
14.38333,-48
14.39167,-49
14.40000,-49
14.40833,-49
14.41667,-48
14.42500,-48
14.43333,-48
14.44167,-48
14.45000,-48
14.45833,-48
14.46667,-48
14.47500,-48
14.48333,-48
14.49167,-48
14.50000,-48
14.50833,-48
14.51667,-48
14.52500,-47
14.53333,-47
14.54167,-47
14.55000,-47
14.55833,-47
14.56667,-47
14.57500,-47
14.58333,-47
14.59167,-47
14.60000,-47
14.60833,-46
14.61667,-46
14.62500,-46
14.63333,-46
14.64167,-45
14.65000,-45
14.65833,-45
14.66667,-44
14.67500,-44
14.68333,-44
14.69167,-43
14.70000,-44
14.70833,-44
14.71667,-44
14.72500,-44
14.73333,-43
14.74167,-43
14.75000,-43
14.75833,-42
14.76667,-42
14.77500,-42
14.78333,-42
14.79167,-41
14.80000,-41
14.80833,-42
14.81667,-41
14.82500,-41
14.83333,-40
14.84167,-40
14.85000,-39
14.85833,-39
14.86667,-38
14.87500,-38
14.88333,-37
14.89167,-36
14.90000,-35
14.90833,-33
14.91667,-32
14.92500,-31
14.93333,-29
14.94167,-28
14.95000,-26
14.95833,-24
14.96667,-21
14.97500,-18
14.98333,-15
14.99167,-11
15.00000,-8
15.00833,-4
15.01667,0
15.02500,5
15.03333,11
15.04167,18
15.05000,26
15.05833,35
15.06667,45
15.07500,57
15.08333,71
15.09167,87
15.10000,107
15.10833,129
15.11667,156
15.12500,187
15.13333,224
15.14167,269
15.15000,321
15.15833,383
15.16667,456
15.17500,543
15.18333,647
15.19167,770
15.20000,915
15.20833,1087
15.21667,1290
15.22500,1529
15.23333,1809
15.24167,2136
15.25000,2517
15.25833,2959
15.26667,3471
15.27500,4061
15.28333,4739
15.29167,5513
15.30000,6396
15.30833,7395
15.31667,8524
15.32500,9792
15.33333,11210
15.34167,12789
15.35000,14538
15.35833,16468
15.36667,18584
15.37500,20895
15.38333,23407
15.39167,26122
15.40000,29044
15.40833,32171
15.41667,35502
15.42500,39031
15.43333,42751
15.44167,46650
15.45000,50717
15.45833,54934
15.46667,59283
15.47500,63741
15.48333,68287
15.49167,72892
15.50000,77530
15.50833,82169
15.51667,86778
15.52500,91325
15.53333,95776
15.54167,100099
15.55000,104261
15.55833,108229
15.56667,111974
15.57500,115466
15.58333,118678
15.59167,121585
15.60000,124166
15.60833,126402
15.61667,128278
15.62500,129781
15.63333,130904
15.64167,131642
15.65000,131995
15.65833,131964
15.66667,131556
15.67500,130781
15.68333,129650
15.69167,128179
15.70000,126385
15.70833,124288
15.71667,121909
15.72500,119272
15.73333,116402
15.74167,113324
15.75000,110063
15.75833,106645
15.76667,103096
15.77500,99440
15.78333,95702
15.79167,91906
15.80000,88074
15.80833,84228
15.81667,80388
15.82500,76572
15.83333,72799
15.84167,69083
15.85000,65438
15.85833,61877
15.86667,58410
15.87500,55046
15.88333,51793
15.89167,48657
15.90000,45643
15.90833,42753
15.91667,39991
15.92500,37359
15.93333,34855
15.94167,32481
15.95000,30234
15.95833,28113
15.96667,26113
15.97500,24233
15.98333,22468
15.99167,20815
16.00000,19270
16.00833,17827
16.01667,16482
16.02500,15232
16.03333,14070
16.04167,12992
16.05000,11993
16.05833,11069
16.06667,10215
16.07500,9428
16.08333,8701
16.09167,8032
16.10000,7417
16.10833,6851
16.11667,6331
16.12500,5853
16.13333,5415
16.14167,5013
16.15000,4644
16.15833,4307
16.16667,3999
16.17500,3716
16.18333,3457
16.19167,3220
16.20000,3003
16.20833,2804
16.21667,2623
16.22500,2457
16.23333,2304
16.24167,2165
16.25000,2037
16.25833,1920
16.26667,1812
16.27500,1714
16.28333,1623
16.29167,1540
16.30000,1463
16.30833,1393
16.31667,1328
16.32500,1267
16.33333,1212
16.34167,1161
16.35000,1114
16.35833,1071
16.36667,1030
16.37500,992
16.38333,957
16.39167,925
16.40000,895
16.40833,867
16.41667,840
16.42500,815
16.43333,793
16.44167,771
16.45000,751
16.45833,732
16.46667,715
16.47500,698
16.48333,682
16.49167,667
16.50000,653
16.50833,640
16.51667,628
16.52500,616
16.53333,605
16.54167,594
16.55000,584
16.55833,574
16.56667,566
16.57500,557
16.58333,549
16.59167,541
16.60000,534
16.60833,526
16.61667,519
16.62500,513
16.63333,507
16.64167,500
16.65000,494
16.65833,488
16.66667,482
16.67500,477
16.68333,472
16.69167,467
16.70000,462
16.70833,457
16.71667,452
16.72500,447
16.73333,444
16.74167,440
16.75000,436
16.75833,432
16.76667,428
16.77500,424
16.78333,420
16.79167,416
16.80000,412
16.80833,409
16.81667,405
16.82500,401
16.83333,397
16.84167,394
16.85000,390
16.85833,386
16.86667,383
16.87500,379
16.88333,376
16.89167,372
16.90000,368
16.90833,365
16.91667,361
16.92500,358
16.93333,355
16.94167,352
16.95000,348
16.95833,345
16.96667,341
16.97500,338
16.98333,334
16.99167,331
17.00000,327
17.00833,324
17.01667,321
17.02500,317
17.03333,314
17.04167,311
17.05000,307
17.05833,304
17.06667,300
17.07500,297
17.08333,293
17.09167,290
17.10000,287
17.10833,284
17.11667,281
17.12500,278
17.13333,276
17.14167,273
17.15000,270
17.15833,267
17.16667,265
17.17500,262
17.18333,259
17.19167,257
17.20000,254
17.20833,252
17.21667,249
17.22500,247
17.23333,245
17.24167,242
17.25000,240
17.25833,238
17.26667,236
17.27500,234
17.28333,232
17.29167,230
17.30000,228
17.30833,226
17.31667,224
17.32500,222
17.33333,220
17.34167,219
17.35000,217
17.35833,216
17.36667,214
17.37500,212
17.38333,211
17.39167,209
17.40000,208
17.40833,207
17.41667,205
17.42500,204
17.43333,202
17.44167,201
17.45000,200
17.45833,198
17.46667,197
17.47500,195
17.48333,194
17.49167,192
17.50000,191
17.50833,190
17.51667,189
17.52500,188
17.53333,187
17.54167,186
17.55000,185
17.55833,184
17.56667,183
17.57500,182
17.58333,181
17.59167,180
17.60000,179
17.60833,178
17.61667,177
17.62500,176
17.63333,176
17.64167,175
17.65000,174
17.65833,173
17.66667,172
17.67500,172
17.68333,171
17.69167,170
17.70000,169
17.70833,168
17.71667,167
17.72500,167
17.73333,166
17.74167,165
17.75000,164
17.75833,162
17.76667,161
17.77500,161
17.78333,160
17.79167,159
17.80000,158
17.80833,158
17.81667,157
17.82500,157
17.83333,157
17.84167,156
17.85000,155
17.85833,154
17.86667,154
17.87500,153
17.88333,152
17.89167,151
17.90000,149
17.90833,149
17.91667,148
17.92500,147
17.93333,146
17.94167,146
17.95000,145
17.95833,144
17.96667,143
17.97500,142
17.98333,142
17.99167,141
18.00000,140
18.00833,139
18.01667,139
18.02500,138
18.03333,138
18.04167,137
18.05000,137
18.05833,136
18.06667,135
18.07500,134
18.08333,133
18.09167,132
18.10000,131
18.10833,131
18.11667,130
18.12500,130
18.13333,129
18.14167,128
18.15000,127
18.15833,127
18.16667,126
18.17500,125
18.18333,124
18.19167,123
18.20000,122
18.20833,121
18.21667,120
18.22500,119
18.23333,118
18.24167,118
18.25000,117
18.25833,116
18.26667,116
18.27500,115
18.28333,115
18.29167,114
18.30000,113
18.30833,113
18.31667,112
18.32500,111
18.33333,110
18.34167,109
18.35000,109
18.35833,108
18.36667,108
18.37500,107
18.38333,107
18.39167,106
18.40000,105
18.40833,104
18.41667,103
18.42500,102
18.43333,102
18.44167,101
18.45000,100
18.45833,100
18.46667,99
18.47500,98
18.48333,97
18.49167,97
18.50000,96
18.50833,96
18.51667,95
18.52500,95
18.53333,94
18.54167,94
18.55000,93
18.55833,93
18.56667,92
18.57500,92
18.58333,92
18.59167,91
18.60000,91
18.60833,90
18.61667,89
18.62500,89
18.63333,89
18.64167,88
18.65000,88
18.65833,87
18.66667,87
18.67500,87
18.68333,88
18.69167,88
18.70000,88
18.70833,88
18.71667,88
18.72500,88
18.73333,88
18.74167,88
18.75000,89
18.75833,90
18.76667,90
18.77500,91
18.78333,92
18.79167,92
18.80000,93
18.80833,94
18.81667,95
18.82500,96
18.83333,97
18.84167,98
18.85000,99
18.85833,100
18.86667,101
18.87500,102
18.88333,103
18.89167,104
18.90000,104
18.90833,105
18.91667,106
18.92500,106
18.93333,107
18.94167,107
18.95000,108
18.95833,108
18.96667,109
18.97500,109
18.98333,109
18.99167,109
19.00000,110
19.00833,109
19.01667,109
19.02500,109
19.03333,108
19.04167,108
19.05000,107
19.05833,106
19.06667,105
19.07500,104
19.08333,103
19.09167,102
19.10000,102
19.10833,100
19.11667,99
19.12500,98
19.13333,96
19.14167,94
19.15000,92
19.15833,91
19.16667,89
19.17500,87
19.18333,85
19.19167,84
19.20000,82
19.20833,80
19.21667,79
19.22500,78
19.23333,77
19.24167,76
19.25000,75
19.25833,73
19.26667,72
19.27500,70
19.28333,69
19.29167,67
19.30000,66
19.30833,65
19.31667,64
19.32500,63
19.33333,62
19.34167,61
19.35000,60
19.35833,59
19.36667,58
19.37500,57
19.38333,57
19.39167,56
19.40000,56
19.40833,55
19.41667,55
19.42500,54
19.43333,53
19.44167,53
19.45000,52
19.45833,51
19.46667,51
19.47500,51
19.48333,50
19.49167,50
19.50000,50
19.50833,50
19.51667,50
19.52500,49
19.53333,48
19.54167,48
19.55000,47
19.55833,47
19.56667,46
19.57500,46
19.58333,46
19.59167,45
19.60000,45
19.60833,45
19.61667,45
19.62500,44
19.63333,44
19.64167,43
19.65000,43
19.65833,43
19.66667,43
19.67500,43
19.68333,43
19.69167,43
19.70000,43
19.70833,43
19.71667,42
19.72500,42
19.73333,42
19.74167,42
19.75000,42
19.75833,42
19.76667,41
19.77500,41
19.78333,41
19.79167,41
19.80000,41
19.80833,40
19.81667,40
19.82500,39
19.83333,39
19.84167,39
19.85000,39
19.85833,39
19.86667,39
19.87500,39
19.88333,38
19.89167,38
19.90000,38
19.90833,38
19.91667,37
19.92500,37
19.93333,37
19.94167,37
19.95000,37
19.95833,36
19.96667,36
19.97500,37
19.98333,37
19.99167,36
20.00000,36
20.00833,36
20.01667,36
20.02500,35
20.03333,35
20.04167,35
20.05000,35
20.05833,35
20.06667,34
20.07500,34
20.08333,34
20.09167,33
20.10000,33
20.10833,33
20.11667,32
20.12500,32
20.13333,32
20.14167,33
20.15000,33
20.15833,33
20.16667,32
20.17500,32
20.18333,32
20.19167,32
20.20000,32
20.20833,32
20.21667,32
20.22500,32
20.23333,32
20.24167,32
20.25000,32
20.25833,32
20.26667,31
20.27500,31
20.28333,31
20.29167,31
20.30000,31
20.30833,31
20.31667,31
20.32500,31
20.33333,30
20.34167,30
20.35000,30
20.35833,30
20.36667,30
20.37500,30
20.38333,29
20.39167,29
20.40000,29
20.40833,29
20.41667,29
20.42500,30
20.43333,29
20.44167,29
20.45000,28
20.45833,28
20.46667,28
20.47500,28
20.48333,28
20.49167,28
20.50000,28
20.50833,28
20.51667,28
20.52500,27
20.53333,27
20.54167,27
20.55000,27
20.55833,27
20.56667,27
20.57500,26
20.58333,26
20.59167,26
20.60000,26
20.60833,25
20.61667,25
20.62500,25
20.63333,25
20.64167,25
20.65000,25
20.65833,26
20.66667,26
20.67500,26
20.68333,26
20.69167,26
20.70000,26
20.70833,26
20.71667,26
20.72500,25
20.73333,25
20.74167,25
20.75000,25
20.75833,24
20.76667,24
20.77500,24
20.78333,24
20.79167,24
20.80000,25
20.80833,24
20.81667,24
20.82500,23
20.83333,23
20.84167,23
20.85000,23
20.85833,23
20.86667,24
20.87500,24
20.88333,24
20.89167,24
20.90000,24
20.90833,23
20.91667,23
20.92500,23
20.93333,23
20.94167,23
20.95000,23
20.95833,23
20.96667,23
20.97500,23
20.98333,24
20.99167,23
21.00000,23
21.00833,22
21.01667,22
21.02500,22
21.03333,22
21.04167,22
21.05000,22
21.05833,22
21.06667,22
21.07500,22
21.08333,22
21.09167,22
21.10000,22
21.10833,22
21.11667,22
21.12500,22
21.13333,22
21.14167,22
21.15000,23
21.15833,23
21.16667,22
21.17500,22
21.18333,22
21.19167,22
21.20000,22
21.20833,22
21.21667,22
21.22500,23
21.23333,23
21.24167,24
21.25000,24
21.25833,25
21.26667,25
21.27500,26
21.28333,26
21.29167,26
21.30000,27
21.30833,28
21.31667,30
21.32500,31
21.33333,33
21.34167,34
21.35000,37
21.35833,39
21.36667,41
21.37500,44
21.38333,48
21.39167,52
21.40000,56
21.40833,61
21.41667,66
21.42500,72
21.43333,78
21.44167,86
21.45000,95
21.45833,105
21.46667,116
21.47500,129
21.48333,143
21.49167,159
21.50000,177
21.50833,198
21.51667,221
21.52500,247
21.53333,277
21.54167,311
21.55000,349
21.55833,393
21.56667,442
21.57500,498
21.58333,560
21.59167,630
21.60000,708
21.60833,796
21.61667,895
21.62500,1006
21.63333,1129
21.64167,1267
21.65000,1420
21.65833,1590
21.66667,1779
21.67500,1988
21.68333,2218
21.69167,2471
21.70000,2749
21.70833,3053
21.71667,3385
21.72500,3747
21.73333,4139
21.74167,4564
21.75000,5022
21.75833,5515
21.76667,6044
21.77500,6609
21.78333,7210
21.79167,7850
21.80000,8526
21.80833,9238
21.81667,9987
21.82500,10771
21.83333,11589
21.84167,12438
21.85000,13317
21.85833,14223
21.86667,15153
21.87500,16104
21.88333,17072
21.89167,18053
21.90000,19042
21.90833,20035
21.91667,21027
21.92500,22013
21.93333,22987
21.94167,23945
21.95000,24880
21.95833,25788
21.96667,26663
21.97500,27499
21.98333,28292
21.99167,29036
22.00000,29727
22.00833,30361
22.01667,30933
22.02500,31441
22.03333,31881
22.04167,32251
22.05000,32549
22.05833,32772
22.06667,32921
22.07500,32995
22.08333,32993
22.09167,32917
22.10000,32768
22.10833,32547
22.11667,32256
22.12500,31899
22.13333,31477
22.14167,30994
22.15000,30455
22.15833,29863
22.16667,29223
22.17500,28538
22.18333,27813
22.19167,27053
22.20000,26262
22.20833,25446
22.21667,24608
22.22500,23754
22.23333,22887
22.24167,22012
22.25000,21133
22.25833,20253
22.26667,19377
22.27500,18507
22.28333,17647
22.29167,16800
22.30000,15967
22.30833,15153
22.31667,14359
22.32500,13586
22.33333,12837
22.34167,12112
22.35000,11412
22.35833,10739
22.36667,10093
22.37500,9473
22.38333,8882
22.39167,8317
22.40000,7780
22.40833,7270
22.41667,6787
22.42500,6331
22.43333,5900
22.44167,5494
22.45000,5112
22.45833,4754
22.46667,4418
22.47500,4103
22.48333,3810
22.49167,3535
22.50000,3279
22.50833,3042
22.51667,2820
22.52500,2615
22.53333,2425
22.54167,2249
22.55000,2086
22.55833,1935
22.56667,1796
22.57500,1668
22.58333,1550
22.59167,1442
22.60000,1342
22.60833,1250
22.61667,1166
22.62500,1088
22.63333,1016
22.64167,951
22.65000,890
22.65833,835
22.66667,784
22.67500,737
22.68333,694
22.69167,654
22.70000,618
22.70833,585
22.71667,554
22.72500,527
22.73333,501
22.74167,478
22.75000,456
22.75833,436
22.76667,418
22.77500,400
22.78333,384
22.79167,370
22.80000,357
22.80833,344
22.81667,332
22.82500,321
22.83333,311
22.84167,302
22.85000,293
22.85833,285
22.86667,277
22.87500,270
22.88333,263
22.89167,257
22.90000,251
22.90833,245
22.91667,240
22.92500,235
22.93333,231
22.94167,226
22.95000,223
22.95833,219
22.96667,215
22.97500,212
22.98333,209
22.99167,205
23.00000,202
23.00833,200
23.01667,197
23.02500,194
23.03333,191
23.04167,189
23.05000,187
23.05833,185
23.06667,182
23.07500,180
23.08333,178
23.09167,176
23.10000,174
23.10833,172
23.11667,170
23.12500,168
23.13333,167
23.14167,165
23.15000,163
23.15833,161
23.16667,159
23.17500,158
23.18333,156
23.19167,154
23.20000,153
23.20833,152
23.21667,151
23.22500,149
23.23333,148
23.24167,147
23.25000,146
23.25833,145
23.26667,143
23.27500,142
23.28333,141
23.29167,139
23.30000,138
23.30833,137
23.31667,136
23.32500,135
23.33333,135
23.34167,133
23.35000,132
23.35833,130
23.36667,129
23.37500,128
23.38333,127
23.39167,125
23.40000,124
23.40833,124
23.41667,123
23.42500,122
23.43333,121
23.44167,120
23.45000,119
23.45833,118
23.46667,117
23.47500,116
23.48333,116
23.49167,115
23.50000,114
23.50833,113
23.51667,112
23.52500,111
23.53333,110
23.54167,110
23.55000,109
23.55833,108
23.56667,107
23.57500,107
23.58333,106
23.59167,105
23.60000,105
23.60833,104
23.61667,103
23.62500,102
23.63333,101
23.64167,100
23.65000,100
23.65833,99
23.66667,99
23.67500,99
23.68333,99
23.69167,98
23.70000,98
23.70833,97
23.71667,96
23.72500,96
23.73333,95
23.74167,95
23.75000,94
23.75833,94
23.76667,94
23.77500,94
23.78333,94
23.79167,93
23.80000,93
23.80833,92
23.81667,91
23.82500,91
23.83333,90
23.84167,89
23.85000,89
23.85833,89
23.86667,88
23.87500,88
23.88333,88
23.89167,88
23.90000,88
23.90833,88
23.91667,88
23.92500,88
23.93333,88
23.94167,87
23.95000,87
23.95833,86
23.96667,86
23.97500,86
23.98333,86
23.99167,86
24.00000,85
24.00833,85
24.01667,85
24.02500,85
24.03333,85
24.04167,84
24.05000,84
24.05833,84
24.06667,83
24.07500,83
24.08333,82
24.09167,82
24.10000,81
24.10833,81
24.11667,80
24.12500,80
24.13333,80
24.14167,80
24.15000,80
24.15833,80
24.16667,80
24.17500,80
24.18333,80
24.19167,80
24.20000,80
24.20833,80
24.21667,80
24.22500,80
24.23333,80
24.24167,80
24.25000,80
24.25833,81
24.26667,81
24.27500,81
24.28333,82
24.29167,83
24.30000,83
24.30833,84
24.31667,85
24.32500,87
24.33333,88
24.34167,90
24.35000,92
24.35833,95
24.36667,98
24.37500,101
24.38333,105
24.39167,109
24.40000,113
24.40833,118
24.41667,124
24.42500,131
24.43333,138
24.44167,146
24.45000,155
24.45833,165
24.46667,176
24.47500,189
24.48333,203
24.49167,219
24.50000,236
24.50833,256
24.51667,277
24.52500,301
24.53333,327
24.54167,357
24.55000,390
24.55833,426
24.56667,466
24.57500,511
24.58333,560
24.59167,614
24.60000,674
24.60833,739
24.61667,810
24.62500,887
24.63333,972
24.64167,1064
24.65000,1164
24.65833,1273
24.66667,1390
24.67500,1517
24.68333,1653
24.69167,1799
24.70000,1956
24.70833,2123
24.71667,2302
24.72500,2491
24.73333,2692
24.74167,2904
24.75000,3127
24.75833,3362
24.76667,3609
24.77500,3867
24.78333,4137
24.79167,4416
24.80000,4706
24.80833,5005
24.81667,5314
24.82500,5630
24.83333,5953
24.84167,6282
24.85000,6616
24.85833,6954
24.86667,7294
24.87500,7636
24.88333,7977
24.89167,8317
24.90000,8653
24.90833,8985
24.91667,9310
24.92500,9627
24.93333,9934
24.94167,10231
24.95000,10515
24.95833,10784
24.96667,11039
24.97500,11277
24.98333,11497
24.99167,11697
25.00000,11877
25.00833,12036
25.01667,12174
25.02500,12290
25.03333,12382
25.04167,12451
25.05000,12496
25.05833,12517
25.06667,12515
25.07500,12490
25.08333,12441
25.09167,12369
25.10000,12276
25.10833,12161
25.11667,12026
25.12500,11871
25.13333,11697
25.14167,11505
25.15000,11297
25.15833,11074
25.16667,10837
25.17500,10587
25.18333,10326
25.19167,10054
25.20000,9774
25.20833,9486
25.21667,9192
25.22500,8893
25.23333,8590
25.24167,8284
25.25000,7977
25.25833,7670
25.26667,7365
25.27500,7061
25.28333,6760
25.29167,6463
25.30000,6170
25.30833,5882
25.31667,5600
25.32500,5325
25.33333,5057
25.34167,4796
25.35000,4543
25.35833,4298
25.36667,4061
25.37500,3833
25.38333,3614
25.39167,3404
25.40000,3202
25.40833,3010
25.41667,2827
25.42500,2652
25.43333,2485
25.44167,2328
25.45000,2178
25.45833,2037
25.46667,1903
25.47500,1778
25.48333,1659
25.49167,1548
25.50000,1444
25.50833,1347
25.51667,1255
25.52500,1170
25.53333,1090
25.54167,1016
25.55000,947
25.55833,883
25.56667,823
25.57500,768
25.58333,716
25.59167,669
25.60000,625
25.60833,585
25.61667,548
25.62500,513
25.63333,481
25.64167,452
25.65000,424
25.65833,399
25.66667,376
25.67500,355
25.68333,335
25.69167,317
25.70000,300
25.70833,285
25.71667,272
25.72500,259
25.73333,247
25.74167,237
25.75000,227
25.75833,218
25.76667,209
25.77500,201
25.78333,195
25.79167,189
25.80000,183
25.80833,177
25.81667,172
25.82500,167
25.83333,162
25.84167,158
25.85000,154
25.85833,151
25.86667,147
25.87500,144
25.88333,141
25.89167,138
25.90000,136
25.90833,134
25.91667,132
25.92500,129
25.93333,127
25.94167,125
25.95000,123
25.95833,121
25.96667,120
25.97500,118
25.98333,117
25.99167,115
26.00000,114
26.00833,113
26.01667,112
26.02500,111
26.03333,110
26.04167,109
26.05000,108
26.05833,106
26.06667,106
26.07500,105
26.08333,104
26.09167,103
26.10000,102
26.10833,101
26.11667,99
26.12500,98
26.13333,97
26.14167,96
26.15000,96
26.15833,95
26.16667,94
26.17500,93
26.18333,93
26.19167,92
26.20000,92
26.20833,91
26.21667,91
26.22500,90
26.23333,89
26.24167,89
26.25000,88
26.25833,87
26.26667,87
26.27500,86
26.28333,86
26.29167,85
26.30000,85
26.30833,85
26.31667,85
26.32500,85
26.33333,84
26.34167,84
26.35000,83
26.35833,83
26.36667,82
26.37500,82
26.38333,81
26.39167,80
26.40000,80
26.40833,80
26.41667,79
26.42500,79
26.43333,79
26.44167,79
26.45000,79
26.45833,79
26.46667,79
26.47500,79
26.48333,79
26.49167,79
26.50000,78
26.50833,78
26.51667,78
26.52500,77
26.53333,77
26.54167,77
26.55000,77
26.55833,76
26.56667,76
26.57500,76
26.58333,76
26.59167,76
26.60000,76
26.60833,75
26.61667,75
26.62500,75
26.63333,75
26.64167,75
26.65000,75
26.65833,75
26.66667,75
26.67500,75
26.68333,75
26.69167,75
26.70000,75
26.70833,75
26.71667,75
26.72500,75
26.73333,75
26.74167,75
26.75000,75
26.75833,75
26.76667,75
26.77500,75
26.78333,74
26.79167,74
26.80000,74
26.80833,74
26.81667,74
26.82500,73
26.83333,73
26.84167,72
26.85000,72
26.85833,71
26.86667,71
26.87500,71
26.88333,71
26.89167,71
26.90000,71
26.90833,71
26.91667,71
26.92500,70
26.93333,70
26.94167,70
26.95000,70
26.95833,70
26.96667,69
26.97500,69
26.98333,68
26.99167,68
27.00000,68
27.00833,67
27.01667,67
27.02500,67
27.03333,67
27.04167,66
27.05000,66
27.05833,65
27.06667,65
27.07500,64
27.08333,64
27.09167,64
27.10000,63
27.10833,63
27.11667,63
27.12500,63
27.13333,63
27.14167,63
27.15000,63
27.15833,63
27.16667,63
27.17500,63
27.18333,63
27.19167,63
27.20000,63
27.20833,62
27.21667,62
27.22500,62
27.23333,62
27.24167,61
27.25000,61
27.25833,61
27.26667,60
27.27500,60
27.28333,59
27.29167,59
27.30000,59
27.30833,59
27.31667,59
27.32500,59
27.33333,59
27.34167,59
27.35000,59
27.35833,58
27.36667,59
27.37500,59
27.38333,59
27.39167,59
27.40000,59
27.40833,59
27.41667,59
27.42500,59
27.43333,59
27.44167,58
27.45000,58
27.45833,58
27.46667,58
27.47500,58
27.48333,58
27.49167,58
27.50000,58
27.50833,58
27.51667,58
27.52500,57
27.53333,57
27.54167,57
27.55000,57
27.55833,57
27.56667,57
27.57500,56
27.58333,56
27.59167,56
27.60000,56
27.60833,56
27.61667,56
27.62500,56
27.63333,56
27.64167,56
27.65000,56
27.65833,56
27.66667,55
27.67500,55
27.68333,55
27.69167,55
27.70000,54
27.70833,54
27.71667,54
27.72500,54
27.73333,54
27.74167,53
27.75000,53
27.75833,53
27.76667,53
27.77500,52
27.78333,52
27.79167,51
27.80000,51
27.80833,51
27.81667,51
27.82500,50
27.83333,50
27.84167,49
27.85000,49
27.85833,48
27.86667,47
27.87500,46
27.88333,46
27.89167,45
27.90000,45
27.90833,45
27.91667,44
27.92500,43
27.93333,43
27.94167,42
27.95000,41
27.95833,39
27.96667,38
27.97500,36
27.98333,35
27.99167,33
28.00000,32
28.00833,30
28.01667,28
28.02500,26
28.03333,24
28.04167,22
28.05000,21
28.05833,19
28.06667,17
28.07500,15
28.08333,13
28.09167,10
28.10000,8
28.10833,6
28.11667,3
28.12500,1
28.13333,-2
28.14167,-5
28.15000,-7
28.15833,-10
28.16667,-13
28.17500,-16
28.18333,-20
28.19167,-23
28.20000,-26
28.20833,-29
28.21667,-33
28.22500,-36
28.23333,-39
28.24167,-42
28.25000,-45
28.25833,-48
28.26667,-51
28.27500,-53
28.28333,-56
28.29167,-59
28.30000,-62
28.30833,-65
28.31667,-68
28.32500,-70
28.33333,-72
28.34167,-74
28.35000,-76
28.35833,-78
28.36667,-80
28.37500,-82
28.38333,-84
28.39167,-85
28.40000,-87
28.40833,-87
28.41667,-88
28.42500,-89
28.43333,-90
28.44167,-91
28.45000,-91
28.45833,-92
28.46667,-92
28.47500,-92
28.48333,-92
28.49167,-92
28.50000,-91
28.50833,-90
28.51667,-89
28.52500,-88
28.53333,-87
28.54167,-85
28.55000,-84
28.55833,-82
28.56667,-80
28.57500,-78
28.58333,-77
28.59167,-75
28.60000,-73
28.60833,-71
28.61667,-69
28.62500,-67
28.63333,-64
28.64167,-62
28.65000,-60
28.65833,-58
28.66667,-55
28.67500,-52
28.68333,-50
28.69167,-47
28.70000,-45
28.70833,-43
28.71667,-40
28.72500,-38
28.73333,-35
28.74167,-33
28.75000,-30
28.75833,-27
28.76667,-25
28.77500,-22
28.78333,-19
28.79167,-17
28.80000,-15
28.80833,-12
28.81667,-10
28.82500,-7
28.83333,-5
28.84167,-2
28.85000,-0
28.85833,2
28.86667,4
28.87500,5
28.88333,7
28.89167,8
28.90000,10
28.90833,11
28.91667,13
28.92500,14
28.93333,16
28.94167,17
28.95000,18
28.95833,19
28.96667,20
28.97500,21
28.98333,23
28.99167,24
29.00000,25
29.00833,26
29.01667,28
29.02500,28
29.03333,29
29.04167,30
29.05000,31
29.05833,31
29.06667,32
29.07500,33
29.08333,33
29.09167,34
29.10000,34
29.10833,35
29.11667,35
29.12500,36
29.13333,36
29.14167,36
29.15000,37
29.15833,37
29.16667,37
29.17500,37
29.18333,37
29.19167,38
29.20000,39
29.20833,39
29.21667,39
29.22500,39
29.23333,40
29.24167,40
29.25000,41
29.25833,41
29.26667,42
29.27500,42
29.28333,42
29.29167,42
29.30000,42
29.30833,42
29.31667,42
29.32500,42
29.33333,42
29.34167,42
29.35000,42
29.35833,42
29.36667,42
29.37500,42
29.38333,42
29.39167,42
29.40000,42
29.40833,42
29.41667,42
29.42500,42
29.43333,42
29.44167,42
29.45000,42
29.45833,42
29.46667,42
29.47500,42
29.48333,42
29.49167,42
29.50000,42
29.50833,42
29.51667,42
29.52500,41
29.53333,41
29.54167,41
29.55000,40
29.55833,40
29.56667,40
29.57500,40
29.58333,40
29.59167,40
29.60000,39
29.60833,39
29.61667,38
29.62500,38
29.63333,37
29.64167,38
29.65000,37
29.65833,37
29.66667,36
29.67500,36
29.68333,35
29.69167,35
29.70000,34
29.70833,34
29.71667,33
29.72500,32
29.73333,32
29.74167,31
29.75000,31
29.75833,30
29.76667,30
29.77500,29
29.78333,29
29.79167,28
29.80000,27
29.80833,26
29.81667,24
29.82500,23
29.83333,22
29.84167,21
29.85000,20
29.85833,19
29.86667,18
29.87500,17
29.88333,16
29.89167,15
29.90000,14
29.90833,13
29.91667,12
29.92500,11
29.93333,10
29.94167,9
29.95000,8
29.95833,7
29.96667,6
29.97500,5
29.98333,4
29.99167,3
30.00000,3
30.00833,2
30.01667,0
30.02500,-1
30.03333,-3
30.04167,-4
30.05000,-5
30.05833,-6
30.06667,-7
30.07500,-8
30.08333,-8
30.09167,-9
30.10000,-9
30.10833,-10
30.11667,-10
30.12500,-11
30.13333,-11
30.14167,-12
30.15000,-12
30.15833,-12
30.16667,-12
30.17500,-13
30.18333,-13
30.19167,-13
30.20000,-13
30.20833,-14
30.21667,-14
30.22500,-14
30.23333,-14
30.24167,-13
30.25000,-13
30.25833,-13
30.26667,-13
30.27500,-13
30.28333,-12
30.29167,-12
30.30000,-11
30.30833,-11
30.31667,-10
30.32500,-10
30.33333,-9
30.34167,-8
30.35000,-7
30.35833,-6
30.36667,-5
30.37500,-5
30.38333,-4
30.39167,-3
30.40000,-3
30.40833,-2
30.41667,-0
30.42500,0
30.43333,1
30.44167,2
30.45000,3
30.45833,5
30.46667,5
30.47500,6
30.48333,7
30.49167,8
30.50000,9
30.50833,10
30.51667,11
30.52500,11
30.53333,11
30.54167,12
30.55000,13
30.55833,13
30.56667,14
30.57500,16
30.58333,17
30.59167,18
30.60000,19
30.60833,20
30.61667,20
30.62500,21
30.63333,22
30.64167,23
30.65000,24
30.65833,25
30.66667,25
30.67500,26
30.68333,26
30.69167,26
30.70000,27
30.70833,27
30.71667,28
30.72500,29
30.73333,29
30.74167,30
30.75000,30
30.75833,30
30.76667,30
30.77500,31
30.78333,31
30.79167,31
30.80000,31
30.80833,32
30.81667,32
30.82500,32
30.83333,33
30.84167,33
30.85000,33
30.85833,34
30.86667,34
30.87500,34
30.88333,34
30.89167,34
30.90000,34
30.90833,35
30.91667,35
30.92500,35
30.93333,35
30.94167,35
30.95000,35
30.95833,35
30.96667,35
30.97500,35
30.98333,35
30.99167,35
31.00000,35
31.00833,35
31.01667,35
31.02500,36
31.03333,36
31.04167,36
31.05000,36
31.05833,36
31.06667,35
31.07500,35
31.08333,36
31.09167,36
31.10000,36
31.10833,36
31.11667,36
31.12500,36
31.13333,36
31.14167,37
31.15000,37
31.15833,37
31.16667,36
31.17500,36
31.18333,36
31.19167,36
31.20000,36
31.20833,36
31.21667,36
31.22500,37
31.23333,37
31.24167,37
31.25000,37
31.25833,38
31.26667,38
31.27500,39
31.28333,39
31.29167,39
31.30000,39
31.30833,39
31.31667,39
31.32500,39
31.33333,39
31.34167,40
31.35000,40
31.35833,40
31.36667,40
31.37500,40
31.38333,40
31.39167,40
31.40000,40
31.40833,40
31.41667,40
31.42500,40
31.43333,40
31.44167,40
31.45000,40
31.45833,40
31.46667,40
31.47500,40
31.48333,40
31.49167,41
31.50000,41
31.50833,41
31.51667,41
31.52500,41
31.53333,41
31.54167,42
31.55000,42
31.55833,41
31.56667,41
31.57500,42
31.58333,42
31.59167,42
31.60000,42
31.60833,42
31.61667,42
31.62500,42
31.63333,42
31.64167,41
31.65000,42
31.65833,42
31.66667,42
31.67500,42
31.68333,42
31.69167,42
31.70000,42
31.70833,42
31.71667,42
31.72500,42
31.73333,42
31.74167,42
31.75000,42
31.75833,42
31.76667,42
31.77500,43
31.78333,43
31.79167,43
31.80000,44
31.80833,44
31.81667,44
31.82500,44
31.83333,44
31.84167,44
31.85000,44
31.85833,44
31.86667,43
31.87500,43
31.88333,43
31.89167,44
31.90000,44
31.90833,44
31.91667,44
31.92500,44
31.93333,44
31.94167,44
31.95000,44
31.95833,44
31.96667,45
31.97500,45
31.98333,44
31.99167,44
32.00000,44
32.00833,44
32.01667,44
32.02500,44
32.03333,44
32.04167,44
32.05000,44
32.05833,44
32.06667,44
32.07500,44
32.08333,44
32.09167,44
32.10000,44
32.10833,44
32.11667,44
32.12500,44
32.13333,44
32.14167,44
32.15000,44
32.15833,45
32.16667,45
32.17500,45
32.18333,45
32.19167,46
32.20000,46
32.20833,46
32.21667,46
32.22500,46
32.23333,46
32.24167,46
32.25000,47
32.25833,46
32.26667,47
32.27500,47
32.28333,46
32.29167,46
32.30000,46
32.30833,45
32.31667,45
32.32500,45
32.33333,45
32.34167,45
32.35000,45
32.35833,46
32.36667,46
32.37500,46
32.38333,46
32.39167,46
32.40000,45
32.40833,45
32.41667,45
32.42500,45
32.43333,46
32.44167,46
32.45000,46
32.45833,46
32.46667,46
32.47500,46
32.48333,45
32.49167,46
32.50000,46
32.50833,46
32.51667,46
32.52500,46
32.53333,46
32.54167,46
32.55000,45
32.55833,45
32.56667,45
32.57500,45
32.58333,46
32.59167,46
32.60000,46
32.60833,46
32.61667,46
32.62500,47
32.63333,47
32.64167,47
32.65000,47
32.65833,47
32.66667,47
32.67500,47
32.68333,47
32.69167,47
32.70000,47
32.70833,47
32.71667,47
32.72500,47
32.73333,48
32.74167,48
32.75000,48
32.75833,48
32.76667,47
32.77500,47
32.78333,47
32.79167,47
32.80000,47
32.80833,47
32.81667,47
32.82500,47
32.83333,47
32.84167,47
32.85000,47
32.85833,47
32.86667,48
32.87500,48
32.88333,48
32.89167,48
32.90000,48
32.90833,48
32.91667,48
32.92500,48
32.93333,48
32.94167,48
32.95000,48
32.95833,48
32.96667,48
32.97500,47
32.98333,47
32.99167,47
33.00000,47
33.00833,47
33.01667,47
33.02500,48
33.03333,48
33.04167,48
33.05000,48
33.05833,48
33.06667,48
33.07500,48
33.08333,48
33.09167,48
33.10000,48
33.10833,48
33.11667,48
33.12500,48
33.13333,48
33.14167,48
33.15000,48
33.15833,48
33.16667,49
33.17500,49
33.18333,49
33.19167,49
33.20000,49
33.20833,49
33.21667,48
33.22500,48
33.23333,48
33.24167,48
33.25000,48
33.25833,48
33.26667,49
33.27500,49
33.28333,49
33.29167,48
33.30000,48
33.30833,48
33.31667,48
33.32500,49
33.33333,49
33.34167,49
33.35000,49
33.35833,49
33.36667,49
33.37500,49
33.38333,49
33.39167,48
33.40000,49
33.40833,49
33.41667,49
33.42500,49
33.43333,49
33.44167,49
33.45000,49
33.45833,49
33.46667,48
33.47500,48
33.48333,48
33.49167,48
33.50000,48
33.50833,48
33.51667,48
33.52500,49
33.53333,49
33.54167,49
33.55000,49
33.55833,48
33.56667,48
33.57500,48
33.58333,48
33.59167,49
33.60000,49
33.60833,49
33.61667,50
33.62500,50
33.63333,50
33.64167,51
33.65000,51
33.65833,50
33.66667,50
33.67500,49
33.68333,49
33.69167,49
33.70000,49
33.70833,50
33.71667,50
33.72500,50
33.73333,50
33.74167,50
33.75000,50
33.75833,50
33.76667,50
33.77500,50
33.78333,50
33.79167,50
33.80000,51
33.80833,51
33.81667,51
33.82500,52
33.83333,51
33.84167,51
33.85000,51
33.85833,51
33.86667,51
33.87500,51
33.88333,51
33.89167,51
33.90000,51
33.90833,50
33.91667,50
33.92500,51
33.93333,51
33.94167,51
33.95000,51
33.95833,51
33.96667,51
33.97500,51
33.98333,51
33.99167,51
34.00000,51
34.00833,52
34.01667,52
34.02500,52
34.03333,52
34.04167,52
34.05000,53
34.05833,53
34.06667,53
34.07500,52
34.08333,53
34.09167,53
34.10000,53
34.10833,53
34.11667,53
34.12500,53
34.13333,53
34.14167,53
34.15000,53
34.15833,53
34.16667,53
34.17500,53
34.18333,53
34.19167,53
34.20000,53
34.20833,53
34.21667,53
34.22500,54
34.23333,54
34.24167,54
34.25000,54
34.25833,54
34.26667,54
34.27500,54
34.28333,54
34.29167,54
34.30000,54
34.30833,54
34.31667,54
34.32500,54
34.33333,53
34.34167,53
34.35000,54
34.35833,54
34.36667,54
34.37500,54
34.38333,54
34.39167,54
34.40000,54
34.40833,54
34.41667,54
34.42500,54
34.43333,54
34.44167,54
34.45000,54
34.45833,54
34.46667,54
34.47500,55
34.48333,55
34.49167,55
34.50000,55
34.50833,55
34.51667,55
34.52500,55
34.53333,55
34.54167,55
34.55000,55
34.55833,55
34.56667,55
34.57500,55
34.58333,55
34.59167,55
34.60000,55
34.60833,55
34.61667,55
34.62500,55
34.63333,55
34.64167,54
34.65000,54
34.65833,54
34.66667,54
34.67500,55
34.68333,55
34.69167,55
34.70000,55
34.70833,55
34.71667,55
34.72500,55
34.73333,55
34.74167,55
34.75000,55
34.75833,55
34.76667,56
34.77500,56
34.78333,56
34.79167,56
34.80000,56
34.80833,56
34.81667,56
34.82500,56
34.83333,56
34.84167,56
34.85000,56
34.85833,56
34.86667,56
34.87500,56
34.88333,56
34.89167,56
34.90000,56
34.90833,56
34.91667,56
34.92500,56
34.93333,56
34.94167,56
34.95000,56
34.95833,56
34.96667,56
34.97500,56
34.98333,56
34.99167,56
35.00000,56
35.00833,56
35.01667,56
35.02500,56
35.03333,56
35.04167,56
35.05000,56
35.05833,56
35.06667,56
35.07500,56
35.08333,56
35.09167,56
35.10000,56
35.10833,56
35.11667,55
35.12500,55
35.13333,55
35.14167,55
35.15000,55
35.15833,55
35.16667,55
35.17500,55
35.18333,55
35.19167,55
35.20000,56
35.20833,56
35.21667,56
35.22500,56
35.23333,57
35.24167,57
35.25000,57
35.25833,57
35.26667,57
35.27500,57
35.28333,57
35.29167,57
35.30000,56
35.30833,56
35.31667,56
35.32500,56
35.33333,56
35.34167,56
35.35000,56
35.35833,56
35.36667,55
35.37500,55
35.38333,55
35.39167,55
35.40000,55
35.40833,55
35.41667,56
35.42500,56
35.43333,56
35.44167,56
35.45000,56
35.45833,57
35.46667,57
35.47500,58
35.48333,58
35.49167,57
35.50000,57
35.50833,57
35.51667,57
35.52500,57
35.53333,57
35.54167,57
35.55000,56
35.55833,56
35.56667,56
35.57500,56
35.58333,56
35.59167,56
35.60000,56
35.60833,55
35.61667,55
35.62500,55
35.63333,55
35.64167,55
35.65000,55
35.65833,55
35.66667,55
35.67500,55
35.68333,55
35.69167,56
35.70000,56
35.70833,56
35.71667,55
35.72500,55
35.73333,55
35.74167,56
35.75000,56
35.75833,56
35.76667,56
35.77500,56
35.78333,56
35.79167,56
35.80000,56
35.80833,56
35.81667,57
35.82500,57
35.83333,57
35.84167,57
35.85000,56
35.85833,56
35.86667,55
35.87500,56
35.88333,56
35.89167,56
35.90000,56
35.90833,57
35.91667,57
35.92500,57
35.93333,57
35.94167,57
35.95000,56
35.95833,56
35.96667,57
35.97500,57
35.98333,57
35.99167,57
36.00000,57
36.00833,57
36.01667,57
36.02500,57
36.03333,57
36.04167,57
36.05000,56
36.05833,56
36.06667,55
36.07500,55
36.08333,55
36.09167,54
36.10000,54
36.10833,54
36.11667,54
36.12500,54
36.13333,54
36.14167,55
36.15000,55
36.15833,55
36.16667,55
36.17500,55
36.18333,55
36.19167,55
36.20000,55
36.20833,55
36.21667,55
36.22500,55
36.23333,55
36.24167,55
36.25000,55
36.25833,55
36.26667,55
36.27500,55
36.28333,55
36.29167,55
36.30000,54
36.30833,54
36.31667,54
36.32500,54
36.33333,54
36.34167,54
36.35000,54
36.35833,54
36.36667,54
36.37500,54
36.38333,55
36.39167,55
36.40000,55
36.40833,55
36.41667,55
36.42500,54
36.43333,54
36.44167,54
36.45000,54
36.45833,55
36.46667,55
36.47500,55
36.48333,55
36.49167,55
36.50000,55
36.50833,55
36.51667,55
36.52500,55
36.53333,55
36.54167,55
36.55000,55
36.55833,54
36.56667,54
36.57500,54
36.58333,55
36.59167,55
36.60000,55
36.60833,55
36.61667,56
36.62500,56
36.63333,56
36.64167,56
36.65000,56
36.65833,56
36.66667,56
36.67500,56
36.68333,55
36.69167,55
36.70000,55
36.70833,56
36.71667,56
36.72500,56
36.73333,55
36.74167,55
36.75000,55
36.75833,55
36.76667,56
36.77500,56
36.78333,56
36.79167,56
36.80000,56
36.80833,56
36.81667,56
36.82500,56
36.83333,56
36.84167,56
36.85000,56
36.85833,56
36.86667,56
36.87500,56
36.88333,56
36.89167,56
36.90000,56
36.90833,56
36.91667,56
36.92500,56
36.93333,56
36.94167,56
36.95000,56
36.95833,56
36.96667,56
36.97500,56
36.98333,56
36.99167,56
37.00000,56
37.00833,55
37.01667,55
37.02500,55
37.03333,55
37.04167,55
37.05000,55
37.05833,56
37.06667,56
37.07500,57
37.08333,57
37.09167,57
37.10000,57
37.10833,57
37.11667,57
37.12500,57
37.13333,57
37.14167,57
37.15000,57
37.15833,57
37.16667,57
37.17500,57
37.18333,57
37.19167,57
37.20000,57
37.20833,58
37.21667,58
37.22500,58
37.23333,58
37.24167,57
37.25000,57
37.25833,57
37.26667,57
37.27500,57
37.28333,58
37.29167,58
37.30000,58
37.30833,58
37.31667,58
37.32500,58
37.33333,58
37.34167,58
37.35000,58
37.35833,58
37.36667,58
37.37500,58
37.38333,58
37.39167,58
37.40000,58
37.40833,58
37.41667,58
37.42500,58
37.43333,58
37.44167,58
37.45000,58
37.45833,58
37.46667,58
37.47500,58
37.48333,57
37.49167,57
37.50000,57
37.50833,57
37.51667,57
37.52500,57
37.53333,57
37.54167,58
37.55000,58
37.55833,58
37.56667,58
37.57500,58
37.58333,59
37.59167,59
37.60000,59
37.60833,59
37.61667,59
37.62500,59
37.63333,59
37.64167,59
37.65000,59
37.65833,59
37.66667,59
37.67500,59
37.68333,59
37.69167,59
37.70000,58
37.70833,59
37.71667,59
37.72500,58
37.73333,58
37.74167,58
37.75000,58
37.75833,58
37.76667,58
37.77500,58
37.78333,58
37.79167,58
37.80000,58
37.80833,58
37.81667,59
37.82500,59
37.83333,59
37.84167,59
37.85000,60
37.85833,60
37.86667,60
37.87500,60
37.88333,60
37.89167,60
37.90000,60
37.90833,60
37.91667,60
37.92500,60
37.93333,60
37.94167,59
37.95000,59
37.95833,59
37.96667,59
37.97500,59
37.98333,59
37.99167,59
38.00000,59
38.00833,59
38.01667,59
38.02500,59
38.03333,60
38.04167,60
38.05000,60
38.05833,60
38.06667,60
38.07500,60
38.08333,60
38.09167,61
38.10000,61
38.10833,61
38.11667,61
38.12500,61
38.13333,61
38.14167,61
38.15000,61
38.15833,60
38.16667,60
38.17500,60
38.18333,60
38.19167,60
38.20000,60
38.20833,60
38.21667,60
38.22500,60
38.23333,60
38.24167,60
38.25000,60
38.25833,60
38.26667,61
38.27500,61
38.28333,61
38.29167,61
38.30000,61
38.30833,61
38.31667,61
38.32500,61
38.33333,61
38.34167,62
38.35000,62
38.35833,62
38.36667,62
38.37500,62
38.38333,62
38.39167,63
38.40000,63
38.40833,63
38.41667,63
38.42500,62
38.43333,62
38.44167,62
38.45000,61
38.45833,62
38.46667,62
38.47500,62
38.48333,62
38.49167,62
38.50000,62
38.50833,63
38.51667,63
38.52500,63
38.53333,63
38.54167,63
38.55000,63
38.55833,63
38.56667,63
38.57500,63
38.58333,63
38.59167,63
38.60000,63
38.60833,63
38.61667,63
38.62500,63
38.63333,62
38.64167,62
38.65000,62
38.65833,62
38.66667,62
38.67500,62
38.68333,63
38.69167,63
38.70000,63
38.70833,63
38.71667,63
38.72500,63
38.73333,63
38.74167,63
38.75000,63
38.75833,63
38.76667,62
38.77500,62
38.78333,62
38.79167,63
38.80000,63
38.80833,63
38.81667,64
38.82500,64
38.83333,63
38.84167,63
38.85000,63
38.85833,63
38.86667,63
38.87500,62
38.88333,62
38.89167,61
38.90000,61
38.90833,60
38.91667,61
38.92500,60
38.93333,61
38.94167,61
38.95000,61
38.95833,61
38.96667,62
38.97500,62
38.98333,62
38.99167,62
39.00000,63
39.00833,63
39.01667,63
39.02500,63
39.03333,63
39.04167,63
39.05000,62
39.05833,62
39.06667,62
39.07500,62
39.08333,62
39.09167,62
39.10000,62
39.10833,62
39.11667,62
39.12500,62
39.13333,62
39.14167,62
39.15000,61
39.15833,61
39.16667,61
39.17500,61
39.18333,61
39.19167,61
39.20000,62
39.20833,62
39.21667,62
39.22500,62
39.23333,62
39.24167,62
39.25000,62
39.25833,62
39.26667,62
39.27500,62
39.28333,62
39.29167,62
39.30000,62
39.30833,62
39.31667,62
39.32500,62
39.33333,62
39.34167,62
39.35000,62
39.35833,62
39.36667,62
39.37500,62
39.38333,62
39.39167,61
39.40000,61
39.40833,61
39.41667,62
39.42500,62
39.43333,62
39.44167,62
39.45000,62
39.45833,63
39.46667,63
39.47500,63
39.48333,63
39.49167,63
39.50000,63
39.50833,62
39.51667,62
39.52500,62
39.53333,63
39.54167,63
39.55000,63
39.55833,63
39.56667,63
39.57500,62
39.58333,62
39.59167,62
39.60000,61
39.60833,61
39.61667,62
39.62500,62
39.63333,62
39.64167,62
39.65000,62
39.65833,62
39.66667,62
39.67500,62
39.68333,63
39.69167,63
39.70000,63
39.70833,63
39.71667,63
39.72500,63
39.73333,64
39.74167,64
39.75000,63
39.75833,63
39.76667,64
39.77500,64
39.78333,64
39.79167,64
39.80000,63
39.80833,63
39.81667,63
39.82500,63
39.83333,63
39.84167,63
39.85000,63
39.85833,63
39.86667,63
39.87500,62
39.88333,62
39.89167,63
39.90000,63
39.90833,63
39.91667,64
39.92500,64
39.93333,64
39.94167,64
39.95000,64
39.95833,64
39.96667,64
39.97500,65
39.98333,65
39.99167,65
40.00000,64

