[Header]
Application Name,LabSolutions
Version,5.97 SP1
Data File Name,C:\Users\cremerlab\Desktop\batch_template_3182021_001_010.lcd
Output Date,3/18/2021
Output Time,7:02:01 PM

[File Information]
Type,Data File
Generated,3/18/2021 6:16:43 PM
Generated by,System Administrator
Modified,3/18/2021 7:02:01 PM
Modified by,System Administrator

[Sample Information]
Operator Name,System Administrator
Acquired,3/18/2021 6:17:01 PM
Sample Type,1:Standard
Level,1
Sample Name,2021-03-18_MgSO4
Sample ID,001
ISTD Amount1,1
ISTD Amount2,1
ISTD Amount3,1
ISTD Amount4,1
ISTD Amount5,1
ISTD Amount6,1
ISTD Amount7,1
ISTD Amount8,1
ISTD Amount9,1
ISTD Amount10,1
ISTD Amount11,1
ISTD Amount12,1
ISTD Amount13,1
ISTD Amount14,1
ISTD Amount15,1
ISTD Amount16,1
ISTD Amount17,1
ISTD Amount18,1
ISTD Amount19,1
ISTD Amount20,1
ISTD Amount21,1
ISTD Amount22,1
ISTD Amount23,1
ISTD Amount24,1
ISTD Amount25,1
ISTD Amount26,1
ISTD Amount27,1
ISTD Amount28,1
ISTD Amount29,1
ISTD Amount30,1
ISTD Amount31,1
ISTD Amount32,1
Sample Amount,1
Dilution Factor,1
Vial#,22
Injection Volume,20

[Original Files]
Data File,C:\Users\cremerlab\Desktop\batch_template_3182021_001_010.lcd
Method File,C:\LabSolutions\Data\Project1\organicacidsetc2.lcm
Batch File,C:\Users\cremerlab\Desktop\batch_template.lcb
Report Format File,c:\LabSolutions\System\DEFAULT.lsr

[File Description]


[Configuration]
Instrument Name,HPLC-PC-Instrument1
Instrument #,1
Line #,1
# of Detectors,2
Detector ID,Detector A,Detector B
Detector Name,Detector A,Detector B
# of Channels,1,1

[LC Chromatogram(Detector B-Ch1)]
Interval(msec),500
# of Points,5401
Start Time(min),0.000
End Time(min),45.000
Intensity Units,mV
Intensity Multiplier,0.001
R.Time (min),Intensity
0.00000,-9
0.00833,-9
0.01667,-1
0.02500,-4
0.03333,-9
0.04167,-14
0.05000,-18
0.05833,-21
0.06667,-22
0.07500,-22
0.08333,-21
0.09167,-20
0.10000,-20
0.10833,-19
0.11667,-18
0.12500,-17
0.13333,-16
0.14167,-16
0.15000,-17
0.15833,-17
0.16667,-18
0.17500,-19
0.18333,-19
0.19167,-20
0.20000,-21
0.20833,-21
0.21667,-22
0.22500,-22
0.23333,-22
0.24167,-22
0.25000,-22
0.25833,-22
0.26667,-23
0.27500,-24
0.28333,-25
0.29167,-26
0.30000,-27
0.30833,-28
0.31667,-30
0.32500,-30
0.33333,-31
0.34167,-32
0.35000,-33
0.35833,-34
0.36667,-35
0.37500,-36
0.38333,-37
0.39167,-38
0.40000,-38
0.40833,-39
0.41667,-39
0.42500,-40
0.43333,-41
0.44167,-42
0.45000,-43
0.45833,-44
0.46667,-45
0.47500,-46
0.48333,-46
0.49167,-47
0.50000,-48
0.50833,-48
0.51667,-49
0.52500,-49
0.53333,-49
0.54167,-49
0.55000,-49
0.55833,-49
0.56667,-49
0.57500,-49
0.58333,-48
0.59167,-49
0.60000,-49
0.60833,-50
0.61667,-52
0.62500,-53
0.63333,-55
0.64167,-58
0.65000,-60
0.65833,-63
0.66667,-65
0.67500,-68
0.68333,-71
0.69167,-74
0.70000,-76
0.70833,-78
0.71667,-80
0.72500,-81
0.73333,-82
0.74167,-83
0.75000,-84
0.75833,-84
0.76667,-85
0.77500,-85
0.78333,-85
0.79167,-85
0.80000,-85
0.80833,-85
0.81667,-86
0.82500,-86
0.83333,-86
0.84167,-86
0.85000,-86
0.85833,-87
0.86667,-87
0.87500,-87
0.88333,-88
0.89167,-88
0.90000,-89
0.90833,-89
0.91667,-90
0.92500,-90
0.93333,-91
0.94167,-92
0.95000,-92
0.95833,-93
0.96667,-93
0.97500,-94
0.98333,-94
0.99167,-95
1.00000,-96
1.00833,-97
1.01667,-98
1.02500,-98
1.03333,-99
1.04167,-100
1.05000,-101
1.05833,-102
1.06667,-103
1.07500,-104
1.08333,-104
1.09167,-105
1.10000,-105
1.10833,-105
1.11667,-106
1.12500,-107
1.13333,-108
1.14167,-109
1.15000,-110
1.15833,-111
1.16667,-112
1.17500,-112
1.18333,-113
1.19167,-113
1.20000,-114
1.20833,-114
1.21667,-115
1.22500,-115
1.23333,-116
1.24167,-118
1.25000,-119
1.25833,-120
1.26667,-121
1.27500,-121
1.28333,-122
1.29167,-123
1.30000,-124
1.30833,-125
1.31667,-126
1.32500,-126
1.33333,-127
1.34167,-128
1.35000,-128
1.35833,-129
1.36667,-130
1.37500,-131
1.38333,-132
1.39167,-133
1.40000,-134
1.40833,-135
1.41667,-136
1.42500,-136
1.43333,-137
1.44167,-138
1.45000,-138
1.45833,-139
1.46667,-140
1.47500,-141
1.48333,-142
1.49167,-142
1.50000,-143
1.50833,-144
1.51667,-144
1.52500,-145
1.53333,-146
1.54167,-147
1.55000,-148
1.55833,-149
1.56667,-150
1.57500,-150
1.58333,-151
1.59167,-152
1.60000,-152
1.60833,-152
1.61667,-153
1.62500,-154
1.63333,-155
1.64167,-156
1.65000,-157
1.65833,-158
1.66667,-158
1.67500,-159
1.68333,-160
1.69167,-161
1.70000,-162
1.70833,-163
1.71667,-163
1.72500,-164
1.73333,-165
1.74167,-166
1.75000,-167
1.75833,-168
1.76667,-169
1.77500,-170
1.78333,-170
1.79167,-170
1.80000,-171
1.80833,-172
1.81667,-172
1.82500,-173
1.83333,-174
1.84167,-175
1.85000,-175
1.85833,-176
1.86667,-177
1.87500,-178
1.88333,-179
1.89167,-180
1.90000,-181
1.90833,-181
1.91667,-182
1.92500,-183
1.93333,-184
1.94167,-185
1.95000,-185
1.95833,-186
1.96667,-186
1.97500,-187
1.98333,-188
1.99167,-188
2.00000,-189
2.00833,-190
2.01667,-191
2.02500,-192
2.03333,-192
2.04167,-193
2.05000,-194
2.05833,-195
2.06667,-196
2.07500,-197
2.08333,-197
2.09167,-198
2.10000,-199
2.10833,-200
2.11667,-201
2.12500,-202
2.13333,-203
2.14167,-204
2.15000,-204
2.15833,-205
2.16667,-206
2.17500,-207
2.18333,-208
2.19167,-209
2.20000,-209
2.20833,-210
2.21667,-210
2.22500,-211
2.23333,-212
2.24167,-212
2.25000,-213
2.25833,-214
2.26667,-215
2.27500,-216
2.28333,-216
2.29167,-217
2.30000,-217
2.30833,-217
2.31667,-218
2.32500,-219
2.33333,-220
2.34167,-221
2.35000,-221
2.35833,-222
2.36667,-223
2.37500,-224
2.38333,-226
2.39167,-226
2.40000,-227
2.40833,-228
2.41667,-228
2.42500,-229
2.43333,-230
2.44167,-231
2.45000,-231
2.45833,-232
2.46667,-233
2.47500,-234
2.48333,-235
2.49167,-236
2.50000,-237
2.50833,-238
2.51667,-239
2.52500,-239
2.53333,-240
2.54167,-241
2.55000,-242
2.55833,-243
2.56667,-244
2.57500,-244
2.58333,-246
2.59167,-247
2.60000,-248
2.60833,-249
2.61667,-250
2.62500,-251
2.63333,-252
2.64167,-252
2.65000,-253
2.65833,-253
2.66667,-254
2.67500,-255
2.68333,-255
2.69167,-256
2.70000,-257
2.70833,-258
2.71667,-258
2.72500,-259
2.73333,-260
2.74167,-261
2.75000,-262
2.75833,-263
2.76667,-264
2.77500,-265
2.78333,-266
2.79167,-267
2.80000,-268
2.80833,-269
2.81667,-269
2.82500,-270
2.83333,-271
2.84167,-272
2.85000,-273
2.85833,-274
2.86667,-275
2.87500,-276
2.88333,-277
2.89167,-278
2.90000,-279
2.90833,-280
2.91667,-281
2.92500,-282
2.93333,-282
2.94167,-283
2.95000,-283
2.95833,-284
2.96667,-285
2.97500,-286
2.98333,-287
2.99167,-288
3.00000,-289
3.00833,-290
3.01667,-291
3.02500,-292
3.03333,-293
3.04167,-294
3.05000,-295
3.05833,-295
3.06667,-296
3.07500,-296
3.08333,-297
3.09167,-298
3.10000,-299
3.10833,-300
3.11667,-300
3.12500,-301
3.13333,-301
3.14167,-302
3.15000,-303
3.15833,-304
3.16667,-305
3.17500,-307
3.18333,-308
3.19167,-309
3.20000,-309
3.20833,-310
3.21667,-311
3.22500,-312
3.23333,-313
3.24167,-314
3.25000,-315
3.25833,-316
3.26667,-316
3.27500,-317
3.28333,-318
3.29167,-319
3.30000,-320
3.30833,-321
3.31667,-321
3.32500,-322
3.33333,-323
3.34167,-323
3.35000,-324
3.35833,-325
3.36667,-325
3.37500,-326
3.38333,-327
3.39167,-327
3.40000,-328
3.40833,-329
3.41667,-330
3.42500,-330
3.43333,-331
3.44167,-332
3.45000,-333
3.45833,-334
3.46667,-335
3.47500,-335
3.48333,-336
3.49167,-337
3.50000,-338
3.50833,-339
3.51667,-340
3.52500,-341
3.53333,-342
3.54167,-343
3.55000,-343
3.55833,-344
3.56667,-345
3.57500,-346
3.58333,-347
3.59167,-347
3.60000,-348
3.60833,-349
3.61667,-349
3.62500,-350
3.63333,-351
3.64167,-352
3.65000,-353
3.65833,-354
3.66667,-355
3.67500,-355
3.68333,-356
3.69167,-356
3.70000,-357
3.70833,-358
3.71667,-359
3.72500,-360
3.73333,-360
3.74167,-361
3.75000,-362
3.75833,-363
3.76667,-363
3.77500,-364
3.78333,-365
3.79167,-366
3.80000,-367
3.80833,-368
3.81667,-369
3.82500,-370
3.83333,-371
3.84167,-372
3.85000,-373
3.85833,-373
3.86667,-374
3.87500,-374
3.88333,-375
3.89167,-376
3.90000,-377
3.90833,-378
3.91667,-379
3.92500,-380
3.93333,-381
3.94167,-382
3.95000,-382
3.95833,-383
3.96667,-384
3.97500,-385
3.98333,-385
3.99167,-386
4.00000,-387
4.00833,-388
4.01667,-389
4.02500,-390
4.03333,-390
4.04167,-391
4.05000,-392
4.05833,-392
4.06667,-393
4.07500,-394
4.08333,-395
4.09167,-395
4.10000,-396
4.10833,-397
4.11667,-397
4.12500,-398
4.13333,-399
4.14167,-400
4.15000,-401
4.15833,-402
4.16667,-403
4.17500,-404
4.18333,-405
4.19167,-405
4.20000,-406
4.20833,-407
4.21667,-407
4.22500,-408
4.23333,-408
4.24167,-409
4.25000,-410
4.25833,-411
4.26667,-411
4.27500,-412
4.28333,-413
4.29167,-414
4.30000,-415
4.30833,-415
4.31667,-416
4.32500,-416
4.33333,-417
4.34167,-418
4.35000,-419
4.35833,-420
4.36667,-421
4.37500,-421
4.38333,-422
4.39167,-424
4.40000,-425
4.40833,-425
4.41667,-426
4.42500,-427
4.43333,-429
4.44167,-430
4.45000,-431
4.45833,-431
4.46667,-432
4.47500,-433
4.48333,-433
4.49167,-434
4.50000,-434
4.50833,-435
4.51667,-435
4.52500,-436
4.53333,-437
4.54167,-438
4.55000,-439
4.55833,-440
4.56667,-441
4.57500,-441
4.58333,-442
4.59167,-443
4.60000,-444
4.60833,-445
4.61667,-445
4.62500,-446
4.63333,-447
4.64167,-448
4.65000,-449
4.65833,-450
4.66667,-450
4.67500,-451
4.68333,-452
4.69167,-453
4.70000,-453
4.70833,-454
4.71667,-455
4.72500,-456
4.73333,-457
4.74167,-458
4.75000,-458
4.75833,-459
4.76667,-460
4.77500,-461
4.78333,-462
4.79167,-462
4.80000,-463
4.80833,-463
4.81667,-464
4.82500,-465
4.83333,-466
4.84167,-467
4.85000,-468
4.85833,-469
4.86667,-469
4.87500,-470
4.88333,-471
4.89167,-471
4.90000,-472
4.90833,-473
4.91667,-473
4.92500,-474
4.93333,-474
4.94167,-475
4.95000,-476
4.95833,-478
4.96667,-479
4.97500,-479
4.98333,-480
4.99167,-480
5.00000,-481
5.00833,-482
5.01667,-483
5.02500,-483
5.03333,-484
5.04167,-485
5.05000,-486
5.05833,-487
5.06667,-488
5.07500,-489
5.08333,-490
5.09167,-490
5.10000,-491
5.10833,-492
5.11667,-493
5.12500,-493
5.13333,-494
5.14167,-495
5.15000,-496
5.15833,-497
5.16667,-498
5.17500,-499
5.18333,-500
5.19167,-500
5.20000,-501
5.20833,-502
5.21667,-502
5.22500,-503
5.23333,-503
5.24167,-504
5.25000,-505
5.25833,-505
5.26667,-506
5.27500,-507
5.28333,-508
5.29167,-509
5.30000,-510
5.30833,-511
5.31667,-512
5.32500,-513
5.33333,-513
5.34167,-514
5.35000,-515
5.35833,-516
5.36667,-516
5.37500,-517
5.38333,-518
5.39167,-519
5.40000,-520
5.40833,-521
5.41667,-522
5.42500,-523
5.43333,-524
5.44167,-525
5.45000,-526
5.45833,-527
5.46667,-528
5.47500,-529
5.48333,-530
5.49167,-531
5.50000,-531
5.50833,-532
5.51667,-533
5.52500,-534
5.53333,-534
5.54167,-535
5.55000,-536
5.55833,-536
5.56667,-537
5.57500,-538
5.58333,-538
5.59167,-539
5.60000,-540
5.60833,-541
5.61667,-542
5.62500,-543
5.63333,-543
5.64167,-544
5.65000,-545
5.65833,-546
5.66667,-546
5.67500,-546
5.68333,-547
5.69167,-549
5.70000,-550
5.70833,-551
5.71667,-552
5.72500,-553
5.73333,-554
5.74167,-555
5.75000,-556
5.75833,-557
5.76667,-558
5.77500,-558
5.78333,-559
5.79167,-560
5.80000,-561
5.80833,-562
5.81667,-563
5.82500,-563
5.83333,-564
5.84167,-565
5.85000,-566
5.85833,-567
5.86667,-567
5.87500,-568
5.88333,-568
5.89167,-569
5.90000,-570
5.90833,-571
5.91667,-572
5.92500,-573
5.93333,-574
5.94167,-574
5.95000,-575
5.95833,-576
5.96667,-577
5.97500,-578
5.98333,-579
5.99167,-579
6.00000,-580
6.00833,-581
6.01667,-582
6.02500,-582
6.03333,-583
6.04167,-584
6.05000,-585
6.05833,-586
6.06667,-587
6.07500,-587
6.08333,-588
6.09167,-589
6.10000,-589
6.10833,-590
6.11667,-591
6.12500,-592
6.13333,-593
6.14167,-594
6.15000,-595
6.15833,-596
6.16667,-596
6.17500,-597
6.18333,-598
6.19167,-599
6.20000,-599
6.20833,-600
6.21667,-601
6.22500,-601
6.23333,-602
6.24167,-603
6.25000,-603
6.25833,-604
6.26667,-605
6.27500,-606
6.28333,-607
6.29167,-608
6.30000,-609
6.30833,-610
6.31667,-610
6.32500,-611
6.33333,-612
6.34167,-613
6.35000,-614
6.35833,-615
6.36667,-615
6.37500,-616
6.38333,-617
6.39167,-618
6.40000,-618
6.40833,-619
6.41667,-619
6.42500,-620
6.43333,-621
6.44167,-621
6.45000,-622
6.45833,-624
6.46667,-625
6.47500,-626
6.48333,-627
6.49167,-627
6.50000,-628
6.50833,-629
6.51667,-630
6.52500,-631
6.53333,-631
6.54167,-632
6.55000,-633
6.55833,-633
6.56667,-634
6.57500,-635
6.58333,-636
6.59167,-636
6.60000,-637
6.60833,-638
6.61667,-639
6.62500,-640
6.63333,-640
6.64167,-641
6.65000,-641
6.65833,-642
6.66667,-643
6.67500,-644
6.68333,-645
6.69167,-646
6.70000,-647
6.70833,-647
6.71667,-648
6.72500,-649
6.73333,-650
6.74167,-651
6.75000,-652
6.75833,-653
6.76667,-653
6.77500,-654
6.78333,-655
6.79167,-655
6.80000,-656
6.80833,-657
6.81667,-658
6.82500,-659
6.83333,-660
6.84167,-660
6.85000,-661
6.85833,-661
6.86667,-662
6.87500,-662
6.88333,-663
6.89167,-664
6.90000,-665
6.90833,-666
6.91667,-667
6.92500,-667
6.93333,-668
6.94167,-669
6.95000,-670
6.95833,-671
6.96667,-672
6.97500,-673
6.98333,-674
6.99167,-675
7.00000,-676
7.00833,-676
7.01667,-677
7.02500,-677
7.03333,-678
7.04167,-679
7.05000,-680
7.05833,-680
7.06667,-681
7.07500,-682
7.08333,-683
7.09167,-684
7.10000,-685
7.10833,-686
7.11667,-686
7.12500,-687
7.13333,-688
7.14167,-689
7.15000,-689
7.15833,-690
7.16667,-690
7.17500,-691
7.18333,-692
7.19167,-692
7.20000,-693
7.20833,-694
7.21667,-694
7.22500,-695
7.23333,-696
7.24167,-697
7.25000,-698
7.25833,-698
7.26667,-699
7.27500,-700
7.28333,-701
7.29167,-702
7.30000,-703
7.30833,-704
7.31667,-705
7.32500,-705
7.33333,-706
7.34167,-706
7.35000,-707
7.35833,-707
7.36667,-708
7.37500,-708
7.38333,-709
7.39167,-710
7.40000,-711
7.40833,-712
7.41667,-713
7.42500,-713
7.43333,-714
7.44167,-715
7.45000,-715
7.45833,-716
7.46667,-717
7.47500,-718
7.48333,-719
7.49167,-719
7.50000,-720
7.50833,-721
7.51667,-722
7.52500,-724
7.53333,-725
7.54167,-725
7.55000,-726
7.55833,-726
7.56667,-726
7.57500,-727
7.58333,-728
7.59167,-729
7.60000,-729
7.60833,-730
7.61667,-731
7.62500,-731
7.63333,-732
7.64167,-733
7.65000,-733
7.65833,-734
7.66667,-735
7.67500,-736
7.68333,-737
7.69167,-738
7.70000,-739
7.70833,-739
7.71667,-740
7.72500,-740
7.73333,-741
7.74167,-742
7.75000,-743
7.75833,-744
7.76667,-745
7.77500,-746
7.78333,-747
7.79167,-748
7.80000,-748
7.80833,-749
7.81667,-750
7.82500,-750
7.83333,-751
7.84167,-752
7.85000,-753
7.85833,-753
7.86667,-754
7.87500,-755
7.88333,-756
7.89167,-756
7.90000,-756
7.90833,-757
7.91667,-758
7.92500,-759
7.93333,-760
7.94167,-761
7.95000,-761
7.95833,-762
7.96667,-763
7.97500,-764
7.98333,-765
7.99167,-765
8.00000,-766
8.00833,-767
8.01667,-769
8.02500,-770
8.03333,-771
8.04167,-772
8.05000,-773
8.05833,-774
8.06667,-774
8.07500,-775
8.08333,-776
8.09167,-776
8.10000,-777
8.10833,-778
8.11667,-779
8.12500,-779
8.13333,-780
8.14167,-781
8.15000,-781
8.15833,-781
8.16667,-782
8.17500,-783
8.18333,-784
8.19167,-785
8.20000,-786
8.20833,-787
8.21667,-788
8.22500,-789
8.23333,-790
8.24167,-790
8.25000,-791
8.25833,-792
8.26667,-792
8.27500,-793
8.28333,-793
8.29167,-794
8.30000,-795
8.30833,-796
8.31667,-797
8.32500,-798
8.33333,-799
8.34167,-800
8.35000,-801
8.35833,-802
8.36667,-803
8.37500,-804
8.38333,-804
8.39167,-805
8.40000,-806
8.40833,-806
8.41667,-807
8.42500,-808
8.43333,-809
8.44167,-810
8.45000,-810
8.45833,-810
8.46667,-811
8.47500,-812
8.48333,-813
8.49167,-814
8.50000,-815
8.50833,-816
8.51667,-817
8.52500,-817
8.53333,-818
8.54167,-818
8.55000,-819
8.55833,-820
8.56667,-821
8.57500,-822
8.58333,-823
8.59167,-824
8.60000,-824
8.60833,-824
8.61667,-825
8.62500,-826
8.63333,-827
8.64167,-828
8.65000,-828
8.65833,-829
8.66667,-830
8.67500,-831
8.68333,-832
8.69167,-833
8.70000,-834
8.70833,-835
8.71667,-836
8.72500,-836
8.73333,-837
8.74167,-838
8.75000,-838
8.75833,-839
8.76667,-840
8.77500,-841
8.78333,-842
8.79167,-842
8.80000,-843
8.80833,-844
8.81667,-845
8.82500,-846
8.83333,-847
8.84167,-848
8.85000,-848
8.85833,-849
8.86667,-850
8.87500,-851
8.88333,-852
8.89167,-853
8.90000,-854
8.90833,-855
8.91667,-856
8.92500,-856
8.93333,-857
8.94167,-858
8.95000,-858
8.95833,-859
8.96667,-860
8.97500,-860
8.98333,-861
8.99167,-862
9.00000,-863
9.00833,-864
9.01667,-865
9.02500,-866
9.03333,-867
9.04167,-868
9.05000,-868
9.05833,-869
9.06667,-869
9.07500,-870
9.08333,-871
9.09167,-872
9.10000,-872
9.10833,-873
9.11667,-874
9.12500,-875
9.13333,-876
9.14167,-877
9.15000,-878
9.15833,-878
9.16667,-879
9.17500,-880
9.18333,-881
9.19167,-882
9.20000,-883
9.20833,-883
9.21667,-884
9.22500,-885
9.23333,-886
9.24167,-886
9.25000,-887
9.25833,-888
9.26667,-888
9.27500,-889
9.28333,-890
9.29167,-891
9.30000,-891
9.30833,-892
9.31667,-893
9.32500,-894
9.33333,-895
9.34167,-896
9.35000,-897
9.35833,-898
9.36667,-899
9.37500,-899
9.38333,-900
9.39167,-901
9.40000,-901
9.40833,-902
9.41667,-903
9.42500,-903
9.43333,-904
9.44167,-905
9.45000,-906
9.45833,-906
9.46667,-908
9.47500,-909
9.48333,-910
9.49167,-911
9.50000,-911
9.50833,-912
9.51667,-913
9.52500,-914
9.53333,-914
9.54167,-915
9.55000,-916
9.55833,-917
9.56667,-917
9.57500,-918
9.58333,-919
9.59167,-919
9.60000,-920
9.60833,-921
9.61667,-922
9.62500,-922
9.63333,-923
9.64167,-924
9.65000,-924
9.65833,-925
9.66667,-927
9.67500,-928
9.68333,-928
9.69167,-929
9.70000,-930
9.70833,-930
9.71667,-931
9.72500,-931
9.73333,-932
9.74167,-933
9.75000,-934
9.75833,-935
9.76667,-935
9.77500,-936
9.78333,-937
9.79167,-938
9.80000,-939
9.80833,-940
9.81667,-940
9.82500,-941
9.83333,-942
9.84167,-943
9.85000,-943
9.85833,-943
9.86667,-944
9.87500,-945
9.88333,-946
9.89167,-947
9.90000,-947
9.90833,-948
9.91667,-949
9.92500,-950
9.93333,-951
9.94167,-951
9.95000,-952
9.95833,-952
9.96667,-953
9.97500,-954
9.98333,-954
9.99167,-955
10.00000,-956
10.00833,-957
10.01667,-958
10.02500,-958
10.03333,-959
10.04167,-960
10.05000,-960
10.05833,-961
10.06667,-961
10.07500,-962
10.08333,-963
10.09167,-964
10.10000,-965
10.10833,-966
10.11667,-967
10.12500,-968
10.13333,-969
10.14167,-969
10.15000,-970
10.15833,-971
10.16667,-972
10.17500,-973
10.18333,-974
10.19167,-974
10.20000,-975
10.20833,-976
10.21667,-977
10.22500,-977
10.23333,-978
10.24167,-978
10.25000,-979
10.25833,-979
10.26667,-980
10.27500,-980
10.28333,-981
10.29167,-981
10.30000,-982
10.30833,-982
10.31667,-982
10.32500,-982
10.33333,-983
10.34167,-983
10.35000,-983
10.35833,-983
10.36667,-983
10.37500,-983
10.38333,-983
10.39167,-983
10.40000,-982
10.40833,-982
10.41667,-982
10.42500,-981
10.43333,-981
10.44167,-981
10.45000,-981
10.45833,-981
10.46667,-981
10.47500,-980
10.48333,-979
10.49167,-977
10.50000,-975
10.50833,-973
10.51667,-970
10.52500,-967
10.53333,-963
10.54167,-957
10.55000,-949
10.55833,-939
10.56667,-925
10.57500,-907
10.58333,-883
10.59167,-852
10.60000,-810
10.60833,-756
10.61667,-686
10.62500,-595
10.63333,-480
10.64167,-333
10.65000,-150
10.65833,77
10.66667,356
10.67500,697
10.68333,1108
10.69167,1599
10.70000,2180
10.70833,2861
10.71667,3653
10.72500,4567
10.73333,5611
10.74167,6795
10.75000,8127
10.75833,9614
10.76667,11261
10.77500,13075
10.78333,15057
10.79167,17210
10.80000,19534
10.80833,22026
10.81667,24684
10.82500,27501
10.83333,30472
10.84167,33587
10.85000,36836
10.85833,40205
10.86667,43680
10.87500,47244
10.88333,50876
10.89167,54554
10.90000,58253
10.90833,61945
10.91667,65599
10.92500,69179
10.93333,72647
10.94167,75961
10.95000,79075
10.95833,81941
10.96667,84509
10.97500,86729
10.98333,88552
10.99167,89930
11.00000,90823
11.00833,91197
11.01667,91030
11.02500,90308
11.03333,89032
11.04167,87218
11.05000,84892
11.05833,82098
11.06667,78888
11.07500,75322
11.08333,71471
11.09167,67404
11.10000,63194
11.10833,58911
11.11667,54622
11.12500,50385
11.13333,46252
11.14167,42265
11.15000,38459
11.15833,34858
11.16667,31481
11.17500,28337
11.18333,25430
11.19167,22758
11.20000,20316
11.20833,18094
11.21667,16081
11.22500,14263
11.23333,12628
11.24167,11160
11.25000,9846
11.25833,8672
11.26667,7625
11.27500,6692
11.28333,5863
11.29167,5126
11.30000,4473
11.30833,3893
11.31667,3379
11.32500,2923
11.33333,2520
11.34167,2163
11.35000,1847
11.35833,1568
11.36667,1320
11.37500,1101
11.38333,906
11.39167,734
11.40000,581
11.40833,445
11.41667,324
11.42500,215
11.43333,119
11.44167,32
11.45000,-45
11.45833,-115
11.46667,-178
11.47500,-235
11.48333,-286
11.49167,-333
11.50000,-375
11.50833,-414
11.51667,-450
11.52500,-484
11.53333,-515
11.54167,-543
11.55000,-570
11.55833,-594
11.56667,-617
11.57500,-639
11.58333,-659
11.59167,-679
11.60000,-697
11.60833,-714
11.61667,-730
11.62500,-745
11.63333,-760
11.64167,-774
11.65000,-787
11.65833,-800
11.66667,-812
11.67500,-823
11.68333,-834
11.69167,-845
11.70000,-856
11.70833,-865
11.71667,-875
11.72500,-884
11.73333,-892
11.74167,-900
11.75000,-909
11.75833,-917
11.76667,-924
11.77500,-931
11.78333,-939
11.79167,-945
11.80000,-952
11.80833,-958
11.81667,-964
11.82500,-970
11.83333,-975
11.84167,-981
11.85000,-986
11.85833,-991
11.86667,-995
11.87500,-999
11.88333,-1004
11.89167,-1008
11.90000,-1012
11.90833,-1015
11.91667,-1019
11.92500,-1023
11.93333,-1027
11.94167,-1030
11.95000,-1033
11.95833,-1036
11.96667,-1039
11.97500,-1042
11.98333,-1044
11.99167,-1047
12.00000,-1049
12.00833,-1051
12.01667,-1053
12.02500,-1056
12.03333,-1058
12.04167,-1060
12.05000,-1062
12.05833,-1064
12.06667,-1066
12.07500,-1068
12.08333,-1070
12.09167,-1071
12.10000,-1073
12.10833,-1074
12.11667,-1076
12.12500,-1077
12.13333,-1079
12.14167,-1080
12.15000,-1081
12.15833,-1082
12.16667,-1083
12.17500,-1084
12.18333,-1085
12.19167,-1087
12.20000,-1088
12.20833,-1090
12.21667,-1092
12.22500,-1093
12.23333,-1094
12.24167,-1095
12.25000,-1097
12.25833,-1099
12.26667,-1100
12.27500,-1102
12.28333,-1103
12.29167,-1105
12.30000,-1106
12.30833,-1107
12.31667,-1109
12.32500,-1111
12.33333,-1112
12.34167,-1114
12.35000,-1115
12.35833,-1117
12.36667,-1118
12.37500,-1120
12.38333,-1122
12.39167,-1123
12.40000,-1124
12.40833,-1125
12.41667,-1126
12.42500,-1127
12.43333,-1128
12.44167,-1129
12.45000,-1130
12.45833,-1131
12.46667,-1132
12.47500,-1133
12.48333,-1134
12.49167,-1135
12.50000,-1135
12.50833,-1136
12.51667,-1136
12.52500,-1137
12.53333,-1138
12.54167,-1138
12.55000,-1138
12.55833,-1139
12.56667,-1139
12.57500,-1140
12.58333,-1140
12.59167,-1140
12.60000,-1139
12.60833,-1139
12.61667,-1138
12.62500,-1137
12.63333,-1136
12.64167,-1135
12.65000,-1133
12.65833,-1132
12.66667,-1130
12.67500,-1128
12.68333,-1125
12.69167,-1122
12.70000,-1118
12.70833,-1114
12.71667,-1110
12.72500,-1105
12.73333,-1100
12.74167,-1095
12.75000,-1090
12.75833,-1084
12.76667,-1077
12.77500,-1071
12.78333,-1064
12.79167,-1057
12.80000,-1049
12.80833,-1042
12.81667,-1034
12.82500,-1027
12.83333,-1019
12.84167,-1011
12.85000,-1004
12.85833,-996
12.86667,-988
12.87500,-981
12.88333,-974
12.89167,-966
12.90000,-959
12.90833,-953
12.91667,-946
12.92500,-940
12.93333,-934
12.94167,-928
12.95000,-923
12.95833,-918
12.96667,-914
12.97500,-910
12.98333,-907
12.99167,-904
13.00000,-902
13.00833,-901
13.01667,-900
13.02500,-900
13.03333,-901
13.04167,-902
13.05000,-904
13.05833,-907
13.06667,-910
13.07500,-914
13.08333,-918
13.09167,-924
13.10000,-930
13.10833,-936
13.11667,-942
13.12500,-950
13.13333,-957
13.14167,-966
13.15000,-974
13.15833,-984
13.16667,-993
13.17500,-1002
13.18333,-1012
13.19167,-1022
13.20000,-1032
13.20833,-1043
13.21667,-1054
13.22500,-1065
13.23333,-1076
13.24167,-1087
13.25000,-1098
13.25833,-1110
13.26667,-1121
13.27500,-1133
13.28333,-1144
13.29167,-1155
13.30000,-1167
13.30833,-1178
13.31667,-1188
13.32500,-1199
13.33333,-1210
13.34167,-1221
13.35000,-1231
13.35833,-1241
13.36667,-1250
13.37500,-1260
13.38333,-1269
13.39167,-1278
13.40000,-1286
13.40833,-1294
13.41667,-1301
13.42500,-1308
13.43333,-1315
13.44167,-1321
13.45000,-1327
13.45833,-1333
13.46667,-1338
13.47500,-1343
13.48333,-1348
13.49167,-1352
13.50000,-1355
13.50833,-1359
13.51667,-1361
13.52500,-1364
13.53333,-1366
13.54167,-1369
13.55000,-1371
13.55833,-1372
13.56667,-1373
13.57500,-1374
13.58333,-1374
13.59167,-1375
13.60000,-1375
13.60833,-1376
13.61667,-1376
13.62500,-1375
13.63333,-1375
13.64167,-1374
13.65000,-1374
13.65833,-1373
13.66667,-1373
13.67500,-1372
13.68333,-1371
13.69167,-1370
13.70000,-1368
13.70833,-1367
13.71667,-1366
13.72500,-1365
13.73333,-1364
13.74167,-1363
13.75000,-1362
13.75833,-1361
13.76667,-1360
13.77500,-1358
13.78333,-1357
13.79167,-1356
13.80000,-1355
13.80833,-1354
13.81667,-1353
13.82500,-1351
13.83333,-1350
13.84167,-1348
13.85000,-1346
13.85833,-1345
13.86667,-1343
13.87500,-1342
13.88333,-1341
13.89167,-1340
13.90000,-1338
13.90833,-1337
13.91667,-1335
13.92500,-1334
13.93333,-1332
13.94167,-1330
13.95000,-1328
13.95833,-1326
13.96667,-1325
13.97500,-1322
13.98333,-1320
13.99167,-1318
14.00000,-1316
14.00833,-1313
14.01667,-1310
14.02500,-1307
14.03333,-1303
14.04167,-1299
14.05000,-1294
14.05833,-1288
14.06667,-1282
14.07500,-1275
14.08333,-1266
14.09167,-1256
14.10000,-1244
14.10833,-1229
14.11667,-1212
14.12500,-1192
14.13333,-1168
14.14167,-1139
14.15000,-1105
14.15833,-1065
14.16667,-1016
14.17500,-959
14.18333,-891
14.19167,-811
14.20000,-717
14.20833,-605
14.21667,-475
14.22500,-323
14.23333,-146
14.24167,59
14.25000,295
14.25833,566
14.26667,875
14.27500,1226
14.28333,1622
14.29167,2068
14.30000,2568
14.30833,3124
14.31667,3740
14.32500,4420
14.33333,5166
14.34167,5980
14.35000,6863
14.35833,7817
14.36667,8842
14.37500,9939
14.38333,11106
14.39167,12343
14.40000,13646
14.40833,15013
14.41667,16441
14.42500,17924
14.43333,19459
14.44167,21041
14.45000,22663
14.45833,24320
14.46667,26005
14.47500,27712
14.48333,29435
14.49167,31167
14.50000,32902
14.50833,34633
14.51667,36356
14.52500,38064
14.53333,39752
14.54167,41416
14.55000,43053
14.55833,44658
14.56667,46228
14.57500,47762
14.58333,49259
14.59167,50716
14.60000,52133
14.60833,53510
14.61667,54849
14.62500,56150
14.63333,57416
14.64167,58649
14.65000,59851
14.65833,61025
14.66667,62175
14.67500,63305
14.68333,64417
14.69167,65517
14.70000,66607
14.70833,67693
14.71667,68779
14.72500,69869
14.73333,70966
14.74167,72076
14.75000,73202
14.75833,74348
14.76667,75518
14.77500,76715
14.78333,77942
14.79167,79203
14.80000,80500
14.80833,81838
14.81667,83217
14.82500,84641
14.83333,86111
14.84167,87630
14.85000,89199
14.85833,90819
14.86667,92493
14.87500,94220
14.88333,96002
14.89167,97840
14.90000,99735
14.90833,101688
14.91667,103699
14.92500,105768
14.93333,107895
14.94167,110082
14.95000,112327
14.95833,114631
14.96667,116995
14.97500,119417
14.98333,121899
14.99167,124441
15.00000,127042
15.00833,129703
15.01667,132424
15.02500,135204
15.03333,138043
15.04167,140942
15.05000,143899
15.05833,146916
15.06667,149992
15.07500,153129
15.08333,156325
15.09167,159581
15.10000,162897
15.10833,166272
15.11667,169708
15.12500,173204
15.13333,176760
15.14167,180377
15.15000,184053
15.15833,187790
15.16667,191587
15.17500,195443
15.18333,199358
15.19167,203329
15.20000,207354
15.20833,211427
15.21667,215539
15.22500,219679
15.23333,223829
15.24167,227964
15.25000,232053
15.25833,236055
15.26667,239919
15.27500,243585
15.28333,246985
15.29167,250043
15.30000,252678
15.30833,254809
15.31667,256350
15.32500,257221
15.33333,257346
15.34167,256654
15.35000,255087
15.35833,252596
15.36667,249146
15.37500,244720
15.38333,239316
15.39167,232954
15.40000,225673
15.40833,217535
15.41667,208620
15.42500,199029
15.43333,188882
15.44167,178310
15.45000,167453
15.45833,156458
15.46667,145469
15.47500,134622
15.48333,124043
15.49167,113841
15.50000,104107
15.50833,94914
15.51667,86313
15.52500,78337
15.53333,71001
15.54167,64303
15.55000,58229
15.55833,52753
15.56667,47843
15.57500,43460
15.58333,39563
15.59167,36108
15.60000,33055
15.60833,30361
15.61667,27988
15.62500,25898
15.63333,24059
15.64167,22440
15.65000,21014
15.65833,19757
15.66667,18647
15.67500,17666
15.68333,16797
15.69167,16026
15.70000,15340
15.70833,14727
15.71667,14180
15.72500,13689
15.73333,13248
15.74167,12851
15.75000,12492
15.75833,12166
15.76667,11870
15.77500,11601
15.78333,11355
15.79167,11129
15.80000,10921
15.80833,10730
15.81667,10553
15.82500,10389
15.83333,10237
15.84167,10096
15.85000,9964
15.85833,9841
15.86667,9725
15.87500,9617
15.88333,9515
15.89167,9418
15.90000,9327
15.90833,9241
15.91667,9159
15.92500,9082
15.93333,9008
15.94167,8938
15.95000,8872
15.95833,8808
15.96667,8747
15.97500,8689
15.98333,8633
15.99167,8579
16.00000,8528
16.00833,8478
16.01667,8430
16.02500,8383
16.03333,8338
16.04167,8294
16.05000,8251
16.05833,8210
16.06667,8171
16.07500,8132
16.08333,8093
16.09167,8056
16.10000,8019
16.10833,7983
16.11667,7948
16.12500,7913
16.13333,7878
16.14167,7844
16.15000,7810
16.15833,7777
16.16667,7743
16.17500,7710
16.18333,7677
16.19167,7644
16.20000,7611
16.20833,7578
16.21667,7544
16.22500,7511
16.23333,7477
16.24167,7444
16.25000,7410
16.25833,7376
16.26667,7342
16.27500,7307
16.28333,7272
16.29167,7236
16.30000,7200
16.30833,7163
16.31667,7126
16.32500,7088
16.33333,7050
16.34167,7012
16.35000,6973
16.35833,6933
16.36667,6892
16.37500,6852
16.38333,6810
16.39167,6769
16.40000,6726
16.40833,6683
16.41667,6639
16.42500,6595
16.43333,6550
16.44167,6504
16.45000,6458
16.45833,6411
16.46667,6364
16.47500,6316
16.48333,6268
16.49167,6220
16.50000,6171
16.50833,6121
16.51667,6071
16.52500,6020
16.53333,5969
16.54167,5918
16.55000,5866
16.55833,5814
16.56667,5762
16.57500,5709
16.58333,5655
16.59167,5602
16.60000,5548
16.60833,5494
16.61667,5440
16.62500,5385
16.63333,5331
16.64167,5276
16.65000,5221
16.65833,5165
16.66667,5110
16.67500,5054
16.68333,4998
16.69167,4942
16.70000,4887
16.70833,4831
16.71667,4775
16.72500,4719
16.73333,4663
16.74167,4607
16.75000,4551
16.75833,4495
16.76667,4440
16.77500,4385
16.78333,4330
16.79167,4275
16.80000,4220
16.80833,4165
16.81667,4110
16.82500,4055
16.83333,4000
16.84167,3946
16.85000,3891
16.85833,3837
16.86667,3784
16.87500,3730
16.88333,3677
16.89167,3623
16.90000,3570
16.90833,3517
16.91667,3464
16.92500,3412
16.93333,3359
16.94167,3307
16.95000,3255
16.95833,3203
16.96667,3151
16.97500,3100
16.98333,3048
16.99167,2997
17.00000,2946
17.00833,2895
17.01667,2843
17.02500,2792
17.03333,2741
17.04167,2690
17.05000,2638
17.05833,2587
17.06667,2536
17.07500,2485
17.08333,2434
17.09167,2383
17.10000,2332
17.10833,2281
17.11667,2229
17.12500,2179
17.13333,2128
17.14167,2077
17.15000,2027
17.15833,1976
17.16667,1925
17.17500,1873
17.18333,1822
17.19167,1771
17.20000,1719
17.20833,1668
17.21667,1616
17.22500,1565
17.23333,1514
17.24167,1463
17.25000,1411
17.25833,1360
17.26667,1309
17.27500,1257
17.28333,1206
17.29167,1154
17.30000,1103
17.30833,1052
17.31667,1001
17.32500,950
17.33333,899
17.34167,848
17.35000,798
17.35833,748
17.36667,698
17.37500,648
17.38333,599
17.39167,549
17.40000,500
17.40833,452
17.41667,403
17.42500,356
17.43333,308
17.44167,262
17.45000,215
17.45833,170
17.46667,124
17.47500,79
17.48333,35
17.49167,-9
17.50000,-51
17.50833,-93
17.51667,-135
17.52500,-176
17.53333,-216
17.54167,-256
17.55000,-295
17.55833,-333
17.56667,-370
17.57500,-406
17.58333,-441
17.59167,-476
17.60000,-510
17.60833,-543
17.61667,-575
17.62500,-606
17.63333,-637
17.64167,-666
17.65000,-695
17.65833,-723
17.66667,-750
17.67500,-776
17.68333,-801
17.69167,-826
17.70000,-849
17.70833,-872
17.71667,-893
17.72500,-914
17.73333,-934
17.74167,-954
17.75000,-973
17.75833,-991
17.76667,-1008
17.77500,-1025
17.78333,-1042
17.79167,-1057
17.80000,-1071
17.80833,-1084
17.81667,-1098
17.82500,-1111
17.83333,-1123
17.84167,-1135
17.85000,-1146
17.85833,-1157
17.86667,-1167
17.87500,-1177
17.88333,-1186
17.89167,-1195
17.90000,-1204
17.90833,-1212
17.91667,-1219
17.92500,-1227
17.93333,-1234
17.94167,-1241
17.95000,-1247
17.95833,-1254
17.96667,-1260
17.97500,-1266
17.98333,-1272
17.99167,-1278
18.00000,-1283
18.00833,-1288
18.01667,-1292
18.02500,-1297
18.03333,-1302
18.04167,-1307
18.05000,-1311
18.05833,-1315
18.06667,-1320
18.07500,-1324
18.08333,-1328
18.09167,-1331
18.10000,-1335
18.10833,-1338
18.11667,-1342
18.12500,-1345
18.13333,-1348
18.14167,-1351
18.15000,-1355
18.15833,-1358
18.16667,-1361
18.17500,-1365
18.18333,-1368
18.19167,-1371
18.20000,-1374
18.20833,-1377
18.21667,-1380
18.22500,-1383
18.23333,-1386
18.24167,-1388
18.25000,-1391
18.25833,-1393
18.26667,-1396
18.27500,-1398
18.28333,-1400
18.29167,-1402
18.30000,-1404
18.30833,-1407
18.31667,-1409
18.32500,-1411
18.33333,-1413
18.34167,-1416
18.35000,-1418
18.35833,-1420
18.36667,-1422
18.37500,-1424
18.38333,-1427
18.39167,-1429
18.40000,-1432
18.40833,-1435
18.41667,-1437
18.42500,-1439
18.43333,-1441
18.44167,-1443
18.45000,-1445
18.45833,-1447
18.46667,-1449
18.47500,-1451
18.48333,-1453
18.49167,-1455
18.50000,-1458
18.50833,-1460
18.51667,-1462
18.52500,-1465
18.53333,-1467
18.54167,-1470
18.55000,-1472
18.55833,-1474
18.56667,-1477
18.57500,-1479
18.58333,-1481
18.59167,-1484
18.60000,-1486
18.60833,-1489
18.61667,-1491
18.62500,-1493
18.63333,-1495
18.64167,-1497
18.65000,-1500
18.65833,-1502
18.66667,-1504
18.67500,-1506
18.68333,-1508
18.69167,-1510
18.70000,-1512
18.70833,-1513
18.71667,-1515
18.72500,-1517
18.73333,-1518
18.74167,-1520
18.75000,-1521
18.75833,-1522
18.76667,-1523
18.77500,-1524
18.78333,-1526
18.79167,-1527
18.80000,-1528
18.80833,-1530
18.81667,-1531
18.82500,-1532
18.83333,-1534
18.84167,-1535
18.85000,-1536
18.85833,-1537
18.86667,-1538
18.87500,-1539
18.88333,-1540
18.89167,-1541
18.90000,-1543
18.90833,-1545
18.91667,-1547
18.92500,-1549
18.93333,-1551
18.94167,-1553
18.95000,-1555
18.95833,-1556
18.96667,-1558
18.97500,-1560
18.98333,-1563
18.99167,-1565
19.00000,-1567
19.00833,-1570
19.01667,-1573
19.02500,-1575
19.03333,-1578
19.04167,-1580
19.05000,-1583
19.05833,-1585
19.06667,-1587
19.07500,-1590
19.08333,-1593
19.09167,-1595
19.10000,-1598
19.10833,-1601
19.11667,-1603
19.12500,-1606
19.13333,-1609
19.14167,-1612
19.15000,-1615
19.15833,-1617
19.16667,-1619
19.17500,-1622
19.18333,-1624
19.19167,-1627
19.20000,-1629
19.20833,-1632
19.21667,-1634
19.22500,-1636
19.23333,-1639
19.24167,-1641
19.25000,-1643
19.25833,-1645
19.26667,-1647
19.27500,-1649
19.28333,-1651
19.29167,-1653
19.30000,-1655
19.30833,-1656
19.31667,-1658
19.32500,-1660
19.33333,-1662
19.34167,-1664
19.35000,-1666
19.35833,-1668
19.36667,-1670
19.37500,-1672
19.38333,-1673
19.39167,-1675
19.40000,-1676
19.40833,-1678
19.41667,-1680
19.42500,-1682
19.43333,-1683
19.44167,-1684
19.45000,-1686
19.45833,-1688
19.46667,-1690
19.47500,-1692
19.48333,-1694
19.49167,-1695
19.50000,-1697
19.50833,-1699
19.51667,-1700
19.52500,-1701
19.53333,-1703
19.54167,-1704
19.55000,-1705
19.55833,-1707
19.56667,-1708
19.57500,-1710
19.58333,-1711
19.59167,-1712
19.60000,-1714
19.60833,-1716
19.61667,-1718
19.62500,-1719
19.63333,-1720
19.64167,-1722
19.65000,-1723
19.65833,-1725
19.66667,-1726
19.67500,-1727
19.68333,-1729
19.69167,-1730
19.70000,-1732
19.70833,-1733
19.71667,-1735
19.72500,-1736
19.73333,-1738
19.74167,-1739
19.75000,-1740
19.75833,-1741
19.76667,-1743
19.77500,-1744
19.78333,-1746
19.79167,-1747
19.80000,-1749
19.80833,-1750
19.81667,-1752
19.82500,-1753
19.83333,-1754
19.84167,-1755
19.85000,-1756
19.85833,-1757
19.86667,-1759
19.87500,-1760
19.88333,-1761
19.89167,-1763
19.90000,-1764
19.90833,-1765
19.91667,-1766
19.92500,-1768
19.93333,-1769
19.94167,-1770
19.95000,-1771
19.95833,-1773
19.96667,-1774
19.97500,-1776
19.98333,-1777
19.99167,-1779
20.00000,-1780
20.00833,-1781
20.01667,-1782
20.02500,-1784
20.03333,-1785
20.04167,-1786
20.05000,-1787
20.05833,-1789
20.06667,-1790
20.07500,-1792
20.08333,-1793
20.09167,-1795
20.10000,-1797
20.10833,-1798
20.11667,-1799
20.12500,-1800
20.13333,-1802
20.14167,-1803
20.15000,-1804
20.15833,-1805
20.16667,-1806
20.17500,-1807
20.18333,-1808
20.19167,-1810
20.20000,-1811
20.20833,-1812
20.21667,-1814
20.22500,-1816
20.23333,-1817
20.24167,-1818
20.25000,-1819
20.25833,-1821
20.26667,-1822
20.27500,-1823
20.28333,-1824
20.29167,-1825
20.30000,-1827
20.30833,-1828
20.31667,-1830
20.32500,-1831
20.33333,-1832
20.34167,-1833
20.35000,-1834
20.35833,-1835
20.36667,-1836
20.37500,-1837
20.38333,-1839
20.39167,-1840
20.40000,-1842
20.40833,-1843
20.41667,-1844
20.42500,-1846
20.43333,-1847
20.44167,-1848
20.45000,-1849
20.45833,-1850
20.46667,-1851
20.47500,-1852
20.48333,-1853
20.49167,-1854
20.50000,-1855
20.50833,-1856
20.51667,-1857
20.52500,-1858
20.53333,-1859
20.54167,-1860
20.55000,-1861
20.55833,-1863
20.56667,-1863
20.57500,-1864
20.58333,-1865
20.59167,-1867
20.60000,-1868
20.60833,-1870
20.61667,-1871
20.62500,-1872
20.63333,-1873
20.64167,-1874
20.65000,-1875
20.65833,-1876
20.66667,-1877
20.67500,-1879
20.68333,-1880
20.69167,-1881
20.70000,-1882
20.70833,-1883
20.71667,-1884
20.72500,-1885
20.73333,-1885
20.74167,-1886
20.75000,-1887
20.75833,-1888
20.76667,-1890
20.77500,-1891
20.78333,-1892
20.79167,-1893
20.80000,-1894
20.80833,-1895
20.81667,-1896
20.82500,-1897
20.83333,-1898
20.84167,-1899
20.85000,-1900
20.85833,-1901
20.86667,-1902
20.87500,-1903
20.88333,-1903
20.89167,-1904
20.90000,-1905
20.90833,-1907
20.91667,-1908
20.92500,-1910
20.93333,-1911
20.94167,-1913
20.95000,-1914
20.95833,-1915
20.96667,-1916
20.97500,-1917
20.98333,-1918
20.99167,-1919
21.00000,-1920
21.00833,-1921
21.01667,-1922
21.02500,-1922
21.03333,-1923
21.04167,-1924
21.05000,-1925
21.05833,-1926
21.06667,-1927
21.07500,-1928
21.08333,-1929
21.09167,-1930
21.10000,-1931
21.10833,-1933
21.11667,-1934
21.12500,-1935
21.13333,-1936
21.14167,-1937
21.15000,-1938
21.15833,-1939
21.16667,-1939
21.17500,-1940
21.18333,-1941
21.19167,-1942
21.20000,-1943
21.20833,-1944
21.21667,-1945
21.22500,-1946
21.23333,-1947
21.24167,-1948
21.25000,-1949
21.25833,-1950
21.26667,-1951
21.27500,-1952
21.28333,-1953
21.29167,-1954
21.30000,-1954
21.30833,-1955
21.31667,-1956
21.32500,-1956
21.33333,-1957
21.34167,-1958
21.35000,-1959
21.35833,-1961
21.36667,-1962
21.37500,-1963
21.38333,-1964
21.39167,-1965
21.40000,-1966
21.40833,-1967
21.41667,-1969
21.42500,-1970
21.43333,-1971
21.44167,-1972
21.45000,-1973
21.45833,-1974
21.46667,-1975
21.47500,-1975
21.48333,-1976
21.49167,-1977
21.50000,-1978
21.50833,-1978
21.51667,-1979
21.52500,-1980
21.53333,-1981
21.54167,-1982
21.55000,-1983
21.55833,-1984
21.56667,-1985
21.57500,-1986
21.58333,-1987
21.59167,-1989
21.60000,-1990
21.60833,-1991
21.61667,-1992
21.62500,-1993
21.63333,-1994
21.64167,-1995
21.65000,-1996
21.65833,-1996
21.66667,-1997
21.67500,-1998
21.68333,-1999
21.69167,-2000
21.70000,-2000
21.70833,-2001
21.71667,-2002
21.72500,-2003
21.73333,-2004
21.74167,-2005
21.75000,-2006
21.75833,-2007
21.76667,-2008
21.77500,-2009
21.78333,-2010
21.79167,-2011
21.80000,-2012
21.80833,-2012
21.81667,-2013
21.82500,-2014
21.83333,-2015
21.84167,-2016
21.85000,-2016
21.85833,-2017
21.86667,-2018
21.87500,-2018
21.88333,-2019
21.89167,-2020
21.90000,-2021
21.90833,-2021
21.91667,-2022
21.92500,-2023
21.93333,-2023
21.94167,-2024
21.95000,-2025
21.95833,-2026
21.96667,-2027
21.97500,-2028
21.98333,-2029
21.99167,-2030
22.00000,-2031
22.00833,-2031
22.01667,-2032
22.02500,-2033
22.03333,-2033
22.04167,-2034
22.05000,-2035
22.05833,-2036
22.06667,-2037
22.07500,-2038
22.08333,-2039
22.09167,-2040
22.10000,-2040
22.10833,-2041
22.11667,-2042
22.12500,-2043
22.13333,-2044
22.14167,-2045
22.15000,-2046
22.15833,-2046
22.16667,-2047
22.17500,-2048
22.18333,-2049
22.19167,-2050
22.20000,-2051
22.20833,-2052
22.21667,-2053
22.22500,-2054
22.23333,-2055
22.24167,-2056
22.25000,-2057
22.25833,-2058
22.26667,-2059
22.27500,-2060
22.28333,-2061
22.29167,-2062
22.30000,-2063
22.30833,-2064
22.31667,-2065
22.32500,-2066
22.33333,-2067
22.34167,-2068
22.35000,-2069
22.35833,-2070
22.36667,-2071
22.37500,-2072
22.38333,-2073
22.39167,-2074
22.40000,-2075
22.40833,-2076
22.41667,-2077
22.42500,-2078
22.43333,-2079
22.44167,-2079
22.45000,-2080
22.45833,-2081
22.46667,-2083
22.47500,-2084
22.48333,-2085
22.49167,-2085
22.50000,-2086
22.50833,-2087
22.51667,-2088
22.52500,-2089
22.53333,-2090
22.54167,-2091
22.55000,-2092
22.55833,-2093
22.56667,-2094
22.57500,-2096
22.58333,-2097
22.59167,-2098
22.60000,-2099
22.60833,-2100
22.61667,-2100
22.62500,-2101
22.63333,-2102
22.64167,-2102
22.65000,-2103
22.65833,-2104
22.66667,-2104
22.67500,-2105
22.68333,-2106
22.69167,-2108
22.70000,-2109
22.70833,-2110
22.71667,-2111
22.72500,-2111
22.73333,-2112
22.74167,-2113
22.75000,-2114
22.75833,-2115
22.76667,-2116
22.77500,-2117
22.78333,-2117
22.79167,-2118
22.80000,-2119
22.80833,-2120
22.81667,-2121
22.82500,-2122
22.83333,-2123
22.84167,-2124
22.85000,-2125
22.85833,-2126
22.86667,-2127
22.87500,-2128
22.88333,-2128
22.89167,-2129
22.90000,-2129
22.90833,-2130
22.91667,-2131
22.92500,-2132
22.93333,-2133
22.94167,-2134
22.95000,-2135
22.95833,-2136
22.96667,-2137
22.97500,-2138
22.98333,-2138
22.99167,-2140
23.00000,-2140
23.00833,-2141
23.01667,-2141
23.02500,-2142
23.03333,-2143
23.04167,-2144
23.05000,-2144
23.05833,-2145
23.06667,-2145
23.07500,-2146
23.08333,-2147
23.09167,-2148
23.10000,-2149
23.10833,-2150
23.11667,-2151
23.12500,-2152
23.13333,-2153
23.14167,-2153
23.15000,-2154
23.15833,-2155
23.16667,-2155
23.17500,-2156
23.18333,-2157
23.19167,-2158
23.20000,-2159
23.20833,-2160
23.21667,-2161
23.22500,-2162
23.23333,-2163
23.24167,-2164
23.25000,-2165
23.25833,-2166
23.26667,-2167
23.27500,-2167
23.28333,-2168
23.29167,-2169
23.30000,-2170
23.30833,-2171
23.31667,-2171
23.32500,-2172
23.33333,-2173
23.34167,-2174
23.35000,-2175
23.35833,-2176
23.36667,-2177
23.37500,-2178
23.38333,-2179
23.39167,-2179
23.40000,-2180
23.40833,-2181
23.41667,-2181
23.42500,-2182
23.43333,-2183
23.44167,-2184
23.45000,-2185
23.45833,-2185
23.46667,-2186
23.47500,-2187
23.48333,-2188
23.49167,-2189
23.50000,-2190
23.50833,-2190
23.51667,-2191
23.52500,-2191
23.53333,-2192
23.54167,-2193
23.55000,-2194
23.55833,-2195
23.56667,-2196
23.57500,-2197
23.58333,-2197
23.59167,-2198
23.60000,-2200
23.60833,-2201
23.61667,-2201
23.62500,-2202
23.63333,-2203
23.64167,-2204
23.65000,-2204
23.65833,-2205
23.66667,-2206
23.67500,-2207
23.68333,-2208
23.69167,-2209
23.70000,-2209
23.70833,-2210
23.71667,-2211
23.72500,-2211
23.73333,-2212
23.74167,-2213
23.75000,-2213
23.75833,-2214
23.76667,-2215
23.77500,-2216
23.78333,-2216
23.79167,-2217
23.80000,-2218
23.80833,-2219
23.81667,-2219
23.82500,-2220
23.83333,-2221
23.84167,-2222
23.85000,-2223
23.85833,-2224
23.86667,-2225
23.87500,-2226
23.88333,-2227
23.89167,-2227
23.90000,-2228
23.90833,-2229
23.91667,-2230
23.92500,-2230
23.93333,-2231
23.94167,-2232
23.95000,-2232
23.95833,-2233
23.96667,-2234
23.97500,-2235
23.98333,-2236
23.99167,-2237
24.00000,-2238
24.00833,-2239
24.01667,-2240
24.02500,-2241
24.03333,-2241
24.04167,-2242
24.05000,-2243
24.05833,-2243
24.06667,-2244
24.07500,-2244
24.08333,-2245
24.09167,-2246
24.10000,-2247
24.10833,-2248
24.11667,-2249
24.12500,-2249
24.13333,-2250
24.14167,-2250
24.15000,-2251
24.15833,-2252
24.16667,-2252
24.17500,-2253
24.18333,-2254
24.19167,-2254
24.20000,-2255
24.20833,-2256
24.21667,-2256
24.22500,-2257
24.23333,-2258
24.24167,-2259
24.25000,-2259
24.25833,-2259
24.26667,-2260
24.27500,-2261
24.28333,-2262
24.29167,-2263
24.30000,-2264
24.30833,-2264
24.31667,-2265
24.32500,-2266
24.33333,-2267
24.34167,-2268
24.35000,-2269
24.35833,-2270
24.36667,-2270
24.37500,-2271
24.38333,-2272
24.39167,-2273
24.40000,-2274
24.40833,-2275
24.41667,-2276
24.42500,-2276
24.43333,-2277
24.44167,-2277
24.45000,-2277
24.45833,-2278
24.46667,-2279
24.47500,-2279
24.48333,-2280
24.49167,-2281
24.50000,-2282
24.50833,-2283
24.51667,-2284
24.52500,-2285
24.53333,-2285
24.54167,-2286
24.55000,-2286
24.55833,-2287
24.56667,-2288
24.57500,-2290
24.58333,-2290
24.59167,-2291
24.60000,-2292
24.60833,-2292
24.61667,-2293
24.62500,-2293
24.63333,-2294
24.64167,-2295
24.65000,-2296
24.65833,-2297
24.66667,-2298
24.67500,-2298
24.68333,-2299
24.69167,-2300
24.70000,-2301
24.70833,-2301
24.71667,-2302
24.72500,-2304
24.73333,-2305
24.74167,-2306
24.75000,-2306
24.75833,-2307
24.76667,-2307
24.77500,-2308
24.78333,-2308
24.79167,-2309
24.80000,-2310
24.80833,-2310
24.81667,-2311
24.82500,-2312
24.83333,-2313
24.84167,-2314
24.85000,-2315
24.85833,-2316
24.86667,-2317
24.87500,-2318
24.88333,-2319
24.89167,-2319
24.90000,-2320
24.90833,-2320
24.91667,-2321
24.92500,-2322
24.93333,-2323
24.94167,-2323
24.95000,-2324
24.95833,-2325
24.96667,-2326
24.97500,-2326
24.98333,-2327
24.99167,-2328
25.00000,-2329
25.00833,-2330
25.01667,-2331
25.02500,-2332
25.03333,-2332
25.04167,-2333
25.05000,-2334
25.05833,-2334
25.06667,-2335
25.07500,-2336
25.08333,-2336
25.09167,-2337
25.10000,-2338
25.10833,-2339
25.11667,-2339
25.12500,-2340
25.13333,-2341
25.14167,-2342
25.15000,-2342
25.15833,-2343
25.16667,-2344
25.17500,-2345
25.18333,-2347
25.19167,-2348
25.20000,-2349
25.20833,-2349
25.21667,-2350
25.22500,-2351
25.23333,-2351
25.24167,-2352
25.25000,-2353
25.25833,-2353
25.26667,-2354
25.27500,-2354
25.28333,-2355
25.29167,-2356
25.30000,-2356
25.30833,-2357
25.31667,-2358
25.32500,-2358
25.33333,-2359
25.34167,-2360
25.35000,-2361
25.35833,-2362
25.36667,-2363
25.37500,-2363
25.38333,-2364
25.39167,-2365
25.40000,-2366
25.40833,-2366
25.41667,-2367
25.42500,-2368
25.43333,-2368
25.44167,-2369
25.45000,-2370
25.45833,-2371
25.46667,-2371
25.47500,-2372
25.48333,-2372
25.49167,-2373
25.50000,-2373
25.50833,-2374
25.51667,-2375
25.52500,-2376
25.53333,-2377
25.54167,-2378
25.55000,-2378
25.55833,-2379
25.56667,-2380
25.57500,-2380
25.58333,-2381
25.59167,-2382
25.60000,-2383
25.60833,-2384
25.61667,-2385
25.62500,-2385
25.63333,-2386
25.64167,-2386
25.65000,-2387
25.65833,-2388
25.66667,-2389
25.67500,-2389
25.68333,-2390
25.69167,-2391
25.70000,-2391
25.70833,-2392
25.71667,-2393
25.72500,-2393
25.73333,-2394
25.74167,-2395
25.75000,-2396
25.75833,-2396
25.76667,-2397
25.77500,-2398
25.78333,-2399
25.79167,-2399
25.80000,-2400
25.80833,-2400
25.81667,-2401
25.82500,-2402
25.83333,-2402
25.84167,-2403
25.85000,-2404
25.85833,-2405
25.86667,-2406
25.87500,-2407
25.88333,-2407
25.89167,-2408
25.90000,-2408
25.90833,-2409
25.91667,-2409
25.92500,-2410
25.93333,-2411
25.94167,-2412
25.95000,-2413
25.95833,-2414
25.96667,-2414
25.97500,-2415
25.98333,-2416
25.99167,-2417
26.00000,-2418
26.00833,-2418
26.01667,-2419
26.02500,-2420
26.03333,-2421
26.04167,-2421
26.05000,-2422
26.05833,-2423
26.06667,-2424
26.07500,-2424
26.08333,-2425
26.09167,-2426
26.10000,-2426
26.10833,-2427
26.11667,-2428
26.12500,-2428
26.13333,-2429
26.14167,-2430
26.15000,-2431
26.15833,-2431
26.16667,-2431
26.17500,-2432
26.18333,-2433
26.19167,-2434
26.20000,-2434
26.20833,-2435
26.21667,-2436
26.22500,-2437
26.23333,-2438
26.24167,-2438
26.25000,-2439
26.25833,-2440
26.26667,-2441
26.27500,-2441
26.28333,-2442
26.29167,-2442
26.30000,-2443
26.30833,-2444
26.31667,-2444
26.32500,-2445
26.33333,-2446
26.34167,-2446
26.35000,-2447
26.35833,-2448
26.36667,-2448
26.37500,-2449
26.38333,-2450
26.39167,-2450
26.40000,-2451
26.40833,-2452
26.41667,-2452
26.42500,-2453
26.43333,-2453
26.44167,-2454
26.45000,-2455
26.45833,-2455
26.46667,-2456
26.47500,-2456
26.48333,-2457
26.49167,-2458
26.50000,-2458
26.50833,-2459
26.51667,-2460
26.52500,-2461
26.53333,-2462
26.54167,-2463
26.55000,-2464
26.55833,-2465
26.56667,-2466
26.57500,-2467
26.58333,-2468
26.59167,-2468
26.60000,-2468
26.60833,-2468
26.61667,-2469
26.62500,-2470
26.63333,-2470
26.64167,-2471
26.65000,-2472
26.65833,-2472
26.66667,-2473
26.67500,-2474
26.68333,-2475
26.69167,-2475
26.70000,-2476
26.70833,-2477
26.71667,-2478
26.72500,-2479
26.73333,-2480
26.74167,-2480
26.75000,-2481
26.75833,-2482
26.76667,-2482
26.77500,-2483
26.78333,-2483
26.79167,-2484
26.80000,-2484
26.80833,-2485
26.81667,-2486
26.82500,-2486
26.83333,-2487
26.84167,-2488
26.85000,-2489
26.85833,-2490
26.86667,-2490
26.87500,-2491
26.88333,-2492
26.89167,-2492
26.90000,-2493
26.90833,-2494
26.91667,-2494
26.92500,-2495
26.93333,-2496
26.94167,-2496
26.95000,-2497
26.95833,-2497
26.96667,-2498
26.97500,-2498
26.98333,-2499
26.99167,-2500
27.00000,-2500
27.00833,-2501
27.01667,-2501
27.02500,-2501
27.03333,-2502
27.04167,-2503
27.05000,-2504
27.05833,-2505
27.06667,-2506
27.07500,-2507
27.08333,-2507
27.09167,-2508
27.10000,-2508
27.10833,-2508
27.11667,-2509
27.12500,-2510
27.13333,-2510
27.14167,-2511
27.15000,-2512
27.15833,-2513
27.16667,-2513
27.17500,-2514
27.18333,-2515
27.19167,-2515
27.20000,-2516
27.20833,-2517
27.21667,-2518
27.22500,-2519
27.23333,-2519
27.24167,-2520
27.25000,-2521
27.25833,-2522
27.26667,-2522
27.27500,-2523
27.28333,-2523
27.29167,-2523
27.30000,-2524
27.30833,-2524
27.31667,-2525
27.32500,-2526
27.33333,-2527
27.34167,-2528
27.35000,-2529
27.35833,-2530
27.36667,-2530
27.37500,-2531
27.38333,-2531
27.39167,-2531
27.40000,-2532
27.40833,-2533
27.41667,-2534
27.42500,-2535
27.43333,-2536
27.44167,-2536
27.45000,-2537
27.45833,-2538
27.46667,-2538
27.47500,-2539
27.48333,-2540
27.49167,-2541
27.50000,-2541
27.50833,-2542
27.51667,-2543
27.52500,-2543
27.53333,-2544
27.54167,-2544
27.55000,-2545
27.55833,-2546
27.56667,-2547
27.57500,-2547
27.58333,-2548
27.59167,-2549
27.60000,-2550
27.60833,-2550
27.61667,-2551
27.62500,-2552
27.63333,-2553
27.64167,-2554
27.65000,-2555
27.65833,-2556
27.66667,-2557
27.67500,-2558
27.68333,-2559
27.69167,-2560
27.70000,-2561
27.70833,-2561
27.71667,-2562
27.72500,-2563
27.73333,-2564
27.74167,-2565
27.75000,-2566
27.75833,-2567
27.76667,-2568
27.77500,-2569
27.78333,-2570
27.79167,-2571
27.80000,-2573
27.80833,-2574
27.81667,-2576
27.82500,-2578
27.83333,-2579
27.84167,-2581
27.85000,-2583
27.85833,-2584
27.86667,-2586
27.87500,-2588
27.88333,-2590
27.89167,-2593
27.90000,-2595
27.90833,-2598
27.91667,-2601
27.92500,-2604
27.93333,-2608
27.94167,-2611
27.95000,-2615
27.95833,-2619
27.96667,-2623
27.97500,-2628
27.98333,-2632
27.99167,-2637
28.00000,-2642
28.00833,-2648
28.01667,-2653
28.02500,-2659
28.03333,-2665
28.04167,-2672
28.05000,-2679
28.05833,-2687
28.06667,-2695
28.07500,-2703
28.08333,-2711
28.09167,-2720
28.10000,-2729
28.10833,-2739
28.11667,-2749
28.12500,-2759
28.13333,-2770
28.14167,-2781
28.15000,-2792
28.15833,-2804
28.16667,-2816
28.17500,-2828
28.18333,-2841
28.19167,-2855
28.20000,-2868
28.20833,-2882
28.21667,-2896
28.22500,-2911
28.23333,-2925
28.24167,-2941
28.25000,-2956
28.25833,-2972
28.26667,-2988
28.27500,-3003
28.28333,-3019
28.29167,-3035
28.30000,-3051
28.30833,-3066
28.31667,-3082
28.32500,-3098
28.33333,-3113
28.34167,-3129
28.35000,-3144
28.35833,-3159
28.36667,-3174
28.37500,-3188
28.38333,-3202
28.39167,-3215
28.40000,-3228
28.40833,-3241
28.41667,-3253
28.42500,-3264
28.43333,-3276
28.44167,-3287
28.45000,-3297
28.45833,-3306
28.46667,-3315
28.47500,-3324
28.48333,-3332
28.49167,-3339
28.50000,-3345
28.50833,-3351
28.51667,-3356
28.52500,-3361
28.53333,-3365
28.54167,-3369
28.55000,-3371
28.55833,-3373
28.56667,-3374
28.57500,-3374
28.58333,-3374
28.59167,-3373
28.60000,-3372
28.60833,-3370
28.61667,-3368
28.62500,-3364
28.63333,-3361
28.64167,-3357
28.65000,-3352
28.65833,-3347
28.66667,-3341
28.67500,-3336
28.68333,-3330
28.69167,-3323
28.70000,-3316
28.70833,-3309
28.71667,-3302
28.72500,-3295
28.73333,-3287
28.74167,-3279
28.75000,-3271
28.75833,-3263
28.76667,-3255
28.77500,-3247
28.78333,-3239
28.79167,-3230
28.80000,-3222
28.80833,-3214
28.81667,-3206
28.82500,-3198
28.83333,-3190
28.84167,-3183
28.85000,-3175
28.85833,-3168
28.86667,-3161
28.87500,-3154
28.88333,-3147
28.89167,-3140
28.90000,-3134
28.90833,-3127
28.91667,-3121
28.92500,-3115
28.93333,-3109
28.94167,-3104
28.95000,-3098
28.95833,-3093
28.96667,-3089
28.97500,-3084
28.98333,-3079
28.99167,-3075
29.00000,-3071
29.00833,-3067
29.01667,-3063
29.02500,-3059
29.03333,-3056
29.04167,-3052
29.05000,-3049
29.05833,-3046
29.06667,-3043
29.07500,-3040
29.08333,-3038
29.09167,-3035
29.10000,-3033
29.10833,-3031
29.11667,-3029
29.12500,-3027
29.13333,-3025
29.14167,-3024
29.15000,-3022
29.15833,-3021
29.16667,-3019
29.17500,-3018
29.18333,-3017
29.19167,-3017
29.20000,-3016
29.20833,-3015
29.21667,-3015
29.22500,-3014
29.23333,-3013
29.24167,-3012
29.25000,-3011
29.25833,-3011
29.26667,-3011
29.27500,-3010
29.28333,-3010
29.29167,-3009
29.30000,-3009
29.30833,-3009
29.31667,-3009
29.32500,-3009
29.33333,-3009
29.34167,-3009
29.35000,-3008
29.35833,-3008
29.36667,-3008
29.37500,-3008
29.38333,-3008
29.39167,-3008
29.40000,-3008
29.40833,-3008
29.41667,-3009
29.42500,-3009
29.43333,-3009
29.44167,-3009
29.45000,-3009
29.45833,-3010
29.46667,-3010
29.47500,-3010
29.48333,-3010
29.49167,-3011
29.50000,-3012
29.50833,-3012
29.51667,-3013
29.52500,-3013
29.53333,-3014
29.54167,-3014
29.55000,-3014
29.55833,-3015
29.56667,-3015
29.57500,-3016
29.58333,-3017
29.59167,-3018
29.60000,-3019
29.60833,-3019
29.61667,-3020
29.62500,-3021
29.63333,-3022
29.64167,-3023
29.65000,-3024
29.65833,-3025
29.66667,-3026
29.67500,-3027
29.68333,-3028
29.69167,-3030
29.70000,-3031
29.70833,-3032
29.71667,-3034
29.72500,-3035
29.73333,-3037
29.74167,-3039
29.75000,-3041
29.75833,-3042
29.76667,-3044
29.77500,-3046
29.78333,-3048
29.79167,-3050
29.80000,-3052
29.80833,-3055
29.81667,-3057
29.82500,-3060
29.83333,-3063
29.84167,-3066
29.85000,-3068
29.85833,-3071
29.86667,-3073
29.87500,-3076
29.88333,-3079
29.89167,-3082
29.90000,-3086
29.90833,-3089
29.91667,-3092
29.92500,-3096
29.93333,-3100
29.94167,-3104
29.95000,-3108
29.95833,-3112
29.96667,-3117
29.97500,-3121
29.98333,-3125
29.99167,-3129
30.00000,-3133
30.00833,-3137
30.01667,-3141
30.02500,-3146
30.03333,-3150
30.04167,-3154
30.05000,-3159
30.05833,-3163
30.06667,-3167
30.07500,-3171
30.08333,-3175
30.09167,-3179
30.10000,-3182
30.10833,-3186
30.11667,-3190
30.12500,-3194
30.13333,-3197
30.14167,-3200
30.15000,-3203
30.15833,-3206
30.16667,-3209
30.17500,-3212
30.18333,-3215
30.19167,-3217
30.20000,-3220
30.20833,-3223
30.21667,-3226
30.22500,-3228
30.23333,-3230
30.24167,-3232
30.25000,-3234
30.25833,-3235
30.26667,-3236
30.27500,-3237
30.28333,-3238
30.29167,-3239
30.30000,-3240
30.30833,-3240
30.31667,-3241
30.32500,-3241
30.33333,-3242
30.34167,-3242
30.35000,-3242
30.35833,-3242
30.36667,-3241
30.37500,-3241
30.38333,-3240
30.39167,-3239
30.40000,-3238
30.40833,-3237
30.41667,-3236
30.42500,-3234
30.43333,-3233
30.44167,-3232
30.45000,-3230
30.45833,-3229
30.46667,-3227
30.47500,-3225
30.48333,-3223
30.49167,-3221
30.50000,-3219
30.50833,-3217
30.51667,-3215
30.52500,-3213
30.53333,-3211
30.54167,-3209
30.55000,-3207
30.55833,-3205
30.56667,-3202
30.57500,-3200
30.58333,-3198
30.59167,-3196
30.60000,-3194
30.60833,-3191
30.61667,-3189
30.62500,-3187
30.63333,-3185
30.64167,-3183
30.65000,-3181
30.65833,-3179
30.66667,-3177
30.67500,-3175
30.68333,-3174
30.69167,-3172
30.70000,-3171
30.70833,-3169
30.71667,-3167
30.72500,-3165
30.73333,-3163
30.74167,-3161
30.75000,-3160
30.75833,-3158
30.76667,-3157
30.77500,-3156
30.78333,-3155
30.79167,-3154
30.80000,-3153
30.80833,-3152
30.81667,-3151
30.82500,-3150
30.83333,-3149
30.84167,-3148
30.85000,-3147
30.85833,-3146
30.86667,-3145
30.87500,-3144
30.88333,-3143
30.89167,-3143
30.90000,-3142
30.90833,-3141
30.91667,-3140
30.92500,-3139
30.93333,-3139
30.94167,-3139
30.95000,-3138
30.95833,-3138
30.96667,-3137
30.97500,-3137
30.98333,-3136
30.99167,-3136
31.00000,-3136
31.00833,-3135
31.01667,-3135
31.02500,-3135
31.03333,-3134
31.04167,-3134
31.05000,-3134
31.05833,-3134
31.06667,-3134
31.07500,-3134
31.08333,-3133
31.09167,-3133
31.10000,-3133
31.10833,-3133
31.11667,-3133
31.12500,-3133
31.13333,-3133
31.14167,-3133
31.15000,-3133
31.15833,-3133
31.16667,-3132
31.17500,-3132
31.18333,-3132
31.19167,-3131
31.20000,-3131
31.20833,-3131
31.21667,-3131
31.22500,-3130
31.23333,-3130
31.24167,-3129
31.25000,-3129
31.25833,-3130
31.26667,-3129
31.27500,-3129
31.28333,-3128
31.29167,-3128
31.30000,-3128
31.30833,-3128
31.31667,-3127
31.32500,-3127
31.33333,-3127
31.34167,-3127
31.35000,-3127
31.35833,-3127
31.36667,-3127
31.37500,-3127
31.38333,-3127
31.39167,-3126
31.40000,-3126
31.40833,-3126
31.41667,-3126
31.42500,-3126
31.43333,-3125
31.44167,-3125
31.45000,-3125
31.45833,-3125
31.46667,-3125
31.47500,-3125
31.48333,-3125
31.49167,-3124
31.50000,-3124
31.50833,-3123
31.51667,-3123
31.52500,-3123
31.53333,-3122
31.54167,-3122
31.55000,-3122
31.55833,-3122
31.56667,-3122
31.57500,-3122
31.58333,-3122
31.59167,-3122
31.60000,-3122
31.60833,-3122
31.61667,-3122
31.62500,-3122
31.63333,-3122
31.64167,-3122
31.65000,-3123
31.65833,-3122
31.66667,-3122
31.67500,-3122
31.68333,-3122
31.69167,-3122
31.70000,-3122
31.70833,-3122
31.71667,-3122
31.72500,-3122
31.73333,-3122
31.74167,-3122
31.75000,-3122
31.75833,-3122
31.76667,-3122
31.77500,-3122
31.78333,-3122
31.79167,-3121
31.80000,-3121
31.80833,-3121
31.81667,-3121
31.82500,-3121
31.83333,-3121
31.84167,-3121
31.85000,-3121
31.85833,-3121
31.86667,-3121
31.87500,-3122
31.88333,-3122
31.89167,-3122
31.90000,-3122
31.90833,-3122
31.91667,-3122
31.92500,-3122
31.93333,-3122
31.94167,-3122
31.95000,-3122
31.95833,-3122
31.96667,-3122
31.97500,-3122
31.98333,-3123
31.99167,-3123
32.00000,-3123
32.00833,-3123
32.01667,-3123
32.02500,-3124
32.03333,-3124
32.04167,-3124
32.05000,-3124
32.05833,-3124
32.06667,-3125
32.07500,-3125
32.08333,-3125
32.09167,-3125
32.10000,-3126
32.10833,-3126
32.11667,-3126
32.12500,-3126
32.13333,-3126
32.14167,-3125
32.15000,-3126
32.15833,-3126
32.16667,-3126
32.17500,-3127
32.18333,-3127
32.19167,-3127
32.20000,-3127
32.20833,-3127
32.21667,-3127
32.22500,-3128
32.23333,-3128
32.24167,-3128
32.25000,-3129
32.25833,-3129
32.26667,-3128
32.27500,-3128
32.28333,-3128
32.29167,-3128
32.30000,-3129
32.30833,-3129
32.31667,-3129
32.32500,-3129
32.33333,-3129
32.34167,-3130
32.35000,-3130
32.35833,-3130
32.36667,-3131
32.37500,-3131
32.38333,-3131
32.39167,-3131
32.40000,-3131
32.40833,-3132
32.41667,-3132
32.42500,-3133
32.43333,-3133
32.44167,-3134
32.45000,-3134
32.45833,-3134
32.46667,-3134
32.47500,-3133
32.48333,-3133
32.49167,-3133
32.50000,-3134
32.50833,-3134
32.51667,-3134
32.52500,-3135
32.53333,-3135
32.54167,-3135
32.55000,-3135
32.55833,-3135
32.56667,-3135
32.57500,-3136
32.58333,-3136
32.59167,-3136
32.60000,-3137
32.60833,-3137
32.61667,-3138
32.62500,-3138
32.63333,-3138
32.64167,-3139
32.65000,-3139
32.65833,-3139
32.66667,-3139
32.67500,-3139
32.68333,-3140
32.69167,-3140
32.70000,-3140
32.70833,-3141
32.71667,-3141
32.72500,-3140
32.73333,-3141
32.74167,-3141
32.75000,-3141
32.75833,-3141
32.76667,-3141
32.77500,-3142
32.78333,-3142
32.79167,-3143
32.80000,-3143
32.80833,-3144
32.81667,-3144
32.82500,-3144
32.83333,-3144
32.84167,-3145
32.85000,-3145
32.85833,-3146
32.86667,-3146
32.87500,-3147
32.88333,-3147
32.89167,-3146
32.90000,-3147
32.90833,-3147
32.91667,-3148
32.92500,-3148
32.93333,-3149
32.94167,-3149
32.95000,-3150
32.95833,-3150
32.96667,-3151
32.97500,-3151
32.98333,-3151
32.99167,-3151
33.00000,-3151
33.00833,-3151
33.01667,-3151
33.02500,-3151
33.03333,-3152
33.04167,-3152
33.05000,-3153
33.05833,-3154
33.06667,-3154
33.07500,-3155
33.08333,-3155
33.09167,-3155
33.10000,-3156
33.10833,-3156
33.11667,-3156
33.12500,-3157
33.13333,-3157
33.14167,-3157
33.15000,-3157
33.15833,-3158
33.16667,-3158
33.17500,-3159
33.18333,-3159
33.19167,-3160
33.20000,-3160
33.20833,-3160
33.21667,-3160
33.22500,-3160
33.23333,-3160
33.24167,-3161
33.25000,-3161
33.25833,-3162
33.26667,-3163
33.27500,-3163
33.28333,-3164
33.29167,-3165
33.30000,-3165
33.30833,-3165
33.31667,-3165
33.32500,-3165
33.33333,-3166
33.34167,-3166
33.35000,-3167
33.35833,-3167
33.36667,-3168
33.37500,-3168
33.38333,-3168
33.39167,-3168
33.40000,-3169
33.40833,-3169
33.41667,-3169
33.42500,-3170
33.43333,-3170
33.44167,-3170
33.45000,-3171
33.45833,-3171
33.46667,-3171
33.47500,-3171
33.48333,-3171
33.49167,-3172
33.50000,-3172
33.50833,-3173
33.51667,-3174
33.52500,-3174
33.53333,-3174
33.54167,-3175
33.55000,-3175
33.55833,-3176
33.56667,-3176
33.57500,-3177
33.58333,-3177
33.59167,-3178
33.60000,-3178
33.60833,-3178
33.61667,-3178
33.62500,-3178
33.63333,-3179
33.64167,-3179
33.65000,-3180
33.65833,-3180
33.66667,-3181
33.67500,-3181
33.68333,-3182
33.69167,-3182
33.70000,-3183
33.70833,-3183
33.71667,-3183
33.72500,-3184
33.73333,-3184
33.74167,-3185
33.75000,-3185
33.75833,-3186
33.76667,-3187
33.77500,-3187
33.78333,-3188
33.79167,-3188
33.80000,-3189
33.80833,-3189
33.81667,-3189
33.82500,-3189
33.83333,-3189
33.84167,-3189
33.85000,-3189
33.85833,-3190
33.86667,-3190
33.87500,-3191
33.88333,-3191
33.89167,-3192
33.90000,-3192
33.90833,-3193
33.91667,-3194
33.92500,-3194
33.93333,-3195
33.94167,-3195
33.95000,-3195
33.95833,-3196
33.96667,-3197
33.97500,-3197
33.98333,-3197
33.99167,-3198
34.00000,-3198
34.00833,-3198
34.01667,-3199
34.02500,-3199
34.03333,-3199
34.04167,-3200
34.05000,-3201
34.05833,-3201
34.06667,-3201
34.07500,-3202
34.08333,-3203
34.09167,-3204
34.10000,-3204
34.10833,-3205
34.11667,-3205
34.12500,-3206
34.13333,-3206
34.14167,-3206
34.15000,-3207
34.15833,-3207
34.16667,-3207
34.17500,-3208
34.18333,-3209
34.19167,-3209
34.20000,-3210
34.20833,-3210
34.21667,-3211
34.22500,-3211
34.23333,-3212
34.24167,-3212
34.25000,-3213
34.25833,-3213
34.26667,-3214
34.27500,-3214
34.28333,-3215
34.29167,-3215
34.30000,-3215
34.30833,-3216
34.31667,-3216
34.32500,-3217
34.33333,-3217
34.34167,-3218
34.35000,-3219
34.35833,-3219
34.36667,-3220
34.37500,-3221
34.38333,-3221
34.39167,-3221
34.40000,-3222
34.40833,-3223
34.41667,-3224
34.42500,-3224
34.43333,-3225
34.44167,-3225
34.45000,-3226
34.45833,-3227
34.46667,-3227
34.47500,-3228
34.48333,-3228
34.49167,-3229
34.50000,-3229
34.50833,-3230
34.51667,-3230
34.52500,-3231
34.53333,-3231
34.54167,-3231
34.55000,-3231
34.55833,-3232
34.56667,-3232
34.57500,-3233
34.58333,-3234
34.59167,-3234
34.60000,-3235
34.60833,-3236
34.61667,-3237
34.62500,-3237
34.63333,-3238
34.64167,-3238
34.65000,-3239
34.65833,-3239
34.66667,-3239
34.67500,-3239
34.68333,-3240
34.69167,-3240
34.70000,-3241
34.70833,-3241
34.71667,-3242
34.72500,-3243
34.73333,-3243
34.74167,-3244
34.75000,-3244
34.75833,-3245
34.76667,-3246
34.77500,-3246
34.78333,-3247
34.79167,-3247
34.80000,-3248
34.80833,-3248
34.81667,-3249
34.82500,-3249
34.83333,-3250
34.84167,-3251
34.85000,-3252
34.85833,-3253
34.86667,-3253
34.87500,-3254
34.88333,-3254
34.89167,-3255
34.90000,-3255
34.90833,-3256
34.91667,-3256
34.92500,-3257
34.93333,-3258
34.94167,-3258
34.95000,-3259
34.95833,-3259
34.96667,-3260
34.97500,-3261
34.98333,-3262
34.99167,-3262
35.00000,-3263
35.00833,-3264
35.01667,-3265
35.02500,-3265
35.03333,-3266
35.04167,-3267
35.05000,-3267
35.05833,-3268
35.06667,-3269
35.07500,-3269
35.08333,-3270
35.09167,-3271
35.10000,-3272
35.10833,-3272
35.11667,-3273
35.12500,-3274
35.13333,-3275
35.14167,-3275
35.15000,-3276
35.15833,-3276
35.16667,-3277
35.17500,-3278
35.18333,-3279
35.19167,-3280
35.20000,-3280
35.20833,-3281
35.21667,-3281
35.22500,-3282
35.23333,-3283
35.24167,-3284
35.25000,-3284
35.25833,-3285
35.26667,-3285
35.27500,-3286
35.28333,-3287
35.29167,-3288
35.30000,-3288
35.30833,-3289
35.31667,-3290
35.32500,-3290
35.33333,-3291
35.34167,-3291
35.35000,-3292
35.35833,-3293
35.36667,-3293
35.37500,-3294
35.38333,-3294
35.39167,-3295
35.40000,-3296
35.40833,-3296
35.41667,-3297
35.42500,-3298
35.43333,-3299
35.44167,-3300
35.45000,-3301
35.45833,-3301
35.46667,-3302
35.47500,-3303
35.48333,-3303
35.49167,-3304
35.50000,-3305
35.50833,-3306
35.51667,-3307
35.52500,-3308
35.53333,-3309
35.54167,-3310
35.55000,-3310
35.55833,-3311
35.56667,-3311
35.57500,-3312
35.58333,-3312
35.59167,-3313
35.60000,-3313
35.60833,-3314
35.61667,-3315
35.62500,-3315
35.63333,-3316
35.64167,-3317
35.65000,-3318
35.65833,-3318
35.66667,-3319
35.67500,-3320
35.68333,-3320
35.69167,-3321
35.70000,-3322
35.70833,-3322
35.71667,-3322
35.72500,-3323
35.73333,-3324
35.74167,-3324
35.75000,-3325
35.75833,-3326
35.76667,-3327
35.77500,-3328
35.78333,-3328
35.79167,-3329
35.80000,-3330
35.80833,-3330
35.81667,-3331
35.82500,-3331
35.83333,-3332
35.84167,-3332
35.85000,-3333
35.85833,-3334
35.86667,-3335
35.87500,-3336
35.88333,-3336
35.89167,-3337
35.90000,-3337
35.90833,-3338
35.91667,-3339
35.92500,-3339
35.93333,-3340
35.94167,-3341
35.95000,-3342
35.95833,-3343
35.96667,-3343
35.97500,-3344
35.98333,-3345
35.99167,-3345
36.00000,-3346
36.00833,-3347
36.01667,-3347
36.02500,-3348
36.03333,-3349
36.04167,-3350
36.05000,-3350
36.05833,-3351
36.06667,-3351
36.07500,-3351
36.08333,-3352
36.09167,-3352
36.10000,-3353
36.10833,-3354
36.11667,-3355
36.12500,-3356
36.13333,-3356
36.14167,-3357
36.15000,-3358
36.15833,-3359
36.16667,-3359
36.17500,-3360
36.18333,-3361
36.19167,-3361
36.20000,-3361
36.20833,-3362
36.21667,-3363
36.22500,-3364
36.23333,-3365
36.24167,-3366
36.25000,-3366
36.25833,-3367
36.26667,-3367
36.27500,-3368
36.28333,-3369
36.29167,-3369
36.30000,-3370
36.30833,-3371
36.31667,-3371
36.32500,-3372
36.33333,-3373
36.34167,-3373
36.35000,-3374
36.35833,-3375
36.36667,-3376
36.37500,-3377
36.38333,-3378
36.39167,-3378
36.40000,-3379
36.40833,-3380
36.41667,-3380
36.42500,-3381
36.43333,-3381
36.44167,-3382
36.45000,-3382
36.45833,-3383
36.46667,-3384
36.47500,-3384
36.48333,-3385
36.49167,-3385
36.50000,-3386
36.50833,-3387
36.51667,-3387
36.52500,-3387
36.53333,-3388
36.54167,-3389
36.55000,-3389
36.55833,-3390
36.56667,-3390
36.57500,-3391
36.58333,-3391
36.59167,-3391
36.60000,-3391
36.60833,-3392
36.61667,-3392
36.62500,-3393
36.63333,-3393
36.64167,-3394
36.65000,-3395
36.65833,-3395
36.66667,-3396
36.67500,-3396
36.68333,-3397
36.69167,-3397
36.70000,-3398
36.70833,-3398
36.71667,-3398
36.72500,-3399
36.73333,-3399
36.74167,-3400
36.75000,-3400
36.75833,-3401
36.76667,-3401
36.77500,-3401
36.78333,-3401
36.79167,-3401
36.80000,-3402
36.80833,-3402
36.81667,-3402
36.82500,-3402
36.83333,-3403
36.84167,-3403
36.85000,-3403
36.85833,-3403
36.86667,-3403
36.87500,-3403
36.88333,-3403
36.89167,-3403
36.90000,-3403
36.90833,-3404
36.91667,-3404
36.92500,-3404
36.93333,-3404
36.94167,-3404
36.95000,-3404
36.95833,-3404
36.96667,-3404
36.97500,-3405
36.98333,-3405
36.99167,-3405
37.00000,-3405
37.00833,-3405
37.01667,-3406
37.02500,-3406
37.03333,-3406
37.04167,-3406
37.05000,-3405
37.05833,-3405
37.06667,-3405
37.07500,-3405
37.08333,-3406
37.09167,-3406
37.10000,-3407
37.10833,-3407
37.11667,-3407
37.12500,-3407
37.13333,-3407
37.14167,-3407
37.15000,-3408
37.15833,-3408
37.16667,-3409
37.17500,-3409
37.18333,-3410
37.19167,-3410
37.20000,-3410
37.20833,-3410
37.21667,-3411
37.22500,-3411
37.23333,-3412
37.24167,-3412
37.25000,-3413
37.25833,-3414
37.26667,-3414
37.27500,-3415
37.28333,-3416
37.29167,-3416
37.30000,-3417
37.30833,-3418
37.31667,-3418
37.32500,-3419
37.33333,-3420
37.34167,-3420
37.35000,-3421
37.35833,-3422
37.36667,-3423
37.37500,-3424
37.38333,-3425
37.39167,-3426
37.40000,-3427
37.40833,-3428
37.41667,-3429
37.42500,-3430
37.43333,-3431
37.44167,-3432
37.45000,-3433
37.45833,-3435
37.46667,-3436
37.47500,-3437
37.48333,-3439
37.49167,-3440
37.50000,-3442
37.50833,-3443
37.51667,-3444
37.52500,-3446
37.53333,-3447
37.54167,-3448
37.55000,-3450
37.55833,-3451
37.56667,-3452
37.57500,-3454
37.58333,-3455
37.59167,-3456
37.60000,-3457
37.60833,-3459
37.61667,-3460
37.62500,-3461
37.63333,-3462
37.64167,-3464
37.65000,-3465
37.65833,-3467
37.66667,-3468
37.67500,-3470
37.68333,-3471
37.69167,-3473
37.70000,-3474
37.70833,-3476
37.71667,-3477
37.72500,-3479
37.73333,-3480
37.74167,-3482
37.75000,-3483
37.75833,-3484
37.76667,-3485
37.77500,-3487
37.78333,-3488
37.79167,-3489
37.80000,-3491
37.80833,-3492
37.81667,-3494
37.82500,-3495
37.83333,-3497
37.84167,-3498
37.85000,-3499
37.85833,-3501
37.86667,-3502
37.87500,-3503
37.88333,-3504
37.89167,-3505
37.90000,-3507
37.90833,-3508
37.91667,-3509
37.92500,-3510
37.93333,-3511
37.94167,-3512
37.95000,-3514
37.95833,-3515
37.96667,-3516
37.97500,-3517
37.98333,-3517
37.99167,-3518
38.00000,-3520
38.00833,-3521
38.01667,-3522
38.02500,-3523
38.03333,-3524
38.04167,-3525
38.05000,-3526
38.05833,-3527
38.06667,-3528
38.07500,-3529
38.08333,-3530
38.09167,-3531
38.10000,-3532
38.10833,-3533
38.11667,-3534
38.12500,-3534
38.13333,-3535
38.14167,-3536
38.15000,-3537
38.15833,-3538
38.16667,-3539
38.17500,-3540
38.18333,-3541
38.19167,-3542
38.20000,-3542
38.20833,-3543
38.21667,-3544
38.22500,-3545
38.23333,-3546
38.24167,-3546
38.25000,-3547
38.25833,-3548
38.26667,-3549
38.27500,-3551
38.28333,-3551
38.29167,-3552
38.30000,-3553
38.30833,-3553
38.31667,-3554
38.32500,-3555
38.33333,-3556
38.34167,-3557
38.35000,-3557
38.35833,-3558
38.36667,-3559
38.37500,-3560
38.38333,-3561
38.39167,-3562
38.40000,-3562
38.40833,-3563
38.41667,-3564
38.42500,-3565
38.43333,-3566
38.44167,-3567
38.45000,-3567
38.45833,-3568
38.46667,-3569
38.47500,-3569
38.48333,-3570
38.49167,-3570
38.50000,-3571
38.50833,-3572
38.51667,-3573
38.52500,-3574
38.53333,-3576
38.54167,-3577
38.55000,-3577
38.55833,-3578
38.56667,-3579
38.57500,-3579
38.58333,-3580
38.59167,-3580
38.60000,-3581
38.60833,-3582
38.61667,-3583
38.62500,-3583
38.63333,-3584
38.64167,-3585
38.65000,-3585
38.65833,-3586
38.66667,-3587
38.67500,-3589
38.68333,-3590
38.69167,-3591
38.70000,-3591
38.70833,-3592
38.71667,-3592
38.72500,-3593
38.73333,-3593
38.74167,-3594
38.75000,-3594
38.75833,-3595
38.76667,-3596
38.77500,-3597
38.78333,-3598
38.79167,-3598
38.80000,-3599
38.80833,-3600
38.81667,-3601
38.82500,-3601
38.83333,-3602
38.84167,-3603
38.85000,-3604
38.85833,-3604
38.86667,-3605
38.87500,-3605
38.88333,-3606
38.89167,-3607
38.90000,-3608
38.90833,-3609
38.91667,-3609
38.92500,-3610
38.93333,-3611
38.94167,-3611
38.95000,-3613
38.95833,-3613
38.96667,-3614
38.97500,-3615
38.98333,-3616
38.99167,-3616
39.00000,-3617
39.00833,-3617
39.01667,-3618
39.02500,-3618
39.03333,-3619
39.04167,-3620
39.05000,-3620
39.05833,-3621
39.06667,-3622
39.07500,-3623
39.08333,-3624
39.09167,-3625
39.10000,-3626
39.10833,-3627
39.11667,-3627
39.12500,-3628
39.13333,-3629
39.14167,-3630
39.15000,-3630
39.15833,-3631
39.16667,-3632
39.17500,-3633
39.18333,-3633
39.19167,-3634
39.20000,-3635
39.20833,-3636
39.21667,-3636
39.22500,-3637
39.23333,-3638
39.24167,-3638
39.25000,-3639
39.25833,-3640
39.26667,-3641
39.27500,-3642
39.28333,-3643
39.29167,-3643
39.30000,-3644
39.30833,-3645
39.31667,-3646
39.32500,-3646
39.33333,-3647
39.34167,-3648
39.35000,-3649
39.35833,-3649
39.36667,-3650
39.37500,-3651
39.38333,-3652
39.39167,-3652
39.40000,-3653
39.40833,-3654
39.41667,-3655
39.42500,-3655
39.43333,-3656
39.44167,-3657
39.45000,-3657
39.45833,-3658
39.46667,-3658
39.47500,-3659
39.48333,-3659
39.49167,-3660
39.50000,-3661
39.50833,-3662
39.51667,-3663
39.52500,-3664
39.53333,-3664
39.54167,-3665
39.55000,-3666
39.55833,-3667
39.56667,-3667
39.57500,-3668
39.58333,-3669
39.59167,-3669
39.60000,-3670
39.60833,-3671
39.61667,-3672
39.62500,-3672
39.63333,-3673
39.64167,-3673
39.65000,-3674
39.65833,-3675
39.66667,-3676
39.67500,-3677
39.68333,-3677
39.69167,-3678
39.70000,-3679
39.70833,-3680
39.71667,-3681
39.72500,-3682
39.73333,-3683
39.74167,-3684
39.75000,-3684
39.75833,-3685
39.76667,-3686
39.77500,-3687
39.78333,-3688
39.79167,-3688
39.80000,-3689
39.80833,-3689
39.81667,-3690
39.82500,-3691
39.83333,-3691
39.84167,-3692
39.85000,-3693
39.85833,-3693
39.86667,-3694
39.87500,-3695
39.88333,-3696
39.89167,-3696
39.90000,-3697
39.90833,-3698
39.91667,-3699
39.92500,-3700
39.93333,-3701
39.94167,-3702
39.95000,-3703
39.95833,-3703
39.96667,-3704
39.97500,-3705
39.98333,-3705
39.99167,-3706
40.00000,-3707
40.00833,-3707
40.01667,-3708
40.02500,-3709
40.03333,-3710
40.04167,-3710
40.05000,-3711
40.05833,-3712
40.06667,-3712
40.07500,-3713
40.08333,-3714
40.09167,-3715
40.10000,-3715
40.10833,-3716
40.11667,-3717
40.12500,-3718
40.13333,-3719
40.14167,-3719
40.15000,-3720
40.15833,-3720
40.16667,-3721
40.17500,-3722
40.18333,-3723
40.19167,-3724
40.20000,-3725
40.20833,-3726
40.21667,-3726
40.22500,-3727
40.23333,-3728
40.24167,-3729
40.25000,-3730
40.25833,-3730
40.26667,-3731
40.27500,-3732
40.28333,-3733
40.29167,-3734
40.30000,-3734
40.30833,-3735
40.31667,-3736
40.32500,-3736
40.33333,-3737
40.34167,-3738
40.35000,-3738
40.35833,-3739
40.36667,-3740
40.37500,-3740
40.38333,-3741
40.39167,-3742
40.40000,-3742
40.40833,-3743
40.41667,-3744
40.42500,-3745
40.43333,-3746
40.44167,-3746
40.45000,-3747
40.45833,-3748
40.46667,-3749
40.47500,-3750
40.48333,-3751
40.49167,-3751
40.50000,-3752
40.50833,-3752
40.51667,-3753
40.52500,-3754
40.53333,-3754
40.54167,-3755
40.55000,-3755
40.55833,-3756
40.56667,-3757
40.57500,-3758
40.58333,-3759
40.59167,-3760
40.60000,-3761
40.60833,-3762
40.61667,-3763
40.62500,-3763
40.63333,-3763
40.64167,-3764
40.65000,-3765
40.65833,-3765
40.66667,-3766
40.67500,-3767
40.68333,-3767
40.69167,-3768
40.70000,-3769
40.70833,-3770
40.71667,-3771
40.72500,-3772
40.73333,-3774
40.74167,-3775
40.75000,-3775
40.75833,-3776
40.76667,-3777
40.77500,-3778
40.78333,-3779
40.79167,-3780
40.80000,-3781
40.80833,-3781
40.81667,-3782
40.82500,-3782
40.83333,-3783
40.84167,-3784
40.85000,-3785
40.85833,-3785
40.86667,-3786
40.87500,-3786
40.88333,-3787
40.89167,-3788
40.90000,-3789
40.90833,-3790
40.91667,-3790
40.92500,-3791
40.93333,-3792
40.94167,-3792
40.95000,-3793
40.95833,-3794
40.96667,-3795
40.97500,-3796
40.98333,-3796
40.99167,-3797
41.00000,-3797
41.00833,-3798
41.01667,-3799
41.02500,-3800
41.03333,-3800
41.04167,-3801
41.05000,-3802
41.05833,-3802
41.06667,-3803
41.07500,-3804
41.08333,-3804
41.09167,-3805
41.10000,-3806
41.10833,-3807
41.11667,-3808
41.12500,-3809
41.13333,-3809
41.14167,-3810
41.15000,-3810
41.15833,-3811
41.16667,-3812
41.17500,-3813
41.18333,-3814
41.19167,-3815
41.20000,-3815
41.20833,-3816
41.21667,-3817
41.22500,-3818
41.23333,-3818
41.24167,-3819
41.25000,-3819
41.25833,-3820
41.26667,-3821
41.27500,-3822
41.28333,-3822
41.29167,-3823
41.30000,-3825
41.30833,-3826
41.31667,-3826
41.32500,-3827
41.33333,-3828
41.34167,-3829
41.35000,-3830
41.35833,-3830
41.36667,-3831
41.37500,-3831
41.38333,-3831
41.39167,-3832
41.40000,-3833
41.40833,-3834
41.41667,-3835
41.42500,-3836
41.43333,-3837
41.44167,-3838
41.45000,-3839
41.45833,-3839
41.46667,-3840
41.47500,-3841
41.48333,-3841
41.49167,-3842
41.50000,-3842
41.50833,-3843
41.51667,-3843
41.52500,-3844
41.53333,-3845
41.54167,-3845
41.55000,-3846
41.55833,-3846
41.56667,-3847
41.57500,-3848
41.58333,-3849
41.59167,-3850
41.60000,-3850
41.60833,-3851
41.61667,-3852
41.62500,-3852
41.63333,-3853
41.64167,-3854
41.65000,-3854
41.65833,-3855
41.66667,-3856
41.67500,-3857
41.68333,-3858
41.69167,-3859
41.70000,-3860
41.70833,-3861
41.71667,-3861
41.72500,-3862
41.73333,-3863
41.74167,-3863
41.75000,-3864
41.75833,-3865
41.76667,-3866
41.77500,-3867
41.78333,-3867
41.79167,-3867
41.80000,-3868
41.80833,-3868
41.81667,-3869
41.82500,-3871
41.83333,-3872
41.84167,-3873
41.85000,-3873
41.85833,-3874
41.86667,-3875
41.87500,-3875
41.88333,-3876
41.89167,-3876
41.90000,-3877
41.90833,-3878
41.91667,-3879
41.92500,-3879
41.93333,-3880
41.94167,-3881
41.95000,-3881
41.95833,-3882
41.96667,-3882
41.97500,-3883
41.98333,-3884
41.99167,-3885
42.00000,-3886
42.00833,-3887
42.01667,-3887
42.02500,-3888
42.03333,-3889
42.04167,-3889
42.05000,-3890
42.05833,-3891
42.06667,-3892
42.07500,-3893
42.08333,-3894
42.09167,-3895
42.10000,-3895
42.10833,-3896
42.11667,-3897
42.12500,-3898
42.13333,-3898
42.14167,-3899
42.15000,-3900
42.15833,-3900
42.16667,-3901
42.17500,-3901
42.18333,-3902
42.19167,-3904
42.20000,-3905
42.20833,-3905
42.21667,-3906
42.22500,-3906
42.23333,-3907
42.24167,-3907
42.25000,-3908
42.25833,-3909
42.26667,-3910
42.27500,-3911
42.28333,-3911
42.29167,-3912
42.30000,-3913
42.30833,-3913
42.31667,-3914
42.32500,-3915
42.33333,-3915
42.34167,-3916
42.35000,-3917
42.35833,-3917
42.36667,-3918
42.37500,-3919
42.38333,-3920
42.39167,-3921
42.40000,-3922
42.40833,-3922
42.41667,-3923
42.42500,-3923
42.43333,-3924
42.44167,-3924
42.45000,-3925
42.45833,-3926
42.46667,-3927
42.47500,-3927
42.48333,-3928
42.49167,-3929
42.50000,-3930
42.50833,-3930
42.51667,-3931
42.52500,-3932
42.53333,-3933
42.54167,-3934
42.55000,-3935
42.55833,-3935
42.56667,-3936
42.57500,-3937
42.58333,-3938
42.59167,-3939
42.60000,-3940
42.60833,-3940
42.61667,-3940
42.62500,-3941
42.63333,-3941
42.64167,-3942
42.65000,-3943
42.65833,-3944
42.66667,-3945
42.67500,-3945
42.68333,-3946
42.69167,-3947
42.70000,-3947
42.70833,-3948
42.71667,-3949
42.72500,-3950
42.73333,-3951
42.74167,-3952
42.75000,-3953
42.75833,-3953
42.76667,-3954
42.77500,-3955
42.78333,-3956
42.79167,-3956
42.80000,-3957
42.80833,-3958
42.81667,-3959
42.82500,-3959
42.83333,-3959
42.84167,-3960
42.85000,-3961
42.85833,-3962
42.86667,-3963
42.87500,-3964
42.88333,-3964
42.89167,-3965
42.90000,-3966
42.90833,-3967
42.91667,-3968
42.92500,-3968
42.93333,-3969
42.94167,-3970
42.95000,-3970
42.95833,-3971
42.96667,-3972
42.97500,-3973
42.98333,-3973
42.99167,-3973
43.00000,-3974
43.00833,-3975
43.01667,-3976
43.02500,-3976
43.03333,-3977
43.04167,-3978
43.05000,-3979
43.05833,-3980
43.06667,-3981
43.07500,-3981
43.08333,-3982
43.09167,-3983
43.10000,-3983
43.10833,-3984
43.11667,-3984
43.12500,-3985
43.13333,-3986
43.14167,-3987
43.15000,-3988
43.15833,-3988
43.16667,-3989
43.17500,-3989
43.18333,-3990
43.19167,-3990
43.20000,-3990
43.20833,-3991
43.21667,-3992
43.22500,-3993
43.23333,-3993
43.24167,-3994
43.25000,-3995
43.25833,-3996
43.26667,-3997
43.27500,-3998
43.28333,-3998
43.29167,-3999
43.30000,-4000
43.30833,-4000
43.31667,-4001
43.32500,-4001
43.33333,-4002
43.34167,-4003
43.35000,-4003
43.35833,-4004
43.36667,-4005
43.37500,-4006
43.38333,-4006
43.39167,-4007
43.40000,-4008
43.40833,-4008
43.41667,-4009
43.42500,-4010
43.43333,-4010
43.44167,-4011
43.45000,-4012
43.45833,-4014
43.46667,-4015
43.47500,-4015
43.48333,-4016
43.49167,-4017
43.50000,-4018
43.50833,-4018
43.51667,-4018
43.52500,-4018
43.53333,-4019
43.54167,-4019
43.55000,-4020
43.55833,-4020
43.56667,-4021
43.57500,-4022
43.58333,-4023
43.59167,-4023
43.60000,-4024
43.60833,-4025
43.61667,-4025
43.62500,-4026
43.63333,-4027
43.64167,-4027
43.65000,-4028
43.65833,-4029
43.66667,-4029
43.67500,-4031
43.68333,-4032
43.69167,-4032
43.70000,-4033
43.70833,-4034
43.71667,-4034
43.72500,-4035
43.73333,-4035
43.74167,-4036
43.75000,-4037
43.75833,-4038
43.76667,-4039
43.77500,-4040
43.78333,-4041
43.79167,-4041
43.80000,-4042
43.80833,-4043
43.81667,-4043
43.82500,-4044
43.83333,-4045
43.84167,-4045
43.85000,-4046
43.85833,-4047
43.86667,-4047
43.87500,-4048
43.88333,-4048
43.89167,-4049
43.90000,-4050
43.90833,-4051
43.91667,-4052
43.92500,-4052
43.93333,-4053
43.94167,-4054
43.95000,-4054
43.95833,-4055
43.96667,-4056
43.97500,-4057
43.98333,-4058
43.99167,-4059
44.00000,-4059
44.00833,-4060
44.01667,-4061
44.02500,-4062
44.03333,-4063
44.04167,-4064
44.05000,-4064
44.05833,-4065
44.06667,-4066
44.07500,-4067
44.08333,-4068
44.09167,-4068
44.10000,-4069
44.10833,-4069
44.11667,-4070
44.12500,-4071
44.13333,-4072
44.14167,-4073
44.15000,-4074
44.15833,-4075
44.16667,-4076
44.17500,-4076
44.18333,-4077
44.19167,-4078
44.20000,-4079
44.20833,-4080
44.21667,-4081
44.22500,-4081
44.23333,-4082
44.24167,-4083
44.25000,-4084
44.25833,-4085
44.26667,-4085
44.27500,-4086
44.28333,-4087
44.29167,-4087
44.30000,-4088
44.30833,-4089
44.31667,-4090
44.32500,-4090
44.33333,-4091
44.34167,-4092
44.35000,-4092
44.35833,-4093
44.36667,-4094
44.37500,-4094
44.38333,-4095
44.39167,-4096
44.40000,-4096
44.40833,-4097
44.41667,-4099
44.42500,-4100
44.43333,-4101
44.44167,-4101
44.45000,-4102
44.45833,-4102
44.46667,-4103
44.47500,-4104
44.48333,-4104
44.49167,-4105
44.50000,-4106
44.50833,-4107
44.51667,-4108
44.52500,-4109
44.53333,-4110
44.54167,-4111
44.55000,-4111
44.55833,-4112
44.56667,-4113
44.57500,-4114
44.58333,-4115
44.59167,-4115
44.60000,-4116
44.60833,-4117
44.61667,-4117
44.62500,-4119
44.63333,-4119
44.64167,-4120
44.65000,-4121
44.65833,-4122
44.66667,-4122
44.67500,-4123
44.68333,-4124
44.69167,-4124
44.70000,-4125
44.70833,-4126
44.71667,-4127
44.72500,-4127
44.73333,-4128
44.74167,-4129
44.75000,-4130
44.75833,-4131
44.76667,-4132
44.77500,-4133
44.78333,-4134
44.79167,-4135
44.80000,-4136
44.80833,-4136
44.81667,-4137
44.82500,-4137
44.83333,-4138
44.84167,-4138
44.85000,-4139
44.85833,-4140
44.86667,-4141
44.87500,-4142
44.88333,-4143
44.89167,-4144
44.90000,-4145
44.90833,-4146
44.91667,-4147
44.92500,-4147
44.93333,-4147
44.94167,-4148
44.95000,-4148
44.95833,-4149
44.96667,-4150
44.97500,-4151
44.98333,-4152
44.99167,-4153
45.00000,-4154

