[Header]
Application Name,LabSolutions
Version,5.97 SP1
Data File Name,C:\Users\cremerlab\Desktop\batch_template_3182021_001_002.lcd
Output Date,3/18/2021
Output Time,12:59:17 PM

[File Information]
Type,Data File
Generated,3/18/2021 12:13:57 PM
Generated by,System Administrator
Modified,3/18/2021 12:59:17 PM
Modified by,System Administrator

[Sample Information]
Operator Name,System Administrator
Acquired,3/18/2021 12:14:16 PM
Sample Type,1:Standard
Level,1
Sample Name,2021-03-18_K2SO4
Sample ID,001
ISTD Amount1,1
ISTD Amount2,1
ISTD Amount3,1
ISTD Amount4,1
ISTD Amount5,1
ISTD Amount6,1
ISTD Amount7,1
ISTD Amount8,1
ISTD Amount9,1
ISTD Amount10,1
ISTD Amount11,1
ISTD Amount12,1
ISTD Amount13,1
ISTD Amount14,1
ISTD Amount15,1
ISTD Amount16,1
ISTD Amount17,1
ISTD Amount18,1
ISTD Amount19,1
ISTD Amount20,1
ISTD Amount21,1
ISTD Amount22,1
ISTD Amount23,1
ISTD Amount24,1
ISTD Amount25,1
ISTD Amount26,1
ISTD Amount27,1
ISTD Amount28,1
ISTD Amount29,1
ISTD Amount30,1
ISTD Amount31,1
ISTD Amount32,1
Sample Amount,1
Dilution Factor,1
Vial#,2
Injection Volume,20

[Original Files]
Data File,C:\Users\cremerlab\Desktop\batch_template_3182021_001_002.lcd
Method File,C:\LabSolutions\Data\Project1\organicacidsetc2.lcm
Batch File,C:\Users\cremerlab\Desktop\batch_template.lcb
Report Format File,c:\LabSolutions\System\DEFAULT.lsr

[File Description]


[Configuration]
Instrument Name,HPLC-PC-Instrument1
Instrument #,1
Line #,1
# of Detectors,2
Detector ID,Detector A,Detector B
Detector Name,Detector A,Detector B
# of Channels,1,1

[LC Chromatogram(Detector B-Ch1)]
Interval(msec),500
# of Points,5401
Start Time(min),0.000
End Time(min),45.000
Intensity Units,mV
Intensity Multiplier,0.001
R.Time (min),Intensity
0.00000,4
0.00833,4
0.01667,1
0.02500,3
0.03333,5
0.04167,4
0.05000,3
0.05833,1
0.06667,-0
0.07500,-1
0.08333,-0
0.09167,0
0.10000,1
0.10833,2
0.11667,4
0.12500,5
0.13333,7
0.14167,8
0.15000,9
0.15833,9
0.16667,10
0.17500,10
0.18333,10
0.19167,11
0.20000,11
0.20833,11
0.21667,11
0.22500,12
0.23333,13
0.24167,14
0.25000,15
0.25833,16
0.26667,17
0.27500,17
0.28333,17
0.29167,17
0.30000,17
0.30833,17
0.31667,17
0.32500,17
0.33333,17
0.34167,17
0.35000,18
0.35833,18
0.36667,19
0.37500,19
0.38333,19
0.39167,20
0.40000,20
0.40833,20
0.41667,21
0.42500,21
0.43333,22
0.44167,22
0.45000,23
0.45833,23
0.46667,24
0.47500,24
0.48333,25
0.49167,25
0.50000,25
0.50833,26
0.51667,26
0.52500,26
0.53333,27
0.54167,28
0.55000,30
0.55833,31
0.56667,34
0.57500,36
0.58333,38
0.59167,40
0.60000,42
0.60833,43
0.61667,43
0.62500,43
0.63333,42
0.64167,40
0.65000,38
0.65833,36
0.66667,33
0.67500,31
0.68333,28
0.69167,26
0.70000,24
0.70833,22
0.71667,21
0.72500,20
0.73333,20
0.74167,20
0.75000,20
0.75833,20
0.76667,21
0.77500,22
0.78333,24
0.79167,25
0.80000,26
0.80833,28
0.81667,29
0.82500,30
0.83333,32
0.84167,33
0.85000,35
0.85833,36
0.86667,37
0.87500,39
0.88333,40
0.89167,41
0.90000,42
0.90833,43
0.91667,43
0.92500,44
0.93333,45
0.94167,46
0.95000,47
0.95833,48
0.96667,49
0.97500,49
0.98333,50
0.99167,50
1.00000,51
1.00833,51
1.01667,52
1.02500,53
1.03333,54
1.04167,54
1.05000,54
1.05833,54
1.06667,55
1.07500,56
1.08333,57
1.09167,57
1.10000,58
1.10833,58
1.11667,58
1.12500,58
1.13333,59
1.14167,59
1.15000,59
1.15833,59
1.16667,60
1.17500,60
1.18333,61
1.19167,61
1.20000,62
1.20833,62
1.21667,62
1.22500,63
1.23333,63
1.24167,63
1.25000,64
1.25833,65
1.26667,66
1.27500,67
1.28333,67
1.29167,67
1.30000,68
1.30833,68
1.31667,69
1.32500,69
1.33333,69
1.34167,69
1.35000,70
1.35833,70
1.36667,71
1.37500,72
1.38333,72
1.39167,72
1.40000,72
1.40833,73
1.41667,73
1.42500,73
1.43333,74
1.44167,74
1.45000,75
1.45833,75
1.46667,75
1.47500,76
1.48333,76
1.49167,77
1.50000,77
1.50833,78
1.51667,78
1.52500,79
1.53333,79
1.54167,80
1.55000,80
1.55833,81
1.56667,81
1.57500,82
1.58333,82
1.59167,83
1.60000,83
1.60833,84
1.61667,84
1.62500,85
1.63333,85
1.64167,86
1.65000,86
1.65833,87
1.66667,87
1.67500,88
1.68333,88
1.69167,88
1.70000,88
1.70833,89
1.71667,89
1.72500,90
1.73333,90
1.74167,90
1.75000,90
1.75833,91
1.76667,91
1.77500,92
1.78333,93
1.79167,93
1.80000,93
1.80833,93
1.81667,94
1.82500,94
1.83333,94
1.84167,95
1.85000,95
1.85833,96
1.86667,96
1.87500,96
1.88333,97
1.89167,97
1.90000,97
1.90833,98
1.91667,99
1.92500,99
1.93333,100
1.94167,100
1.95000,101
1.95833,101
1.96667,101
1.97500,102
1.98333,102
1.99167,103
2.00000,103
2.00833,103
2.01667,104
2.02500,104
2.03333,104
2.04167,105
2.05000,106
2.05833,106
2.06667,106
2.07500,106
2.08333,106
2.09167,107
2.10000,107
2.10833,107
2.11667,108
2.12500,108
2.13333,108
2.14167,109
2.15000,110
2.15833,110
2.16667,111
2.17500,111
2.18333,111
2.19167,112
2.20000,112
2.20833,113
2.21667,113
2.22500,113
2.23333,113
2.24167,114
2.25000,114
2.25833,115
2.26667,116
2.27500,116
2.28333,117
2.29167,118
2.30000,118
2.30833,118
2.31667,118
2.32500,119
2.33333,119
2.34167,120
2.35000,120
2.35833,120
2.36667,120
2.37500,121
2.38333,121
2.39167,121
2.40000,122
2.40833,123
2.41667,123
2.42500,124
2.43333,124
2.44167,125
2.45000,125
2.45833,126
2.46667,126
2.47500,127
2.48333,127
2.49167,127
2.50000,128
2.50833,128
2.51667,128
2.52500,129
2.53333,130
2.54167,130
2.55000,131
2.55833,131
2.56667,131
2.57500,131
2.58333,132
2.59167,132
2.60000,133
2.60833,133
2.61667,134
2.62500,134
2.63333,135
2.64167,135
2.65000,136
2.65833,136
2.66667,137
2.67500,137
2.68333,138
2.69167,138
2.70000,139
2.70833,139
2.71667,140
2.72500,140
2.73333,140
2.74167,141
2.75000,142
2.75833,142
2.76667,142
2.77500,143
2.78333,143
2.79167,143
2.80000,143
2.80833,144
2.81667,144
2.82500,145
2.83333,145
2.84167,145
2.85000,145
2.85833,146
2.86667,146
2.87500,147
2.88333,147
2.89167,148
2.90000,149
2.90833,149
2.91667,149
2.92500,150
2.93333,150
2.94167,151
2.95000,151
2.95833,151
2.96667,152
2.97500,153
2.98333,153
2.99167,154
3.00000,154
3.00833,154
3.01667,154
3.02500,155
3.03333,155
3.04167,156
3.05000,156
3.05833,156
3.06667,156
3.07500,157
3.08333,157
3.09167,157
3.10000,158
3.10833,158
3.11667,159
3.12500,160
3.13333,160
3.14167,161
3.15000,161
3.15833,161
3.16667,162
3.17500,162
3.18333,163
3.19167,163
3.20000,163
3.20833,164
3.21667,164
3.22500,164
3.23333,165
3.24167,166
3.25000,166
3.25833,167
3.26667,168
3.27500,168
3.28333,169
3.29167,169
3.30000,169
3.30833,169
3.31667,170
3.32500,170
3.33333,171
3.34167,172
3.35000,172
3.35833,173
3.36667,173
3.37500,173
3.38333,173
3.39167,173
3.40000,174
3.40833,174
3.41667,175
3.42500,175
3.43333,176
3.44167,176
3.45000,177
3.45833,177
3.46667,178
3.47500,178
3.48333,179
3.49167,179
3.50000,179
3.50833,180
3.51667,179
3.52500,180
3.53333,180
3.54167,181
3.55000,181
3.55833,181
3.56667,182
3.57500,182
3.58333,183
3.59167,183
3.60000,184
3.60833,184
3.61667,185
3.62500,185
3.63333,186
3.64167,186
3.65000,187
3.65833,187
3.66667,188
3.67500,188
3.68333,189
3.69167,189
3.70000,190
3.70833,190
3.71667,190
3.72500,191
3.73333,191
3.74167,192
3.75000,192
3.75833,192
3.76667,192
3.77500,192
3.78333,193
3.79167,193
3.80000,194
3.80833,194
3.81667,195
3.82500,196
3.83333,196
3.84167,197
3.85000,197
3.85833,197
3.86667,197
3.87500,198
3.88333,198
3.89167,199
3.90000,199
3.90833,200
3.91667,200
3.92500,201
3.93333,201
3.94167,201
3.95000,202
3.95833,202
3.96667,202
3.97500,203
3.98333,203
3.99167,204
4.00000,204
4.00833,205
4.01667,205
4.02500,206
4.03333,206
4.04167,207
4.05000,207
4.05833,207
4.06667,208
4.07500,209
4.08333,209
4.09167,210
4.10000,211
4.10833,211
4.11667,212
4.12500,212
4.13333,212
4.14167,212
4.15000,212
4.15833,213
4.16667,213
4.17500,214
4.18333,214
4.19167,215
4.20000,215
4.20833,216
4.21667,216
4.22500,216
4.23333,216
4.24167,217
4.25000,217
4.25833,217
4.26667,218
4.27500,218
4.28333,219
4.29167,220
4.30000,221
4.30833,221
4.31667,221
4.32500,222
4.33333,222
4.34167,223
4.35000,223
4.35833,223
4.36667,224
4.37500,224
4.38333,225
4.39167,225
4.40000,226
4.40833,226
4.41667,227
4.42500,227
4.43333,227
4.44167,227
4.45000,228
4.45833,228
4.46667,228
4.47500,229
4.48333,229
4.49167,230
4.50000,231
4.50833,231
4.51667,232
4.52500,232
4.53333,233
4.54167,233
4.55000,234
4.55833,234
4.56667,234
4.57500,234
4.58333,235
4.59167,235
4.60000,235
4.60833,236
4.61667,236
4.62500,237
4.63333,237
4.64167,237
4.65000,238
4.65833,238
4.66667,239
4.67500,240
4.68333,240
4.69167,241
4.70000,241
4.70833,242
4.71667,242
4.72500,243
4.73333,243
4.74167,243
4.75000,244
4.75833,244
4.76667,245
4.77500,245
4.78333,246
4.79167,246
4.80000,247
4.80833,247
4.81667,248
4.82500,248
4.83333,248
4.84167,249
4.85000,249
4.85833,250
4.86667,250
4.87500,251
4.88333,251
4.89167,252
4.90000,252
4.90833,252
4.91667,252
4.92500,253
4.93333,253
4.94167,253
4.95000,254
4.95833,255
4.96667,255
4.97500,256
4.98333,257
4.99167,257
5.00000,257
5.00833,258
5.01667,259
5.02500,259
5.03333,259
5.04167,259
5.05000,260
5.05833,260
5.06667,260
5.07500,261
5.08333,262
5.09167,262
5.10000,262
5.10833,262
5.11667,262
5.12500,263
5.13333,263
5.14167,264
5.15000,264
5.15833,264
5.16667,265
5.17500,265
5.18333,266
5.19167,267
5.20000,267
5.20833,268
5.21667,268
5.22500,269
5.23333,269
5.24167,270
5.25000,270
5.25833,271
5.26667,271
5.27500,271
5.28333,271
5.29167,272
5.30000,272
5.30833,273
5.31667,273
5.32500,273
5.33333,273
5.34167,274
5.35000,274
5.35833,275
5.36667,275
5.37500,276
5.38333,276
5.39167,277
5.40000,277
5.40833,278
5.41667,278
5.42500,278
5.43333,279
5.44167,279
5.45000,280
5.45833,280
5.46667,281
5.47500,281
5.48333,282
5.49167,283
5.50000,283
5.50833,284
5.51667,284
5.52500,284
5.53333,284
5.54167,285
5.55000,285
5.55833,285
5.56667,285
5.57500,286
5.58333,286
5.59167,286
5.60000,286
5.60833,286
5.61667,287
5.62500,288
5.63333,288
5.64167,289
5.65000,289
5.65833,290
5.66667,290
5.67500,290
5.68333,291
5.69167,291
5.70000,292
5.70833,292
5.71667,292
5.72500,293
5.73333,293
5.74167,294
5.75000,294
5.75833,294
5.76667,294
5.77500,295
5.78333,295
5.79167,296
5.80000,296
5.80833,296
5.81667,297
5.82500,298
5.83333,298
5.84167,299
5.85000,299
5.85833,300
5.86667,300
5.87500,300
5.88333,301
5.89167,301
5.90000,301
5.90833,302
5.91667,302
5.92500,303
5.93333,303
5.94167,304
5.95000,304
5.95833,304
5.96667,304
5.97500,305
5.98333,305
5.99167,306
6.00000,306
6.00833,307
6.01667,307
6.02500,307
6.03333,308
6.04167,308
6.05000,309
6.05833,310
6.06667,310
6.07500,310
6.08333,311
6.09167,312
6.10000,312
6.10833,313
6.11667,313
6.12500,314
6.13333,314
6.14167,315
6.15000,315
6.15833,315
6.16667,315
6.17500,316
6.18333,317
6.19167,317
6.20000,317
6.20833,318
6.21667,318
6.22500,318
6.23333,319
6.24167,319
6.25000,319
6.25833,320
6.26667,320
6.27500,321
6.28333,322
6.29167,323
6.30000,323
6.30833,324
6.31667,324
6.32500,324
6.33333,324
6.34167,324
6.35000,324
6.35833,325
6.36667,325
6.37500,325
6.38333,326
6.39167,326
6.40000,327
6.40833,327
6.41667,328
6.42500,328
6.43333,328
6.44167,328
6.45000,329
6.45833,329
6.46667,330
6.47500,331
6.48333,331
6.49167,332
6.50000,332
6.50833,332
6.51667,332
6.52500,333
6.53333,333
6.54167,333
6.55000,333
6.55833,334
6.56667,335
6.57500,335
6.58333,335
6.59167,336
6.60000,337
6.60833,337
6.61667,338
6.62500,338
6.63333,338
6.64167,338
6.65000,339
6.65833,340
6.66667,340
6.67500,341
6.68333,341
6.69167,341
6.70000,342
6.70833,342
6.71667,342
6.72500,342
6.73333,343
6.74167,343
6.75000,343
6.75833,343
6.76667,344
6.77500,344
6.78333,345
6.79167,345
6.80000,346
6.80833,346
6.81667,346
6.82500,347
6.83333,347
6.84167,348
6.85000,348
6.85833,349
6.86667,349
6.87500,349
6.88333,350
6.89167,351
6.90000,351
6.90833,351
6.91667,352
6.92500,352
6.93333,353
6.94167,353
6.95000,353
6.95833,354
6.96667,354
6.97500,354
6.98333,355
6.99167,355
7.00000,356
7.00833,356
7.01667,357
7.02500,357
7.03333,357
7.04167,357
7.05000,358
7.05833,358
7.06667,359
7.07500,359
7.08333,360
7.09167,361
7.10000,361
7.10833,362
7.11667,362
7.12500,362
7.13333,363
7.14167,363
7.15000,364
7.15833,364
7.16667,365
7.17500,365
7.18333,366
7.19167,366
7.20000,367
7.20833,367
7.21667,367
7.22500,368
7.23333,368
7.24167,368
7.25000,368
7.25833,369
7.26667,369
7.27500,369
7.28333,369
7.29167,369
7.30000,370
7.30833,370
7.31667,371
7.32500,371
7.33333,372
7.34167,372
7.35000,372
7.35833,373
7.36667,373
7.37500,374
7.38333,374
7.39167,375
7.40000,376
7.40833,378
7.41667,378
7.42500,379
7.43333,379
7.44167,379
7.45000,380
7.45833,380
7.46667,380
7.47500,380
7.48333,381
7.49167,381
7.50000,381
7.50833,382
7.51667,383
7.52500,383
7.53333,384
7.54167,384
7.55000,385
7.55833,385
7.56667,385
7.57500,386
7.58333,386
7.59167,387
7.60000,387
7.60833,387
7.61667,388
7.62500,388
7.63333,389
7.64167,389
7.65000,389
7.65833,389
7.66667,390
7.67500,390
7.68333,390
7.69167,391
7.70000,392
7.70833,393
7.71667,393
7.72500,394
7.73333,394
7.74167,395
7.75000,395
7.75833,395
7.76667,395
7.77500,395
7.78333,395
7.79167,396
7.80000,396
7.80833,396
7.81667,396
7.82500,397
7.83333,397
7.84167,398
7.85000,398
7.85833,398
7.86667,399
7.87500,399
7.88333,400
7.89167,401
7.90000,401
7.90833,402
7.91667,402
7.92500,403
7.93333,403
7.94167,404
7.95000,404
7.95833,405
7.96667,405
7.97500,406
7.98333,406
7.99167,406
8.00000,406
8.00833,407
8.01667,407
8.02500,408
8.03333,408
8.04167,408
8.05000,409
8.05833,410
8.06667,410
8.07500,410
8.08333,411
8.09167,411
8.10000,412
8.10833,412
8.11667,413
8.12500,413
8.13333,414
8.14167,414
8.15000,415
8.15833,415
8.16667,415
8.17500,416
8.18333,416
8.19167,417
8.20000,417
8.20833,417
8.21667,417
8.22500,417
8.23333,417
8.24167,417
8.25000,418
8.25833,419
8.26667,420
8.27500,420
8.28333,420
8.29167,421
8.30000,421
8.30833,421
8.31667,421
8.32500,422
8.33333,423
8.34167,424
8.35000,424
8.35833,425
8.36667,425
8.37500,425
8.38333,426
8.39167,426
8.40000,427
8.40833,427
8.41667,428
8.42500,428
8.43333,428
8.44167,429
8.45000,429
8.45833,429
8.46667,430
8.47500,430
8.48333,431
8.49167,431
8.50000,432
8.50833,432
8.51667,432
8.52500,432
8.53333,433
8.54167,433
8.55000,434
8.55833,434
8.56667,435
8.57500,435
8.58333,436
8.59167,436
8.60000,436
8.60833,437
8.61667,437
8.62500,438
8.63333,439
8.64167,440
8.65000,440
8.65833,441
8.66667,441
8.67500,441
8.68333,441
8.69167,441
8.70000,442
8.70833,442
8.71667,442
8.72500,443
8.73333,443
8.74167,444
8.75000,444
8.75833,445
8.76667,445
8.77500,445
8.78333,446
8.79167,446
8.80000,447
8.80833,447
8.81667,448
8.82500,448
8.83333,448
8.84167,449
8.85000,449
8.85833,450
8.86667,450
8.87500,450
8.88333,451
8.89167,451
8.90000,452
8.90833,452
8.91667,452
8.92500,453
8.93333,453
8.94167,453
8.95000,454
8.95833,454
8.96667,455
8.97500,455
8.98333,456
8.99167,456
9.00000,456
9.00833,457
9.01667,457
9.02500,458
9.03333,458
9.04167,459
9.05000,460
9.05833,460
9.06667,460
9.07500,460
9.08333,460
9.09167,461
9.10000,461
9.10833,462
9.11667,462
9.12500,463
9.13333,463
9.14167,464
9.15000,464
9.15833,465
9.16667,465
9.17500,465
9.18333,466
9.19167,466
9.20000,466
9.20833,466
9.21667,467
9.22500,467
9.23333,467
9.24167,468
9.25000,468
9.25833,468
9.26667,469
9.27500,470
9.28333,470
9.29167,470
9.30000,470
9.30833,471
9.31667,472
9.32500,472
9.33333,473
9.34167,473
9.35000,473
9.35833,474
9.36667,474
9.37500,475
9.38333,475
9.39167,475
9.40000,476
9.40833,476
9.41667,477
9.42500,477
9.43333,478
9.44167,478
9.45000,478
9.45833,479
9.46667,479
9.47500,480
9.48333,480
9.49167,481
9.50000,481
9.50833,482
9.51667,482
9.52500,483
9.53333,483
9.54167,484
9.55000,484
9.55833,485
9.56667,485
9.57500,485
9.58333,485
9.59167,485
9.60000,486
9.60833,486
9.61667,486
9.62500,487
9.63333,488
9.64167,488
9.65000,489
9.65833,489
9.66667,490
9.67500,490
9.68333,491
9.69167,491
9.70000,491
9.70833,492
9.71667,492
9.72500,492
9.73333,493
9.74167,493
9.75000,494
9.75833,494
9.76667,495
9.77500,495
9.78333,496
9.79167,496
9.80000,496
9.80833,497
9.81667,497
9.82500,497
9.83333,498
9.84167,498
9.85000,499
9.85833,499
9.86667,500
9.87500,500
9.88333,501
9.89167,501
9.90000,502
9.90833,502
9.91667,503
9.92500,503
9.93333,503
9.94167,503
9.95000,504
9.95833,504
9.96667,504
9.97500,505
9.98333,505
9.99167,505
10.00000,506
10.00833,506
10.01667,507
10.02500,507
10.03333,507
10.04167,507
10.05000,507
10.05833,507
10.06667,508
10.07500,508
10.08333,508
10.09167,509
10.10000,509
10.10833,510
10.11667,510
10.12500,510
10.13333,511
10.14167,511
10.15000,511
10.15833,511
10.16667,512
10.17500,512
10.18333,512
10.19167,512
10.20000,512
10.20833,513
10.21667,513
10.22500,514
10.23333,514
10.24167,515
10.25000,515
10.25833,516
10.26667,516
10.27500,517
10.28333,518
10.29167,518
10.30000,519
10.30833,520
10.31667,521
10.32500,522
10.33333,523
10.34167,524
10.35000,525
10.35833,527
10.36667,528
10.37500,529
10.38333,529
10.39167,530
10.40000,531
10.40833,532
10.41667,533
10.42500,534
10.43333,534
10.44167,535
10.45000,536
10.45833,536
10.46667,537
10.47500,538
10.48333,538
10.49167,538
10.50000,538
10.50833,538
10.51667,538
10.52500,538
10.53333,538
10.54167,537
10.55000,537
10.55833,537
10.56667,537
10.57500,537
10.58333,537
10.59167,536
10.60000,536
10.60833,536
10.61667,536
10.62500,535
10.63333,534
10.64167,532
10.65000,529
10.65833,525
10.66667,519
10.67500,511
10.68333,499
10.69167,484
10.70000,464
10.70833,439
10.71667,405
10.72500,364
10.73333,312
10.74167,248
10.75000,171
10.75833,81
10.76667,-25
10.77500,-147
10.78333,-287
10.79167,-444
10.80000,-618
10.80833,-809
10.81667,-1015
10.82500,-1234
10.83333,-1464
10.84167,-1702
10.85000,-1946
10.85833,-2190
10.86667,-2433
10.87500,-2669
10.88333,-2894
10.89167,-3105
10.90000,-3297
10.90833,-3468
10.91667,-3614
10.92500,-3733
10.93333,-3825
10.94167,-3886
10.95000,-3917
10.95833,-3918
10.96667,-3891
10.97500,-3835
10.98333,-3753
10.99167,-3647
11.00000,-3519
11.00833,-3372
11.01667,-3210
11.02500,-3035
11.03333,-2850
11.04167,-2658
11.05000,-2462
11.05833,-2264
11.06667,-2067
11.07500,-1873
11.08333,-1684
11.09167,-1501
11.10000,-1326
11.10833,-1159
11.11667,-1001
11.12500,-853
11.13333,-716
11.14167,-588
11.15000,-470
11.15833,-362
11.16667,-264
11.17500,-176
11.18333,-95
11.19167,-23
11.20000,42
11.20833,100
11.21667,151
11.22500,197
11.23333,237
11.24167,272
11.25000,304
11.25833,332
11.26667,356
11.27500,378
11.28333,397
11.29167,413
11.30000,428
11.30833,440
11.31667,452
11.32500,462
11.33333,470
11.34167,478
11.35000,485
11.35833,491
11.36667,497
11.37500,502
11.38333,506
11.39167,510
11.40000,514
11.40833,517
11.41667,521
11.42500,524
11.43333,527
11.44167,529
11.45000,532
11.45833,534
11.46667,536
11.47500,538
11.48333,540
11.49167,542
11.50000,544
11.50833,545
11.51667,547
11.52500,548
11.53333,549
11.54167,551
11.55000,552
11.55833,553
11.56667,555
11.57500,556
11.58333,557
11.59167,558
11.60000,559
11.60833,559
11.61667,560
11.62500,560
11.63333,561
11.64167,562
11.65000,563
11.65833,563
11.66667,564
11.67500,564
11.68333,565
11.69167,565
11.70000,566
11.70833,566
11.71667,566
11.72500,567
11.73333,567
11.74167,567
11.75000,567
11.75833,566
11.76667,566
11.77500,566
11.78333,566
11.79167,565
11.80000,565
11.80833,564
11.81667,564
11.82500,564
11.83333,564
11.84167,563
11.85000,563
11.85833,563
11.86667,563
11.87500,562
11.88333,562
11.89167,562
11.90000,562
11.90833,562
11.91667,562
11.92500,562
11.93333,561
11.94167,561
11.95000,561
11.95833,561
11.96667,561
11.97500,561
11.98333,561
11.99167,562
12.00000,562
12.00833,562
12.01667,563
12.02500,563
12.03333,563
12.04167,563
12.05000,564
12.05833,565
12.06667,566
12.07500,567
12.08333,568
12.09167,569
12.10000,570
12.10833,571
12.11667,572
12.12500,573
12.13333,574
12.14167,575
12.15000,575
12.15833,577
12.16667,578
12.17500,579
12.18333,580
12.19167,582
12.20000,583
12.20833,584
12.21667,585
12.22500,587
12.23333,588
12.24167,589
12.25000,590
12.25833,591
12.26667,593
12.27500,594
12.28333,595
12.29167,596
12.30000,597
12.30833,598
12.31667,599
12.32500,600
12.33333,601
12.34167,602
12.35000,603
12.35833,604
12.36667,605
12.37500,606
12.38333,607
12.39167,608
12.40000,609
12.40833,610
12.41667,611
12.42500,612
12.43333,613
12.44167,614
12.45000,614
12.45833,615
12.46667,616
12.47500,616
12.48333,617
12.49167,617
12.50000,618
12.50833,618
12.51667,619
12.52500,620
12.53333,620
12.54167,621
12.55000,622
12.55833,623
12.56667,623
12.57500,624
12.58333,625
12.59167,625
12.60000,626
12.60833,626
12.61667,627
12.62500,627
12.63333,628
12.64167,628
12.65000,629
12.65833,629
12.66667,630
12.67500,630
12.68333,631
12.69167,631
12.70000,632
12.70833,633
12.71667,633
12.72500,634
12.73333,635
12.74167,635
12.75000,635
12.75833,636
12.76667,636
12.77500,636
12.78333,637
12.79167,637
12.80000,638
12.80833,639
12.81667,639
12.82500,640
12.83333,640
12.84167,641
12.85000,641
12.85833,642
12.86667,642
12.87500,642
12.88333,643
12.89167,643
12.90000,644
12.90833,644
12.91667,645
12.92500,645
12.93333,645
12.94167,646
12.95000,646
12.95833,647
12.96667,647
12.97500,648
12.98333,649
12.99167,650
13.00000,651
13.00833,651
13.01667,651
13.02500,652
13.03333,652
13.04167,653
13.05000,653
13.05833,653
13.06667,653
13.07500,654
13.08333,654
13.09167,655
13.10000,656
13.10833,657
13.11667,657
13.12500,657
13.13333,657
13.14167,658
13.15000,658
13.15833,658
13.16667,658
13.17500,659
13.18333,659
13.19167,660
13.20000,661
13.20833,661
13.21667,662
13.22500,662
13.23333,663
13.24167,663
13.25000,663
13.25833,663
13.26667,664
13.27500,664
13.28333,665
13.29167,665
13.30000,665
13.30833,665
13.31667,666
13.32500,666
13.33333,667
13.34167,667
13.35000,668
13.35833,668
13.36667,669
13.37500,670
13.38333,670
13.39167,670
13.40000,670
13.40833,671
13.41667,671
13.42500,672
13.43333,673
13.44167,673
13.45000,674
13.45833,674
13.46667,674
13.47500,675
13.48333,675
13.49167,676
13.50000,676
13.50833,677
13.51667,678
13.52500,678
13.53333,678
13.54167,678
13.55000,678
13.55833,679
13.56667,680
13.57500,680
13.58333,681
13.59167,682
13.60000,682
13.60833,683
13.61667,683
13.62500,683
13.63333,684
13.64167,684
13.65000,684
13.65833,685
13.66667,685
13.67500,686
13.68333,686
13.69167,686
13.70000,687
13.70833,687
13.71667,688
13.72500,688
13.73333,689
13.74167,689
13.75000,690
13.75833,690
13.76667,691
13.77500,691
13.78333,691
13.79167,692
13.80000,692
13.80833,692
13.81667,693
13.82500,693
13.83333,693
13.84167,694
13.85000,695
13.85833,695
13.86667,696
13.87500,697
13.88333,697
13.89167,697
13.90000,697
13.90833,697
13.91667,698
13.92500,698
13.93333,699
13.94167,699
13.95000,700
13.95833,700
13.96667,701
13.97500,702
13.98333,703
13.99167,703
14.00000,704
14.00833,705
14.01667,705
14.02500,706
14.03333,706
14.04167,706
14.05000,706
14.05833,706
14.06667,706
14.07500,707
14.08333,707
14.09167,708
14.10000,708
14.10833,709
14.11667,709
14.12500,710
14.13333,711
14.14167,711
14.15000,712
14.15833,712
14.16667,713
14.17500,713
14.18333,713
14.19167,714
14.20000,714
14.20833,715
14.21667,715
14.22500,716
14.23333,717
14.24167,717
14.25000,718
14.25833,719
14.26667,719
14.27500,720
14.28333,720
14.29167,721
14.30000,721
14.30833,722
14.31667,724
14.32500,725
14.33333,726
14.34167,727
14.35000,729
14.35833,731
14.36667,732
14.37500,735
14.38333,737
14.39167,739
14.40000,742
14.40833,744
14.41667,747
14.42500,750
14.43333,752
14.44167,755
14.45000,758
14.45833,761
14.46667,764
14.47500,766
14.48333,769
14.49167,772
14.50000,775
14.50833,777
14.51667,780
14.52500,783
14.53333,785
14.54167,787
14.55000,789
14.55833,791
14.56667,792
14.57500,793
14.58333,795
14.59167,795
14.60000,796
14.60833,796
14.61667,796
14.62500,796
14.63333,796
14.64167,796
14.65000,795
14.65833,795
14.66667,794
14.67500,793
14.68333,792
14.69167,791
14.70000,789
14.70833,788
14.71667,787
14.72500,785
14.73333,784
14.74167,782
14.75000,780
14.75833,779
14.76667,777
14.77500,776
14.78333,774
14.79167,773
14.80000,771
14.80833,770
14.81667,769
14.82500,768
14.83333,767
14.84167,766
14.85000,765
14.85833,764
14.86667,763
14.87500,763
14.88333,762
14.89167,762
14.90000,761
14.90833,761
14.91667,760
14.92500,760
14.93333,759
14.94167,759
14.95000,758
14.95833,758
14.96667,759
14.97500,759
14.98333,759
14.99167,759
15.00000,760
15.00833,760
15.01667,760
15.02500,760
15.03333,760
15.04167,760
15.05000,760
15.05833,761
15.06667,761
15.07500,761
15.08333,762
15.09167,762
15.10000,763
15.10833,763
15.11667,763
15.12500,763
15.13333,763
15.14167,764
15.15000,764
15.15833,765
15.16667,765
15.17500,766
15.18333,766
15.19167,766
15.20000,767
15.20833,767
15.21667,768
15.22500,768
15.23333,768
15.24167,769
15.25000,769
15.25833,770
15.26667,770
15.27500,771
15.28333,772
15.29167,773
15.30000,774
15.30833,775
15.31667,776
15.32500,777
15.33333,777
15.34167,778
15.35000,779
15.35833,780
15.36667,781
15.37500,782
15.38333,783
15.39167,784
15.40000,785
15.40833,786
15.41667,786
15.42500,788
15.43333,789
15.44167,790
15.45000,791
15.45833,792
15.46667,793
15.47500,794
15.48333,795
15.49167,796
15.50000,797
15.50833,797
15.51667,797
15.52500,798
15.53333,798
15.54167,799
15.55000,799
15.55833,800
15.56667,801
15.57500,801
15.58333,802
15.59167,802
15.60000,803
15.60833,803
15.61667,803
15.62500,803
15.63333,802
15.64167,802
15.65000,802
15.65833,802
15.66667,802
15.67500,802
15.68333,802
15.69167,802
15.70000,801
15.70833,801
15.71667,801
15.72500,801
15.73333,800
15.74167,800
15.75000,800
15.75833,800
15.76667,800
15.77500,800
15.78333,800
15.79167,800
15.80000,800
15.80833,800
15.81667,800
15.82500,801
15.83333,800
15.84167,800
15.85000,801
15.85833,801
15.86667,800
15.87500,801
15.88333,801
15.89167,801
15.90000,801
15.90833,801
15.91667,802
15.92500,802
15.93333,802
15.94167,802
15.95000,803
15.95833,803
15.96667,803
15.97500,803
15.98333,803
15.99167,803
16.00000,804
16.00833,804
16.01667,804
16.02500,805
16.03333,806
16.04167,807
16.05000,808
16.05833,808
16.06667,809
16.07500,809
16.08333,809
16.09167,809
16.10000,809
16.10833,810
16.11667,810
16.12500,811
16.13333,811
16.14167,812
16.15000,812
16.15833,813
16.16667,813
16.17500,813
16.18333,814
16.19167,814
16.20000,814
16.20833,814
16.21667,815
16.22500,815
16.23333,815
16.24167,816
16.25000,816
16.25833,817
16.26667,817
16.27500,817
16.28333,818
16.29167,818
16.30000,819
16.30833,819
16.31667,819
16.32500,820
16.33333,821
16.34167,822
16.35000,823
16.35833,823
16.36667,823
16.37500,823
16.38333,824
16.39167,824
16.40000,824
16.40833,824
16.41667,824
16.42500,825
16.43333,825
16.44167,826
16.45000,827
16.45833,827
16.46667,827
16.47500,828
16.48333,828
16.49167,829
16.50000,829
16.50833,830
16.51667,830
16.52500,830
16.53333,831
16.54167,831
16.55000,831
16.55833,832
16.56667,833
16.57500,833
16.58333,834
16.59167,834
16.60000,835
16.60833,835
16.61667,835
16.62500,836
16.63333,837
16.64167,837
16.65000,837
16.65833,838
16.66667,838
16.67500,839
16.68333,839
16.69167,839
16.70000,840
16.70833,840
16.71667,841
16.72500,841
16.73333,841
16.74167,842
16.75000,842
16.75833,843
16.76667,844
16.77500,844
16.78333,844
16.79167,845
16.80000,845
16.80833,846
16.81667,846
16.82500,846
16.83333,846
16.84167,846
16.85000,847
16.85833,847
16.86667,848
16.87500,849
16.88333,849
16.89167,849
16.90000,849
16.90833,850
16.91667,851
16.92500,851
16.93333,852
16.94167,852
16.95000,852
16.95833,853
16.96667,853
16.97500,854
16.98333,854
16.99167,855
17.00000,856
17.00833,856
17.01667,856
17.02500,856
17.03333,857
17.04167,857
17.05000,858
17.05833,858
17.06667,859
17.07500,859
17.08333,860
17.09167,861
17.10000,861
17.10833,861
17.11667,862
17.12500,862
17.13333,862
17.14167,862
17.15000,863
17.15833,863
17.16667,863
17.17500,864
17.18333,864
17.19167,865
17.20000,865
17.20833,866
17.21667,866
17.22500,867
17.23333,867
17.24167,867
17.25000,868
17.25833,868
17.26667,869
17.27500,870
17.28333,870
17.29167,870
17.30000,871
17.30833,871
17.31667,871
17.32500,871
17.33333,871
17.34167,872
17.35000,872
17.35833,873
17.36667,873
17.37500,874
17.38333,874
17.39167,874
17.40000,875
17.40833,875
17.41667,876
17.42500,876
17.43333,877
17.44167,878
17.45000,878
17.45833,879
17.46667,879
17.47500,880
17.48333,880
17.49167,880
17.50000,881
17.50833,881
17.51667,881
17.52500,882
17.53333,882
17.54167,883
17.55000,883
17.55833,883
17.56667,884
17.57500,884
17.58333,884
17.59167,884
17.60000,885
17.60833,885
17.61667,885
17.62500,886
17.63333,886
17.64167,887
17.65000,887
17.65833,888
17.66667,888
17.67500,889
17.68333,889
17.69167,890
17.70000,890
17.70833,890
17.71667,891
17.72500,891
17.73333,892
17.74167,892
17.75000,893
17.75833,893
17.76667,894
17.77500,894
17.78333,895
17.79167,895
17.80000,895
17.80833,896
17.81667,896
17.82500,897
17.83333,897
17.84167,897
17.85000,898
17.85833,898
17.86667,898
17.87500,899
17.88333,899
17.89167,900
17.90000,900
17.90833,900
17.91667,901
17.92500,901
17.93333,901
17.94167,901
17.95000,902
17.95833,902
17.96667,903
17.97500,903
17.98333,904
17.99167,904
18.00000,905
18.00833,906
18.01667,906
18.02500,906
18.03333,907
18.04167,907
18.05000,908
18.05833,908
18.06667,908
18.07500,909
18.08333,909
18.09167,910
18.10000,910
18.10833,911
18.11667,911
18.12500,911
18.13333,912
18.14167,912
18.15000,912
18.15833,913
18.16667,913
18.17500,913
18.18333,913
18.19167,914
18.20000,914
18.20833,914
18.21667,915
18.22500,915
18.23333,916
18.24167,916
18.25000,917
18.25833,917
18.26667,918
18.27500,919
18.28333,919
18.29167,919
18.30000,920
18.30833,921
18.31667,921
18.32500,922
18.33333,922
18.34167,922
18.35000,922
18.35833,922
18.36667,923
18.37500,923
18.38333,924
18.39167,924
18.40000,925
18.40833,925
18.41667,926
18.42500,927
18.43333,927
18.44167,928
18.45000,928
18.45833,928
18.46667,928
18.47500,929
18.48333,929
18.49167,929
18.50000,930
18.50833,931
18.51667,932
18.52500,932
18.53333,933
18.54167,933
18.55000,933
18.55833,934
18.56667,934
18.57500,934
18.58333,934
18.59167,935
18.60000,935
18.60833,935
18.61667,936
18.62500,937
18.63333,938
18.64167,938
18.65000,938
18.65833,939
18.66667,939
18.67500,939
18.68333,939
18.69167,940
18.70000,940
18.70833,941
18.71667,941
18.72500,942
18.73333,942
18.74167,943
18.75000,943
18.75833,943
18.76667,944
18.77500,944
18.78333,944
18.79167,945
18.80000,945
18.80833,946
18.81667,946
18.82500,946
18.83333,947
18.84167,947
18.85000,948
18.85833,948
18.86667,948
18.87500,948
18.88333,949
18.89167,949
18.90000,949
18.90833,950
18.91667,950
18.92500,950
18.93333,951
18.94167,951
18.95000,952
18.95833,952
18.96667,953
18.97500,953
18.98333,954
18.99167,954
19.00000,954
19.00833,955
19.01667,955
19.02500,956
19.03333,956
19.04167,957
19.05000,957
19.05833,957
19.06667,958
19.07500,958
19.08333,959
19.09167,959
19.10000,959
19.10833,960
19.11667,960
19.12500,960
19.13333,961
19.14167,961
19.15000,962
19.15833,962
19.16667,963
19.17500,963
19.18333,963
19.19167,964
19.20000,965
19.20833,965
19.21667,965
19.22500,965
19.23333,966
19.24167,966
19.25000,967
19.25833,967
19.26667,968
19.27500,968
19.28333,968
19.29167,969
19.30000,969
19.30833,969
19.31667,970
19.32500,970
19.33333,971
19.34167,971
19.35000,972
19.35833,972
19.36667,973
19.37500,974
19.38333,974
19.39167,975
19.40000,975
19.40833,975
19.41667,976
19.42500,977
19.43333,977
19.44167,977
19.45000,978
19.45833,978
19.46667,978
19.47500,978
19.48333,978
19.49167,979
19.50000,979
19.50833,979
19.51667,980
19.52500,981
19.53333,981
19.54167,981
19.55000,981
19.55833,981
19.56667,982
19.57500,983
19.58333,983
19.59167,984
19.60000,985
19.60833,985
19.61667,985
19.62500,986
19.63333,987
19.64167,987
19.65000,987
19.65833,987
19.66667,987
19.67500,987
19.68333,988
19.69167,988
19.70000,988
19.70833,989
19.71667,990
19.72500,991
19.73333,992
19.74167,992
19.75000,993
19.75833,993
19.76667,993
19.77500,994
19.78333,994
19.79167,994
19.80000,994
19.80833,995
19.81667,995
19.82500,995
19.83333,996
19.84167,997
19.85000,997
19.85833,998
19.86667,998
19.87500,999
19.88333,999
19.89167,1000
19.90000,1000
19.90833,1000
19.91667,1001
19.92500,1001
19.93333,1001
19.94167,1001
19.95000,1002
19.95833,1002
19.96667,1003
19.97500,1003
19.98333,1003
19.99167,1004
20.00000,1004
20.00833,1005
20.01667,1005
20.02500,1005
20.03333,1006
20.04167,1006
20.05000,1007
20.05833,1007
20.06667,1008
20.07500,1008
20.08333,1008
20.09167,1009
20.10000,1009
20.10833,1009
20.11667,1010
20.12500,1010
20.13333,1011
20.14167,1011
20.15000,1012
20.15833,1012
20.16667,1013
20.17500,1013
20.18333,1014
20.19167,1014
20.20000,1015
20.20833,1015
20.21667,1016
20.22500,1016
20.23333,1016
20.24167,1017
20.25000,1017
20.25833,1017
20.26667,1018
20.27500,1018
20.28333,1018
20.29167,1018
20.30000,1019
20.30833,1020
20.31667,1020
20.32500,1021
20.33333,1021
20.34167,1022
20.35000,1022
20.35833,1023
20.36667,1023
20.37500,1024
20.38333,1024
20.39167,1024
20.40000,1025
20.40833,1025
20.41667,1026
20.42500,1026
20.43333,1026
20.44167,1027
20.45000,1027
20.45833,1027
20.46667,1028
20.47500,1028
20.48333,1029
20.49167,1029
20.50000,1030
20.50833,1031
20.51667,1031
20.52500,1031
20.53333,1032
20.54167,1032
20.55000,1032
20.55833,1032
20.56667,1033
20.57500,1033
20.58333,1034
20.59167,1034
20.60000,1035
20.60833,1036
20.61667,1036
20.62500,1037
20.63333,1037
20.64167,1038
20.65000,1038
20.65833,1039
20.66667,1039
20.67500,1039
20.68333,1040
20.69167,1040
20.70000,1041
20.70833,1041
20.71667,1041
20.72500,1041
20.73333,1041
20.74167,1042
20.75000,1042
20.75833,1043
20.76667,1043
20.77500,1044
20.78333,1044
20.79167,1045
20.80000,1045
20.80833,1046
20.81667,1046
20.82500,1047
20.83333,1047
20.84167,1048
20.85000,1048
20.85833,1048
20.86667,1049
20.87500,1049
20.88333,1049
20.89167,1050
20.90000,1050
20.90833,1050
20.91667,1051
20.92500,1051
20.93333,1052
20.94167,1052
20.95000,1053
20.95833,1054
20.96667,1054
20.97500,1054
20.98333,1055
20.99167,1055
21.00000,1056
21.00833,1056
21.01667,1057
21.02500,1058
21.03333,1058
21.04167,1059
21.05000,1059
21.05833,1059
21.06667,1060
21.07500,1060
21.08333,1061
21.09167,1061
21.10000,1061
21.10833,1062
21.11667,1062
21.12500,1063
21.13333,1063
21.14167,1063
21.15000,1064
21.15833,1064
21.16667,1064
21.17500,1064
21.18333,1064
21.19167,1065
21.20000,1065
21.20833,1066
21.21667,1066
21.22500,1067
21.23333,1067
21.24167,1067
21.25000,1067
21.25833,1068
21.26667,1068
21.27500,1069
21.28333,1070
21.29167,1070
21.30000,1070
21.30833,1070
21.31667,1071
21.32500,1071
21.33333,1072
21.34167,1073
21.35000,1073
21.35833,1074
21.36667,1074
21.37500,1075
21.38333,1076
21.39167,1076
21.40000,1076
21.40833,1077
21.41667,1077
21.42500,1077
21.43333,1078
21.44167,1078
21.45000,1078
21.45833,1079
21.46667,1079
21.47500,1079
21.48333,1080
21.49167,1080
21.50000,1081
21.50833,1081
21.51667,1082
21.52500,1082
21.53333,1082
21.54167,1082
21.55000,1083
21.55833,1083
21.56667,1084
21.57500,1085
21.58333,1085
21.59167,1085
21.60000,1086
21.60833,1086
21.61667,1086
21.62500,1087
21.63333,1087
21.64167,1088
21.65000,1088
21.65833,1088
21.66667,1088
21.67500,1089
21.68333,1089
21.69167,1089
21.70000,1090
21.70833,1090
21.71667,1091
21.72500,1092
21.73333,1092
21.74167,1093
21.75000,1093
21.75833,1094
21.76667,1094
21.77500,1094
21.78333,1095
21.79167,1095
21.80000,1095
21.80833,1095
21.81667,1096
21.82500,1096
21.83333,1097
21.84167,1097
21.85000,1098
21.85833,1098
21.86667,1099
21.87500,1099
21.88333,1099
21.89167,1100
21.90000,1100
21.90833,1101
21.91667,1102
21.92500,1102
21.93333,1103
21.94167,1103
21.95000,1104
21.95833,1104
21.96667,1104
21.97500,1104
21.98333,1105
21.99167,1105
22.00000,1105
22.00833,1106
22.01667,1107
22.02500,1107
22.03333,1108
22.04167,1108
22.05000,1109
22.05833,1109
22.06667,1109
22.07500,1109
22.08333,1110
22.09167,1110
22.10000,1111
22.10833,1112
22.11667,1112
22.12500,1113
22.13333,1113
22.14167,1114
22.15000,1114
22.15833,1114
22.16667,1115
22.17500,1115
22.18333,1115
22.19167,1115
22.20000,1116
22.20833,1116
22.21667,1117
22.22500,1117
22.23333,1117
22.24167,1118
22.25000,1118
22.25833,1119
22.26667,1119
22.27500,1119
22.28333,1120
22.29167,1120
22.30000,1121
22.30833,1121
22.31667,1122
22.32500,1122
22.33333,1122
22.34167,1123
22.35000,1123
22.35833,1124
22.36667,1124
22.37500,1124
22.38333,1125
22.39167,1125
22.40000,1126
22.40833,1126
22.41667,1127
22.42500,1127
22.43333,1127
22.44167,1128
22.45000,1129
22.45833,1129
22.46667,1129
22.47500,1130
22.48333,1130
22.49167,1131
22.50000,1131
22.50833,1131
22.51667,1132
22.52500,1132
22.53333,1133
22.54167,1133
22.55000,1134
22.55833,1134
22.56667,1135
22.57500,1136
22.58333,1136
22.59167,1136
22.60000,1137
22.60833,1137
22.61667,1137
22.62500,1138
22.63333,1139
22.64167,1139
22.65000,1139
22.65833,1140
22.66667,1140
22.67500,1141
22.68333,1141
22.69167,1141
22.70000,1142
22.70833,1142
22.71667,1143
22.72500,1143
22.73333,1144
22.74167,1144
22.75000,1145
22.75833,1145
22.76667,1146
22.77500,1146
22.78333,1146
22.79167,1147
22.80000,1147
22.80833,1147
22.81667,1148
22.82500,1148
22.83333,1149
22.84167,1149
22.85000,1150
22.85833,1150
22.86667,1150
22.87500,1151
22.88333,1151
22.89167,1152
22.90000,1153
22.90833,1154
22.91667,1154
22.92500,1155
22.93333,1155
22.94167,1156
22.95000,1156
22.95833,1156
22.96667,1157
22.97500,1157
22.98333,1157
22.99167,1158
23.00000,1158
23.00833,1159
23.01667,1160
23.02500,1160
23.03333,1160
23.04167,1161
23.05000,1161
23.05833,1162
23.06667,1162
23.07500,1162
23.08333,1162
23.09167,1163
23.10000,1163
23.10833,1163
23.11667,1164
23.12500,1164
23.13333,1165
23.14167,1165
23.15000,1166
23.15833,1166
23.16667,1167
23.17500,1167
23.18333,1168
23.19167,1168
23.20000,1169
23.20833,1169
23.21667,1169
23.22500,1169
23.23333,1170
23.24167,1170
23.25000,1170
23.25833,1171
23.26667,1171
23.27500,1171
23.28333,1172
23.29167,1172
23.30000,1172
23.30833,1173
23.31667,1173
23.32500,1174
23.33333,1174
23.34167,1175
23.35000,1175
23.35833,1176
23.36667,1176
23.37500,1177
23.38333,1177
23.39167,1178
23.40000,1179
23.40833,1179
23.41667,1179
23.42500,1180
23.43333,1180
23.44167,1181
23.45000,1181
23.45833,1181
23.46667,1181
23.47500,1181
23.48333,1181
23.49167,1181
23.50000,1182
23.50833,1183
23.51667,1184
23.52500,1185
23.53333,1185
23.54167,1186
23.55000,1186
23.55833,1186
23.56667,1187
23.57500,1187
23.58333,1187
23.59167,1187
23.60000,1187
23.60833,1187
23.61667,1188
23.62500,1188
23.63333,1189
23.64167,1189
23.65000,1190
23.65833,1190
23.66667,1191
23.67500,1191
23.68333,1192
23.69167,1192
23.70000,1192
23.70833,1193
23.71667,1193
23.72500,1194
23.73333,1194
23.74167,1195
23.75000,1195
23.75833,1196
23.76667,1196
23.77500,1196
23.78333,1196
23.79167,1196
23.80000,1197
23.80833,1198
23.81667,1198
23.82500,1199
23.83333,1199
23.84167,1199
23.85000,1200
23.85833,1201
23.86667,1201
23.87500,1202
23.88333,1202
23.89167,1202
23.90000,1203
23.90833,1203
23.91667,1203
23.92500,1204
23.93333,1204
23.94167,1205
23.95000,1206
23.95833,1206
23.96667,1207
23.97500,1207
23.98333,1208
23.99167,1208
24.00000,1208
24.00833,1209
24.01667,1209
24.02500,1210
24.03333,1210
24.04167,1211
24.05000,1211
24.05833,1212
24.06667,1212
24.07500,1213
24.08333,1213
24.09167,1213
24.10000,1214
24.10833,1214
24.11667,1214
24.12500,1214
24.13333,1215
24.14167,1215
24.15000,1215
24.15833,1215
24.16667,1216
24.17500,1216
24.18333,1217
24.19167,1217
24.20000,1218
24.20833,1218
24.21667,1219
24.22500,1220
24.23333,1220
24.24167,1220
24.25000,1221
24.25833,1221
24.26667,1222
24.27500,1222
24.28333,1222
24.29167,1223
24.30000,1223
24.30833,1224
24.31667,1224
24.32500,1225
24.33333,1225
24.34167,1226
24.35000,1226
24.35833,1227
24.36667,1227
24.37500,1228
24.38333,1228
24.39167,1229
24.40000,1229
24.40833,1230
24.41667,1230
24.42500,1231
24.43333,1231
24.44167,1232
24.45000,1232
24.45833,1232
24.46667,1233
24.47500,1233
24.48333,1234
24.49167,1235
24.50000,1235
24.50833,1236
24.51667,1236
24.52500,1237
24.53333,1237
24.54167,1237
24.55000,1237
24.55833,1238
24.56667,1238
24.57500,1238
24.58333,1239
24.59167,1239
24.60000,1240
24.60833,1240
24.61667,1241
24.62500,1241
24.63333,1242
24.64167,1242
24.65000,1242
24.65833,1242
24.66667,1242
24.67500,1242
24.68333,1243
24.69167,1243
24.70000,1244
24.70833,1244
24.71667,1245
24.72500,1246
24.73333,1247
24.74167,1248
24.75000,1248
24.75833,1249
24.76667,1249
24.77500,1249
24.78333,1249
24.79167,1250
24.80000,1250
24.80833,1250
24.81667,1251
24.82500,1251
24.83333,1252
24.84167,1253
24.85000,1253
24.85833,1254
24.86667,1255
24.87500,1255
24.88333,1256
24.89167,1256
24.90000,1256
24.90833,1257
24.91667,1257
24.92500,1257
24.93333,1257
24.94167,1257
24.95000,1258
24.95833,1258
24.96667,1258
24.97500,1259
24.98333,1259
24.99167,1260
25.00000,1261
25.00833,1261
25.01667,1262
25.02500,1262
25.03333,1262
25.04167,1263
25.05000,1264
25.05833,1264
25.06667,1265
25.07500,1265
25.08333,1266
25.09167,1266
25.10000,1267
25.10833,1267
25.11667,1268
25.12500,1268
25.13333,1269
25.14167,1269
25.15000,1270
25.15833,1270
25.16667,1270
25.17500,1270
25.18333,1271
25.19167,1271
25.20000,1272
25.20833,1272
25.21667,1272
25.22500,1273
25.23333,1273
25.24167,1273
25.25000,1274
25.25833,1274
25.26667,1275
25.27500,1275
25.28333,1276
25.29167,1276
25.30000,1276
25.30833,1276
25.31667,1277
25.32500,1277
25.33333,1278
25.34167,1278
25.35000,1279
25.35833,1279
25.36667,1280
25.37500,1280
25.38333,1281
25.39167,1281
25.40000,1282
25.40833,1282
25.41667,1282
25.42500,1283
25.43333,1283
25.44167,1284
25.45000,1284
25.45833,1285
25.46667,1286
25.47500,1286
25.48333,1286
25.49167,1286
25.50000,1286
25.50833,1287
25.51667,1287
25.52500,1288
25.53333,1288
25.54167,1289
25.55000,1289
25.55833,1289
25.56667,1289
25.57500,1290
25.58333,1291
25.59167,1291
25.60000,1292
25.60833,1292
25.61667,1293
25.62500,1293
25.63333,1294
25.64167,1294
25.65000,1294
25.65833,1294
25.66667,1295
25.67500,1295
25.68333,1296
25.69167,1296
25.70000,1297
25.70833,1297
25.71667,1298
25.72500,1298
25.73333,1298
25.74167,1299
25.75000,1299
25.75833,1300
25.76667,1301
25.77500,1301
25.78333,1302
25.79167,1302
25.80000,1302
25.80833,1303
25.81667,1304
25.82500,1304
25.83333,1304
25.84167,1305
25.85000,1305
25.85833,1305
25.86667,1306
25.87500,1306
25.88333,1307
25.89167,1307
25.90000,1308
25.90833,1309
25.91667,1309
25.92500,1309
25.93333,1310
25.94167,1310
25.95000,1310
25.95833,1310
25.96667,1310
25.97500,1310
25.98333,1311
25.99167,1311
26.00000,1311
26.00833,1312
26.01667,1312
26.02500,1313
26.03333,1313
26.04167,1314
26.05000,1315
26.05833,1315
26.06667,1316
26.07500,1317
26.08333,1317
26.09167,1317
26.10000,1318
26.10833,1318
26.11667,1318
26.12500,1319
26.13333,1319
26.14167,1319
26.15000,1320
26.15833,1320
26.16667,1321
26.17500,1321
26.18333,1322
26.19167,1322
26.20000,1323
26.20833,1323
26.21667,1323
26.22500,1324
26.23333,1324
26.24167,1325
26.25000,1325
26.25833,1326
26.26667,1326
26.27500,1326
26.28333,1327
26.29167,1327
26.30000,1328
26.30833,1328
26.31667,1329
26.32500,1330
26.33333,1331
26.34167,1331
26.35000,1332
26.35833,1332
26.36667,1332
26.37500,1332
26.38333,1333
26.39167,1333
26.40000,1334
26.40833,1334
26.41667,1335
26.42500,1335
26.43333,1335
26.44167,1335
26.45000,1336
26.45833,1336
26.46667,1337
26.47500,1337
26.48333,1338
26.49167,1338
26.50000,1339
26.50833,1339
26.51667,1340
26.52500,1340
26.53333,1341
26.54167,1341
26.55000,1342
26.55833,1342
26.56667,1342
26.57500,1343
26.58333,1343
26.59167,1343
26.60000,1344
26.60833,1344
26.61667,1345
26.62500,1346
26.63333,1346
26.64167,1346
26.65000,1347
26.65833,1347
26.66667,1348
26.67500,1349
26.68333,1349
26.69167,1350
26.70000,1350
26.70833,1351
26.71667,1351
26.72500,1351
26.73333,1352
26.74167,1352
26.75000,1352
26.75833,1352
26.76667,1353
26.77500,1353
26.78333,1354
26.79167,1355
26.80000,1355
26.80833,1356
26.81667,1356
26.82500,1356
26.83333,1356
26.84167,1356
26.85000,1357
26.85833,1357
26.86667,1357
26.87500,1358
26.88333,1358
26.89167,1359
26.90000,1359
26.90833,1360
26.91667,1361
26.92500,1361
26.93333,1362
26.94167,1363
26.95000,1363
26.95833,1364
26.96667,1364
26.97500,1364
26.98333,1365
26.99167,1365
27.00000,1365
27.00833,1365
27.01667,1366
27.02500,1366
27.03333,1366
27.04167,1367
27.05000,1367
27.05833,1367
27.06667,1368
27.07500,1368
27.08333,1369
27.09167,1370
27.10000,1370
27.10833,1371
27.11667,1372
27.12500,1372
27.13333,1372
27.14167,1373
27.15000,1373
27.15833,1373
27.16667,1373
27.17500,1374
27.18333,1375
27.19167,1375
27.20000,1376
27.20833,1376
27.21667,1377
27.22500,1377
27.23333,1377
27.24167,1377
27.25000,1377
27.25833,1378
27.26667,1379
27.27500,1379
27.28333,1379
27.29167,1380
27.30000,1380
27.30833,1380
27.31667,1381
27.32500,1381
27.33333,1382
27.34167,1382
27.35000,1383
27.35833,1383
27.36667,1384
27.37500,1384
27.38333,1385
27.39167,1386
27.40000,1386
27.40833,1386
27.41667,1387
27.42500,1387
27.43333,1387
27.44167,1388
27.45000,1388
27.45833,1388
27.46667,1389
27.47500,1389
27.48333,1390
27.49167,1390
27.50000,1390
27.50833,1391
27.51667,1391
27.52500,1391
27.53333,1391
27.54167,1392
27.55000,1392
27.55833,1392
27.56667,1392
27.57500,1393
27.58333,1393
27.59167,1394
27.60000,1395
27.60833,1395
27.61667,1395
27.62500,1395
27.63333,1396
27.64167,1396
27.65000,1396
27.65833,1397
27.66667,1397
27.67500,1397
27.68333,1398
27.69167,1398
27.70000,1399
27.70833,1399
27.71667,1399
27.72500,1399
27.73333,1398
27.74167,1398
27.75000,1398
27.75833,1398
27.76667,1398
27.77500,1398
27.78333,1398
27.79167,1398
27.80000,1398
27.80833,1398
27.81667,1397
27.82500,1397
27.83333,1397
27.84167,1396
27.85000,1395
27.85833,1394
27.86667,1393
27.87500,1392
27.88333,1390
27.89167,1389
27.90000,1387
27.90833,1385
27.91667,1383
27.92500,1381
27.93333,1379
27.94167,1377
27.95000,1374
27.95833,1372
27.96667,1369
27.97500,1365
27.98333,1362
27.99167,1358
28.00000,1354
28.00833,1349
28.01667,1345
28.02500,1340
28.03333,1334
28.04167,1328
28.05000,1321
28.05833,1314
28.06667,1307
28.07500,1299
28.08333,1291
28.09167,1283
28.10000,1274
28.10833,1264
28.11667,1254
28.12500,1244
28.13333,1233
28.14167,1222
28.15000,1210
28.15833,1198
28.16667,1186
28.17500,1174
28.18333,1161
28.19167,1147
28.20000,1133
28.20833,1119
28.21667,1104
28.22500,1088
28.23333,1072
28.24167,1057
28.25000,1040
28.25833,1024
28.26667,1008
28.27500,991
28.28333,974
28.29167,957
28.30000,940
28.30833,922
28.31667,904
28.32500,886
28.33333,869
28.34167,851
28.35000,834
28.35833,817
28.36667,800
28.37500,784
28.38333,767
28.39167,751
28.40000,736
28.40833,721
28.41667,706
28.42500,692
28.43333,678
28.44167,664
28.45000,651
28.45833,639
28.46667,627
28.47500,616
28.48333,605
28.49167,596
28.50000,586
28.50833,578
28.51667,570
28.52500,563
28.53333,557
28.54167,552
28.55000,547
28.55833,543
28.56667,540
28.57500,538
28.58333,536
28.59167,535
28.60000,535
28.60833,536
28.61667,537
28.62500,539
28.63333,541
28.64167,544
28.65000,547
28.65833,551
28.66667,556
28.67500,560
28.68333,566
28.69167,572
28.70000,578
28.70833,585
28.71667,592
28.72500,599
28.73333,607
28.74167,615
28.75000,623
28.75833,632
28.76667,640
28.77500,649
28.78333,657
28.79167,666
28.80000,675
28.80833,685
28.81667,694
28.82500,703
28.83333,713
28.84167,722
28.85000,731
28.85833,740
28.86667,749
28.87500,758
28.88333,766
28.89167,775
28.90000,784
28.90833,793
28.91667,801
28.92500,809
28.93333,817
28.94167,825
28.95000,833
28.95833,841
28.96667,848
28.97500,856
28.98333,863
28.99167,870
29.00000,876
29.00833,883
29.01667,889
29.02500,896
29.03333,902
29.04167,908
29.05000,914
29.05833,919
29.06667,925
29.07500,930
29.08333,936
29.09167,942
29.10000,947
29.10833,953
29.11667,957
29.12500,962
29.13333,966
29.14167,970
29.15000,974
29.15833,979
29.16667,983
29.17500,987
29.18333,991
29.19167,995
29.20000,998
29.20833,1002
29.21667,1005
29.22500,1009
29.23333,1012
29.24167,1015
29.25000,1019
29.25833,1022
29.26667,1025
29.27500,1028
29.28333,1031
29.29167,1035
29.30000,1038
29.30833,1040
29.31667,1043
29.32500,1045
29.33333,1048
29.34167,1051
29.35000,1053
29.35833,1056
29.36667,1059
29.37500,1062
29.38333,1064
29.39167,1066
29.40000,1069
29.40833,1071
29.41667,1073
29.42500,1075
29.43333,1077
29.44167,1079
29.45000,1082
29.45833,1084
29.46667,1086
29.47500,1088
29.48333,1090
29.49167,1091
29.50000,1093
29.50833,1095
29.51667,1097
29.52500,1099
29.53333,1101
29.54167,1103
29.55000,1104
29.55833,1106
29.56667,1107
29.57500,1109
29.58333,1110
29.59167,1111
29.60000,1112
29.60833,1114
29.61667,1114
29.62500,1116
29.63333,1117
29.64167,1118
29.65000,1119
29.65833,1120
29.66667,1121
29.67500,1121
29.68333,1122
29.69167,1122
29.70000,1122
29.70833,1122
29.71667,1122
29.72500,1122
29.73333,1121
29.74167,1121
29.75000,1121
29.75833,1121
29.76667,1120
29.77500,1120
29.78333,1119
29.79167,1118
29.80000,1117
29.80833,1116
29.81667,1114
29.82500,1112
29.83333,1110
29.84167,1108
29.85000,1105
29.85833,1103
29.86667,1101
29.87500,1099
29.88333,1096
29.89167,1093
29.90000,1090
29.90833,1086
29.91667,1083
29.92500,1080
29.93333,1076
29.94167,1073
29.95000,1069
29.95833,1065
29.96667,1061
29.97500,1056
29.98333,1052
29.99167,1047
30.00000,1043
30.00833,1038
30.01667,1033
30.02500,1029
30.03333,1023
30.04167,1018
30.05000,1013
30.05833,1008
30.06667,1003
30.07500,997
30.08333,992
30.09167,987
30.10000,982
30.10833,977
30.11667,973
30.12500,968
30.13333,964
30.14167,959
30.15000,955
30.15833,950
30.16667,946
30.17500,942
30.18333,938
30.19167,934
30.20000,930
30.20833,926
30.21667,922
30.22500,919
30.23333,916
30.24167,913
30.25000,910
30.25833,908
30.26667,906
30.27500,904
30.28333,903
30.29167,902
30.30000,900
30.30833,899
30.31667,898
30.32500,897
30.33333,896
30.34167,896
30.35000,896
30.35833,896
30.36667,897
30.37500,897
30.38333,898
30.39167,900
30.40000,901
30.40833,903
30.41667,904
30.42500,906
30.43333,908
30.44167,910
30.45000,912
30.45833,914
30.46667,917
30.47500,920
30.48333,923
30.49167,925
30.50000,928
30.50833,931
30.51667,934
30.52500,938
30.53333,941
30.54167,945
30.55000,948
30.55833,952
30.56667,955
30.57500,959
30.58333,962
30.59167,966
30.60000,970
30.60833,973
30.61667,977
30.62500,980
30.63333,984
30.64167,987
30.65000,991
30.65833,994
30.66667,998
30.67500,1002
30.68333,1005
30.69167,1009
30.70000,1012
30.70833,1016
30.71667,1019
30.72500,1022
30.73333,1025
30.74167,1028
30.75000,1031
30.75833,1034
30.76667,1037
30.77500,1040
30.78333,1043
30.79167,1045
30.80000,1048
30.80833,1051
30.81667,1053
30.82500,1056
30.83333,1059
30.84167,1062
30.85000,1065
30.85833,1068
30.86667,1070
30.87500,1072
30.88333,1074
30.89167,1076
30.90000,1078
30.90833,1080
30.91667,1082
30.92500,1083
30.93333,1085
30.94167,1087
30.95000,1089
30.95833,1091
30.96667,1093
30.97500,1096
30.98333,1097
30.99167,1099
31.00000,1101
31.00833,1102
31.01667,1104
31.02500,1105
31.03333,1107
31.04167,1108
31.05000,1109
31.05833,1111
31.06667,1112
31.07500,1114
31.08333,1115
31.09167,1116
31.10000,1118
31.10833,1120
31.11667,1121
31.12500,1123
31.13333,1124
31.14167,1126
31.15000,1127
31.15833,1129
31.16667,1130
31.17500,1131
31.18333,1133
31.19167,1134
31.20000,1135
31.20833,1136
31.21667,1138
31.22500,1139
31.23333,1140
31.24167,1141
31.25000,1142
31.25833,1144
31.26667,1145
31.27500,1146
31.28333,1148
31.29167,1149
31.30000,1151
31.30833,1152
31.31667,1154
31.32500,1156
31.33333,1157
31.34167,1158
31.35000,1159
31.35833,1161
31.36667,1162
31.37500,1163
31.38333,1164
31.39167,1165
31.40000,1167
31.40833,1168
31.41667,1170
31.42500,1171
31.43333,1172
31.44167,1173
31.45000,1174
31.45833,1175
31.46667,1176
31.47500,1178
31.48333,1179
31.49167,1181
31.50000,1182
31.50833,1183
31.51667,1185
31.52500,1186
31.53333,1187
31.54167,1189
31.55000,1190
31.55833,1192
31.56667,1193
31.57500,1194
31.58333,1196
31.59167,1196
31.60000,1198
31.60833,1199
31.61667,1200
31.62500,1201
31.63333,1202
31.64167,1204
31.65000,1205
31.65833,1207
31.66667,1208
31.67500,1209
31.68333,1210
31.69167,1212
31.70000,1213
31.70833,1214
31.71667,1215
31.72500,1217
31.73333,1218
31.74167,1219
31.75000,1220
31.75833,1222
31.76667,1223
31.77500,1225
31.78333,1226
31.79167,1227
31.80000,1228
31.80833,1230
31.81667,1231
31.82500,1232
31.83333,1234
31.84167,1235
31.85000,1236
31.85833,1237
31.86667,1238
31.87500,1239
31.88333,1241
31.89167,1242
31.90000,1243
31.90833,1243
31.91667,1245
31.92500,1246
31.93333,1247
31.94167,1249
31.95000,1250
31.95833,1251
31.96667,1252
31.97500,1253
31.98333,1254
31.99167,1256
32.00000,1257
32.00833,1259
32.01667,1260
32.02500,1261
32.03333,1262
32.04167,1263
32.05000,1265
32.05833,1266
32.06667,1267
32.07500,1268
32.08333,1270
32.09167,1271
32.10000,1272
32.10833,1273
32.11667,1274
32.12500,1275
32.13333,1276
32.14167,1277
32.15000,1279
32.15833,1280
32.16667,1281
32.17500,1282
32.18333,1284
32.19167,1285
32.20000,1287
32.20833,1288
32.21667,1289
32.22500,1291
32.23333,1292
32.24167,1293
32.25000,1294
32.25833,1295
32.26667,1296
32.27500,1297
32.28333,1298
32.29167,1299
32.30000,1300
32.30833,1302
32.31667,1303
32.32500,1305
32.33333,1306
32.34167,1307
32.35000,1308
32.35833,1309
32.36667,1310
32.37500,1311
32.38333,1312
32.39167,1314
32.40000,1315
32.40833,1316
32.41667,1317
32.42500,1318
32.43333,1320
32.44167,1321
32.45000,1323
32.45833,1324
32.46667,1325
32.47500,1326
32.48333,1327
32.49167,1329
32.50000,1330
32.50833,1331
32.51667,1333
32.52500,1334
32.53333,1335
32.54167,1336
32.55000,1337
32.55833,1338
32.56667,1339
32.57500,1341
32.58333,1342
32.59167,1343
32.60000,1344
32.60833,1345
32.61667,1346
32.62500,1347
32.63333,1349
32.64167,1350
32.65000,1352
32.65833,1353
32.66667,1354
32.67500,1355
32.68333,1356
32.69167,1357
32.70000,1359
32.70833,1360
32.71667,1361
32.72500,1362
32.73333,1364
32.74167,1365
32.75000,1366
32.75833,1367
32.76667,1368
32.77500,1369
32.78333,1370
32.79167,1372
32.80000,1373
32.80833,1374
32.81667,1375
32.82500,1377
32.83333,1378
32.84167,1379
32.85000,1380
32.85833,1382
32.86667,1383
32.87500,1384
32.88333,1386
32.89167,1387
32.90000,1389
32.90833,1390
32.91667,1391
32.92500,1392
32.93333,1393
32.94167,1394
32.95000,1395
32.95833,1396
32.96667,1397
32.97500,1399
32.98333,1400
32.99167,1401
33.00000,1402
33.00833,1403
33.01667,1404
33.02500,1405
33.03333,1406
33.04167,1407
33.05000,1409
33.05833,1410
33.06667,1411
33.07500,1413
33.08333,1414
33.09167,1415
33.10000,1417
33.10833,1418
33.11667,1419
33.12500,1420
33.13333,1422
33.14167,1423
33.15000,1424
33.15833,1425
33.16667,1427
33.17500,1428
33.18333,1429
33.19167,1431
33.20000,1432
33.20833,1433
33.21667,1434
33.22500,1435
33.23333,1437
33.24167,1438
33.25000,1439
33.25833,1440
33.26667,1441
33.27500,1442
33.28333,1444
33.29167,1445
33.30000,1446
33.30833,1447
33.31667,1449
33.32500,1450
33.33333,1452
33.34167,1453
33.35000,1454
33.35833,1455
33.36667,1457
33.37500,1458
33.38333,1459
33.39167,1460
33.40000,1462
33.40833,1463
33.41667,1464
33.42500,1465
33.43333,1467
33.44167,1468
33.45000,1469
33.45833,1470
33.46667,1471
33.47500,1472
33.48333,1473
33.49167,1474
33.50000,1475
33.50833,1476
33.51667,1478
33.52500,1479
33.53333,1480
33.54167,1482
33.55000,1483
33.55833,1485
33.56667,1486
33.57500,1488
33.58333,1489
33.59167,1490
33.60000,1491
33.60833,1492
33.61667,1493
33.62500,1495
33.63333,1495
33.64167,1496
33.65000,1498
33.65833,1499
33.66667,1500
33.67500,1500
33.68333,1501
33.69167,1502
33.70000,1503
33.70833,1504
33.71667,1505
33.72500,1507
33.73333,1508
33.74167,1509
33.75000,1511
33.75833,1512
33.76667,1513
33.77500,1514
33.78333,1515
33.79167,1517
33.80000,1518
33.80833,1519
33.81667,1520
33.82500,1522
33.83333,1523
33.84167,1524
33.85000,1525
33.85833,1526
33.86667,1528
33.87500,1529
33.88333,1530
33.89167,1531
33.90000,1532
33.90833,1533
33.91667,1534
33.92500,1535
33.93333,1536
33.94167,1538
33.95000,1539
33.95833,1540
33.96667,1541
33.97500,1542
33.98333,1543
33.99167,1544
34.00000,1545
34.00833,1546
34.01667,1547
34.02500,1549
34.03333,1550
34.04167,1551
34.05000,1552
34.05833,1553
34.06667,1553
34.07500,1554
34.08333,1556
34.09167,1557
34.10000,1558
34.10833,1560
34.11667,1561
34.12500,1562
34.13333,1563
34.14167,1564
34.15000,1565
34.15833,1566
34.16667,1567
34.17500,1568
34.18333,1569
34.19167,1570
34.20000,1571
34.20833,1572
34.21667,1573
34.22500,1574
34.23333,1575
34.24167,1576
34.25000,1577
34.25833,1578
34.26667,1579
34.27500,1581
34.28333,1582
34.29167,1583
34.30000,1584
34.30833,1585
34.31667,1587
34.32500,1588
34.33333,1589
34.34167,1590
34.35000,1591
34.35833,1592
34.36667,1593
34.37500,1594
34.38333,1595
34.39167,1596
34.40000,1597
34.40833,1599
34.41667,1600
34.42500,1601
34.43333,1602
34.44167,1603
34.45000,1604
34.45833,1605
34.46667,1606
34.47500,1607
34.48333,1608
34.49167,1609
34.50000,1610
34.50833,1611
34.51667,1612
34.52500,1613
34.53333,1614
34.54167,1616
34.55000,1617
34.55833,1618
34.56667,1619
34.57500,1620
34.58333,1621
34.59167,1622
34.60000,1623
34.60833,1624
34.61667,1624
34.62500,1625
34.63333,1626
34.64167,1628
34.65000,1629
34.65833,1629
34.66667,1630
34.67500,1631
34.68333,1632
34.69167,1633
34.70000,1634
34.70833,1634
34.71667,1635
34.72500,1636
34.73333,1637
34.74167,1638
34.75000,1639
34.75833,1640
34.76667,1641
34.77500,1642
34.78333,1643
34.79167,1644
34.80000,1645
34.80833,1646
34.81667,1647
34.82500,1648
34.83333,1648
34.84167,1649
34.85000,1650
34.85833,1651
34.86667,1652
34.87500,1653
34.88333,1655
34.89167,1656
34.90000,1657
34.90833,1658
34.91667,1659
34.92500,1659
34.93333,1660
34.94167,1661
34.95000,1662
34.95833,1663
34.96667,1664
34.97500,1665
34.98333,1666
34.99167,1667
35.00000,1667
35.00833,1668
35.01667,1669
35.02500,1670
35.03333,1671
35.04167,1672
35.05000,1673
35.05833,1674
35.06667,1675
35.07500,1676
35.08333,1677
35.09167,1678
35.10000,1679
35.10833,1680
35.11667,1680
35.12500,1681
35.13333,1682
35.14167,1683
35.15000,1683
35.15833,1684
35.16667,1685
35.17500,1686
35.18333,1687
35.19167,1688
35.20000,1689
35.20833,1690
35.21667,1691
35.22500,1692
35.23333,1693
35.24167,1694
35.25000,1695
35.25833,1696
35.26667,1697
35.27500,1698
35.28333,1699
35.29167,1700
35.30000,1701
35.30833,1702
35.31667,1702
35.32500,1703
35.33333,1704
35.34167,1705
35.35000,1706
35.35833,1706
35.36667,1707
35.37500,1709
35.38333,1710
35.39167,1710
35.40000,1711
35.40833,1712
35.41667,1713
35.42500,1714
35.43333,1714
35.44167,1715
35.45000,1716
35.45833,1718
35.46667,1719
35.47500,1720
35.48333,1721
35.49167,1722
35.50000,1723
35.50833,1723
35.51667,1724
35.52500,1725
35.53333,1725
35.54167,1726
35.55000,1727
35.55833,1728
35.56667,1729
35.57500,1730
35.58333,1731
35.59167,1732
35.60000,1732
35.60833,1733
35.61667,1734
35.62500,1735
35.63333,1735
35.64167,1736
35.65000,1737
35.65833,1738
35.66667,1739
35.67500,1740
35.68333,1740
35.69167,1742
35.70000,1743
35.70833,1744
35.71667,1745
35.72500,1746
35.73333,1747
35.74167,1748
35.75000,1748
35.75833,1749
35.76667,1750
35.77500,1750
35.78333,1751
35.79167,1752
35.80000,1753
35.80833,1753
35.81667,1754
35.82500,1755
35.83333,1756
35.84167,1757
35.85000,1758
35.85833,1758
35.86667,1759
35.87500,1760
35.88333,1761
35.89167,1762
35.90000,1762
35.90833,1764
35.91667,1765
35.92500,1766
35.93333,1767
35.94167,1767
35.95000,1768
35.95833,1769
35.96667,1770
35.97500,1771
35.98333,1772
35.99167,1773
36.00000,1773
36.00833,1774
36.01667,1774
36.02500,1775
36.03333,1777
36.04167,1778
36.05000,1779
36.05833,1780
36.06667,1781
36.07500,1782
36.08333,1782
36.09167,1783
36.10000,1784
36.10833,1784
36.11667,1785
36.12500,1786
36.13333,1787
36.14167,1788
36.15000,1789
36.15833,1790
36.16667,1790
36.17500,1791
36.18333,1792
36.19167,1793
36.20000,1794
36.20833,1794
36.21667,1795
36.22500,1796
36.23333,1796
36.24167,1797
36.25000,1798
36.25833,1799
36.26667,1800
36.27500,1801
36.28333,1801
36.29167,1802
36.30000,1802
36.30833,1803
36.31667,1804
36.32500,1805
36.33333,1806
36.34167,1807
36.35000,1808
36.35833,1808
36.36667,1809
36.37500,1810
36.38333,1811
36.39167,1811
36.40000,1812
36.40833,1813
36.41667,1814
36.42500,1815
36.43333,1815
36.44167,1816
36.45000,1817
36.45833,1818
36.46667,1818
36.47500,1819
36.48333,1820
36.49167,1821
36.50000,1822
36.50833,1823
36.51667,1823
36.52500,1824
36.53333,1825
36.54167,1826
36.55000,1827
36.55833,1828
36.56667,1829
36.57500,1830
36.58333,1831
36.59167,1832
36.60000,1833
36.60833,1834
36.61667,1835
36.62500,1836
36.63333,1837
36.64167,1838
36.65000,1838
36.65833,1839
36.66667,1840
36.67500,1841
36.68333,1842
36.69167,1843
36.70000,1844
36.70833,1845
36.71667,1847
36.72500,1848
36.73333,1849
36.74167,1850
36.75000,1852
36.75833,1854
36.76667,1855
36.77500,1857
36.78333,1858
36.79167,1860
36.80000,1861
36.80833,1862
36.81667,1863
36.82500,1865
36.83333,1866
36.84167,1868
36.85000,1869
36.85833,1871
36.86667,1872
36.87500,1874
36.88333,1875
36.89167,1876
36.90000,1878
36.90833,1880
36.91667,1881
36.92500,1883
36.93333,1886
36.94167,1887
36.95000,1889
36.95833,1891
36.96667,1893
36.97500,1895
36.98333,1896
36.99167,1898
37.00000,1900
37.00833,1901
37.01667,1903
37.02500,1905
37.03333,1907
37.04167,1909
37.05000,1911
37.05833,1912
37.06667,1914
37.07500,1916
37.08333,1918
37.09167,1919
37.10000,1920
37.10833,1922
37.11667,1924
37.12500,1925
37.13333,1927
37.14167,1928
37.15000,1930
37.15833,1932
37.16667,1934
37.17500,1935
37.18333,1937
37.19167,1938
37.20000,1940
37.20833,1942
37.21667,1943
37.22500,1944
37.23333,1946
37.24167,1947
37.25000,1948
37.25833,1949
37.26667,1950
37.27500,1951
37.28333,1952
37.29167,1953
37.30000,1954
37.30833,1955
37.31667,1956
37.32500,1957
37.33333,1958
37.34167,1958
37.35000,1958
37.35833,1959
37.36667,1960
37.37500,1961
37.38333,1961
37.39167,1962
37.40000,1963
37.40833,1963
37.41667,1963
37.42500,1963
37.43333,1962
37.44167,1962
37.45000,1963
37.45833,1963
37.46667,1963
37.47500,1963
37.48333,1962
37.49167,1962
37.50000,1961
37.50833,1961
37.51667,1961
37.52500,1961
37.53333,1961
37.54167,1961
37.55000,1960
37.55833,1960
37.56667,1960
37.57500,1959
37.58333,1958
37.59167,1958
37.60000,1958
37.60833,1958
37.61667,1957
37.62500,1956
37.63333,1956
37.64167,1955
37.65000,1954
37.65833,1954
37.66667,1954
37.67500,1953
37.68333,1953
37.69167,1952
37.70000,1951
37.70833,1951
37.71667,1950
37.72500,1949
37.73333,1949
37.74167,1948
37.75000,1947
37.75833,1947
37.76667,1946
37.77500,1946
37.78333,1945
37.79167,1945
37.80000,1945
37.80833,1944
37.81667,1944
37.82500,1943
37.83333,1942
37.84167,1941
37.85000,1941
37.85833,1940
37.86667,1940
37.87500,1940
37.88333,1939
37.89167,1939
37.90000,1939
37.90833,1938
37.91667,1938
37.92500,1938
37.93333,1938
37.94167,1937
37.95000,1937
37.95833,1937
37.96667,1937
37.97500,1937
37.98333,1937
37.99167,1937
38.00000,1937
38.00833,1936
38.01667,1936
38.02500,1936
38.03333,1936
38.04167,1935
38.05000,1935
38.05833,1935
38.06667,1935
38.07500,1935
38.08333,1935
38.09167,1936
38.10000,1936
38.10833,1936
38.11667,1936
38.12500,1936
38.13333,1937
38.14167,1937
38.15000,1937
38.15833,1937
38.16667,1938
38.17500,1938
38.18333,1938
38.19167,1939
38.20000,1939
38.20833,1939
38.21667,1939
38.22500,1939
38.23333,1939
38.24167,1940
38.25000,1940
38.25833,1940
38.26667,1941
38.27500,1941
38.28333,1942
38.29167,1942
38.30000,1943
38.30833,1943
38.31667,1943
38.32500,1943
38.33333,1943
38.34167,1943
38.35000,1943
38.35833,1943
38.36667,1944
38.37500,1944
38.38333,1945
38.39167,1945
38.40000,1946
38.40833,1946
38.41667,1946
38.42500,1947
38.43333,1947
38.44167,1948
38.45000,1948
38.45833,1948
38.46667,1948
38.47500,1949
38.48333,1950
38.49167,1950
38.50000,1950
38.50833,1951
38.51667,1951
38.52500,1951
38.53333,1952
38.54167,1952
38.55000,1953
38.55833,1954
38.56667,1954
38.57500,1955
38.58333,1955
38.59167,1956
38.60000,1956
38.60833,1956
38.61667,1957
38.62500,1957
38.63333,1957
38.64167,1958
38.65000,1958
38.65833,1959
38.66667,1959
38.67500,1960
38.68333,1960
38.69167,1961
38.70000,1961
38.70833,1962
38.71667,1962
38.72500,1962
38.73333,1963
38.74167,1963
38.75000,1964
38.75833,1964
38.76667,1965
38.77500,1966
38.78333,1966
38.79167,1966
38.80000,1967
38.80833,1967
38.81667,1967
38.82500,1968
38.83333,1968
38.84167,1968
38.85000,1969
38.85833,1970
38.86667,1971
38.87500,1971
38.88333,1971
38.89167,1972
38.90000,1972
38.90833,1973
38.91667,1973
38.92500,1974
38.93333,1974
38.94167,1975
38.95000,1975
38.95833,1976
38.96667,1976
38.97500,1977
38.98333,1977
38.99167,1978
39.00000,1978
39.00833,1978
39.01667,1978
39.02500,1979
39.03333,1979
39.04167,1980
39.05000,1981
39.05833,1981
39.06667,1982
39.07500,1982
39.08333,1983
39.09167,1984
39.10000,1984
39.10833,1985
39.11667,1985
39.12500,1986
39.13333,1986
39.14167,1987
39.15000,1987
39.15833,1988
39.16667,1988
39.17500,1988
39.18333,1989
39.19167,1989
39.20000,1990
39.20833,1990
39.21667,1991
39.22500,1992
39.23333,1992
39.24167,1992
39.25000,1993
39.25833,1993
39.26667,1994
39.27500,1995
39.28333,1995
39.29167,1995
39.30000,1996
39.30833,1997
39.31667,1997
39.32500,1997
39.33333,1997
39.34167,1998
39.35000,1998
39.35833,1998
39.36667,1999
39.37500,1999
39.38333,2000
39.39167,2000
39.40000,2001
39.40833,2002
39.41667,2002
39.42500,2003
39.43333,2003
39.44167,2004
39.45000,2004
39.45833,2005
39.46667,2005
39.47500,2006
39.48333,2006
39.49167,2006
39.50000,2006
39.50833,2007
39.51667,2007
39.52500,2008
39.53333,2008
39.54167,2009
39.55000,2010
39.55833,2011
39.56667,2011
39.57500,2011
39.58333,2011
39.59167,2012
39.60000,2012
39.60833,2013
39.61667,2013
39.62500,2014
39.63333,2014
39.64167,2015
39.65000,2016
39.65833,2016
39.66667,2016
39.67500,2017
39.68333,2017
39.69167,2018
39.70000,2019
39.70833,2019
39.71667,2020
39.72500,2020
39.73333,2021
39.74167,2022
39.75000,2022
39.75833,2022
39.76667,2023
39.77500,2023
39.78333,2023
39.79167,2024
39.80000,2024
39.80833,2024
39.81667,2025
39.82500,2025
39.83333,2026
39.84167,2027
39.85000,2027
39.85833,2028
39.86667,2028
39.87500,2029
39.88333,2029
39.89167,2030
39.90000,2030
39.90833,2031
39.91667,2031
39.92500,2032
39.93333,2032
39.94167,2033
39.95000,2033
39.95833,2034
39.96667,2034
39.97500,2034
39.98333,2035
39.99167,2035
40.00000,2036
40.00833,2036
40.01667,2037
40.02500,2037
40.03333,2038
40.04167,2038
40.05000,2038
40.05833,2039
40.06667,2039
40.07500,2040
40.08333,2041
40.09167,2042
40.10000,2042
40.10833,2043
40.11667,2044
40.12500,2044
40.13333,2045
40.14167,2045
40.15000,2045
40.15833,2045
40.16667,2046
40.17500,2046
40.18333,2047
40.19167,2047
40.20000,2047
40.20833,2048
40.21667,2048
40.22500,2049
40.23333,2049
40.24167,2050
40.25000,2050
40.25833,2051
40.26667,2051
40.27500,2051
40.28333,2052
40.29167,2053
40.30000,2053
40.30833,2053
40.31667,2053
40.32500,2054
40.33333,2055
40.34167,2056
40.35000,2056
40.35833,2056
40.36667,2057
40.37500,2057
40.38333,2058
40.39167,2058
40.40000,2059
40.40833,2060
40.41667,2060
40.42500,2060
40.43333,2060
40.44167,2061
40.45000,2061
40.45833,2062
40.46667,2062
40.47500,2063
40.48333,2063
40.49167,2064
40.50000,2064
40.50833,2064
40.51667,2065
40.52500,2065
40.53333,2066
40.54167,2067
40.55000,2067
40.55833,2068
40.56667,2068
40.57500,2069
40.58333,2069
40.59167,2069
40.60000,2070
40.60833,2071
40.61667,2071
40.62500,2072
40.63333,2072
40.64167,2073
40.65000,2073
40.65833,2073
40.66667,2073
40.67500,2073
40.68333,2074
40.69167,2075
40.70000,2075
40.70833,2076
40.71667,2076
40.72500,2076
40.73333,2077
40.74167,2077
40.75000,2078
40.75833,2078
40.76667,2079
40.77500,2080
40.78333,2080
40.79167,2081
40.80000,2082
40.80833,2083
40.81667,2083
40.82500,2083
40.83333,2083
40.84167,2083
40.85000,2084
40.85833,2084
40.86667,2084
40.87500,2085
40.88333,2085
40.89167,2085
40.90000,2086
40.90833,2087
40.91667,2087
40.92500,2087
40.93333,2088
40.94167,2088
40.95000,2089
40.95833,2090
40.96667,2090
40.97500,2090
40.98333,2091
40.99167,2091
41.00000,2092
41.00833,2092
41.01667,2093
41.02500,2094
41.03333,2094
41.04167,2095
41.05000,2096
41.05833,2096
41.06667,2097
41.07500,2097
41.08333,2097
41.09167,2098
41.10000,2098
41.10833,2099
41.11667,2099
41.12500,2099
41.13333,2100
41.14167,2101
41.15000,2101
41.15833,2102
41.16667,2102
41.17500,2103
41.18333,2103
41.19167,2103
41.20000,2104
41.20833,2104
41.21667,2105
41.22500,2105
41.23333,2106
41.24167,2107
41.25000,2107
41.25833,2108
41.26667,2108
41.27500,2109
41.28333,2109
41.29167,2110
41.30000,2110
41.30833,2111
41.31667,2111
41.32500,2111
41.33333,2111
41.34167,2112
41.35000,2112
41.35833,2112
41.36667,2113
41.37500,2113
41.38333,2114
41.39167,2115
41.40000,2116
41.40833,2117
41.41667,2117
41.42500,2118
41.43333,2118
41.44167,2119
41.45000,2119
41.45833,2120
41.46667,2121
41.47500,2121
41.48333,2121
41.49167,2121
41.50000,2121
41.50833,2122
41.51667,2122
41.52500,2122
41.53333,2123
41.54167,2123
41.55000,2124
41.55833,2125
41.56667,2125
41.57500,2126
41.58333,2126
41.59167,2127
41.60000,2127
41.60833,2127
41.61667,2128
41.62500,2128
41.63333,2129
41.64167,2129
41.65000,2129
41.65833,2129
41.66667,2130
41.67500,2130
41.68333,2131
41.69167,2131
41.70000,2132
41.70833,2132
41.71667,2133
41.72500,2134
41.73333,2134
41.74167,2135
41.75000,2136
41.75833,2136
41.76667,2137
41.77500,2137
41.78333,2138
41.79167,2138
41.80000,2138
41.80833,2139
41.81667,2139
41.82500,2140
41.83333,2140
41.84167,2140
41.85000,2140
41.85833,2140
41.86667,2141
41.87500,2141
41.88333,2142
41.89167,2142
41.90000,2143
41.90833,2143
41.91667,2144
41.92500,2144
41.93333,2145
41.94167,2146
41.95000,2146
41.95833,2147
41.96667,2147
41.97500,2147
41.98333,2148
41.99167,2148
42.00000,2149
42.00833,2149
42.01667,2150
42.02500,2150
42.03333,2151
42.04167,2151
42.05000,2151
42.05833,2151
42.06667,2151
42.07500,2152
42.08333,2152
42.09167,2153
42.10000,2153
42.10833,2154
42.11667,2154
42.12500,2155
42.13333,2155
42.14167,2155
42.15000,2156
42.15833,2156
42.16667,2157
42.17500,2157
42.18333,2158
42.19167,2158
42.20000,2159
42.20833,2159
42.21667,2160
42.22500,2161
42.23333,2161
42.24167,2161
42.25000,2162
42.25833,2162
42.26667,2163
42.27500,2163
42.28333,2164
42.29167,2164
42.30000,2165
42.30833,2165
42.31667,2166
42.32500,2166
42.33333,2167
42.34167,2167
42.35000,2168
42.35833,2168
42.36667,2169
42.37500,2169
42.38333,2170
42.39167,2170
42.40000,2170
42.40833,2171
42.41667,2171
42.42500,2172
42.43333,2173
42.44167,2173
42.45000,2173
42.45833,2174
42.46667,2174
42.47500,2175
42.48333,2175
42.49167,2176
42.50000,2176
42.50833,2177
42.51667,2177
42.52500,2178
42.53333,2178
42.54167,2178
42.55000,2179
42.55833,2179
42.56667,2179
42.57500,2180
42.58333,2180
42.59167,2181
42.60000,2182
42.60833,2183
42.61667,2183
42.62500,2184
42.63333,2184
42.64167,2185
42.65000,2185
42.65833,2186
42.66667,2186
42.67500,2186
42.68333,2187
42.69167,2187
42.70000,2187
42.70833,2188
42.71667,2188
42.72500,2189
42.73333,2189
42.74167,2190
42.75000,2190
42.75833,2191
42.76667,2191
42.77500,2192
42.78333,2192
42.79167,2192
42.80000,2193
42.80833,2193
42.81667,2193
42.82500,2194
42.83333,2195
42.84167,2196
42.85000,2196
42.85833,2197
42.86667,2197
42.87500,2198
42.88333,2198
42.89167,2198
42.90000,2199
42.90833,2199
42.91667,2200
42.92500,2200
42.93333,2200
42.94167,2201
42.95000,2201
42.95833,2201
42.96667,2202
42.97500,2203
42.98333,2203
42.99167,2204
43.00000,2204
43.00833,2205
43.01667,2205
43.02500,2206
43.03333,2206
43.04167,2207
43.05000,2207
43.05833,2208
43.06667,2208
43.07500,2208
43.08333,2208
43.09167,2209
43.10000,2210
43.10833,2210
43.11667,2211
43.12500,2211
43.13333,2211
43.14167,2211
43.15000,2212
43.15833,2212
43.16667,2213
43.17500,2213
43.18333,2214
43.19167,2215
43.20000,2215
43.20833,2216
43.21667,2216
43.22500,2216
43.23333,2216
43.24167,2216
43.25000,2217
43.25833,2218
43.26667,2219
43.27500,2219
43.28333,2219
43.29167,2219
43.30000,2220
43.30833,2220
43.31667,2220
43.32500,2221
43.33333,2221
43.34167,2222
43.35000,2222
43.35833,2223
43.36667,2224
43.37500,2225
43.38333,2225
43.39167,2225
43.40000,2226
43.40833,2226
43.41667,2227
43.42500,2227
43.43333,2228
43.44167,2228
43.45000,2229
43.45833,2229
43.46667,2230
43.47500,2231
43.48333,2231
43.49167,2232
43.50000,2232
43.50833,2233
43.51667,2233
43.52500,2233
43.53333,2233
43.54167,2234
43.55000,2234
43.55833,2235
43.56667,2235
43.57500,2236
43.58333,2236
43.59167,2237
43.60000,2238
43.60833,2238
43.61667,2239
43.62500,2239
43.63333,2240
43.64167,2240
43.65000,2241
43.65833,2241
43.66667,2241
43.67500,2241
43.68333,2242
43.69167,2242
43.70000,2243
43.70833,2243
43.71667,2244
43.72500,2245
43.73333,2245
43.74167,2245
43.75000,2245
43.75833,2246
43.76667,2246
43.77500,2247
43.78333,2248
43.79167,2249
43.80000,2249
43.80833,2249
43.81667,2249
43.82500,2249
43.83333,2250
43.84167,2250
43.85000,2251
43.85833,2252
43.86667,2252
43.87500,2253
43.88333,2253
43.89167,2253
43.90000,2254
43.90833,2254
43.91667,2255
43.92500,2255
43.93333,2255
43.94167,2256
43.95000,2257
43.95833,2257
43.96667,2257
43.97500,2258
43.98333,2258
43.99167,2259
44.00000,2259
44.00833,2260
44.01667,2260
44.02500,2260
44.03333,2261
44.04167,2261
44.05000,2262
44.05833,2262
44.06667,2262
44.07500,2263
44.08333,2263
44.09167,2264
44.10000,2264
44.10833,2264
44.11667,2265
44.12500,2265
44.13333,2266
44.14167,2266
44.15000,2267
44.15833,2268
44.16667,2268
44.17500,2269
44.18333,2269
44.19167,2269
44.20000,2270
44.20833,2270
44.21667,2271
44.22500,2271
44.23333,2272
44.24167,2272
44.25000,2273
44.25833,2273
44.26667,2274
44.27500,2274
44.28333,2275
44.29167,2275
44.30000,2276
44.30833,2276
44.31667,2277
44.32500,2277
44.33333,2278
44.34167,2278
44.35000,2278
44.35833,2279
44.36667,2279
44.37500,2280
44.38333,2280
44.39167,2281
44.40000,2281
44.40833,2281
44.41667,2281
44.42500,2282
44.43333,2282
44.44167,2283
44.45000,2283
44.45833,2284
44.46667,2285
44.47500,2285
44.48333,2286
44.49167,2286
44.50000,2286
44.50833,2286
44.51667,2287
44.52500,2287
44.53333,2287
44.54167,2288
44.55000,2289
44.55833,2290
44.56667,2290
44.57500,2291
44.58333,2291
44.59167,2292
44.60000,2292
44.60833,2293
44.61667,2293
44.62500,2293
44.63333,2294
44.64167,2294
44.65000,2295
44.65833,2295
44.66667,2296
44.67500,2296
44.68333,2297
44.69167,2298
44.70000,2298
44.70833,2299
44.71667,2300
44.72500,2300
44.73333,2300
44.74167,2300
44.75000,2301
44.75833,2301
44.76667,2301
44.77500,2302
44.78333,2302
44.79167,2303
44.80000,2303
44.80833,2303
44.81667,2303
44.82500,2304
44.83333,2304
44.84167,2305
44.85000,2305
44.85833,2306
44.86667,2306
44.87500,2307
44.88333,2308
44.89167,2308
44.90000,2309
44.90833,2310
44.91667,2310
44.92500,2310
44.93333,2310
44.94167,2311
44.95000,2311
44.95833,2311
44.96667,2312
44.97500,2312
44.98333,2312
44.99167,2313
45.00000,2313

