[Header]
Application Name,LabSolutions
Version,5.97 SP1
Data File Name,C:\Users\cremerlab\Desktop\batch_template_3182021_001_005.lcd
Output Date,3/18/2021
Output Time,3:15:20 PM

[File Information]
Type,Data File
Generated,3/18/2021 2:30:00 PM
Generated by,System Administrator
Modified,3/18/2021 3:15:20 PM
Modified by,System Administrator

[Sample Information]
Operator Name,System Administrator
Acquired,3/18/2021 2:30:19 PM
Sample Type,1:Standard
Level,1
Sample Name,2021-03-18_NaCl001
Sample ID,001
ISTD Amount1,1
ISTD Amount2,1
ISTD Amount3,1
ISTD Amount4,1
ISTD Amount5,1
ISTD Amount6,1
ISTD Amount7,1
ISTD Amount8,1
ISTD Amount9,1
ISTD Amount10,1
ISTD Amount11,1
ISTD Amount12,1
ISTD Amount13,1
ISTD Amount14,1
ISTD Amount15,1
ISTD Amount16,1
ISTD Amount17,1
ISTD Amount18,1
ISTD Amount19,1
ISTD Amount20,1
ISTD Amount21,1
ISTD Amount22,1
ISTD Amount23,1
ISTD Amount24,1
ISTD Amount25,1
ISTD Amount26,1
ISTD Amount27,1
ISTD Amount28,1
ISTD Amount29,1
ISTD Amount30,1
ISTD Amount31,1
ISTD Amount32,1
Sample Amount,1
Dilution Factor,1
Vial#,5
Injection Volume,20

[Original Files]
Data File,C:\Users\cremerlab\Desktop\batch_template_3182021_001_005.lcd
Method File,C:\LabSolutions\Data\Project1\organicacidsetc2.lcm
Batch File,C:\Users\cremerlab\Desktop\batch_template.lcb
Report Format File,c:\LabSolutions\System\DEFAULT.lsr

[File Description]


[Configuration]
Instrument Name,HPLC-PC-Instrument1
Instrument #,1
Line #,1
# of Detectors,2
Detector ID,Detector A,Detector B
Detector Name,Detector A,Detector B
# of Channels,1,1

[LC Chromatogram(Detector B-Ch1)]
Interval(msec),500
# of Points,5401
Start Time(min),0.000
End Time(min),45.000
Intensity Units,mV
Intensity Multiplier,0.001
R.Time (min),Intensity
0.00000,0
0.00833,0
0.01667,-0
0.02500,-2
0.03333,-7
0.04167,-13
0.05000,-19
0.05833,-24
0.06667,-27
0.07500,-28
0.08333,-27
0.09167,-25
0.10000,-21
0.10833,-18
0.11667,-14
0.12500,-11
0.13333,-8
0.14167,-6
0.15000,-4
0.15833,-2
0.16667,-1
0.17500,-0
0.18333,1
0.19167,1
0.20000,0
0.20833,-0
0.21667,-1
0.22500,-0
0.23333,1
0.24167,2
0.25000,3
0.25833,4
0.26667,5
0.27500,6
0.28333,6
0.29167,6
0.30000,5
0.30833,5
0.31667,4
0.32500,4
0.33333,4
0.34167,4
0.35000,4
0.35833,3
0.36667,3
0.37500,3
0.38333,3
0.39167,3
0.40000,3
0.40833,3
0.41667,3
0.42500,3
0.43333,3
0.44167,3
0.45000,3
0.45833,3
0.46667,3
0.47500,3
0.48333,4
0.49167,4
0.50000,3
0.50833,4
0.51667,4
0.52500,4
0.53333,4
0.54167,5
0.55000,6
0.55833,8
0.56667,9
0.57500,11
0.58333,14
0.59167,16
0.60000,18
0.60833,19
0.61667,20
0.62500,20
0.63333,19
0.64167,18
0.65000,15
0.65833,12
0.66667,9
0.67500,5
0.68333,1
0.69167,-3
0.70000,-7
0.70833,-11
0.71667,-13
0.72500,-16
0.73333,-18
0.74167,-19
0.75000,-19
0.75833,-19
0.76667,-18
0.77500,-18
0.78333,-17
0.79167,-16
0.80000,-14
0.80833,-13
0.81667,-11
0.82500,-10
0.83333,-9
0.84167,-8
0.85000,-7
0.85833,-6
0.86667,-5
0.87500,-4
0.88333,-3
0.89167,-2
0.90000,-1
0.90833,-1
0.91667,-0
0.92500,0
0.93333,1
0.94167,1
0.95000,2
0.95833,2
0.96667,2
0.97500,2
0.98333,2
0.99167,3
1.00000,3
1.00833,3
1.01667,3
1.02500,4
1.03333,4
1.04167,4
1.05000,4
1.05833,4
1.06667,4
1.07500,4
1.08333,4
1.09167,4
1.10000,4
1.10833,5
1.11667,5
1.12500,5
1.13333,6
1.14167,6
1.15000,6
1.15833,6
1.16667,5
1.17500,5
1.18333,5
1.19167,5
1.20000,4
1.20833,4
1.21667,4
1.22500,4
1.23333,4
1.24167,4
1.25000,5
1.25833,5
1.26667,5
1.27500,5
1.28333,5
1.29167,5
1.30000,5
1.30833,5
1.31667,5
1.32500,5
1.33333,5
1.34167,5
1.35000,5
1.35833,4
1.36667,4
1.37500,4
1.38333,4
1.39167,4
1.40000,3
1.40833,3
1.41667,4
1.42500,4
1.43333,4
1.44167,4
1.45000,4
1.45833,4
1.46667,4
1.47500,4
1.48333,4
1.49167,4
1.50000,4
1.50833,4
1.51667,4
1.52500,4
1.53333,4
1.54167,4
1.55000,4
1.55833,4
1.56667,4
1.57500,5
1.58333,5
1.59167,5
1.60000,5
1.60833,5
1.61667,5
1.62500,5
1.63333,5
1.64167,5
1.65000,6
1.65833,6
1.66667,6
1.67500,5
1.68333,5
1.69167,5
1.70000,5
1.70833,5
1.71667,5
1.72500,6
1.73333,6
1.74167,6
1.75000,6
1.75833,6
1.76667,6
1.77500,6
1.78333,6
1.79167,6
1.80000,6
1.80833,6
1.81667,6
1.82500,6
1.83333,6
1.84167,6
1.85000,6
1.85833,6
1.86667,6
1.87500,6
1.88333,6
1.89167,6
1.90000,6
1.90833,6
1.91667,6
1.92500,6
1.93333,6
1.94167,6
1.95000,6
1.95833,6
1.96667,6
1.97500,6
1.98333,6
1.99167,6
2.00000,6
2.00833,6
2.01667,6
2.02500,6
2.03333,6
2.04167,6
2.05000,6
2.05833,5
2.06667,5
2.07500,5
2.08333,5
2.09167,5
2.10000,5
2.10833,5
2.11667,5
2.12500,5
2.13333,5
2.14167,5
2.15000,6
2.15833,6
2.16667,6
2.17500,6
2.18333,6
2.19167,6
2.20000,7
2.20833,6
2.21667,7
2.22500,7
2.23333,7
2.24167,6
2.25000,6
2.25833,6
2.26667,6
2.27500,6
2.28333,6
2.29167,6
2.30000,7
2.30833,7
2.31667,7
2.32500,7
2.33333,7
2.34167,7
2.35000,7
2.35833,7
2.36667,7
2.37500,7
2.38333,7
2.39167,7
2.40000,7
2.40833,7
2.41667,7
2.42500,7
2.43333,7
2.44167,7
2.45000,7
2.45833,7
2.46667,7
2.47500,7
2.48333,7
2.49167,6
2.50000,6
2.50833,6
2.51667,6
2.52500,6
2.53333,6
2.54167,6
2.55000,6
2.55833,6
2.56667,6
2.57500,6
2.58333,6
2.59167,7
2.60000,7
2.60833,7
2.61667,7
2.62500,7
2.63333,7
2.64167,7
2.65000,7
2.65833,7
2.66667,7
2.67500,7
2.68333,7
2.69167,7
2.70000,7
2.70833,7
2.71667,8
2.72500,8
2.73333,8
2.74167,8
2.75000,8
2.75833,8
2.76667,8
2.77500,8
2.78333,8
2.79167,8
2.80000,8
2.80833,8
2.81667,8
2.82500,8
2.83333,8
2.84167,8
2.85000,8
2.85833,8
2.86667,8
2.87500,8
2.88333,8
2.89167,8
2.90000,8
2.90833,8
2.91667,8
2.92500,8
2.93333,8
2.94167,8
2.95000,7
2.95833,7
2.96667,8
2.97500,8
2.98333,8
2.99167,8
3.00000,8
3.00833,8
3.01667,8
3.02500,8
3.03333,8
3.04167,8
3.05000,8
3.05833,8
3.06667,8
3.07500,8
3.08333,8
3.09167,8
3.10000,8
3.10833,8
3.11667,8
3.12500,8
3.13333,8
3.14167,9
3.15000,9
3.15833,9
3.16667,9
3.17500,9
3.18333,9
3.19167,9
3.20000,10
3.20833,10
3.21667,10
3.22500,10
3.23333,10
3.24167,9
3.25000,9
3.25833,9
3.26667,9
3.27500,9
3.28333,9
3.29167,9
3.30000,9
3.30833,9
3.31667,9
3.32500,9
3.33333,10
3.34167,10
3.35000,10
3.35833,10
3.36667,10
3.37500,10
3.38333,9
3.39167,9
3.40000,9
3.40833,10
3.41667,10
3.42500,11
3.43333,11
3.44167,11
3.45000,11
3.45833,11
3.46667,10
3.47500,10
3.48333,10
3.49167,10
3.50000,10
3.50833,10
3.51667,10
3.52500,10
3.53333,10
3.54167,10
3.55000,10
3.55833,10
3.56667,10
3.57500,11
3.58333,11
3.59167,11
3.60000,11
3.60833,11
3.61667,11
3.62500,12
3.63333,12
3.64167,11
3.65000,11
3.65833,11
3.66667,11
3.67500,11
3.68333,11
3.69167,11
3.70000,11
3.70833,12
3.71667,12
3.72500,12
3.73333,11
3.74167,11
3.75000,11
3.75833,11
3.76667,11
3.77500,12
3.78333,12
3.79167,12
3.80000,11
3.80833,11
3.81667,11
3.82500,10
3.83333,10
3.84167,10
3.85000,10
3.85833,10
3.86667,10
3.87500,11
3.88333,11
3.89167,11
3.90000,11
3.90833,11
3.91667,11
3.92500,11
3.93333,11
3.94167,11
3.95000,11
3.95833,11
3.96667,11
3.97500,10
3.98333,10
3.99167,10
4.00000,11
4.00833,11
4.01667,11
4.02500,11
4.03333,10
4.04167,10
4.05000,11
4.05833,11
4.06667,11
4.07500,11
4.08333,11
4.09167,11
4.10000,11
4.10833,11
4.11667,11
4.12500,11
4.13333,11
4.14167,11
4.15000,11
4.15833,11
4.16667,11
4.17500,11
4.18333,11
4.19167,11
4.20000,11
4.20833,12
4.21667,12
4.22500,12
4.23333,11
4.24167,11
4.25000,11
4.25833,11
4.26667,11
4.27500,11
4.28333,11
4.29167,11
4.30000,11
4.30833,11
4.31667,11
4.32500,11
4.33333,11
4.34167,11
4.35000,11
4.35833,11
4.36667,11
4.37500,11
4.38333,11
4.39167,11
4.40000,11
4.40833,11
4.41667,11
4.42500,11
4.43333,11
4.44167,11
4.45000,11
4.45833,11
4.46667,11
4.47500,11
4.48333,11
4.49167,11
4.50000,11
4.50833,11
4.51667,11
4.52500,11
4.53333,11
4.54167,11
4.55000,10
4.55833,10
4.56667,11
4.57500,11
4.58333,11
4.59167,11
4.60000,11
4.60833,11
4.61667,11
4.62500,11
4.63333,11
4.64167,11
4.65000,11
4.65833,11
4.66667,11
4.67500,11
4.68333,11
4.69167,12
4.70000,12
4.70833,12
4.71667,13
4.72500,13
4.73333,12
4.74167,12
4.75000,12
4.75833,12
4.76667,12
4.77500,13
4.78333,13
4.79167,13
4.80000,12
4.80833,12
4.81667,12
4.82500,12
4.83333,12
4.84167,12
4.85000,12
4.85833,12
4.86667,12
4.87500,12
4.88333,12
4.89167,12
4.90000,11
4.90833,11
4.91667,11
4.92500,11
4.93333,11
4.94167,12
4.95000,12
4.95833,12
4.96667,12
4.97500,12
4.98333,12
4.99167,11
5.00000,11
5.00833,11
5.01667,11
5.02500,11
5.03333,11
5.04167,11
5.05000,11
5.05833,11
5.06667,11
5.07500,11
5.08333,11
5.09167,11
5.10000,11
5.10833,11
5.11667,12
5.12500,12
5.13333,11
5.14167,11
5.15000,11
5.15833,11
5.16667,11
5.17500,12
5.18333,12
5.19167,12
5.20000,12
5.20833,12
5.21667,12
5.22500,11
5.23333,11
5.24167,11
5.25000,11
5.25833,11
5.26667,11
5.27500,12
5.28333,12
5.29167,12
5.30000,12
5.30833,12
5.31667,12
5.32500,12
5.33333,12
5.34167,12
5.35000,12
5.35833,11
5.36667,11
5.37500,11
5.38333,11
5.39167,11
5.40000,11
5.40833,11
5.41667,11
5.42500,11
5.43333,11
5.44167,12
5.45000,12
5.45833,12
5.46667,12
5.47500,12
5.48333,11
5.49167,11
5.50000,11
5.50833,11
5.51667,11
5.52500,11
5.53333,11
5.54167,11
5.55000,11
5.55833,10
5.56667,11
5.57500,11
5.58333,12
5.59167,12
5.60000,12
5.60833,11
5.61667,11
5.62500,11
5.63333,11
5.64167,11
5.65000,12
5.65833,12
5.66667,12
5.67500,12
5.68333,12
5.69167,12
5.70000,12
5.70833,12
5.71667,12
5.72500,12
5.73333,12
5.74167,12
5.75000,12
5.75833,12
5.76667,12
5.77500,12
5.78333,12
5.79167,11
5.80000,11
5.80833,11
5.81667,11
5.82500,12
5.83333,12
5.84167,12
5.85000,12
5.85833,12
5.86667,12
5.87500,12
5.88333,12
5.89167,11
5.90000,12
5.90833,12
5.91667,12
5.92500,12
5.93333,12
5.94167,12
5.95000,12
5.95833,12
5.96667,12
5.97500,12
5.98333,12
5.99167,12
6.00000,12
6.00833,12
6.01667,12
6.02500,12
6.03333,12
6.04167,12
6.05000,12
6.05833,12
6.06667,12
6.07500,12
6.08333,12
6.09167,12
6.10000,11
6.10833,11
6.11667,11
6.12500,11
6.13333,11
6.14167,12
6.15000,12
6.15833,12
6.16667,12
6.17500,12
6.18333,12
6.19167,12
6.20000,12
6.20833,12
6.21667,12
6.22500,12
6.23333,12
6.24167,12
6.25000,12
6.25833,13
6.26667,13
6.27500,13
6.28333,13
6.29167,13
6.30000,13
6.30833,13
6.31667,12
6.32500,12
6.33333,12
6.34167,12
6.35000,12
6.35833,11
6.36667,11
6.37500,11
6.38333,11
6.39167,11
6.40000,11
6.40833,11
6.41667,11
6.42500,11
6.43333,11
6.44167,11
6.45000,11
6.45833,11
6.46667,12
6.47500,12
6.48333,12
6.49167,12
6.50000,12
6.50833,11
6.51667,11
6.52500,11
6.53333,11
6.54167,11
6.55000,12
6.55833,12
6.56667,12
6.57500,12
6.58333,11
6.59167,11
6.60000,11
6.60833,11
6.61667,11
6.62500,11
6.63333,11
6.64167,12
6.65000,12
6.65833,11
6.66667,11
6.67500,11
6.68333,11
6.69167,10
6.70000,10
6.70833,10
6.71667,10
6.72500,10
6.73333,10
6.74167,11
6.75000,11
6.75833,11
6.76667,12
6.77500,12
6.78333,13
6.79167,13
6.80000,13
6.80833,12
6.81667,12
6.82500,12
6.83333,12
6.84167,12
6.85000,12
6.85833,12
6.86667,12
6.87500,12
6.88333,12
6.89167,12
6.90000,12
6.90833,12
6.91667,12
6.92500,12
6.93333,13
6.94167,13
6.95000,13
6.95833,13
6.96667,12
6.97500,12
6.98333,12
6.99167,12
7.00000,12
7.00833,12
7.01667,12
7.02500,12
7.03333,12
7.04167,12
7.05000,12
7.05833,13
7.06667,13
7.07500,12
7.08333,12
7.09167,12
7.10000,12
7.10833,13
7.11667,13
7.12500,13
7.13333,12
7.14167,12
7.15000,12
7.15833,12
7.16667,12
7.17500,12
7.18333,12
7.19167,12
7.20000,12
7.20833,12
7.21667,12
7.22500,13
7.23333,13
7.24167,13
7.25000,13
7.25833,13
7.26667,13
7.27500,13
7.28333,13
7.29167,13
7.30000,13
7.30833,13
7.31667,13
7.32500,13
7.33333,13
7.34167,13
7.35000,13
7.35833,13
7.36667,13
7.37500,13
7.38333,13
7.39167,13
7.40000,13
7.40833,13
7.41667,13
7.42500,13
7.43333,13
7.44167,13
7.45000,13
7.45833,13
7.46667,13
7.47500,14
7.48333,14
7.49167,14
7.50000,14
7.50833,14
7.51667,14
7.52500,14
7.53333,14
7.54167,14
7.55000,14
7.55833,14
7.56667,14
7.57500,14
7.58333,14
7.59167,14
7.60000,14
7.60833,14
7.61667,14
7.62500,15
7.63333,15
7.64167,15
7.65000,15
7.65833,14
7.66667,13
7.67500,13
7.68333,13
7.69167,13
7.70000,13
7.70833,13
7.71667,14
7.72500,14
7.73333,14
7.74167,14
7.75000,14
7.75833,14
7.76667,14
7.77500,14
7.78333,14
7.79167,14
7.80000,14
7.80833,14
7.81667,14
7.82500,15
7.83333,15
7.84167,15
7.85000,15
7.85833,15
7.86667,15
7.87500,15
7.88333,15
7.89167,15
7.90000,15
7.90833,15
7.91667,14
7.92500,14
7.93333,14
7.94167,14
7.95000,14
7.95833,14
7.96667,15
7.97500,15
7.98333,15
7.99167,15
8.00000,15
8.00833,15
8.01667,15
8.02500,15
8.03333,15
8.04167,15
8.05000,15
8.05833,15
8.06667,15
8.07500,15
8.08333,14
8.09167,14
8.10000,14
8.10833,15
8.11667,15
8.12500,15
8.13333,15
8.14167,15
8.15000,15
8.15833,15
8.16667,16
8.17500,15
8.18333,15
8.19167,15
8.20000,15
8.20833,15
8.21667,16
8.22500,16
8.23333,16
8.24167,16
8.25000,15
8.25833,15
8.26667,15
8.27500,15
8.28333,15
8.29167,15
8.30000,15
8.30833,15
8.31667,15
8.32500,15
8.33333,15
8.34167,15
8.35000,15
8.35833,15
8.36667,15
8.37500,16
8.38333,16
8.39167,16
8.40000,16
8.40833,16
8.41667,16
8.42500,16
8.43333,15
8.44167,15
8.45000,15
8.45833,15
8.46667,15
8.47500,15
8.48333,16
8.49167,16
8.50000,16
8.50833,16
8.51667,16
8.52500,15
8.53333,15
8.54167,15
8.55000,15
8.55833,15
8.56667,15
8.57500,15
8.58333,15
8.59167,15
8.60000,15
8.60833,15
8.61667,15
8.62500,15
8.63333,15
8.64167,15
8.65000,15
8.65833,15
8.66667,15
8.67500,14
8.68333,14
8.69167,14
8.70000,14
8.70833,14
8.71667,14
8.72500,14
8.73333,15
8.74167,15
8.75000,15
8.75833,15
8.76667,15
8.77500,15
8.78333,16
8.79167,16
8.80000,16
8.80833,16
8.81667,16
8.82500,16
8.83333,16
8.84167,16
8.85000,16
8.85833,16
8.86667,16
8.87500,16
8.88333,15
8.89167,15
8.90000,15
8.90833,15
8.91667,15
8.92500,15
8.93333,15
8.94167,15
8.95000,16
8.95833,16
8.96667,16
8.97500,15
8.98333,15
8.99167,15
9.00000,15
9.00833,16
9.01667,16
9.02500,16
9.03333,15
9.04167,15
9.05000,15
9.05833,15
9.06667,15
9.07500,15
9.08333,15
9.09167,15
9.10000,15
9.10833,15
9.11667,15
9.12500,14
9.13333,14
9.14167,14
9.15000,14
9.15833,15
9.16667,15
9.17500,15
9.18333,15
9.19167,14
9.20000,14
9.20833,14
9.21667,14
9.22500,14
9.23333,13
9.24167,13
9.25000,13
9.25833,13
9.26667,13
9.27500,13
9.28333,13
9.29167,13
9.30000,13
9.30833,13
9.31667,13
9.32500,13
9.33333,13
9.34167,13
9.35000,13
9.35833,13
9.36667,13
9.37500,13
9.38333,13
9.39167,12
9.40000,12
9.40833,12
9.41667,12
9.42500,12
9.43333,12
9.44167,12
9.45000,13
9.45833,13
9.46667,13
9.47500,13
9.48333,14
9.49167,14
9.50000,14
9.50833,14
9.51667,13
9.52500,13
9.53333,13
9.54167,13
9.55000,13
9.55833,13
9.56667,13
9.57500,13
9.58333,13
9.59167,13
9.60000,13
9.60833,13
9.61667,13
9.62500,13
9.63333,13
9.64167,13
9.65000,13
9.65833,13
9.66667,13
9.67500,13
9.68333,13
9.69167,12
9.70000,12
9.70833,12
9.71667,12
9.72500,12
9.73333,12
9.74167,12
9.75000,12
9.75833,12
9.76667,12
9.77500,12
9.78333,12
9.79167,12
9.80000,12
9.80833,12
9.81667,12
9.82500,12
9.83333,12
9.84167,12
9.85000,12
9.85833,12
9.86667,12
9.87500,11
9.88333,12
9.89167,12
9.90000,11
9.90833,11
9.91667,11
9.92500,11
9.93333,11
9.94167,10
9.95000,10
9.95833,10
9.96667,10
9.97500,9
9.98333,9
9.99167,9
10.00000,9
10.00833,10
10.01667,10
10.02500,10
10.03333,9
10.04167,9
10.05000,9
10.05833,9
10.06667,9
10.07500,9
10.08333,9
10.09167,9
10.10000,9
10.10833,9
10.11667,8
10.12500,8
10.13333,8
10.14167,7
10.15000,7
10.15833,6
10.16667,6
10.17500,6
10.18333,5
10.19167,5
10.20000,5
10.20833,4
10.21667,4
10.22500,4
10.23333,4
10.24167,4
10.25000,4
10.25833,4
10.26667,4
10.27500,4
10.28333,4
10.29167,4
10.30000,4
10.30833,5
10.31667,5
10.32500,5
10.33333,6
10.34167,7
10.35000,8
10.35833,8
10.36667,9
10.37500,9
10.38333,10
10.39167,11
10.40000,12
10.40833,13
10.41667,14
10.42500,14
10.43333,15
10.44167,16
10.45000,17
10.45833,17
10.46667,18
10.47500,18
10.48333,17
10.49167,17
10.50000,16
10.50833,15
10.51667,14
10.52500,11
10.53333,8
10.54167,4
10.55000,-2
10.55833,-10
10.56667,-20
10.57500,-35
10.58333,-54
10.59167,-78
10.60000,-109
10.60833,-149
10.61667,-199
10.62500,-259
10.63333,-332
10.64167,-420
10.65000,-522
10.65833,-640
10.66667,-774
10.67500,-923
10.68333,-1087
10.69167,-1262
10.70000,-1445
10.70833,-1633
10.71667,-1820
10.72500,-1999
10.73333,-2162
10.74167,-2302
10.75000,-2410
10.75833,-2477
10.76667,-2494
10.77500,-2452
10.78333,-2343
10.79167,-2159
10.80000,-1892
10.80833,-1539
10.81667,-1095
10.82500,-559
10.83333,71
10.84167,791
10.85000,1599
10.85833,2487
10.86667,3448
10.87500,4472
10.88333,5546
10.89167,6657
10.90000,7788
10.90833,8925
10.91667,10049
10.92500,11143
10.93333,12189
10.94167,13171
10.95000,14071
10.95833,14876
10.96667,15573
10.97500,16151
10.98333,16603
10.99167,16922
11.00000,17108
11.00833,17161
11.01667,17085
11.02500,16887
11.03333,16574
11.04167,16158
11.05000,15652
11.05833,15067
11.06667,14418
11.07500,13717
11.08333,12980
11.09167,12219
11.10000,11447
11.10833,10673
11.11667,9908
11.12500,9159
11.13333,8434
11.14167,7739
11.15000,7077
11.15833,6451
11.16667,5864
11.17500,5316
11.18333,4809
11.19167,4340
11.20000,3911
11.20833,3519
11.21667,3162
11.22500,2838
11.23333,2546
11.24167,2283
11.25000,2046
11.25833,1834
11.26667,1644
11.27500,1475
11.28333,1324
11.29167,1190
11.30000,1071
11.30833,966
11.31667,872
11.32500,789
11.33333,715
11.34167,649
11.35000,591
11.35833,539
11.36667,493
11.37500,453
11.38333,417
11.39167,385
11.40000,356
11.40833,330
11.41667,307
11.42500,286
11.43333,268
11.44167,251
11.45000,236
11.45833,222
11.46667,209
11.47500,198
11.48333,187
11.49167,178
11.50000,169
11.50833,161
11.51667,154
11.52500,148
11.53333,141
11.54167,135
11.55000,130
11.55833,125
11.56667,120
11.57500,115
11.58333,111
11.59167,107
11.60000,103
11.60833,99
11.61667,95
11.62500,92
11.63333,88
11.64167,85
11.65000,82
11.65833,79
11.66667,77
11.67500,74
11.68333,71
11.69167,68
11.70000,65
11.70833,62
11.71667,59
11.72500,56
11.73333,54
11.74167,51
11.75000,49
11.75833,46
11.76667,43
11.77500,40
11.78333,37
11.79167,34
11.80000,31
11.80833,29
11.81667,26
11.82500,23
11.83333,21
11.84167,18
11.85000,16
11.85833,13
11.86667,11
11.87500,8
11.88333,6
11.89167,4
11.90000,2
11.90833,-1
11.91667,-3
11.92500,-5
11.93333,-7
11.94167,-9
11.95000,-10
11.95833,-12
11.96667,-14
11.97500,-15
11.98333,-16
11.99167,-17
12.00000,-18
12.00833,-19
12.01667,-20
12.02500,-20
12.03333,-21
12.04167,-21
12.05000,-21
12.05833,-21
12.06667,-21
12.07500,-22
12.08333,-21
12.09167,-21
12.10000,-21
12.10833,-20
12.11667,-20
12.12500,-19
12.13333,-19
12.14167,-18
12.15000,-17
12.15833,-16
12.16667,-16
12.17500,-15
12.18333,-14
12.19167,-12
12.20000,-11
12.20833,-10
12.21667,-9
12.22500,-8
12.23333,-7
12.24167,-6
12.25000,-4
12.25833,-3
12.26667,-2
12.27500,-1
12.28333,-1
12.29167,0
12.30000,1
12.30833,2
12.31667,3
12.32500,3
12.33333,4
12.34167,5
12.35000,6
12.35833,6
12.36667,7
12.37500,7
12.38333,8
12.39167,8
12.40000,9
12.40833,9
12.41667,10
12.42500,10
12.43333,11
12.44167,11
12.45000,12
12.45833,12
12.46667,13
12.47500,13
12.48333,13
12.49167,14
12.50000,14
12.50833,15
12.51667,15
12.52500,15
12.53333,15
12.54167,15
12.55000,15
12.55833,15
12.56667,16
12.57500,16
12.58333,16
12.59167,16
12.60000,16
12.60833,16
12.61667,15
12.62500,15
12.63333,15
12.64167,15
12.65000,15
12.65833,15
12.66667,14
12.67500,14
12.68333,14
12.69167,15
12.70000,15
12.70833,14
12.71667,14
12.72500,14
12.73333,14
12.74167,14
12.75000,14
12.75833,14
12.76667,14
12.77500,14
12.78333,13
12.79167,13
12.80000,13
12.80833,12
12.81667,12
12.82500,11
12.83333,11
12.84167,11
12.85000,11
12.85833,11
12.86667,11
12.87500,11
12.88333,10
12.89167,10
12.90000,10
12.90833,10
12.91667,10
12.92500,10
12.93333,10
12.94167,10
12.95000,10
12.95833,10
12.96667,10
12.97500,10
12.98333,9
12.99167,9
13.00000,9
13.00833,9
13.01667,9
13.02500,8
13.03333,8
13.04167,8
13.05000,7
13.05833,7
13.06667,7
13.07500,7
13.08333,6
13.09167,6
13.10000,6
13.10833,6
13.11667,6
13.12500,6
13.13333,6
13.14167,6
13.15000,6
13.15833,6
13.16667,5
13.17500,5
13.18333,4
13.19167,4
13.20000,4
13.20833,4
13.21667,4
13.22500,4
13.23333,3
13.24167,3
13.25000,3
13.25833,3
13.26667,3
13.27500,2
13.28333,2
13.29167,2
13.30000,1
13.30833,1
13.31667,1
13.32500,1
13.33333,0
13.34167,0
13.35000,0
13.35833,0
13.36667,0
13.37500,0
13.38333,0
13.39167,-0
13.40000,-0
13.40833,-0
13.41667,-1
13.42500,-1
13.43333,-1
13.44167,-1
13.45000,-1
13.45833,-1
13.46667,-1
13.47500,-1
13.48333,-1
13.49167,-1
13.50000,-1
13.50833,-2
13.51667,-2
13.52500,-2
13.53333,-3
13.54167,-3
13.55000,-3
13.55833,-3
13.56667,-3
13.57500,-3
13.58333,-3
13.59167,-3
13.60000,-4
13.60833,-4
13.61667,-4
13.62500,-4
13.63333,-4
13.64167,-4
13.65000,-5
13.65833,-5
13.66667,-5
13.67500,-5
13.68333,-5
13.69167,-5
13.70000,-6
13.70833,-6
13.71667,-6
13.72500,-6
13.73333,-6
13.74167,-6
13.75000,-6
13.75833,-7
13.76667,-7
13.77500,-7
13.78333,-7
13.79167,-7
13.80000,-7
13.80833,-7
13.81667,-7
13.82500,-7
13.83333,-7
13.84167,-7
13.85000,-8
13.85833,-8
13.86667,-8
13.87500,-9
13.88333,-9
13.89167,-10
13.90000,-10
13.90833,-10
13.91667,-10
13.92500,-10
13.93333,-10
13.94167,-10
13.95000,-10
13.95833,-10
13.96667,-10
13.97500,-10
13.98333,-10
13.99167,-10
14.00000,-11
14.00833,-11
14.01667,-11
14.02500,-11
14.03333,-11
14.04167,-11
14.05000,-11
14.05833,-11
14.06667,-11
14.07500,-12
14.08333,-12
14.09167,-12
14.10000,-12
14.10833,-12
14.11667,-12
14.12500,-12
14.13333,-12
14.14167,-11
14.15000,-11
14.15833,-12
14.16667,-12
14.17500,-12
14.18333,-12
14.19167,-12
14.20000,-12
14.20833,-12
14.21667,-11
14.22500,-11
14.23333,-11
14.24167,-11
14.25000,-11
14.25833,-10
14.26667,-10
14.27500,-10
14.28333,-10
14.29167,-9
14.30000,-9
14.30833,-8
14.31667,-8
14.32500,-8
14.33333,-7
14.34167,-7
14.35000,-6
14.35833,-5
14.36667,-4
14.37500,-2
14.38333,-1
14.39167,0
14.40000,2
14.40833,4
14.41667,6
14.42500,8
14.43333,11
14.44167,14
14.45000,16
14.45833,20
14.46667,23
14.47500,26
14.48333,30
14.49167,33
14.50000,36
14.50833,40
14.51667,43
14.52500,46
14.53333,48
14.54167,51
14.55000,53
14.55833,55
14.56667,58
14.57500,60
14.58333,61
14.59167,62
14.60000,63
14.60833,64
14.61667,65
14.62500,65
14.63333,65
14.64167,64
14.65000,64
14.65833,63
14.66667,62
14.67500,61
14.68333,59
14.69167,57
14.70000,55
14.70833,52
14.71667,50
14.72500,47
14.73333,45
14.74167,42
14.75000,40
14.75833,38
14.76667,35
14.77500,33
14.78333,30
14.79167,28
14.80000,26
14.80833,23
14.81667,21
14.82500,19
14.83333,16
14.84167,14
14.85000,13
14.85833,11
14.86667,10
14.87500,8
14.88333,6
14.89167,5
14.90000,3
14.90833,2
14.91667,1
14.92500,-0
14.93333,-1
14.94167,-2
14.95000,-3
14.95833,-3
14.96667,-4
14.97500,-5
14.98333,-6
14.99167,-7
15.00000,-8
15.00833,-8
15.01667,-9
15.02500,-9
15.03333,-10
15.04167,-10
15.05000,-10
15.05833,-10
15.06667,-11
15.07500,-11
15.08333,-12
15.09167,-12
15.10000,-12
15.10833,-12
15.11667,-13
15.12500,-13
15.13333,-13
15.14167,-13
15.15000,-13
15.15833,-13
15.16667,-13
15.17500,-13
15.18333,-13
15.19167,-13
15.20000,-13
15.20833,-13
15.21667,-13
15.22500,-13
15.23333,-13
15.24167,-13
15.25000,-13
15.25833,-13
15.26667,-13
15.27500,-13
15.28333,-12
15.29167,-12
15.30000,-12
15.30833,-12
15.31667,-11
15.32500,-11
15.33333,-11
15.34167,-11
15.35000,-10
15.35833,-10
15.36667,-9
15.37500,-8
15.38333,-8
15.39167,-7
15.40000,-6
15.40833,-5
15.41667,-5
15.42500,-4
15.43333,-3
15.44167,-2
15.45000,-2
15.45833,-1
15.46667,-1
15.47500,-0
15.48333,0
15.49167,0
15.50000,1
15.50833,1
15.51667,1
15.52500,1
15.53333,1
15.54167,1
15.55000,1
15.55833,1
15.56667,1
15.57500,1
15.58333,1
15.59167,1
15.60000,0
15.60833,0
15.61667,-0
15.62500,-1
15.63333,-1
15.64167,-2
15.65000,-3
15.65833,-3
15.66667,-4
15.67500,-5
15.68333,-6
15.69167,-6
15.70000,-7
15.70833,-8
15.71667,-9
15.72500,-10
15.73333,-11
15.74167,-13
15.75000,-14
15.75833,-15
15.76667,-15
15.77500,-16
15.78333,-16
15.79167,-17
15.80000,-18
15.80833,-19
15.81667,-19
15.82500,-20
15.83333,-21
15.84167,-21
15.85000,-21
15.85833,-22
15.86667,-22
15.87500,-23
15.88333,-23
15.89167,-24
15.90000,-25
15.90833,-25
15.91667,-26
15.92500,-26
15.93333,-27
15.94167,-27
15.95000,-28
15.95833,-28
15.96667,-29
15.97500,-29
15.98333,-29
15.99167,-30
16.00000,-30
16.00833,-30
16.01667,-30
16.02500,-31
16.03333,-31
16.04167,-31
16.05000,-31
16.05833,-31
16.06667,-30
16.07500,-30
16.08333,-30
16.09167,-31
16.10000,-31
16.10833,-31
16.11667,-32
16.12500,-32
16.13333,-33
16.14167,-33
16.15000,-34
16.15833,-34
16.16667,-34
16.17500,-34
16.18333,-35
16.19167,-35
16.20000,-35
16.20833,-35
16.21667,-36
16.22500,-36
16.23333,-36
16.24167,-37
16.25000,-37
16.25833,-36
16.26667,-36
16.27500,-36
16.28333,-35
16.29167,-35
16.30000,-35
16.30833,-35
16.31667,-36
16.32500,-36
16.33333,-36
16.34167,-37
16.35000,-37
16.35833,-37
16.36667,-37
16.37500,-37
16.38333,-37
16.39167,-37
16.40000,-37
16.40833,-38
16.41667,-37
16.42500,-37
16.43333,-37
16.44167,-37
16.45000,-38
16.45833,-38
16.46667,-38
16.47500,-38
16.48333,-38
16.49167,-39
16.50000,-39
16.50833,-39
16.51667,-39
16.52500,-39
16.53333,-39
16.54167,-40
16.55000,-40
16.55833,-40
16.56667,-39
16.57500,-39
16.58333,-39
16.59167,-39
16.60000,-39
16.60833,-40
16.61667,-40
16.62500,-40
16.63333,-40
16.64167,-40
16.65000,-40
16.65833,-40
16.66667,-40
16.67500,-40
16.68333,-41
16.69167,-41
16.70000,-41
16.70833,-41
16.71667,-41
16.72500,-41
16.73333,-41
16.74167,-41
16.75000,-41
16.75833,-42
16.76667,-42
16.77500,-42
16.78333,-42
16.79167,-43
16.80000,-43
16.80833,-43
16.81667,-43
16.82500,-43
16.83333,-43
16.84167,-43
16.85000,-43
16.85833,-42
16.86667,-42
16.87500,-42
16.88333,-43
16.89167,-43
16.90000,-43
16.90833,-43
16.91667,-43
16.92500,-43
16.93333,-43
16.94167,-43
16.95000,-43
16.95833,-43
16.96667,-43
16.97500,-43
16.98333,-43
16.99167,-43
17.00000,-43
17.00833,-43
17.01667,-43
17.02500,-43
17.03333,-43
17.04167,-43
17.05000,-43
17.05833,-43
17.06667,-43
17.07500,-43
17.08333,-43
17.09167,-43
17.10000,-43
17.10833,-43
17.11667,-44
17.12500,-44
17.13333,-44
17.14167,-44
17.15000,-44
17.15833,-44
17.16667,-44
17.17500,-44
17.18333,-44
17.19167,-44
17.20000,-44
17.20833,-44
17.21667,-44
17.22500,-44
17.23333,-45
17.24167,-45
17.25000,-46
17.25833,-46
17.26667,-46
17.27500,-46
17.28333,-46
17.29167,-46
17.30000,-46
17.30833,-46
17.31667,-46
17.32500,-46
17.33333,-46
17.34167,-46
17.35000,-46
17.35833,-46
17.36667,-46
17.37500,-46
17.38333,-46
17.39167,-46
17.40000,-46
17.40833,-46
17.41667,-47
17.42500,-47
17.43333,-47
17.44167,-47
17.45000,-47
17.45833,-47
17.46667,-47
17.47500,-47
17.48333,-47
17.49167,-47
17.50000,-48
17.50833,-48
17.51667,-48
17.52500,-48
17.53333,-48
17.54167,-48
17.55000,-48
17.55833,-49
17.56667,-48
17.57500,-48
17.58333,-48
17.59167,-48
17.60000,-48
17.60833,-49
17.61667,-49
17.62500,-49
17.63333,-49
17.64167,-49
17.65000,-48
17.65833,-48
17.66667,-48
17.67500,-49
17.68333,-49
17.69167,-50
17.70000,-50
17.70833,-49
17.71667,-50
17.72500,-50
17.73333,-50
17.74167,-50
17.75000,-50
17.75833,-50
17.76667,-50
17.77500,-50
17.78333,-50
17.79167,-50
17.80000,-50
17.80833,-50
17.81667,-50
17.82500,-50
17.83333,-50
17.84167,-51
17.85000,-51
17.85833,-51
17.86667,-51
17.87500,-50
17.88333,-51
17.89167,-51
17.90000,-51
17.90833,-51
17.91667,-51
17.92500,-51
17.93333,-51
17.94167,-51
17.95000,-52
17.95833,-52
17.96667,-52
17.97500,-53
17.98333,-53
17.99167,-53
18.00000,-53
18.00833,-53
18.01667,-53
18.02500,-53
18.03333,-52
18.04167,-52
18.05000,-52
18.05833,-52
18.06667,-52
18.07500,-52
18.08333,-53
18.09167,-52
18.10000,-52
18.10833,-52
18.11667,-52
18.12500,-52
18.13333,-53
18.14167,-53
18.15000,-54
18.15833,-54
18.16667,-54
18.17500,-53
18.18333,-53
18.19167,-53
18.20000,-53
18.20833,-53
18.21667,-53
18.22500,-53
18.23333,-54
18.24167,-54
18.25000,-54
18.25833,-55
18.26667,-55
18.27500,-55
18.28333,-55
18.29167,-55
18.30000,-55
18.30833,-55
18.31667,-55
18.32500,-55
18.33333,-55
18.34167,-55
18.35000,-55
18.35833,-55
18.36667,-55
18.37500,-55
18.38333,-56
18.39167,-56
18.40000,-55
18.40833,-55
18.41667,-55
18.42500,-55
18.43333,-56
18.44167,-56
18.45000,-56
18.45833,-56
18.46667,-56
18.47500,-56
18.48333,-56
18.49167,-56
18.50000,-56
18.50833,-57
18.51667,-57
18.52500,-57
18.53333,-58
18.54167,-58
18.55000,-58
18.55833,-58
18.56667,-58
18.57500,-58
18.58333,-58
18.59167,-58
18.60000,-58
18.60833,-58
18.61667,-58
18.62500,-58
18.63333,-58
18.64167,-58
18.65000,-59
18.65833,-59
18.66667,-58
18.67500,-58
18.68333,-58
18.69167,-58
18.70000,-58
18.70833,-58
18.71667,-58
18.72500,-58
18.73333,-58
18.74167,-58
18.75000,-59
18.75833,-59
18.76667,-58
18.77500,-59
18.78333,-59
18.79167,-59
18.80000,-59
18.80833,-59
18.81667,-59
18.82500,-59
18.83333,-59
18.84167,-59
18.85000,-59
18.85833,-60
18.86667,-60
18.87500,-60
18.88333,-60
18.89167,-60
18.90000,-60
18.90833,-60
18.91667,-60
18.92500,-60
18.93333,-60
18.94167,-60
18.95000,-60
18.95833,-61
18.96667,-61
18.97500,-61
18.98333,-61
18.99167,-61
19.00000,-61
19.00833,-61
19.01667,-60
19.02500,-60
19.03333,-60
19.04167,-61
19.05000,-61
19.05833,-61
19.06667,-62
19.07500,-62
19.08333,-62
19.09167,-62
19.10000,-62
19.10833,-62
19.11667,-62
19.12500,-62
19.13333,-63
19.14167,-63
19.15000,-63
19.15833,-63
19.16667,-63
19.17500,-62
19.18333,-62
19.19167,-63
19.20000,-63
19.20833,-63
19.21667,-63
19.22500,-63
19.23333,-63
19.24167,-63
19.25000,-63
19.25833,-63
19.26667,-63
19.27500,-63
19.28333,-63
19.29167,-63
19.30000,-63
19.30833,-63
19.31667,-64
19.32500,-63
19.33333,-63
19.34167,-63
19.35000,-63
19.35833,-63
19.36667,-64
19.37500,-64
19.38333,-64
19.39167,-64
19.40000,-65
19.40833,-65
19.41667,-65
19.42500,-65
19.43333,-65
19.44167,-65
19.45000,-65
19.45833,-66
19.46667,-65
19.47500,-65
19.48333,-66
19.49167,-66
19.50000,-66
19.50833,-66
19.51667,-67
19.52500,-67
19.53333,-66
19.54167,-66
19.55000,-66
19.55833,-67
19.56667,-67
19.57500,-67
19.58333,-67
19.59167,-67
19.60000,-67
19.60833,-67
19.61667,-67
19.62500,-67
19.63333,-67
19.64167,-67
19.65000,-67
19.65833,-67
19.66667,-67
19.67500,-67
19.68333,-68
19.69167,-67
19.70000,-67
19.70833,-68
19.71667,-68
19.72500,-68
19.73333,-68
19.74167,-68
19.75000,-68
19.75833,-68
19.76667,-69
19.77500,-69
19.78333,-69
19.79167,-69
19.80000,-69
19.80833,-69
19.81667,-70
19.82500,-70
19.83333,-70
19.84167,-70
19.85000,-69
19.85833,-70
19.86667,-70
19.87500,-70
19.88333,-70
19.89167,-70
19.90000,-70
19.90833,-70
19.91667,-71
19.92500,-71
19.93333,-71
19.94167,-71
19.95000,-71
19.95833,-71
19.96667,-71
19.97500,-72
19.98333,-72
19.99167,-72
20.00000,-72
20.00833,-72
20.01667,-72
20.02500,-72
20.03333,-73
20.04167,-73
20.05000,-73
20.05833,-73
20.06667,-73
20.07500,-73
20.08333,-73
20.09167,-73
20.10000,-73
20.10833,-73
20.11667,-73
20.12500,-73
20.13333,-73
20.14167,-73
20.15000,-74
20.15833,-74
20.16667,-74
20.17500,-74
20.18333,-74
20.19167,-74
20.20000,-74
20.20833,-74
20.21667,-74
20.22500,-75
20.23333,-75
20.24167,-76
20.25000,-76
20.25833,-76
20.26667,-76
20.27500,-76
20.28333,-76
20.29167,-76
20.30000,-76
20.30833,-76
20.31667,-77
20.32500,-77
20.33333,-77
20.34167,-77
20.35000,-77
20.35833,-77
20.36667,-77
20.37500,-77
20.38333,-77
20.39167,-77
20.40000,-77
20.40833,-77
20.41667,-76
20.42500,-77
20.43333,-77
20.44167,-77
20.45000,-77
20.45833,-77
20.46667,-77
20.47500,-78
20.48333,-78
20.49167,-78
20.50000,-78
20.50833,-78
20.51667,-78
20.52500,-78
20.53333,-78
20.54167,-78
20.55000,-78
20.55833,-78
20.56667,-78
20.57500,-78
20.58333,-79
20.59167,-79
20.60000,-79
20.60833,-79
20.61667,-79
20.62500,-79
20.63333,-79
20.64167,-79
20.65000,-79
20.65833,-79
20.66667,-79
20.67500,-79
20.68333,-79
20.69167,-79
20.70000,-80
20.70833,-79
20.71667,-79
20.72500,-79
20.73333,-80
20.74167,-80
20.75000,-80
20.75833,-80
20.76667,-80
20.77500,-80
20.78333,-80
20.79167,-80
20.80000,-80
20.80833,-80
20.81667,-80
20.82500,-80
20.83333,-81
20.84167,-81
20.85000,-81
20.85833,-81
20.86667,-81
20.87500,-81
20.88333,-81
20.89167,-81
20.90000,-81
20.90833,-82
20.91667,-82
20.92500,-82
20.93333,-81
20.94167,-82
20.95000,-82
20.95833,-82
20.96667,-82
20.97500,-82
20.98333,-83
20.99167,-83
21.00000,-84
21.00833,-84
21.01667,-84
21.02500,-83
21.03333,-83
21.04167,-83
21.05000,-83
21.05833,-84
21.06667,-84
21.07500,-83
21.08333,-83
21.09167,-83
21.10000,-84
21.10833,-84
21.11667,-84
21.12500,-84
21.13333,-84
21.14167,-84
21.15000,-84
21.15833,-84
21.16667,-84
21.17500,-84
21.18333,-84
21.19167,-85
21.20000,-85
21.20833,-85
21.21667,-85
21.22500,-85
21.23333,-85
21.24167,-85
21.25000,-85
21.25833,-85
21.26667,-85
21.27500,-85
21.28333,-85
21.29167,-85
21.30000,-85
21.30833,-85
21.31667,-85
21.32500,-85
21.33333,-85
21.34167,-85
21.35000,-85
21.35833,-85
21.36667,-85
21.37500,-85
21.38333,-86
21.39167,-86
21.40000,-87
21.40833,-87
21.41667,-86
21.42500,-86
21.43333,-86
21.44167,-86
21.45000,-87
21.45833,-87
21.46667,-87
21.47500,-87
21.48333,-87
21.49167,-86
21.50000,-86
21.50833,-86
21.51667,-86
21.52500,-86
21.53333,-86
21.54167,-86
21.55000,-86
21.55833,-86
21.56667,-86
21.57500,-86
21.58333,-86
21.59167,-86
21.60000,-86
21.60833,-86
21.61667,-87
21.62500,-87
21.63333,-87
21.64167,-87
21.65000,-87
21.65833,-87
21.66667,-87
21.67500,-88
21.68333,-88
21.69167,-87
21.70000,-87
21.70833,-87
21.71667,-87
21.72500,-87
21.73333,-88
21.74167,-88
21.75000,-89
21.75833,-89
21.76667,-89
21.77500,-88
21.78333,-88
21.79167,-88
21.80000,-87
21.80833,-87
21.81667,-88
21.82500,-88
21.83333,-88
21.84167,-88
21.85000,-89
21.85833,-89
21.86667,-89
21.87500,-89
21.88333,-89
21.89167,-89
21.90000,-89
21.90833,-89
21.91667,-89
21.92500,-89
21.93333,-89
21.94167,-89
21.95000,-89
21.95833,-89
21.96667,-89
21.97500,-89
21.98333,-89
21.99167,-89
22.00000,-89
22.00833,-89
22.01667,-89
22.02500,-89
22.03333,-89
22.04167,-89
22.05000,-89
22.05833,-89
22.06667,-89
22.07500,-89
22.08333,-89
22.09167,-89
22.10000,-89
22.10833,-89
22.11667,-89
22.12500,-89
22.13333,-89
22.14167,-89
22.15000,-90
22.15833,-90
22.16667,-90
22.17500,-90
22.18333,-90
22.19167,-90
22.20000,-90
22.20833,-90
22.21667,-90
22.22500,-90
22.23333,-91
22.24167,-90
22.25000,-90
22.25833,-90
22.26667,-90
22.27500,-90
22.28333,-90
22.29167,-90
22.30000,-91
22.30833,-91
22.31667,-90
22.32500,-90
22.33333,-91
22.34167,-91
22.35000,-91
22.35833,-91
22.36667,-91
22.37500,-90
22.38333,-91
22.39167,-91
22.40000,-91
22.40833,-91
22.41667,-92
22.42500,-92
22.43333,-92
22.44167,-92
22.45000,-92
22.45833,-92
22.46667,-92
22.47500,-92
22.48333,-92
22.49167,-92
22.50000,-92
22.50833,-92
22.51667,-92
22.52500,-92
22.53333,-92
22.54167,-92
22.55000,-92
22.55833,-92
22.56667,-92
22.57500,-92
22.58333,-92
22.59167,-92
22.60000,-92
22.60833,-92
22.61667,-92
22.62500,-92
22.63333,-93
22.64167,-93
22.65000,-93
22.65833,-93
22.66667,-93
22.67500,-93
22.68333,-93
22.69167,-93
22.70000,-93
22.70833,-93
22.71667,-93
22.72500,-93
22.73333,-93
22.74167,-93
22.75000,-94
22.75833,-94
22.76667,-94
22.77500,-94
22.78333,-94
22.79167,-94
22.80000,-94
22.80833,-94
22.81667,-94
22.82500,-95
22.83333,-95
22.84167,-95
22.85000,-95
22.85833,-95
22.86667,-95
22.87500,-96
22.88333,-96
22.89167,-96
22.90000,-96
22.90833,-96
22.91667,-96
22.92500,-96
22.93333,-96
22.94167,-96
22.95000,-96
22.95833,-96
22.96667,-96
22.97500,-96
22.98333,-97
22.99167,-97
23.00000,-97
23.00833,-97
23.01667,-97
23.02500,-97
23.03333,-96
23.04167,-96
23.05000,-97
23.05833,-97
23.06667,-97
23.07500,-97
23.08333,-97
23.09167,-97
23.10000,-97
23.10833,-97
23.11667,-98
23.12500,-98
23.13333,-98
23.14167,-98
23.15000,-98
23.15833,-98
23.16667,-98
23.17500,-98
23.18333,-98
23.19167,-98
23.20000,-98
23.20833,-98
23.21667,-98
23.22500,-98
23.23333,-98
23.24167,-98
23.25000,-98
23.25833,-99
23.26667,-99
23.27500,-99
23.28333,-99
23.29167,-99
23.30000,-100
23.30833,-100
23.31667,-100
23.32500,-100
23.33333,-99
23.34167,-99
23.35000,-99
23.35833,-99
23.36667,-100
23.37500,-100
23.38333,-101
23.39167,-101
23.40000,-101
23.40833,-101
23.41667,-101
23.42500,-101
23.43333,-101
23.44167,-101
23.45000,-101
23.45833,-101
23.46667,-101
23.47500,-102
23.48333,-102
23.49167,-102
23.50000,-103
23.50833,-103
23.51667,-103
23.52500,-103
23.53333,-103
23.54167,-103
23.55000,-103
23.55833,-103
23.56667,-103
23.57500,-103
23.58333,-103
23.59167,-103
23.60000,-103
23.60833,-104
23.61667,-104
23.62500,-104
23.63333,-104
23.64167,-104
23.65000,-104
23.65833,-104
23.66667,-104
23.67500,-104
23.68333,-104
23.69167,-105
23.70000,-105
23.70833,-105
23.71667,-105
23.72500,-105
23.73333,-105
23.74167,-105
23.75000,-106
23.75833,-106
23.76667,-106
23.77500,-106
23.78333,-106
23.79167,-106
23.80000,-106
23.80833,-106
23.81667,-106
23.82500,-107
23.83333,-107
23.84167,-107
23.85000,-107
23.85833,-107
23.86667,-107
23.87500,-107
23.88333,-107
23.89167,-107
23.90000,-107
23.90833,-107
23.91667,-107
23.92500,-107
23.93333,-107
23.94167,-107
23.95000,-107
23.95833,-108
23.96667,-108
23.97500,-108
23.98333,-108
23.99167,-108
24.00000,-108
24.00833,-108
24.01667,-108
24.02500,-108
24.03333,-109
24.04167,-109
24.05000,-109
24.05833,-109
24.06667,-109
24.07500,-110
24.08333,-110
24.09167,-111
24.10000,-111
24.10833,-110
24.11667,-110
24.12500,-110
24.13333,-110
24.14167,-110
24.15000,-110
24.15833,-110
24.16667,-111
24.17500,-111
24.18333,-111
24.19167,-111
24.20000,-111
24.20833,-111
24.21667,-111
24.22500,-112
24.23333,-112
24.24167,-112
24.25000,-112
24.25833,-113
24.26667,-113
24.27500,-113
24.28333,-113
24.29167,-113
24.30000,-113
24.30833,-113
24.31667,-113
24.32500,-113
24.33333,-113
24.34167,-113
24.35000,-113
24.35833,-113
24.36667,-114
24.37500,-114
24.38333,-115
24.39167,-115
24.40000,-115
24.40833,-115
24.41667,-115
24.42500,-115
24.43333,-115
24.44167,-115
24.45000,-115
24.45833,-116
24.46667,-116
24.47500,-116
24.48333,-116
24.49167,-116
24.50000,-116
24.50833,-116
24.51667,-116
24.52500,-116
24.53333,-116
24.54167,-116
24.55000,-116
24.55833,-116
24.56667,-116
24.57500,-116
24.58333,-117
24.59167,-117
24.60000,-118
24.60833,-118
24.61667,-118
24.62500,-118
24.63333,-118
24.64167,-118
24.65000,-118
24.65833,-118
24.66667,-118
24.67500,-118
24.68333,-117
24.69167,-117
24.70000,-117
24.70833,-118
24.71667,-118
24.72500,-118
24.73333,-119
24.74167,-119
24.75000,-119
24.75833,-119
24.76667,-119
24.77500,-119
24.78333,-119
24.79167,-119
24.80000,-120
24.80833,-120
24.81667,-120
24.82500,-120
24.83333,-120
24.84167,-120
24.85000,-120
24.85833,-120
24.86667,-120
24.87500,-120
24.88333,-119
24.89167,-119
24.90000,-119
24.90833,-120
24.91667,-120
24.92500,-120
24.93333,-120
24.94167,-120
24.95000,-120
24.95833,-121
24.96667,-121
24.97500,-121
24.98333,-121
24.99167,-122
25.00000,-122
25.00833,-122
25.01667,-122
25.02500,-122
25.03333,-122
25.04167,-122
25.05000,-122
25.05833,-123
25.06667,-123
25.07500,-123
25.08333,-123
25.09167,-123
25.10000,-123
25.10833,-124
25.11667,-124
25.12500,-124
25.13333,-124
25.14167,-125
25.15000,-125
25.15833,-125
25.16667,-124
25.17500,-124
25.18333,-124
25.19167,-125
25.20000,-125
25.20833,-125
25.21667,-126
25.22500,-126
25.23333,-125
25.24167,-126
25.25000,-126
25.25833,-125
25.26667,-126
25.27500,-126
25.28333,-126
25.29167,-126
25.30000,-126
25.30833,-127
25.31667,-127
25.32500,-127
25.33333,-127
25.34167,-127
25.35000,-127
25.35833,-127
25.36667,-127
25.37500,-127
25.38333,-127
25.39167,-127
25.40000,-127
25.40833,-127
25.41667,-127
25.42500,-128
25.43333,-128
25.44167,-128
25.45000,-128
25.45833,-128
25.46667,-128
25.47500,-128
25.48333,-129
25.49167,-129
25.50000,-129
25.50833,-129
25.51667,-129
25.52500,-129
25.53333,-130
25.54167,-130
25.55000,-130
25.55833,-130
25.56667,-130
25.57500,-130
25.58333,-130
25.59167,-130
25.60000,-130
25.60833,-130
25.61667,-130
25.62500,-130
25.63333,-130
25.64167,-130
25.65000,-130
25.65833,-130
25.66667,-130
25.67500,-131
25.68333,-131
25.69167,-131
25.70000,-131
25.70833,-131
25.71667,-132
25.72500,-132
25.73333,-132
25.74167,-132
25.75000,-132
25.75833,-132
25.76667,-132
25.77500,-132
25.78333,-132
25.79167,-132
25.80000,-132
25.80833,-132
25.81667,-133
25.82500,-133
25.83333,-133
25.84167,-134
25.85000,-134
25.85833,-134
25.86667,-133
25.87500,-133
25.88333,-133
25.89167,-133
25.90000,-134
25.90833,-134
25.91667,-134
25.92500,-135
25.93333,-135
25.94167,-135
25.95000,-135
25.95833,-135
25.96667,-135
25.97500,-135
25.98333,-135
25.99167,-135
26.00000,-135
26.00833,-135
26.01667,-135
26.02500,-136
26.03333,-136
26.04167,-136
26.05000,-136
26.05833,-136
26.06667,-136
26.07500,-136
26.08333,-137
26.09167,-137
26.10000,-137
26.10833,-137
26.11667,-137
26.12500,-137
26.13333,-137
26.14167,-138
26.15000,-138
26.15833,-138
26.16667,-138
26.17500,-138
26.18333,-139
26.19167,-139
26.20000,-139
26.20833,-139
26.21667,-139
26.22500,-139
26.23333,-139
26.24167,-139
26.25000,-140
26.25833,-140
26.26667,-140
26.27500,-140
26.28333,-139
26.29167,-140
26.30000,-140
26.30833,-140
26.31667,-140
26.32500,-141
26.33333,-141
26.34167,-141
26.35000,-141
26.35833,-141
26.36667,-142
26.37500,-142
26.38333,-142
26.39167,-142
26.40000,-142
26.40833,-142
26.41667,-142
26.42500,-142
26.43333,-142
26.44167,-142
26.45000,-142
26.45833,-142
26.46667,-142
26.47500,-142
26.48333,-142
26.49167,-143
26.50000,-143
26.50833,-144
26.51667,-144
26.52500,-144
26.53333,-143
26.54167,-143
26.55000,-143
26.55833,-144
26.56667,-144
26.57500,-144
26.58333,-144
26.59167,-144
26.60000,-145
26.60833,-145
26.61667,-145
26.62500,-145
26.63333,-145
26.64167,-145
26.65000,-145
26.65833,-145
26.66667,-145
26.67500,-145
26.68333,-146
26.69167,-146
26.70000,-146
26.70833,-146
26.71667,-145
26.72500,-145
26.73333,-145
26.74167,-145
26.75000,-146
26.75833,-146
26.76667,-146
26.77500,-146
26.78333,-146
26.79167,-146
26.80000,-146
26.80833,-147
26.81667,-147
26.82500,-147
26.83333,-148
26.84167,-148
26.85000,-148
26.85833,-148
26.86667,-148
26.87500,-148
26.88333,-148
26.89167,-148
26.90000,-148
26.90833,-148
26.91667,-148
26.92500,-148
26.93333,-149
26.94167,-149
26.95000,-149
26.95833,-150
26.96667,-150
26.97500,-150
26.98333,-150
26.99167,-150
27.00000,-150
27.00833,-149
27.01667,-149
27.02500,-149
27.03333,-149
27.04167,-149
27.05000,-150
27.05833,-150
27.06667,-149
27.07500,-149
27.08333,-149
27.09167,-149
27.10000,-149
27.10833,-150
27.11667,-150
27.12500,-151
27.13333,-151
27.14167,-152
27.15000,-152
27.15833,-152
27.16667,-152
27.17500,-152
27.18333,-152
27.19167,-152
27.20000,-152
27.20833,-152
27.21667,-152
27.22500,-152
27.23333,-152
27.24167,-152
27.25000,-153
27.25833,-153
27.26667,-153
27.27500,-153
27.28333,-153
27.29167,-153
27.30000,-153
27.30833,-154
27.31667,-154
27.32500,-154
27.33333,-154
27.34167,-154
27.35000,-154
27.35833,-154
27.36667,-154
27.37500,-154
27.38333,-155
27.39167,-155
27.40000,-155
27.40833,-155
27.41667,-155
27.42500,-155
27.43333,-156
27.44167,-156
27.45000,-156
27.45833,-156
27.46667,-156
27.47500,-156
27.48333,-156
27.49167,-156
27.50000,-156
27.50833,-156
27.51667,-157
27.52500,-157
27.53333,-157
27.54167,-157
27.55000,-157
27.55833,-157
27.56667,-157
27.57500,-158
27.58333,-158
27.59167,-158
27.60000,-158
27.60833,-159
27.61667,-159
27.62500,-159
27.63333,-159
27.64167,-160
27.65000,-160
27.65833,-161
27.66667,-161
27.67500,-161
27.68333,-161
27.69167,-161
27.70000,-162
27.70833,-162
27.71667,-162
27.72500,-163
27.73333,-164
27.74167,-164
27.75000,-165
27.75833,-166
27.76667,-167
27.77500,-168
27.78333,-169
27.79167,-170
27.80000,-171
27.80833,-172
27.81667,-173
27.82500,-175
27.83333,-176
27.84167,-178
27.85000,-180
27.85833,-182
27.86667,-183
27.87500,-185
27.88333,-188
27.89167,-190
27.90000,-193
27.90833,-197
27.91667,-201
27.92500,-205
27.93333,-209
27.94167,-213
27.95000,-218
27.95833,-223
27.96667,-229
27.97500,-234
27.98333,-240
27.99167,-247
28.00000,-254
28.00833,-261
28.01667,-270
28.02500,-279
28.03333,-288
28.04167,-298
28.05000,-308
28.05833,-319
28.06667,-330
28.07500,-343
28.08333,-356
28.09167,-370
28.10000,-384
28.10833,-399
28.11667,-414
28.12500,-430
28.13333,-448
28.14167,-466
28.15000,-485
28.15833,-504
28.16667,-524
28.17500,-544
28.18333,-566
28.19167,-588
28.20000,-611
28.20833,-635
28.21667,-659
28.22500,-684
28.23333,-710
28.24167,-736
28.25000,-762
28.25833,-789
28.26667,-816
28.27500,-844
28.28333,-872
28.29167,-901
28.30000,-929
28.30833,-958
28.31667,-988
28.32500,-1018
28.33333,-1048
28.34167,-1077
28.35000,-1106
28.35833,-1135
28.36667,-1163
28.37500,-1191
28.38333,-1219
28.39167,-1247
28.40000,-1274
28.40833,-1300
28.41667,-1325
28.42500,-1350
28.43333,-1375
28.44167,-1398
28.45000,-1420
28.45833,-1442
28.46667,-1463
28.47500,-1482
28.48333,-1501
28.49167,-1518
28.50000,-1535
28.50833,-1550
28.51667,-1564
28.52500,-1577
28.53333,-1588
28.54167,-1599
28.55000,-1609
28.55833,-1617
28.56667,-1624
28.57500,-1630
28.58333,-1634
28.59167,-1637
28.60000,-1639
28.60833,-1640
28.61667,-1639
28.62500,-1638
28.63333,-1635
28.64167,-1632
28.65000,-1628
28.65833,-1623
28.66667,-1617
28.67500,-1610
28.68333,-1602
28.69167,-1593
28.70000,-1584
28.70833,-1574
28.71667,-1564
28.72500,-1553
28.73333,-1542
28.74167,-1530
28.75000,-1518
28.75833,-1505
28.76667,-1492
28.77500,-1479
28.78333,-1465
28.79167,-1452
28.80000,-1438
28.80833,-1424
28.81667,-1410
28.82500,-1396
28.83333,-1382
28.84167,-1369
28.85000,-1355
28.85833,-1342
28.86667,-1328
28.87500,-1315
28.88333,-1302
28.89167,-1288
28.90000,-1276
28.90833,-1263
28.91667,-1251
28.92500,-1239
28.93333,-1227
28.94167,-1216
28.95000,-1205
28.95833,-1194
28.96667,-1183
28.97500,-1173
28.98333,-1163
28.99167,-1153
29.00000,-1144
29.00833,-1135
29.01667,-1125
29.02500,-1117
29.03333,-1108
29.04167,-1100
29.05000,-1092
29.05833,-1085
29.06667,-1077
29.07500,-1071
29.08333,-1064
29.09167,-1057
29.10000,-1051
29.10833,-1045
29.11667,-1040
29.12500,-1035
29.13333,-1030
29.14167,-1024
29.15000,-1019
29.15833,-1015
29.16667,-1010
29.17500,-1006
29.18333,-1001
29.19167,-997
29.20000,-993
29.20833,-989
29.21667,-985
29.22500,-981
29.23333,-978
29.24167,-974
29.25000,-971
29.25833,-967
29.26667,-964
29.27500,-961
29.28333,-958
29.29167,-955
29.30000,-952
29.30833,-949
29.31667,-946
29.32500,-943
29.33333,-941
29.34167,-938
29.35000,-935
29.35833,-933
29.36667,-931
29.37500,-928
29.38333,-926
29.39167,-923
29.40000,-921
29.40833,-919
29.41667,-917
29.42500,-914
29.43333,-912
29.44167,-910
29.45000,-908
29.45833,-906
29.46667,-904
29.47500,-902
29.48333,-900
29.49167,-898
29.50000,-896
29.50833,-893
29.51667,-891
29.52500,-889
29.53333,-887
29.54167,-886
29.55000,-884
29.55833,-882
29.56667,-881
29.57500,-880
29.58333,-878
29.59167,-877
29.60000,-875
29.60833,-874
29.61667,-872
29.62500,-871
29.63333,-870
29.64167,-868
29.65000,-867
29.65833,-866
29.66667,-865
29.67500,-864
29.68333,-863
29.69167,-863
29.70000,-862
29.70833,-862
29.71667,-862
29.72500,-862
29.73333,-862
29.74167,-862
29.75000,-862
29.75833,-862
29.76667,-863
29.77500,-864
29.78333,-865
29.79167,-867
29.80000,-868
29.80833,-870
29.81667,-872
29.82500,-873
29.83333,-876
29.84167,-878
29.85000,-880
29.85833,-883
29.86667,-885
29.87500,-888
29.88333,-892
29.89167,-896
29.90000,-900
29.90833,-904
29.91667,-908
29.92500,-913
29.93333,-917
29.94167,-922
29.95000,-927
29.95833,-933
29.96667,-938
29.97500,-944
29.98333,-950
29.99167,-956
30.00000,-962
30.00833,-969
30.01667,-975
30.02500,-982
30.03333,-988
30.04167,-995
30.05000,-1002
30.05833,-1008
30.06667,-1015
30.07500,-1022
30.08333,-1029
30.09167,-1036
30.10000,-1043
30.10833,-1050
30.11667,-1057
30.12500,-1063
30.13333,-1070
30.14167,-1077
30.15000,-1083
30.15833,-1089
30.16667,-1095
30.17500,-1101
30.18333,-1106
30.19167,-1112
30.20000,-1117
30.20833,-1122
30.21667,-1126
30.22500,-1130
30.23333,-1134
30.24167,-1138
30.25000,-1142
30.25833,-1145
30.26667,-1148
30.27500,-1150
30.28333,-1153
30.29167,-1155
30.30000,-1156
30.30833,-1157
30.31667,-1158
30.32500,-1159
30.33333,-1159
30.34167,-1158
30.35000,-1157
30.35833,-1156
30.36667,-1155
30.37500,-1153
30.38333,-1151
30.39167,-1149
30.40000,-1147
30.40833,-1144
30.41667,-1141
30.42500,-1137
30.43333,-1133
30.44167,-1129
30.45000,-1125
30.45833,-1120
30.46667,-1116
30.47500,-1111
30.48333,-1106
30.49167,-1100
30.50000,-1095
30.50833,-1090
30.51667,-1084
30.52500,-1078
30.53333,-1072
30.54167,-1066
30.55000,-1060
30.55833,-1054
30.56667,-1048
30.57500,-1041
30.58333,-1035
30.59167,-1028
30.60000,-1022
30.60833,-1015
30.61667,-1009
30.62500,-1002
30.63333,-996
30.64167,-990
30.65000,-984
30.65833,-977
30.66667,-971
30.67500,-965
30.68333,-959
30.69167,-953
30.70000,-947
30.70833,-941
30.71667,-935
30.72500,-930
30.73333,-924
30.74167,-919
30.75000,-913
30.75833,-908
30.76667,-904
30.77500,-899
30.78333,-894
30.79167,-889
30.80000,-885
30.80833,-880
30.81667,-876
30.82500,-872
30.83333,-867
30.84167,-863
30.85000,-858
30.85833,-855
30.86667,-851
30.87500,-847
30.88333,-844
30.89167,-840
30.90000,-837
30.90833,-833
30.91667,-830
30.92500,-826
30.93333,-823
30.94167,-820
30.95000,-817
30.95833,-814
30.96667,-812
30.97500,-809
30.98333,-806
30.99167,-803
31.00000,-801
31.00833,-799
31.01667,-796
31.02500,-794
31.03333,-792
31.04167,-790
31.05000,-788
31.05833,-786
31.06667,-784
31.07500,-781
31.08333,-779
31.09167,-777
31.10000,-776
31.10833,-774
31.11667,-773
31.12500,-771
31.13333,-768
31.14167,-767
31.15000,-765
31.15833,-763
31.16667,-762
31.17500,-760
31.18333,-759
31.19167,-757
31.20000,-756
31.20833,-754
31.21667,-752
31.22500,-750
31.23333,-749
31.24167,-748
31.25000,-747
31.25833,-746
31.26667,-745
31.27500,-743
31.28333,-742
31.29167,-741
31.30000,-740
31.30833,-738
31.31667,-737
31.32500,-736
31.33333,-734
31.34167,-733
31.35000,-732
31.35833,-730
31.36667,-729
31.37500,-727
31.38333,-726
31.39167,-725
31.40000,-724
31.40833,-722
31.41667,-721
31.42500,-719
31.43333,-718
31.44167,-717
31.45000,-716
31.45833,-715
31.46667,-714
31.47500,-713
31.48333,-712
31.49167,-711
31.50000,-710
31.50833,-709
31.51667,-708
31.52500,-707
31.53333,-706
31.54167,-705
31.55000,-704
31.55833,-703
31.56667,-703
31.57500,-702
31.58333,-701
31.59167,-701
31.60000,-700
31.60833,-699
31.61667,-697
31.62500,-697
31.63333,-696
31.64167,-695
31.65000,-694
31.65833,-693
31.66667,-692
31.67500,-692
31.68333,-691
31.69167,-690
31.70000,-689
31.70833,-689
31.71667,-688
31.72500,-687
31.73333,-686
31.74167,-685
31.75000,-684
31.75833,-683
31.76667,-683
31.77500,-682
31.78333,-681
31.79167,-680
31.80000,-679
31.80833,-679
31.81667,-678
31.82500,-678
31.83333,-678
31.84167,-677
31.85000,-677
31.85833,-677
31.86667,-676
31.87500,-676
31.88333,-675
31.89167,-674
31.90000,-674
31.90833,-673
31.91667,-673
31.92500,-673
31.93333,-672
31.94167,-672
31.95000,-672
31.95833,-671
31.96667,-670
31.97500,-670
31.98333,-669
31.99167,-668
32.00000,-668
32.00833,-667
32.01667,-667
32.02500,-666
32.03333,-666
32.04167,-665
32.05000,-665
32.05833,-665
32.06667,-664
32.07500,-663
32.08333,-663
32.09167,-663
32.10000,-662
32.10833,-662
32.11667,-661
32.12500,-661
32.13333,-660
32.14167,-660
32.15000,-659
32.15833,-659
32.16667,-659
32.17500,-658
32.18333,-657
32.19167,-657
32.20000,-656
32.20833,-656
32.21667,-655
32.22500,-655
32.23333,-654
32.24167,-654
32.25000,-654
32.25833,-653
32.26667,-652
32.27500,-651
32.28333,-651
32.29167,-651
32.30000,-650
32.30833,-650
32.31667,-650
32.32500,-649
32.33333,-649
32.34167,-648
32.35000,-648
32.35833,-648
32.36667,-647
32.37500,-647
32.38333,-646
32.39167,-645
32.40000,-645
32.40833,-645
32.41667,-644
32.42500,-644
32.43333,-643
32.44167,-642
32.45000,-642
32.45833,-641
32.46667,-641
32.47500,-640
32.48333,-640
32.49167,-640
32.50000,-640
32.50833,-639
32.51667,-639
32.52500,-638
32.53333,-638
32.54167,-637
32.55000,-637
32.55833,-636
32.56667,-636
32.57500,-636
32.58333,-635
32.59167,-634
32.60000,-634
32.60833,-633
32.61667,-633
32.62500,-632
32.63333,-630
32.64167,-629
32.65000,-629
32.65833,-628
32.66667,-628
32.67500,-628
32.68333,-627
32.69167,-626
32.70000,-626
32.70833,-625
32.71667,-624
32.72500,-624
32.73333,-624
32.74167,-624
32.75000,-624
32.75833,-624
32.76667,-623
32.77500,-623
32.78333,-623
32.79167,-622
32.80000,-621
32.80833,-621
32.81667,-620
32.82500,-619
32.83333,-619
32.84167,-618
32.85000,-617
32.85833,-616
32.86667,-616
32.87500,-615
32.88333,-615
32.89167,-615
32.90000,-614
32.90833,-613
32.91667,-613
32.92500,-612
32.93333,-612
32.94167,-611
32.95000,-611
32.95833,-610
32.96667,-610
32.97500,-609
32.98333,-608
32.99167,-608
33.00000,-607
33.00833,-606
33.01667,-606
33.02500,-605
33.03333,-604
33.04167,-604
33.05000,-603
33.05833,-603
33.06667,-602
33.07500,-602
33.08333,-601
33.09167,-600
33.10000,-600
33.10833,-599
33.11667,-599
33.12500,-598
33.13333,-598
33.14167,-597
33.15000,-596
33.15833,-596
33.16667,-595
33.17500,-595
33.18333,-594
33.19167,-593
33.20000,-592
33.20833,-591
33.21667,-591
33.22500,-590
33.23333,-589
33.24167,-588
33.25000,-588
33.25833,-587
33.26667,-586
33.27500,-585
33.28333,-585
33.29167,-585
33.30000,-584
33.30833,-584
33.31667,-583
33.32500,-583
33.33333,-582
33.34167,-582
33.35000,-581
33.35833,-581
33.36667,-580
33.37500,-579
33.38333,-579
33.39167,-578
33.40000,-577
33.40833,-577
33.41667,-576
33.42500,-575
33.43333,-575
33.44167,-574
33.45000,-574
33.45833,-574
33.46667,-573
33.47500,-572
33.48333,-571
33.49167,-571
33.50000,-570
33.50833,-569
33.51667,-569
33.52500,-568
33.53333,-567
33.54167,-566
33.55000,-566
33.55833,-565
33.56667,-565
33.57500,-564
33.58333,-564
33.59167,-563
33.60000,-562
33.60833,-561
33.61667,-561
33.62500,-560
33.63333,-560
33.64167,-559
33.65000,-559
33.65833,-558
33.66667,-558
33.67500,-557
33.68333,-556
33.69167,-556
33.70000,-555
33.70833,-554
33.71667,-553
33.72500,-553
33.73333,-553
33.74167,-552
33.75000,-551
33.75833,-551
33.76667,-550
33.77500,-550
33.78333,-550
33.79167,-550
33.80000,-549
33.80833,-548
33.81667,-548
33.82500,-548
33.83333,-547
33.84167,-546
33.85000,-546
33.85833,-545
33.86667,-544
33.87500,-543
33.88333,-542
33.89167,-541
33.90000,-541
33.90833,-540
33.91667,-540
33.92500,-539
33.93333,-539
33.94167,-539
33.95000,-538
33.95833,-538
33.96667,-537
33.97500,-536
33.98333,-536
33.99167,-535
34.00000,-534
34.00833,-534
34.01667,-533
34.02500,-533
34.03333,-532
34.04167,-531
34.05000,-531
34.05833,-530
34.06667,-529
34.07500,-528
34.08333,-528
34.09167,-527
34.10000,-527
34.10833,-526
34.11667,-526
34.12500,-525
34.13333,-524
34.14167,-523
34.15000,-523
34.15833,-522
34.16667,-521
34.17500,-521
34.18333,-520
34.19167,-520
34.20000,-519
34.20833,-519
34.21667,-518
34.22500,-518
34.23333,-517
34.24167,-517
34.25000,-517
34.25833,-516
34.26667,-516
34.27500,-516
34.28333,-515
34.29167,-514
34.30000,-514
34.30833,-513
34.31667,-512
34.32500,-512
34.33333,-511
34.34167,-511
34.35000,-510
34.35833,-509
34.36667,-509
34.37500,-509
34.38333,-508
34.39167,-507
34.40000,-506
34.40833,-506
34.41667,-505
34.42500,-505
34.43333,-504
34.44167,-504
34.45000,-503
34.45833,-503
34.46667,-502
34.47500,-502
34.48333,-501
34.49167,-500
34.50000,-500
34.50833,-499
34.51667,-498
34.52500,-498
34.53333,-497
34.54167,-497
34.55000,-497
34.55833,-496
34.56667,-496
34.57500,-496
34.58333,-495
34.59167,-494
34.60000,-494
34.60833,-493
34.61667,-492
34.62500,-492
34.63333,-491
34.64167,-491
34.65000,-490
34.65833,-490
34.66667,-489
34.67500,-488
34.68333,-488
34.69167,-487
34.70000,-486
34.70833,-486
34.71667,-486
34.72500,-485
34.73333,-484
34.74167,-484
34.75000,-483
34.75833,-483
34.76667,-483
34.77500,-483
34.78333,-482
34.79167,-482
34.80000,-481
34.80833,-481
34.81667,-481
34.82500,-480
34.83333,-479
34.84167,-479
34.85000,-478
34.85833,-477
34.86667,-477
34.87500,-477
34.88333,-476
34.89167,-476
34.90000,-476
34.90833,-475
34.91667,-475
34.92500,-474
34.93333,-474
34.94167,-474
34.95000,-473
34.95833,-473
34.96667,-472
34.97500,-471
34.98333,-471
34.99167,-470
35.00000,-470
35.00833,-470
35.01667,-469
35.02500,-469
35.03333,-468
35.04167,-467
35.05000,-467
35.05833,-466
35.06667,-466
35.07500,-466
35.08333,-466
35.09167,-466
35.10000,-465
35.10833,-464
35.11667,-463
35.12500,-463
35.13333,-462
35.14167,-462
35.15000,-461
35.15833,-461
35.16667,-461
35.17500,-461
35.18333,-460
35.19167,-460
35.20000,-459
35.20833,-458
35.21667,-458
35.22500,-458
35.23333,-458
35.24167,-457
35.25000,-457
35.25833,-457
35.26667,-456
35.27500,-456
35.28333,-455
35.29167,-455
35.30000,-455
35.30833,-455
35.31667,-454
35.32500,-454
35.33333,-453
35.34167,-453
35.35000,-453
35.35833,-452
35.36667,-452
35.37500,-452
35.38333,-451
35.39167,-451
35.40000,-450
35.40833,-450
35.41667,-450
35.42500,-449
35.43333,-449
35.44167,-449
35.45000,-449
35.45833,-449
35.46667,-449
35.47500,-448
35.48333,-448
35.49167,-447
35.50000,-447
35.50833,-447
35.51667,-446
35.52500,-446
35.53333,-445
35.54167,-445
35.55000,-445
35.55833,-445
35.56667,-444
35.57500,-443
35.58333,-443
35.59167,-442
35.60000,-442
35.60833,-442
35.61667,-442
35.62500,-442
35.63333,-442
35.64167,-442
35.65000,-441
35.65833,-441
35.66667,-440
35.67500,-440
35.68333,-440
35.69167,-439
35.70000,-439
35.70833,-439
35.71667,-439
35.72500,-439
35.73333,-439
35.74167,-439
35.75000,-438
35.75833,-438
35.76667,-438
35.77500,-437
35.78333,-437
35.79167,-436
35.80000,-436
35.80833,-436
35.81667,-436
35.82500,-436
35.83333,-436
35.84167,-436
35.85000,-435
35.85833,-435
35.86667,-434
35.87500,-434
35.88333,-433
35.89167,-433
35.90000,-433
35.90833,-432
35.91667,-432
35.92500,-431
35.93333,-431
35.94167,-430
35.95000,-430
35.95833,-429
35.96667,-429
35.97500,-428
35.98333,-428
35.99167,-427
36.00000,-427
36.00833,-426
36.01667,-426
36.02500,-426
36.03333,-425
36.04167,-425
36.05000,-425
36.05833,-424
36.06667,-424
36.07500,-424
36.08333,-424
36.09167,-423
36.10000,-422
36.10833,-422
36.11667,-421
36.12500,-420
36.13333,-420
36.14167,-419
36.15000,-418
36.15833,-418
36.16667,-418
36.17500,-418
36.18333,-418
36.19167,-417
36.20000,-416
36.20833,-416
36.21667,-416
36.22500,-416
36.23333,-415
36.24167,-415
36.25000,-414
36.25833,-414
36.26667,-413
36.27500,-412
36.28333,-412
36.29167,-412
36.30000,-412
36.30833,-411
36.31667,-411
36.32500,-410
36.33333,-410
36.34167,-409
36.35000,-409
36.35833,-408
36.36667,-407
36.37500,-407
36.38333,-406
36.39167,-405
36.40000,-405
36.40833,-405
36.41667,-404
36.42500,-404
36.43333,-404
36.44167,-404
36.45000,-403
36.45833,-403
36.46667,-403
36.47500,-402
36.48333,-402
36.49167,-401
36.50000,-400
36.50833,-399
36.51667,-399
36.52500,-398
36.53333,-397
36.54167,-397
36.55000,-396
36.55833,-396
36.56667,-395
36.57500,-395
36.58333,-394
36.59167,-393
36.60000,-392
36.60833,-392
36.61667,-391
36.62500,-390
36.63333,-389
36.64167,-389
36.65000,-388
36.65833,-387
36.66667,-386
36.67500,-385
36.68333,-384
36.69167,-383
36.70000,-382
36.70833,-381
36.71667,-380
36.72500,-378
36.73333,-377
36.74167,-375
36.75000,-373
36.75833,-372
36.76667,-371
36.77500,-369
36.78333,-368
36.79167,-366
36.80000,-364
36.80833,-362
36.81667,-361
36.82500,-359
36.83333,-357
36.84167,-355
36.85000,-353
36.85833,-351
36.86667,-350
36.87500,-348
36.88333,-346
36.89167,-344
36.90000,-342
36.90833,-340
36.91667,-338
36.92500,-335
36.93333,-333
36.94167,-331
36.95000,-328
36.95833,-326
36.96667,-324
36.97500,-322
36.98333,-319
36.99167,-317
37.00000,-314
37.00833,-312
37.01667,-310
37.02500,-308
37.03333,-305
37.04167,-303
37.05000,-301
37.05833,-298
37.06667,-296
37.07500,-293
37.08333,-291
37.09167,-289
37.10000,-287
37.10833,-285
37.11667,-283
37.12500,-280
37.13333,-278
37.14167,-276
37.15000,-274
37.15833,-272
37.16667,-270
37.17500,-268
37.18333,-267
37.19167,-265
37.20000,-264
37.20833,-262
37.21667,-260
37.22500,-259
37.23333,-257
37.24167,-255
37.25000,-254
37.25833,-253
37.26667,-252
37.27500,-251
37.28333,-251
37.29167,-250
37.30000,-249
37.30833,-248
37.31667,-247
37.32500,-246
37.33333,-245
37.34167,-245
37.35000,-245
37.35833,-244
37.36667,-244
37.37500,-244
37.38333,-244
37.39167,-245
37.40000,-245
37.40833,-245
37.41667,-245
37.42500,-245
37.43333,-246
37.44167,-247
37.45000,-247
37.45833,-248
37.46667,-249
37.47500,-250
37.48333,-251
37.49167,-252
37.50000,-253
37.50833,-255
37.51667,-256
37.52500,-258
37.53333,-259
37.54167,-261
37.55000,-262
37.55833,-264
37.56667,-265
37.57500,-266
37.58333,-267
37.59167,-269
37.60000,-271
37.60833,-272
37.61667,-274
37.62500,-276
37.63333,-278
37.64167,-279
37.65000,-281
37.65833,-283
37.66667,-285
37.67500,-287
37.68333,-289
37.69167,-291
37.70000,-293
37.70833,-295
37.71667,-296
37.72500,-298
37.73333,-300
37.74167,-302
37.75000,-304
37.75833,-306
37.76667,-308
37.77500,-310
37.78333,-312
37.79167,-314
37.80000,-316
37.80833,-317
37.81667,-319
37.82500,-321
37.83333,-323
37.84167,-325
37.85000,-326
37.85833,-328
37.86667,-329
37.87500,-331
37.88333,-332
37.89167,-333
37.90000,-335
37.90833,-336
37.91667,-338
37.92500,-340
37.93333,-341
37.94167,-342
37.95000,-344
37.95833,-345
37.96667,-346
37.97500,-347
37.98333,-349
37.99167,-350
38.00000,-351
38.00833,-352
38.01667,-353
38.02500,-354
38.03333,-355
38.04167,-357
38.05000,-358
38.05833,-359
38.06667,-360
38.07500,-362
38.08333,-363
38.09167,-363
38.10000,-364
38.10833,-364
38.11667,-365
38.12500,-366
38.13333,-367
38.14167,-368
38.15000,-368
38.15833,-369
38.16667,-370
38.17500,-370
38.18333,-371
38.19167,-372
38.20000,-372
38.20833,-373
38.21667,-374
38.22500,-375
38.23333,-375
38.24167,-376
38.25000,-376
38.25833,-376
38.26667,-377
38.27500,-377
38.28333,-378
38.29167,-378
38.30000,-378
38.30833,-379
38.31667,-379
38.32500,-380
38.33333,-380
38.34167,-380
38.35000,-380
38.35833,-380
38.36667,-381
38.37500,-381
38.38333,-381
38.39167,-382
38.40000,-382
38.40833,-383
38.41667,-383
38.42500,-384
38.43333,-384
38.44167,-384
38.45000,-384
38.45833,-384
38.46667,-384
38.47500,-385
38.48333,-385
38.49167,-385
38.50000,-385
38.50833,-385
38.51667,-386
38.52500,-387
38.53333,-387
38.54167,-388
38.55000,-388
38.55833,-388
38.56667,-389
38.57500,-389
38.58333,-389
38.59167,-389
38.60000,-389
38.60833,-389
38.61667,-389
38.62500,-389
38.63333,-389
38.64167,-389
38.65000,-390
38.65833,-390
38.66667,-390
38.67500,-390
38.68333,-390
38.69167,-391
38.70000,-391
38.70833,-391
38.71667,-391
38.72500,-392
38.73333,-392
38.74167,-392
38.75000,-393
38.75833,-393
38.76667,-393
38.77500,-393
38.78333,-393
38.79167,-393
38.80000,-393
38.80833,-393
38.81667,-393
38.82500,-394
38.83333,-394
38.84167,-394
38.85000,-395
38.85833,-395
38.86667,-395
38.87500,-396
38.88333,-396
38.89167,-396
38.90000,-396
38.90833,-396
38.91667,-396
38.92500,-396
38.93333,-396
38.94167,-396
38.95000,-397
38.95833,-397
38.96667,-397
38.97500,-397
38.98333,-398
38.99167,-398
39.00000,-398
39.00833,-398
39.01667,-398
39.02500,-398
39.03333,-398
39.04167,-398
39.05000,-398
39.05833,-398
39.06667,-398
39.07500,-399
39.08333,-399
39.09167,-399
39.10000,-399
39.10833,-400
39.11667,-400
39.12500,-400
39.13333,-400
39.14167,-401
39.15000,-401
39.15833,-401
39.16667,-401
39.17500,-401
39.18333,-401
39.19167,-402
39.20000,-402
39.20833,-402
39.21667,-403
39.22500,-403
39.23333,-403
39.24167,-403
39.25000,-403
39.25833,-404
39.26667,-404
39.27500,-404
39.28333,-404
39.29167,-404
39.30000,-404
39.30833,-404
39.31667,-404
39.32500,-404
39.33333,-404
39.34167,-404
39.35000,-404
39.35833,-404
39.36667,-404
39.37500,-405
39.38333,-405
39.39167,-405
39.40000,-405
39.40833,-405
39.41667,-405
39.42500,-405
39.43333,-405
39.44167,-405
39.45000,-406
39.45833,-406
39.46667,-406
39.47500,-407
39.48333,-407
39.49167,-407
39.50000,-407
39.50833,-407
39.51667,-408
39.52500,-408
39.53333,-408
39.54167,-409
39.55000,-409
39.55833,-409
39.56667,-409
39.57500,-409
39.58333,-409
39.59167,-409
39.60000,-409
39.60833,-409
39.61667,-409
39.62500,-409
39.63333,-409
39.64167,-410
39.65000,-410
39.65833,-410
39.66667,-410
39.67500,-410
39.68333,-409
39.69167,-410
39.70000,-410
39.70833,-410
39.71667,-410
39.72500,-411
39.73333,-411
39.74167,-411
39.75000,-411
39.75833,-411
39.76667,-411
39.77500,-411
39.78333,-412
39.79167,-412
39.80000,-413
39.80833,-413
39.81667,-413
39.82500,-412
39.83333,-413
39.84167,-413
39.85000,-413
39.85833,-413
39.86667,-413
39.87500,-413
39.88333,-413
39.89167,-414
39.90000,-414
39.90833,-415
39.91667,-415
39.92500,-415
39.93333,-415
39.94167,-416
39.95000,-416
39.95833,-416
39.96667,-417
39.97500,-417
39.98333,-417
39.99167,-416
40.00000,-416
40.00833,-416
40.01667,-416
40.02500,-417
40.03333,-417
40.04167,-417
40.05000,-417
40.05833,-418
40.06667,-418
40.07500,-418
40.08333,-418
40.09167,-419
40.10000,-418
40.10833,-418
40.11667,-418
40.12500,-418
40.13333,-418
40.14167,-418
40.15000,-419
40.15833,-419
40.16667,-419
40.17500,-420
40.18333,-420
40.19167,-420
40.20000,-420
40.20833,-420
40.21667,-421
40.22500,-421
40.23333,-421
40.24167,-421
40.25000,-422
40.25833,-422
40.26667,-422
40.27500,-422
40.28333,-422
40.29167,-422
40.30000,-423
40.30833,-423
40.31667,-423
40.32500,-424
40.33333,-424
40.34167,-424
40.35000,-424
40.35833,-424
40.36667,-424
40.37500,-425
40.38333,-425
40.39167,-426
40.40000,-426
40.40833,-427
40.41667,-427
40.42500,-427
40.43333,-427
40.44167,-427
40.45000,-427
40.45833,-427
40.46667,-428
40.47500,-428
40.48333,-428
40.49167,-428
40.50000,-428
40.50833,-428
40.51667,-428
40.52500,-428
40.53333,-429
40.54167,-429
40.55000,-429
40.55833,-429
40.56667,-429
40.57500,-429
40.58333,-430
40.59167,-430
40.60000,-430
40.60833,-430
40.61667,-430
40.62500,-431
40.63333,-431
40.64167,-431
40.65000,-431
40.65833,-431
40.66667,-431
40.67500,-431
40.68333,-432
40.69167,-432
40.70000,-432
40.70833,-432
40.71667,-432
40.72500,-433
40.73333,-433
40.74167,-433
40.75000,-433
40.75833,-433
40.76667,-433
40.77500,-433
40.78333,-433
40.79167,-433
40.80000,-433
40.80833,-433
40.81667,-434
40.82500,-434
40.83333,-434
40.84167,-434
40.85000,-434
40.85833,-435
40.86667,-435
40.87500,-436
40.88333,-436
40.89167,-436
40.90000,-436
40.90833,-436
40.91667,-436
40.92500,-437
40.93333,-437
40.94167,-437
40.95000,-437
40.95833,-437
40.96667,-438
40.97500,-438
40.98333,-438
40.99167,-438
41.00000,-438
41.00833,-439
41.01667,-439
41.02500,-439
41.03333,-440
41.04167,-440
41.05000,-440
41.05833,-440
41.06667,-440
41.07500,-440
41.08333,-440
41.09167,-440
41.10000,-440
41.10833,-440
41.11667,-440
41.12500,-440
41.13333,-440
41.14167,-441
41.15000,-441
41.15833,-441
41.16667,-442
41.17500,-442
41.18333,-443
41.19167,-443
41.20000,-443
41.20833,-444
41.21667,-444
41.22500,-444
41.23333,-444
41.24167,-444
41.25000,-444
41.25833,-445
41.26667,-445
41.27500,-445
41.28333,-445
41.29167,-445
41.30000,-445
41.30833,-445
41.31667,-445
41.32500,-445
41.33333,-445
41.34167,-446
41.35000,-446
41.35833,-446
41.36667,-446
41.37500,-447
41.38333,-447
41.39167,-447
41.40000,-447
41.40833,-448
41.41667,-448
41.42500,-448
41.43333,-448
41.44167,-448
41.45000,-448
41.45833,-448
41.46667,-448
41.47500,-449
41.48333,-449
41.49167,-449
41.50000,-449
41.50833,-449
41.51667,-450
41.52500,-450
41.53333,-450
41.54167,-450
41.55000,-451
41.55833,-451
41.56667,-452
41.57500,-452
41.58333,-452
41.59167,-452
41.60000,-452
41.60833,-452
41.61667,-453
41.62500,-453
41.63333,-453
41.64167,-452
41.65000,-452
41.65833,-453
41.66667,-453
41.67500,-453
41.68333,-453
41.69167,-454
41.70000,-454
41.70833,-454
41.71667,-454
41.72500,-454
41.73333,-454
41.74167,-454
41.75000,-454
41.75833,-455
41.76667,-455
41.77500,-455
41.78333,-456
41.79167,-456
41.80000,-456
41.80833,-456
41.81667,-457
41.82500,-457
41.83333,-457
41.84167,-457
41.85000,-458
41.85833,-458
41.86667,-458
41.87500,-458
41.88333,-458
41.89167,-459
41.90000,-459
41.90833,-459
41.91667,-459
41.92500,-460
41.93333,-460
41.94167,-461
41.95000,-461
41.95833,-461
41.96667,-461
41.97500,-461
41.98333,-461
41.99167,-461
42.00000,-461
42.00833,-462
42.01667,-462
42.02500,-462
42.03333,-462
42.04167,-462
42.05000,-463
42.05833,-463
42.06667,-463
42.07500,-464
42.08333,-464
42.09167,-464
42.10000,-464
42.10833,-464
42.11667,-464
42.12500,-464
42.13333,-465
42.14167,-465
42.15000,-465
42.15833,-465
42.16667,-465
42.17500,-465
42.18333,-465
42.19167,-466
42.20000,-466
42.20833,-466
42.21667,-466
42.22500,-466
42.23333,-467
42.24167,-467
42.25000,-467
42.25833,-468
42.26667,-468
42.27500,-468
42.28333,-468
42.29167,-468
42.30000,-468
42.30833,-468
42.31667,-468
42.32500,-468
42.33333,-469
42.34167,-470
42.35000,-470
42.35833,-470
42.36667,-471
42.37500,-471
42.38333,-471
42.39167,-471
42.40000,-472
42.40833,-472
42.41667,-472
42.42500,-472
42.43333,-472
42.44167,-472
42.45000,-472
42.45833,-473
42.46667,-473
42.47500,-473
42.48333,-473
42.49167,-473
42.50000,-473
42.50833,-473
42.51667,-474
42.52500,-474
42.53333,-474
42.54167,-474
42.55000,-474
42.55833,-474
42.56667,-474
42.57500,-474
42.58333,-474
42.59167,-474
42.60000,-475
42.60833,-475
42.61667,-475
42.62500,-475
42.63333,-475
42.64167,-475
42.65000,-476
42.65833,-476
42.66667,-476
42.67500,-477
42.68333,-477
42.69167,-477
42.70000,-477
42.70833,-477
42.71667,-478
42.72500,-478
42.73333,-478
42.74167,-479
42.75000,-479
42.75833,-479
42.76667,-479
42.77500,-480
42.78333,-481
42.79167,-481
42.80000,-481
42.80833,-482
42.81667,-482
42.82500,-482
42.83333,-482
42.84167,-482
42.85000,-482
42.85833,-482
42.86667,-482
42.87500,-482
42.88333,-482
42.89167,-482
42.90000,-483
42.90833,-483
42.91667,-483
42.92500,-483
42.93333,-483
42.94167,-483
42.95000,-484
42.95833,-485
42.96667,-485
42.97500,-485
42.98333,-486
42.99167,-486
43.00000,-486
43.00833,-487
43.01667,-487
43.02500,-487
43.03333,-488
43.04167,-488
43.05000,-488
43.05833,-488
43.06667,-488
43.07500,-488
43.08333,-489
43.09167,-489
43.10000,-489
43.10833,-489
43.11667,-489
43.12500,-489
43.13333,-489
43.14167,-489
43.15000,-489
43.15833,-489
43.16667,-490
43.17500,-490
43.18333,-491
43.19167,-491
43.20000,-492
43.20833,-492
43.21667,-492
43.22500,-492
43.23333,-492
43.24167,-492
43.25000,-492
43.25833,-492
43.26667,-493
43.27500,-493
43.28333,-493
43.29167,-493
43.30000,-493
43.30833,-494
43.31667,-494
43.32500,-494
43.33333,-495
43.34167,-495
43.35000,-495
43.35833,-495
43.36667,-495
43.37500,-496
43.38333,-496
43.39167,-496
43.40000,-496
43.40833,-496
43.41667,-496
43.42500,-496
43.43333,-496
43.44167,-496
43.45000,-497
43.45833,-497
43.46667,-498
43.47500,-499
43.48333,-499
43.49167,-499
43.50000,-500
43.50833,-500
43.51667,-500
43.52500,-500
43.53333,-500
43.54167,-500
43.55000,-500
43.55833,-500
43.56667,-500
43.57500,-500
43.58333,-501
43.59167,-501
43.60000,-501
43.60833,-502
43.61667,-502
43.62500,-502
43.63333,-502
43.64167,-502
43.65000,-503
43.65833,-503
43.66667,-504
43.67500,-504
43.68333,-504
43.69167,-505
43.70000,-505
43.70833,-505
43.71667,-505
43.72500,-505
43.73333,-505
43.74167,-505
43.75000,-505
43.75833,-506
43.76667,-506
43.77500,-506
43.78333,-506
43.79167,-507
43.80000,-507
43.80833,-507
43.81667,-508
43.82500,-508
43.83333,-508
43.84167,-508
43.85000,-509
43.85833,-509
43.86667,-509
43.87500,-509
43.88333,-509
43.89167,-509
43.90000,-510
43.90833,-510
43.91667,-510
43.92500,-510
43.93333,-510
43.94167,-510
43.95000,-510
43.95833,-510
43.96667,-510
43.97500,-510
43.98333,-510
43.99167,-510
44.00000,-511
44.00833,-511
44.01667,-511
44.02500,-512
44.03333,-512
44.04167,-512
44.05000,-512
44.05833,-512
44.06667,-512
44.07500,-513
44.08333,-513
44.09167,-513
44.10000,-514
44.10833,-514
44.11667,-515
44.12500,-515
44.13333,-515
44.14167,-515
44.15000,-515
44.15833,-515
44.16667,-515
44.17500,-516
44.18333,-516
44.19167,-516
44.20000,-516
44.20833,-516
44.21667,-516
44.22500,-517
44.23333,-517
44.24167,-518
44.25000,-518
44.25833,-519
44.26667,-519
44.27500,-519
44.28333,-519
44.29167,-519
44.30000,-519
44.30833,-519
44.31667,-519
44.32500,-519
44.33333,-519
44.34167,-520
44.35000,-520
44.35833,-520
44.36667,-521
44.37500,-521
44.38333,-521
44.39167,-521
44.40000,-521
44.40833,-521
44.41667,-521
44.42500,-522
44.43333,-522
44.44167,-522
44.45000,-522
44.45833,-523
44.46667,-523
44.47500,-523
44.48333,-524
44.49167,-524
44.50000,-524
44.50833,-524
44.51667,-524
44.52500,-524
44.53333,-524
44.54167,-524
44.55000,-524
44.55833,-524
44.56667,-525
44.57500,-525
44.58333,-525
44.59167,-526
44.60000,-526
44.60833,-527
44.61667,-527
44.62500,-528
44.63333,-528
44.64167,-528
44.65000,-528
44.65833,-528
44.66667,-529
44.67500,-529
44.68333,-528
44.69167,-529
44.70000,-529
44.70833,-529
44.71667,-529
44.72500,-530
44.73333,-530
44.74167,-531
44.75000,-531
44.75833,-531
44.76667,-531
44.77500,-531
44.78333,-532
44.79167,-532
44.80000,-532
44.80833,-532
44.81667,-532
44.82500,-532
44.83333,-532
44.84167,-533
44.85000,-533
44.85833,-533
44.86667,-534
44.87500,-534
44.88333,-534
44.89167,-535
44.90000,-535
44.90833,-535
44.91667,-535
44.92500,-535
44.93333,-536
44.94167,-536
44.95000,-536
44.95833,-536
44.96667,-536
44.97500,-536
44.98333,-537
44.99167,-537
45.00000,-537

