[Header]
Application Name,LabSolutions
Version,5.97 SP1
Data File Name,C:\Users\cremerlab\Desktop\batch_template_3182021_001_003.lcd
Output Date,3/18/2021
Output Time,1:44:38 PM

[File Information]
Type,Data File
Generated,3/18/2021 12:59:18 PM
Generated by,System Administrator
Modified,3/18/2021 1:44:38 PM
Modified by,System Administrator

[Sample Information]
Operator Name,System Administrator
Acquired,3/18/2021 12:59:37 PM
Sample Type,1:Standard
Level,1
Sample Name,2021-03-18_K2HPO4
Sample ID,001
ISTD Amount1,1
ISTD Amount2,1
ISTD Amount3,1
ISTD Amount4,1
ISTD Amount5,1
ISTD Amount6,1
ISTD Amount7,1
ISTD Amount8,1
ISTD Amount9,1
ISTD Amount10,1
ISTD Amount11,1
ISTD Amount12,1
ISTD Amount13,1
ISTD Amount14,1
ISTD Amount15,1
ISTD Amount16,1
ISTD Amount17,1
ISTD Amount18,1
ISTD Amount19,1
ISTD Amount20,1
ISTD Amount21,1
ISTD Amount22,1
ISTD Amount23,1
ISTD Amount24,1
ISTD Amount25,1
ISTD Amount26,1
ISTD Amount27,1
ISTD Amount28,1
ISTD Amount29,1
ISTD Amount30,1
ISTD Amount31,1
ISTD Amount32,1
Sample Amount,1
Dilution Factor,1
Vial#,3
Injection Volume,20

[Original Files]
Data File,C:\Users\cremerlab\Desktop\batch_template_3182021_001_003.lcd
Method File,C:\LabSolutions\Data\Project1\organicacidsetc2.lcm
Batch File,C:\Users\cremerlab\Desktop\batch_template.lcb
Report Format File,c:\LabSolutions\System\DEFAULT.lsr

[File Description]


[Configuration]
Instrument Name,HPLC-PC-Instrument1
Instrument #,1
Line #,1
# of Detectors,2
Detector ID,Detector A,Detector B
Detector Name,Detector A,Detector B
# of Channels,1,1

[LC Chromatogram(Detector B-Ch1)]
Interval(msec),500
# of Points,5401
Start Time(min),0.000
End Time(min),45.000
Intensity Units,mV
Intensity Multiplier,0.001
R.Time (min),Intensity
0.00000,6
0.00833,6
0.01667,1
0.02500,3
0.03333,4
0.04167,3
0.05000,1
0.05833,-3
0.06667,-6
0.07500,-8
0.08333,-9
0.09167,-9
0.10000,-7
0.10833,-5
0.11667,-2
0.12500,0
0.13333,3
0.14167,6
0.15000,8
0.15833,9
0.16667,11
0.17500,11
0.18333,12
0.19167,13
0.20000,13
0.20833,13
0.21667,13
0.22500,13
0.23333,14
0.24167,15
0.25000,17
0.25833,19
0.26667,21
0.27500,22
0.28333,22
0.29167,23
0.30000,23
0.30833,23
0.31667,22
0.32500,22
0.33333,22
0.34167,22
0.35000,22
0.35833,22
0.36667,22
0.37500,23
0.38333,23
0.39167,24
0.40000,24
0.40833,25
0.41667,25
0.42500,25
0.43333,25
0.44167,26
0.45000,26
0.45833,27
0.46667,28
0.47500,28
0.48333,29
0.49167,29
0.50000,30
0.50833,30
0.51667,31
0.52500,31
0.53333,32
0.54167,32
0.55000,33
0.55833,35
0.56667,38
0.57500,40
0.58333,43
0.59167,46
0.60000,49
0.60833,52
0.61667,54
0.62500,55
0.63333,55
0.64167,55
0.65000,53
0.65833,50
0.66667,46
0.67500,42
0.68333,37
0.69167,33
0.70000,29
0.70833,26
0.71667,23
0.72500,21
0.73333,20
0.74167,19
0.75000,19
0.75833,19
0.76667,19
0.77500,20
0.78333,21
0.79167,22
0.80000,24
0.80833,26
0.81667,28
0.82500,29
0.83333,31
0.84167,33
0.85000,34
0.85833,36
0.86667,37
0.87500,39
0.88333,41
0.89167,43
0.90000,44
0.90833,45
0.91667,47
0.92500,48
0.93333,49
0.94167,50
0.95000,51
0.95833,52
0.96667,53
0.97500,54
0.98333,55
0.99167,56
1.00000,57
1.00833,58
1.01667,58
1.02500,59
1.03333,59
1.04167,60
1.05000,61
1.05833,61
1.06667,62
1.07500,62
1.08333,63
1.09167,63
1.10000,64
1.10833,64
1.11667,64
1.12500,64
1.13333,65
1.14167,65
1.15000,66
1.15833,66
1.16667,67
1.17500,67
1.18333,68
1.19167,68
1.20000,69
1.20833,69
1.21667,70
1.22500,70
1.23333,70
1.24167,70
1.25000,71
1.25833,72
1.26667,72
1.27500,73
1.28333,73
1.29167,73
1.30000,73
1.30833,73
1.31667,74
1.32500,74
1.33333,75
1.34167,75
1.35000,75
1.35833,76
1.36667,77
1.37500,77
1.38333,78
1.39167,79
1.40000,79
1.40833,80
1.41667,80
1.42500,80
1.43333,81
1.44167,82
1.45000,82
1.45833,83
1.46667,83
1.47500,84
1.48333,84
1.49167,85
1.50000,85
1.50833,85
1.51667,85
1.52500,86
1.53333,86
1.54167,86
1.55000,86
1.55833,87
1.56667,87
1.57500,87
1.58333,88
1.59167,89
1.60000,89
1.60833,89
1.61667,89
1.62500,90
1.63333,90
1.64167,91
1.65000,91
1.65833,92
1.66667,92
1.67500,93
1.68333,93
1.69167,93
1.70000,93
1.70833,94
1.71667,94
1.72500,95
1.73333,95
1.74167,96
1.75000,96
1.75833,96
1.76667,97
1.77500,97
1.78333,98
1.79167,99
1.80000,99
1.80833,100
1.81667,100
1.82500,100
1.83333,101
1.84167,101
1.85000,101
1.85833,102
1.86667,103
1.87500,103
1.88333,104
1.89167,105
1.90000,105
1.90833,105
1.91667,106
1.92500,106
1.93333,107
1.94167,107
1.95000,108
1.95833,109
1.96667,109
1.97500,110
1.98333,110
1.99167,110
2.00000,110
2.00833,110
2.01667,110
2.02500,111
2.03333,112
2.04167,113
2.05000,113
2.05833,113
2.06667,114
2.07500,115
2.08333,116
2.09167,116
2.10000,116
2.10833,117
2.11667,117
2.12500,117
2.13333,118
2.14167,118
2.15000,119
2.15833,120
2.16667,120
2.17500,121
2.18333,121
2.19167,122
2.20000,122
2.20833,122
2.21667,122
2.22500,123
2.23333,123
2.24167,124
2.25000,124
2.25833,125
2.26667,125
2.27500,125
2.28333,125
2.29167,126
2.30000,126
2.30833,127
2.31667,128
2.32500,128
2.33333,129
2.34167,130
2.35000,130
2.35833,130
2.36667,130
2.37500,131
2.38333,132
2.39167,132
2.40000,133
2.40833,133
2.41667,134
2.42500,134
2.43333,134
2.44167,135
2.45000,136
2.45833,137
2.46667,137
2.47500,137
2.48333,138
2.49167,138
2.50000,138
2.50833,138
2.51667,139
2.52500,140
2.53333,140
2.54167,141
2.55000,141
2.55833,141
2.56667,142
2.57500,142
2.58333,142
2.59167,143
2.60000,143
2.60833,144
2.61667,144
2.62500,145
2.63333,145
2.64167,145
2.65000,146
2.65833,146
2.66667,147
2.67500,147
2.68333,148
2.69167,149
2.70000,149
2.70833,150
2.71667,150
2.72500,151
2.73333,152
2.74167,153
2.75000,153
2.75833,153
2.76667,154
2.77500,154
2.78333,155
2.79167,155
2.80000,156
2.80833,156
2.81667,157
2.82500,157
2.83333,158
2.84167,159
2.85000,159
2.85833,160
2.86667,160
2.87500,161
2.88333,161
2.89167,162
2.90000,162
2.90833,163
2.91667,164
2.92500,164
2.93333,165
2.94167,165
2.95000,166
2.95833,167
2.96667,167
2.97500,168
2.98333,168
2.99167,168
3.00000,169
3.00833,169
3.01667,170
3.02500,171
3.03333,171
3.04167,172
3.05000,172
3.05833,173
3.06667,173
3.07500,174
3.08333,174
3.09167,174
3.10000,175
3.10833,175
3.11667,176
3.12500,176
3.13333,176
3.14167,177
3.15000,177
3.15833,178
3.16667,178
3.17500,179
3.18333,179
3.19167,179
3.20000,180
3.20833,181
3.21667,181
3.22500,182
3.23333,182
3.24167,183
3.25000,183
3.25833,184
3.26667,184
3.27500,185
3.28333,186
3.29167,186
3.30000,186
3.30833,187
3.31667,187
3.32500,187
3.33333,187
3.34167,187
3.35000,188
3.35833,188
3.36667,188
3.37500,189
3.38333,189
3.39167,190
3.40000,191
3.40833,191
3.41667,192
3.42500,192
3.43333,193
3.44167,193
3.45000,194
3.45833,194
3.46667,194
3.47500,194
3.48333,194
3.49167,194
3.50000,195
3.50833,195
3.51667,195
3.52500,196
3.53333,196
3.54167,196
3.55000,197
3.55833,198
3.56667,199
3.57500,199
3.58333,200
3.59167,200
3.60000,200
3.60833,201
3.61667,201
3.62500,201
3.63333,202
3.64167,202
3.65000,202
3.65833,203
3.66667,203
3.67500,204
3.68333,204
3.69167,204
3.70000,204
3.70833,205
3.71667,205
3.72500,206
3.73333,206
3.74167,207
3.75000,207
3.75833,208
3.76667,208
3.77500,209
3.78333,209
3.79167,210
3.80000,211
3.80833,211
3.81667,211
3.82500,211
3.83333,212
3.84167,212
3.85000,213
3.85833,213
3.86667,213
3.87500,214
3.88333,214
3.89167,214
3.90000,215
3.90833,216
3.91667,216
3.92500,216
3.93333,216
3.94167,217
3.95000,217
3.95833,218
3.96667,218
3.97500,218
3.98333,219
3.99167,219
4.00000,219
4.00833,220
4.01667,221
4.02500,221
4.03333,221
4.04167,221
4.05000,222
4.05833,223
4.06667,223
4.07500,224
4.08333,225
4.09167,225
4.10000,226
4.10833,226
4.11667,227
4.12500,227
4.13333,228
4.14167,228
4.15000,229
4.15833,229
4.16667,230
4.17500,230
4.18333,231
4.19167,231
4.20000,231
4.20833,231
4.21667,231
4.22500,232
4.23333,232
4.24167,232
4.25000,233
4.25833,234
4.26667,234
4.27500,234
4.28333,235
4.29167,236
4.30000,236
4.30833,237
4.31667,238
4.32500,238
4.33333,239
4.34167,239
4.35000,240
4.35833,240
4.36667,241
4.37500,241
4.38333,241
4.39167,242
4.40000,242
4.40833,243
4.41667,243
4.42500,244
4.43333,244
4.44167,245
4.45000,245
4.45833,246
4.46667,246
4.47500,247
4.48333,248
4.49167,248
4.50000,249
4.50833,249
4.51667,250
4.52500,250
4.53333,251
4.54167,252
4.55000,253
4.55833,253
4.56667,253
4.57500,253
4.58333,254
4.59167,254
4.60000,254
4.60833,255
4.61667,255
4.62500,256
4.63333,257
4.64167,257
4.65000,258
4.65833,259
4.66667,259
4.67500,260
4.68333,260
4.69167,260
4.70000,261
4.70833,261
4.71667,262
4.72500,262
4.73333,263
4.74167,263
4.75000,264
4.75833,264
4.76667,265
4.77500,266
4.78333,267
4.79167,267
4.80000,267
4.80833,268
4.81667,268
4.82500,269
4.83333,269
4.84167,269
4.85000,269
4.85833,270
4.86667,271
4.87500,271
4.88333,271
4.89167,272
4.90000,272
4.90833,273
4.91667,273
4.92500,274
4.93333,275
4.94167,275
4.95000,276
4.95833,276
4.96667,277
4.97500,277
4.98333,277
4.99167,278
5.00000,278
5.00833,279
5.01667,279
5.02500,280
5.03333,280
5.04167,280
5.05000,281
5.05833,281
5.06667,282
5.07500,282
5.08333,283
5.09167,283
5.10000,284
5.10833,284
5.11667,285
5.12500,285
5.13333,286
5.14167,286
5.15000,287
5.15833,287
5.16667,287
5.17500,288
5.18333,288
5.19167,289
5.20000,289
5.20833,290
5.21667,290
5.22500,291
5.23333,291
5.24167,291
5.25000,291
5.25833,292
5.26667,292
5.27500,293
5.28333,294
5.29167,294
5.30000,294
5.30833,295
5.31667,295
5.32500,296
5.33333,296
5.34167,297
5.35000,297
5.35833,297
5.36667,297
5.37500,298
5.38333,298
5.39167,299
5.40000,299
5.40833,300
5.41667,300
5.42500,301
5.43333,302
5.44167,302
5.45000,302
5.45833,303
5.46667,303
5.47500,304
5.48333,304
5.49167,305
5.50000,305
5.50833,306
5.51667,306
5.52500,307
5.53333,307
5.54167,307
5.55000,308
5.55833,308
5.56667,308
5.57500,309
5.58333,309
5.59167,309
5.60000,309
5.60833,310
5.61667,310
5.62500,310
5.63333,311
5.64167,311
5.65000,312
5.65833,312
5.66667,313
5.67500,314
5.68333,314
5.69167,314
5.70000,315
5.70833,315
5.71667,315
5.72500,315
5.73333,316
5.74167,316
5.75000,317
5.75833,318
5.76667,318
5.77500,318
5.78333,319
5.79167,319
5.80000,319
5.80833,320
5.81667,320
5.82500,320
5.83333,321
5.84167,322
5.85000,322
5.85833,323
5.86667,323
5.87500,323
5.88333,324
5.89167,324
5.90000,325
5.90833,325
5.91667,326
5.92500,326
5.93333,327
5.94167,327
5.95000,327
5.95833,327
5.96667,327
5.97500,328
5.98333,328
5.99167,328
6.00000,329
6.00833,329
6.01667,330
6.02500,331
6.03333,331
6.04167,332
6.05000,332
6.05833,333
6.06667,333
6.07500,333
6.08333,334
6.09167,335
6.10000,335
6.10833,336
6.11667,336
6.12500,337
6.13333,337
6.14167,337
6.15000,338
6.15833,338
6.16667,339
6.17500,339
6.18333,340
6.19167,340
6.20000,341
6.20833,342
6.21667,342
6.22500,343
6.23333,343
6.24167,343
6.25000,344
6.25833,344
6.26667,344
6.27500,344
6.28333,345
6.29167,345
6.30000,346
6.30833,347
6.31667,347
6.32500,348
6.33333,348
6.34167,349
6.35000,349
6.35833,349
6.36667,350
6.37500,350
6.38333,351
6.39167,351
6.40000,352
6.40833,353
6.41667,353
6.42500,354
6.43333,354
6.44167,355
6.45000,356
6.45833,356
6.46667,356
6.47500,357
6.48333,357
6.49167,358
6.50000,359
6.50833,359
6.51667,359
6.52500,360
6.53333,360
6.54167,360
6.55000,360
6.55833,361
6.56667,362
6.57500,362
6.58333,363
6.59167,364
6.60000,365
6.60833,365
6.61667,365
6.62500,365
6.63333,365
6.64167,366
6.65000,367
6.65833,368
6.66667,369
6.67500,369
6.68333,370
6.69167,371
6.70000,371
6.70833,372
6.71667,372
6.72500,372
6.73333,372
6.74167,372
6.75000,373
6.75833,373
6.76667,373
6.77500,373
6.78333,374
6.79167,375
6.80000,375
6.80833,376
6.81667,376
6.82500,377
6.83333,377
6.84167,378
6.85000,378
6.85833,379
6.86667,379
6.87500,380
6.88333,380
6.89167,381
6.90000,382
6.90833,382
6.91667,383
6.92500,383
6.93333,383
6.94167,384
6.95000,384
6.95833,385
6.96667,386
6.97500,386
6.98333,387
6.99167,387
7.00000,388
7.00833,388
7.01667,389
7.02500,389
7.03333,390
7.04167,390
7.05000,390
7.05833,391
7.06667,392
7.07500,393
7.08333,393
7.09167,394
7.10000,394
7.10833,395
7.11667,395
7.12500,396
7.13333,396
7.14167,396
7.15000,397
7.15833,397
7.16667,397
7.17500,398
7.18333,398
7.19167,399
7.20000,400
7.20833,400
7.21667,401
7.22500,401
7.23333,401
7.24167,402
7.25000,402
7.25833,403
7.26667,403
7.27500,403
7.28333,404
7.29167,404
7.30000,405
7.30833,405
7.31667,405
7.32500,406
7.33333,406
7.34167,407
7.35000,407
7.35833,408
7.36667,409
7.37500,409
7.38333,410
7.39167,410
7.40000,411
7.40833,411
7.41667,412
7.42500,412
7.43333,412
7.44167,413
7.45000,413
7.45833,413
7.46667,414
7.47500,414
7.48333,415
7.49167,415
7.50000,416
7.50833,416
7.51667,416
7.52500,417
7.53333,417
7.54167,417
7.55000,417
7.55833,418
7.56667,419
7.57500,420
7.58333,420
7.59167,421
7.60000,422
7.60833,422
7.61667,423
7.62500,423
7.63333,424
7.64167,424
7.65000,425
7.65833,425
7.66667,425
7.67500,425
7.68333,426
7.69167,426
7.70000,427
7.70833,427
7.71667,428
7.72500,428
7.73333,429
7.74167,429
7.75000,430
7.75833,430
7.76667,431
7.77500,431
7.78333,432
7.79167,432
7.80000,433
7.80833,434
7.81667,434
7.82500,434
7.83333,435
7.84167,435
7.85000,435
7.85833,435
7.86667,436
7.87500,436
7.88333,436
7.89167,437
7.90000,437
7.90833,438
7.91667,438
7.92500,439
7.93333,439
7.94167,440
7.95000,440
7.95833,441
7.96667,442
7.97500,442
7.98333,443
7.99167,443
8.00000,443
8.00833,443
8.01667,444
8.02500,445
8.03333,445
8.04167,446
8.05000,446
8.05833,446
8.06667,446
8.07500,447
8.08333,447
8.09167,448
8.10000,448
8.10833,449
8.11667,450
8.12500,450
8.13333,450
8.14167,451
8.15000,451
8.15833,451
8.16667,451
8.17500,452
8.18333,452
8.19167,452
8.20000,453
8.20833,454
8.21667,454
8.22500,455
8.23333,455
8.24167,455
8.25000,456
8.25833,456
8.26667,457
8.27500,458
8.28333,458
8.29167,459
8.30000,459
8.30833,460
8.31667,460
8.32500,460
8.33333,461
8.34167,461
8.35000,462
8.35833,462
8.36667,463
8.37500,463
8.38333,463
8.39167,463
8.40000,463
8.40833,464
8.41667,464
8.42500,465
8.43333,465
8.44167,466
8.45000,466
8.45833,467
8.46667,467
8.47500,467
8.48333,468
8.49167,468
8.50000,469
8.50833,469
8.51667,470
8.52500,470
8.53333,470
8.54167,471
8.55000,471
8.55833,471
8.56667,472
8.57500,473
8.58333,473
8.59167,474
8.60000,474
8.60833,475
8.61667,475
8.62500,476
8.63333,476
8.64167,476
8.65000,477
8.65833,478
8.66667,478
8.67500,479
8.68333,479
8.69167,479
8.70000,479
8.70833,480
8.71667,480
8.72500,481
8.73333,482
8.74167,483
8.75000,483
8.75833,484
8.76667,484
8.77500,485
8.78333,485
8.79167,486
8.80000,486
8.80833,487
8.81667,487
8.82500,487
8.83333,488
8.84167,488
8.85000,489
8.85833,490
8.86667,490
8.87500,491
8.88333,491
8.89167,492
8.90000,492
8.90833,493
8.91667,493
8.92500,493
8.93333,494
8.94167,495
8.95000,495
8.95833,496
8.96667,496
8.97500,496
8.98333,497
8.99167,498
9.00000,498
9.00833,498
9.01667,499
9.02500,499
9.03333,499
9.04167,500
9.05000,501
9.05833,501
9.06667,502
9.07500,503
9.08333,504
9.09167,504
9.10000,505
9.10833,505
9.11667,506
9.12500,506
9.13333,507
9.14167,507
9.15000,507
9.15833,507
9.16667,508
9.17500,508
9.18333,509
9.19167,510
9.20000,510
9.20833,510
9.21667,511
9.22500,512
9.23333,512
9.24167,513
9.25000,513
9.25833,514
9.26667,514
9.27500,515
9.28333,515
9.29167,515
9.30000,516
9.30833,516
9.31667,516
9.32500,517
9.33333,517
9.34167,518
9.35000,518
9.35833,518
9.36667,519
9.37500,519
9.38333,520
9.39167,521
9.40000,521
9.40833,522
9.41667,522
9.42500,523
9.43333,523
9.44167,524
9.45000,524
9.45833,525
9.46667,525
9.47500,525
9.48333,526
9.49167,526
9.50000,526
9.50833,526
9.51667,526
9.52500,526
9.53333,527
9.54167,528
9.55000,528
9.55833,529
9.56667,529
9.57500,530
9.58333,530
9.59167,530
9.60000,531
9.60833,532
9.61667,532
9.62500,533
9.63333,533
9.64167,534
9.65000,534
9.65833,535
9.66667,535
9.67500,535
9.68333,536
9.69167,536
9.70000,537
9.70833,537
9.71667,538
9.72500,539
9.73333,539
9.74167,539
9.75000,540
9.75833,540
9.76667,540
9.77500,541
9.78333,541
9.79167,542
9.80000,542
9.80833,543
9.81667,543
9.82500,543
9.83333,543
9.84167,544
9.85000,544
9.85833,544
9.86667,545
9.87500,545
9.88333,546
9.89167,546
9.90000,547
9.90833,547
9.91667,548
9.92500,548
9.93333,548
9.94167,549
9.95000,550
9.95833,550
9.96667,550
9.97500,551
9.98333,551
9.99167,551
10.00000,552
10.00833,552
10.01667,552
10.02500,553
10.03333,553
10.04167,554
10.05000,555
10.05833,555
10.06667,555
10.07500,555
10.08333,555
10.09167,555
10.10000,555
10.10833,555
10.11667,555
10.12500,555
10.13333,556
10.14167,556
10.15000,557
10.15833,557
10.16667,556
10.17500,556
10.18333,556
10.19167,556
10.20000,557
10.20833,557
10.21667,557
10.22500,557
10.23333,558
10.24167,558
10.25000,559
10.25833,560
10.26667,560
10.27500,561
10.28333,561
10.29167,562
10.30000,562
10.30833,563
10.31667,564
10.32500,565
10.33333,566
10.34167,567
10.35000,568
10.35833,569
10.36667,570
10.37500,572
10.38333,573
10.39167,574
10.40000,575
10.40833,576
10.41667,577
10.42500,578
10.43333,579
10.44167,580
10.45000,581
10.45833,583
10.46667,584
10.47500,585
10.48333,585
10.49167,586
10.50000,587
10.50833,587
10.51667,588
10.52500,588
10.53333,589
10.54167,589
10.55000,589
10.55833,589
10.56667,590
10.57500,590
10.58333,591
10.59167,592
10.60000,593
10.60833,594
10.61667,595
10.62500,597
10.63333,598
10.64167,600
10.65000,603
10.65833,605
10.66667,606
10.67500,607
10.68333,606
10.69167,602
10.70000,595
10.70833,583
10.71667,564
10.72500,536
10.73333,498
10.74167,446
10.75000,379
10.75833,293
10.76667,185
10.77500,54
10.78333,-103
10.79167,-286
10.80000,-498
10.80833,-738
10.81667,-1006
10.82500,-1300
10.83333,-1616
10.84167,-1952
10.85000,-2302
10.85833,-2660
10.86667,-3021
10.87500,-3377
10.88333,-3721
10.89167,-4046
10.90000,-4346
10.90833,-4613
10.91667,-4845
10.92500,-5035
10.93333,-5180
10.94167,-5277
10.95000,-5327
10.95833,-5327
10.96667,-5281
10.97500,-5190
10.98333,-5058
10.99167,-4887
11.00000,-4684
11.00833,-4452
11.01667,-4198
11.02500,-3927
11.03333,-3643
11.04167,-3352
11.05000,-3058
11.05833,-2766
11.06667,-2480
11.07500,-2203
11.08333,-1937
11.09167,-1685
11.10000,-1448
11.10833,-1229
11.11667,-1026
11.12500,-841
11.13333,-673
11.14167,-521
11.15000,-386
11.15833,-266
11.16667,-160
11.17500,-67
11.18333,14
11.19167,84
11.20000,145
11.20833,197
11.21667,242
11.22500,281
11.23333,314
11.24167,343
11.25000,367
11.25833,389
11.26667,407
11.27500,423
11.28333,437
11.29167,449
11.30000,460
11.30833,470
11.31667,479
11.32500,487
11.33333,495
11.34167,502
11.35000,509
11.35833,514
11.36667,520
11.37500,525
11.38333,530
11.39167,535
11.40000,540
11.40833,544
11.41667,549
11.42500,553
11.43333,557
11.44167,560
11.45000,563
11.45833,566
11.46667,569
11.47500,572
11.48333,575
11.49167,577
11.50000,580
11.50833,583
11.51667,585
11.52500,587
11.53333,589
11.54167,590
11.55000,592
11.55833,594
11.56667,595
11.57500,597
11.58333,598
11.59167,599
11.60000,600
11.60833,601
11.61667,602
11.62500,603
11.63333,603
11.64167,604
11.65000,604
11.65833,604
11.66667,605
11.67500,605
11.68333,605
11.69167,604
11.70000,604
11.70833,603
11.71667,603
11.72500,603
11.73333,602
11.74167,602
11.75000,601
11.75833,600
11.76667,599
11.77500,598
11.78333,597
11.79167,596
11.80000,594
11.80833,592
11.81667,590
11.82500,589
11.83333,587
11.84167,586
11.85000,584
11.85833,583
11.86667,581
11.87500,580
11.88333,578
11.89167,577
11.90000,575
11.90833,574
11.91667,573
11.92500,572
11.93333,571
11.94167,571
11.95000,570
11.95833,570
11.96667,570
11.97500,569
11.98333,569
11.99167,569
12.00000,569
12.00833,569
12.01667,569
12.02500,569
12.03333,569
12.04167,570
12.05000,570
12.05833,571
12.06667,572
12.07500,574
12.08333,575
12.09167,577
12.10000,578
12.10833,580
12.11667,582
12.12500,584
12.13333,586
12.14167,587
12.15000,589
12.15833,591
12.16667,593
12.17500,595
12.18333,597
12.19167,600
12.20000,602
12.20833,604
12.21667,606
12.22500,609
12.23333,611
12.24167,613
12.25000,615
12.25833,617
12.26667,619
12.27500,622
12.28333,624
12.29167,626
12.30000,628
12.30833,631
12.31667,633
12.32500,634
12.33333,637
12.34167,639
12.35000,640
12.35833,642
12.36667,644
12.37500,645
12.38333,647
12.39167,648
12.40000,650
12.40833,651
12.41667,653
12.42500,654
12.43333,656
12.44167,657
12.45000,658
12.45833,659
12.46667,660
12.47500,662
12.48333,663
12.49167,665
12.50000,666
12.50833,667
12.51667,668
12.52500,669
12.53333,669
12.54167,670
12.55000,671
12.55833,672
12.56667,673
12.57500,674
12.58333,675
12.59167,675
12.60000,676
12.60833,677
12.61667,678
12.62500,679
12.63333,680
12.64167,681
12.65000,681
12.65833,682
12.66667,682
12.67500,682
12.68333,683
12.69167,683
12.70000,684
12.70833,685
12.71667,686
12.72500,687
12.73333,687
12.74167,688
12.75000,688
12.75833,688
12.76667,689
12.77500,689
12.78333,690
12.79167,691
12.80000,691
12.80833,692
12.81667,693
12.82500,693
12.83333,694
12.84167,695
12.85000,695
12.85833,696
12.86667,697
12.87500,697
12.88333,698
12.89167,699
12.90000,699
12.90833,700
12.91667,700
12.92500,700
12.93333,701
12.94167,702
12.95000,703
12.95833,703
12.96667,703
12.97500,704
12.98333,704
12.99167,704
13.00000,705
13.00833,706
13.01667,706
13.02500,707
13.03333,707
13.04167,707
13.05000,708
13.05833,709
13.06667,709
13.07500,710
13.08333,710
13.09167,710
13.10000,711
13.10833,712
13.11667,713
13.12500,714
13.13333,714
13.14167,714
13.15000,715
13.15833,715
13.16667,716
13.17500,716
13.18333,717
13.19167,717
13.20000,718
13.20833,718
13.21667,719
13.22500,719
13.23333,720
13.24167,720
13.25000,721
13.25833,721
13.26667,722
13.27500,722
13.28333,723
13.29167,723
13.30000,724
13.30833,725
13.31667,725
13.32500,725
13.33333,725
13.34167,726
13.35000,726
13.35833,727
13.36667,727
13.37500,728
13.38333,728
13.39167,729
13.40000,729
13.40833,730
13.41667,730
13.42500,731
13.43333,731
13.44167,732
13.45000,733
13.45833,734
13.46667,734
13.47500,735
13.48333,735
13.49167,736
13.50000,736
13.50833,736
13.51667,737
13.52500,737
13.53333,737
13.54167,738
13.55000,738
13.55833,739
13.56667,739
13.57500,740
13.58333,741
13.59167,741
13.60000,742
13.60833,742
13.61667,743
13.62500,743
13.63333,744
13.64167,745
13.65000,746
13.65833,746
13.66667,747
13.67500,748
13.68333,748
13.69167,749
13.70000,750
13.70833,750
13.71667,751
13.72500,752
13.73333,752
13.74167,752
13.75000,753
13.75833,753
13.76667,754
13.77500,754
13.78333,755
13.79167,755
13.80000,756
13.80833,757
13.81667,758
13.82500,758
13.83333,759
13.84167,759
13.85000,760
13.85833,761
13.86667,762
13.87500,762
13.88333,762
13.89167,763
13.90000,764
13.90833,764
13.91667,765
13.92500,766
13.93333,766
13.94167,767
13.95000,767
13.95833,768
13.96667,768
13.97500,768
13.98333,769
13.99167,770
14.00000,771
14.00833,772
14.01667,772
14.02500,773
14.03333,773
14.04167,774
14.05000,775
14.05833,776
14.06667,777
14.07500,778
14.08333,779
14.09167,780
14.10000,781
14.10833,783
14.11667,784
14.12500,786
14.13333,788
14.14167,790
14.15000,793
14.15833,796
14.16667,799
14.17500,803
14.18333,808
14.19167,814
14.20000,820
14.20833,828
14.21667,838
14.22500,849
14.23333,863
14.24167,879
14.25000,899
14.25833,922
14.26667,950
14.27500,984
14.28333,1024
14.29167,1070
14.30000,1125
14.30833,1189
14.31667,1264
14.32500,1350
14.33333,1449
14.34167,1563
14.35000,1692
14.35833,1839
14.36667,2005
14.37500,2191
14.38333,2399
14.39167,2629
14.40000,2883
14.40833,3163
14.41667,3469
14.42500,3801
14.43333,4161
14.44167,4549
14.45000,4965
14.45833,5411
14.46667,5885
14.47500,6389
14.48333,6922
14.49167,7484
14.50000,8074
14.50833,8691
14.51667,9336
14.52500,10006
14.53333,10702
14.54167,11422
14.55000,12165
14.55833,12929
14.56667,13714
14.57500,14518
14.58333,15339
14.59167,16175
14.60000,17025
14.60833,17887
14.61667,18758
14.62500,19636
14.63333,20518
14.64167,21400
14.65000,22281
14.65833,23157
14.66667,24023
14.67500,24873
14.68333,25704
14.69167,26509
14.70000,27280
14.70833,28011
14.71667,28692
14.72500,29314
14.73333,29867
14.74167,30340
14.75000,30724
14.75833,31006
14.76667,31178
14.77500,31231
14.78333,31157
14.79167,30951
14.80000,30610
14.80833,30134
14.81667,29525
14.82500,28790
14.83333,27937
14.84167,26978
14.85000,25925
14.85833,24794
14.86667,23600
14.87500,22361
14.88333,21094
14.89167,19814
14.90000,18538
14.90833,17278
14.91667,16049
14.92500,14860
14.93333,13719
14.94167,12634
14.95000,11610
14.95833,10649
14.96667,9754
14.97500,8925
14.98333,8159
14.99167,7457
15.00000,6815
15.00833,6231
15.01667,5702
15.02500,5223
15.03333,4791
15.04167,4402
15.05000,4052
15.05833,3739
15.06667,3458
15.07500,3207
15.08333,2983
15.09167,2783
15.10000,2604
15.10833,2445
15.11667,2302
15.12500,2175
15.13333,2061
15.14167,1960
15.15000,1869
15.15833,1787
15.16667,1714
15.17500,1649
15.18333,1590
15.19167,1537
15.20000,1490
15.20833,1447
15.21667,1408
15.22500,1372
15.23333,1341
15.24167,1312
15.25000,1286
15.25833,1263
15.26667,1241
15.27500,1222
15.28333,1204
15.29167,1188
15.30000,1173
15.30833,1160
15.31667,1147
15.32500,1136
15.33333,1125
15.34167,1116
15.35000,1107
15.35833,1098
15.36667,1090
15.37500,1083
15.38333,1076
15.39167,1070
15.40000,1065
15.40833,1060
15.41667,1055
15.42500,1050
15.43333,1046
15.44167,1042
15.45000,1039
15.45833,1036
15.46667,1033
15.47500,1031
15.48333,1028
15.49167,1026
15.50000,1024
15.50833,1021
15.51667,1019
15.52500,1017
15.53333,1015
15.54167,1013
15.55000,1011
15.55833,1009
15.56667,1007
15.57500,1006
15.58333,1004
15.59167,1002
15.60000,1001
15.60833,1000
15.61667,998
15.62500,997
15.63333,996
15.64167,995
15.65000,993
15.65833,992
15.66667,990
15.67500,989
15.68333,988
15.69167,987
15.70000,986
15.70833,984
15.71667,983
15.72500,982
15.73333,980
15.74167,979
15.75000,978
15.75833,977
15.76667,976
15.77500,975
15.78333,974
15.79167,973
15.80000,972
15.80833,972
15.81667,971
15.82500,971
15.83333,970
15.84167,969
15.85000,969
15.85833,968
15.86667,967
15.87500,966
15.88333,966
15.89167,965
15.90000,965
15.90833,964
15.91667,964
15.92500,963
15.93333,963
15.94167,962
15.95000,962
15.95833,962
15.96667,962
15.97500,961
15.98333,961
15.99167,960
16.00000,959
16.00833,959
16.01667,959
16.02500,959
16.03333,958
16.04167,958
16.05000,958
16.05833,958
16.06667,958
16.07500,958
16.08333,957
16.09167,957
16.10000,957
16.10833,956
16.11667,956
16.12500,956
16.13333,956
16.14167,956
16.15000,956
16.15833,956
16.16667,956
16.17500,956
16.18333,956
16.19167,956
16.20000,956
16.20833,955
16.21667,955
16.22500,955
16.23333,955
16.24167,955
16.25000,955
16.25833,955
16.26667,955
16.27500,955
16.28333,955
16.29167,955
16.30000,954
16.30833,955
16.31667,954
16.32500,954
16.33333,954
16.34167,954
16.35000,954
16.35833,954
16.36667,954
16.37500,954
16.38333,954
16.39167,954
16.40000,954
16.40833,955
16.41667,955
16.42500,955
16.43333,955
16.44167,955
16.45000,955
16.45833,955
16.46667,954
16.47500,954
16.48333,955
16.49167,955
16.50000,955
16.50833,955
16.51667,955
16.52500,956
16.53333,956
16.54167,956
16.55000,956
16.55833,956
16.56667,956
16.57500,956
16.58333,957
16.59167,957
16.60000,957
16.60833,958
16.61667,958
16.62500,958
16.63333,958
16.64167,958
16.65000,958
16.65833,958
16.66667,958
16.67500,958
16.68333,958
16.69167,958
16.70000,959
16.70833,960
16.71667,960
16.72500,960
16.73333,960
16.74167,960
16.75000,960
16.75833,961
16.76667,961
16.77500,961
16.78333,961
16.79167,961
16.80000,962
16.80833,962
16.81667,962
16.82500,963
16.83333,963
16.84167,963
16.85000,963
16.85833,963
16.86667,963
16.87500,964
16.88333,964
16.89167,964
16.90000,964
16.90833,965
16.91667,965
16.92500,966
16.93333,966
16.94167,966
16.95000,967
16.95833,967
16.96667,967
16.97500,967
16.98333,967
16.99167,967
17.00000,968
17.00833,968
17.01667,968
17.02500,969
17.03333,969
17.04167,969
17.05000,969
17.05833,969
17.06667,969
17.07500,969
17.08333,969
17.09167,970
17.10000,970
17.10833,970
17.11667,970
17.12500,970
17.13333,970
17.14167,971
17.15000,971
17.15833,971
17.16667,971
17.17500,972
17.18333,972
17.19167,972
17.20000,973
17.20833,973
17.21667,973
17.22500,973
17.23333,973
17.24167,974
17.25000,974
17.25833,974
17.26667,975
17.27500,975
17.28333,975
17.29167,975
17.30000,975
17.30833,976
17.31667,976
17.32500,976
17.33333,976
17.34167,977
17.35000,977
17.35833,978
17.36667,978
17.37500,979
17.38333,979
17.39167,979
17.40000,980
17.40833,980
17.41667,980
17.42500,981
17.43333,981
17.44167,981
17.45000,982
17.45833,982
17.46667,982
17.47500,982
17.48333,983
17.49167,983
17.50000,983
17.50833,983
17.51667,984
17.52500,984
17.53333,984
17.54167,984
17.55000,985
17.55833,985
17.56667,985
17.57500,986
17.58333,986
17.59167,986
17.60000,987
17.60833,987
17.61667,987
17.62500,988
17.63333,988
17.64167,988
17.65000,989
17.65833,989
17.66667,989
17.67500,989
17.68333,989
17.69167,990
17.70000,990
17.70833,990
17.71667,990
17.72500,991
17.73333,992
17.74167,992
17.75000,992
17.75833,993
17.76667,993
17.77500,994
17.78333,994
17.79167,994
17.80000,994
17.80833,995
17.81667,995
17.82500,996
17.83333,996
17.84167,996
17.85000,996
17.85833,996
17.86667,997
17.87500,997
17.88333,998
17.89167,998
17.90000,998
17.90833,998
17.91667,999
17.92500,999
17.93333,999
17.94167,1000
17.95000,1000
17.95833,1000
17.96667,1000
17.97500,1001
17.98333,1001
17.99167,1001
18.00000,1002
18.00833,1002
18.01667,1002
18.02500,1003
18.03333,1003
18.04167,1004
18.05000,1004
18.05833,1005
18.06667,1005
18.07500,1005
18.08333,1005
18.09167,1005
18.10000,1005
18.10833,1006
18.11667,1006
18.12500,1007
18.13333,1008
18.14167,1008
18.15000,1008
18.15833,1008
18.16667,1009
18.17500,1009
18.18333,1009
18.19167,1009
18.20000,1009
18.20833,1010
18.21667,1010
18.22500,1010
18.23333,1011
18.24167,1011
18.25000,1011
18.25833,1012
18.26667,1012
18.27500,1012
18.28333,1012
18.29167,1012
18.30000,1013
18.30833,1014
18.31667,1014
18.32500,1015
18.33333,1015
18.34167,1015
18.35000,1015
18.35833,1015
18.36667,1016
18.37500,1016
18.38333,1016
18.39167,1017
18.40000,1018
18.40833,1018
18.41667,1018
18.42500,1018
18.43333,1019
18.44167,1019
18.45000,1019
18.45833,1019
18.46667,1020
18.47500,1020
18.48333,1020
18.49167,1021
18.50000,1021
18.50833,1022
18.51667,1022
18.52500,1023
18.53333,1023
18.54167,1024
18.55000,1024
18.55833,1025
18.56667,1025
18.57500,1025
18.58333,1025
18.59167,1026
18.60000,1026
18.60833,1026
18.61667,1027
18.62500,1027
18.63333,1028
18.64167,1028
18.65000,1029
18.65833,1029
18.66667,1030
18.67500,1030
18.68333,1030
18.69167,1031
18.70000,1031
18.70833,1032
18.71667,1032
18.72500,1033
18.73333,1033
18.74167,1033
18.75000,1033
18.75833,1033
18.76667,1034
18.77500,1034
18.78333,1035
18.79167,1035
18.80000,1035
18.80833,1035
18.81667,1036
18.82500,1036
18.83333,1037
18.84167,1037
18.85000,1037
18.85833,1038
18.86667,1038
18.87500,1039
18.88333,1039
18.89167,1040
18.90000,1040
18.90833,1041
18.91667,1041
18.92500,1041
18.93333,1042
18.94167,1042
18.95000,1043
18.95833,1043
18.96667,1043
18.97500,1043
18.98333,1044
18.99167,1044
19.00000,1044
19.00833,1045
19.01667,1045
19.02500,1045
19.03333,1046
19.04167,1046
19.05000,1047
19.05833,1047
19.06667,1048
19.07500,1048
19.08333,1048
19.09167,1048
19.10000,1049
19.10833,1049
19.11667,1050
19.12500,1050
19.13333,1050
19.14167,1051
19.15000,1051
19.15833,1052
19.16667,1052
19.17500,1053
19.18333,1053
19.19167,1054
19.20000,1054
19.20833,1055
19.21667,1055
19.22500,1056
19.23333,1056
19.24167,1056
19.25000,1056
19.25833,1056
19.26667,1057
19.27500,1057
19.28333,1057
19.29167,1058
19.30000,1058
19.30833,1058
19.31667,1059
19.32500,1059
19.33333,1059
19.34167,1060
19.35000,1060
19.35833,1061
19.36667,1062
19.37500,1062
19.38333,1063
19.39167,1063
19.40000,1064
19.40833,1064
19.41667,1064
19.42500,1064
19.43333,1065
19.44167,1065
19.45000,1065
19.45833,1066
19.46667,1066
19.47500,1067
19.48333,1067
19.49167,1068
19.50000,1068
19.50833,1069
19.51667,1069
19.52500,1069
19.53333,1070
19.54167,1071
19.55000,1071
19.55833,1071
19.56667,1072
19.57500,1072
19.58333,1072
19.59167,1073
19.60000,1073
19.60833,1073
19.61667,1073
19.62500,1074
19.63333,1074
19.64167,1075
19.65000,1075
19.65833,1075
19.66667,1076
19.67500,1076
19.68333,1076
19.69167,1077
19.70000,1077
19.70833,1078
19.71667,1078
19.72500,1078
19.73333,1079
19.74167,1080
19.75000,1081
19.75833,1081
19.76667,1082
19.77500,1082
19.78333,1082
19.79167,1083
19.80000,1083
19.80833,1083
19.81667,1084
19.82500,1085
19.83333,1085
19.84167,1085
19.85000,1086
19.85833,1086
19.86667,1086
19.87500,1086
19.88333,1087
19.89167,1087
19.90000,1087
19.90833,1087
19.91667,1088
19.92500,1088
19.93333,1089
19.94167,1089
19.95000,1090
19.95833,1090
19.96667,1091
19.97500,1092
19.98333,1092
19.99167,1093
20.00000,1093
20.00833,1093
20.01667,1093
20.02500,1093
20.03333,1093
20.04167,1094
20.05000,1094
20.05833,1094
20.06667,1095
20.07500,1096
20.08333,1096
20.09167,1097
20.10000,1097
20.10833,1098
20.11667,1098
20.12500,1098
20.13333,1099
20.14167,1099
20.15000,1099
20.15833,1100
20.16667,1100
20.17500,1101
20.18333,1102
20.19167,1102
20.20000,1102
20.20833,1103
20.21667,1103
20.22500,1103
20.23333,1104
20.24167,1104
20.25000,1105
20.25833,1105
20.26667,1105
20.27500,1106
20.28333,1106
20.29167,1107
20.30000,1107
20.30833,1107
20.31667,1108
20.32500,1108
20.33333,1109
20.34167,1110
20.35000,1110
20.35833,1111
20.36667,1111
20.37500,1112
20.38333,1112
20.39167,1112
20.40000,1113
20.40833,1113
20.41667,1114
20.42500,1114
20.43333,1114
20.44167,1114
20.45000,1114
20.45833,1115
20.46667,1115
20.47500,1115
20.48333,1116
20.49167,1117
20.50000,1118
20.50833,1118
20.51667,1118
20.52500,1119
20.53333,1119
20.54167,1120
20.55000,1120
20.55833,1121
20.56667,1121
20.57500,1122
20.58333,1122
20.59167,1122
20.60000,1122
20.60833,1122
20.61667,1123
20.62500,1123
20.63333,1124
20.64167,1124
20.65000,1125
20.65833,1125
20.66667,1126
20.67500,1126
20.68333,1127
20.69167,1127
20.70000,1127
20.70833,1128
20.71667,1128
20.72500,1129
20.73333,1129
20.74167,1130
20.75000,1130
20.75833,1131
20.76667,1131
20.77500,1132
20.78333,1133
20.79167,1133
20.80000,1133
20.80833,1133
20.81667,1134
20.82500,1135
20.83333,1135
20.84167,1136
20.85000,1136
20.85833,1136
20.86667,1137
20.87500,1137
20.88333,1137
20.89167,1138
20.90000,1138
20.90833,1139
20.91667,1139
20.92500,1139
20.93333,1139
20.94167,1140
20.95000,1140
20.95833,1141
20.96667,1141
20.97500,1142
20.98333,1143
20.99167,1144
21.00000,1144
21.00833,1144
21.01667,1144
21.02500,1145
21.03333,1146
21.04167,1146
21.05000,1147
21.05833,1148
21.06667,1148
21.07500,1149
21.08333,1150
21.09167,1150
21.10000,1151
21.10833,1151
21.11667,1152
21.12500,1152
21.13333,1152
21.14167,1153
21.15000,1153
21.15833,1153
21.16667,1154
21.17500,1154
21.18333,1155
21.19167,1155
21.20000,1155
21.20833,1155
21.21667,1156
21.22500,1156
21.23333,1157
21.24167,1157
21.25000,1158
21.25833,1158
21.26667,1158
21.27500,1158
21.28333,1158
21.29167,1159
21.30000,1159
21.30833,1159
21.31667,1160
21.32500,1160
21.33333,1161
21.34167,1162
21.35000,1163
21.35833,1163
21.36667,1164
21.37500,1164
21.38333,1165
21.39167,1165
21.40000,1165
21.40833,1166
21.41667,1167
21.42500,1167
21.43333,1168
21.44167,1168
21.45000,1169
21.45833,1169
21.46667,1169
21.47500,1170
21.48333,1170
21.49167,1171
21.50000,1171
21.50833,1172
21.51667,1172
21.52500,1173
21.53333,1173
21.54167,1173
21.55000,1174
21.55833,1174
21.56667,1175
21.57500,1175
21.58333,1175
21.59167,1176
21.60000,1176
21.60833,1177
21.61667,1177
21.62500,1178
21.63333,1178
21.64167,1179
21.65000,1179
21.65833,1179
21.66667,1180
21.67500,1180
21.68333,1181
21.69167,1181
21.70000,1182
21.70833,1182
21.71667,1182
21.72500,1183
21.73333,1183
21.74167,1184
21.75000,1184
21.75833,1185
21.76667,1185
21.77500,1186
21.78333,1186
21.79167,1187
21.80000,1187
21.80833,1188
21.81667,1188
21.82500,1188
21.83333,1189
21.84167,1189
21.85000,1189
21.85833,1190
21.86667,1190
21.87500,1191
21.88333,1192
21.89167,1192
21.90000,1193
21.90833,1193
21.91667,1194
21.92500,1194
21.93333,1195
21.94167,1195
21.95000,1196
21.95833,1196
21.96667,1197
21.97500,1197
21.98333,1198
21.99167,1198
22.00000,1199
22.00833,1200
22.01667,1200
22.02500,1201
22.03333,1201
22.04167,1202
22.05000,1202
22.05833,1202
22.06667,1202
22.07500,1203
22.08333,1203
22.09167,1203
22.10000,1204
22.10833,1204
22.11667,1204
22.12500,1205
22.13333,1205
22.14167,1206
22.15000,1206
22.15833,1206
22.16667,1207
22.17500,1207
22.18333,1207
22.19167,1208
22.20000,1208
22.20833,1209
22.21667,1209
22.22500,1209
22.23333,1209
22.24167,1210
22.25000,1210
22.25833,1210
22.26667,1210
22.27500,1211
22.28333,1212
22.29167,1213
22.30000,1213
22.30833,1214
22.31667,1214
22.32500,1214
22.33333,1215
22.34167,1215
22.35000,1215
22.35833,1216
22.36667,1217
22.37500,1217
22.38333,1218
22.39167,1218
22.40000,1219
22.40833,1219
22.41667,1219
22.42500,1220
22.43333,1220
22.44167,1220
22.45000,1220
22.45833,1221
22.46667,1221
22.47500,1222
22.48333,1223
22.49167,1223
22.50000,1224
22.50833,1224
22.51667,1224
22.52500,1225
22.53333,1225
22.54167,1225
22.55000,1226
22.55833,1226
22.56667,1226
22.57500,1227
22.58333,1227
22.59167,1228
22.60000,1228
22.60833,1228
22.61667,1229
22.62500,1229
22.63333,1230
22.64167,1230
22.65000,1231
22.65833,1231
22.66667,1232
22.67500,1233
22.68333,1234
22.69167,1234
22.70000,1234
22.70833,1234
22.71667,1234
22.72500,1235
22.73333,1235
22.74167,1236
22.75000,1236
22.75833,1236
22.76667,1237
22.77500,1237
22.78333,1237
22.79167,1237
22.80000,1238
22.80833,1239
22.81667,1239
22.82500,1239
22.83333,1240
22.84167,1240
22.85000,1241
22.85833,1241
22.86667,1242
22.87500,1242
22.88333,1243
22.89167,1243
22.90000,1243
22.90833,1243
22.91667,1244
22.92500,1244
22.93333,1245
22.94167,1245
22.95000,1245
22.95833,1245
22.96667,1246
22.97500,1246
22.98333,1247
22.99167,1247
23.00000,1248
23.00833,1248
23.01667,1249
23.02500,1250
23.03333,1250
23.04167,1250
23.05000,1251
23.05833,1251
23.06667,1251
23.07500,1251
23.08333,1252
23.09167,1252
23.10000,1253
23.10833,1254
23.11667,1254
23.12500,1254
23.13333,1255
23.14167,1255
23.15000,1256
23.15833,1256
23.16667,1257
23.17500,1257
23.18333,1257
23.19167,1258
23.20000,1258
23.20833,1258
23.21667,1258
23.22500,1259
23.23333,1260
23.24167,1260
23.25000,1261
23.25833,1261
23.26667,1262
23.27500,1262
23.28333,1263
23.29167,1264
23.30000,1264
23.30833,1264
23.31667,1264
23.32500,1264
23.33333,1264
23.34167,1265
23.35000,1265
23.35833,1266
23.36667,1267
23.37500,1267
23.38333,1267
23.39167,1267
23.40000,1268
23.40833,1268
23.41667,1269
23.42500,1269
23.43333,1270
23.44167,1270
23.45000,1270
23.45833,1270
23.46667,1271
23.47500,1272
23.48333,1272
23.49167,1273
23.50000,1273
23.50833,1274
23.51667,1274
23.52500,1275
23.53333,1275
23.54167,1276
23.55000,1277
23.55833,1278
23.56667,1278
23.57500,1278
23.58333,1279
23.59167,1279
23.60000,1279
23.60833,1280
23.61667,1280
23.62500,1280
23.63333,1281
23.64167,1281
23.65000,1282
23.65833,1282
23.66667,1283
23.67500,1284
23.68333,1284
23.69167,1284
23.70000,1284
23.70833,1285
23.71667,1285
23.72500,1286
23.73333,1287
23.74167,1287
23.75000,1287
23.75833,1287
23.76667,1287
23.77500,1288
23.78333,1289
23.79167,1289
23.80000,1289
23.80833,1289
23.81667,1290
23.82500,1290
23.83333,1291
23.84167,1291
23.85000,1292
23.85833,1292
23.86667,1293
23.87500,1293
23.88333,1294
23.89167,1294
23.90000,1294
23.90833,1295
23.91667,1295
23.92500,1296
23.93333,1296
23.94167,1297
23.95000,1298
23.95833,1299
23.96667,1299
23.97500,1299
23.98333,1299
23.99167,1300
24.00000,1300
24.00833,1301
24.01667,1302
24.02500,1302
24.03333,1302
24.04167,1302
24.05000,1302
24.05833,1303
24.06667,1303
24.07500,1304
24.08333,1304
24.09167,1305
24.10000,1306
24.10833,1306
24.11667,1306
24.12500,1306
24.13333,1306
24.14167,1306
24.15000,1307
24.15833,1307
24.16667,1307
24.17500,1308
24.18333,1308
24.19167,1309
24.20000,1310
24.20833,1310
24.21667,1311
24.22500,1312
24.23333,1313
24.24167,1313
24.25000,1314
24.25833,1314
24.26667,1314
24.27500,1314
24.28333,1315
24.29167,1315
24.30000,1316
24.30833,1316
24.31667,1317
24.32500,1317
24.33333,1317
24.34167,1318
24.35000,1318
24.35833,1319
24.36667,1320
24.37500,1320
24.38333,1320
24.39167,1321
24.40000,1321
24.40833,1322
24.41667,1322
24.42500,1323
24.43333,1323
24.44167,1323
24.45000,1324
24.45833,1324
24.46667,1324
24.47500,1325
24.48333,1326
24.49167,1326
24.50000,1327
24.50833,1327
24.51667,1328
24.52500,1328
24.53333,1329
24.54167,1329
24.55000,1330
24.55833,1330
24.56667,1331
24.57500,1331
24.58333,1331
24.59167,1332
24.60000,1332
24.60833,1332
24.61667,1333
24.62500,1333
24.63333,1333
24.64167,1333
24.65000,1334
24.65833,1334
24.66667,1335
24.67500,1336
24.68333,1336
24.69167,1337
24.70000,1337
24.70833,1338
24.71667,1338
24.72500,1338
24.73333,1339
24.74167,1339
24.75000,1340
24.75833,1340
24.76667,1340
24.77500,1341
24.78333,1341
24.79167,1341
24.80000,1342
24.80833,1343
24.81667,1343
24.82500,1343
24.83333,1344
24.84167,1344
24.85000,1345
24.85833,1345
24.86667,1346
24.87500,1346
24.88333,1347
24.89167,1348
24.90000,1348
24.90833,1349
24.91667,1349
24.92500,1349
24.93333,1350
24.94167,1350
24.95000,1351
24.95833,1351
24.96667,1352
24.97500,1352
24.98333,1352
24.99167,1352
25.00000,1353
25.00833,1353
25.01667,1354
25.02500,1355
25.03333,1355
25.04167,1356
25.05000,1356
25.05833,1356
25.06667,1357
25.07500,1357
25.08333,1357
25.09167,1357
25.10000,1358
25.10833,1358
25.11667,1359
25.12500,1359
25.13333,1360
25.14167,1360
25.15000,1360
25.15833,1361
25.16667,1361
25.17500,1362
25.18333,1363
25.19167,1363
25.20000,1363
25.20833,1364
25.21667,1364
25.22500,1365
25.23333,1365
25.24167,1366
25.25000,1366
25.25833,1367
25.26667,1367
25.27500,1367
25.28333,1368
25.29167,1368
25.30000,1368
25.30833,1368
25.31667,1368
25.32500,1369
25.33333,1369
25.34167,1369
25.35000,1370
25.35833,1370
25.36667,1371
25.37500,1371
25.38333,1371
25.39167,1372
25.40000,1372
25.40833,1373
25.41667,1374
25.42500,1374
25.43333,1374
25.44167,1374
25.45000,1375
25.45833,1375
25.46667,1375
25.47500,1376
25.48333,1377
25.49167,1377
25.50000,1377
25.50833,1378
25.51667,1378
25.52500,1379
25.53333,1379
25.54167,1380
25.55000,1380
25.55833,1381
25.56667,1382
25.57500,1382
25.58333,1382
25.59167,1383
25.60000,1383
25.60833,1384
25.61667,1385
25.62500,1385
25.63333,1386
25.64167,1386
25.65000,1386
25.65833,1387
25.66667,1387
25.67500,1388
25.68333,1389
25.69167,1389
25.70000,1389
25.70833,1390
25.71667,1390
25.72500,1391
25.73333,1392
25.74167,1392
25.75000,1393
25.75833,1393
25.76667,1394
25.77500,1394
25.78333,1394
25.79167,1395
25.80000,1395
25.80833,1395
25.81667,1395
25.82500,1395
25.83333,1395
25.84167,1396
25.85000,1397
25.85833,1397
25.86667,1398
25.87500,1399
25.88333,1399
25.89167,1400
25.90000,1401
25.90833,1401
25.91667,1401
25.92500,1402
25.93333,1402
25.94167,1403
25.95000,1403
25.95833,1403
25.96667,1403
25.97500,1403
25.98333,1404
25.99167,1404
26.00000,1405
26.00833,1406
26.01667,1407
26.02500,1407
26.03333,1408
26.04167,1408
26.05000,1409
26.05833,1409
26.06667,1409
26.07500,1410
26.08333,1410
26.09167,1410
26.10000,1411
26.10833,1411
26.11667,1411
26.12500,1412
26.13333,1412
26.14167,1412
26.15000,1413
26.15833,1413
26.16667,1414
26.17500,1415
26.18333,1415
26.19167,1416
26.20000,1416
26.20833,1416
26.21667,1417
26.22500,1417
26.23333,1418
26.24167,1418
26.25000,1419
26.25833,1419
26.26667,1420
26.27500,1421
26.28333,1421
26.29167,1422
26.30000,1422
26.30833,1423
26.31667,1424
26.32500,1424
26.33333,1424
26.34167,1425
26.35000,1425
26.35833,1425
26.36667,1425
26.37500,1425
26.38333,1426
26.39167,1426
26.40000,1427
26.40833,1428
26.41667,1428
26.42500,1429
26.43333,1429
26.44167,1430
26.45000,1430
26.45833,1430
26.46667,1431
26.47500,1431
26.48333,1431
26.49167,1431
26.50000,1431
26.50833,1432
26.51667,1432
26.52500,1433
26.53333,1433
26.54167,1433
26.55000,1434
26.55833,1435
26.56667,1435
26.57500,1436
26.58333,1437
26.59167,1437
26.60000,1438
26.60833,1438
26.61667,1439
26.62500,1440
26.63333,1440
26.64167,1441
26.65000,1441
26.65833,1441
26.66667,1441
26.67500,1442
26.68333,1442
26.69167,1443
26.70000,1443
26.70833,1444
26.71667,1444
26.72500,1444
26.73333,1445
26.74167,1445
26.75000,1446
26.75833,1447
26.76667,1447
26.77500,1447
26.78333,1447
26.79167,1447
26.80000,1447
26.80833,1448
26.81667,1449
26.82500,1449
26.83333,1449
26.84167,1450
26.85000,1450
26.85833,1451
26.86667,1451
26.87500,1452
26.88333,1453
26.89167,1454
26.90000,1454
26.90833,1454
26.91667,1455
26.92500,1456
26.93333,1456
26.94167,1456
26.95000,1457
26.95833,1457
26.96667,1457
26.97500,1458
26.98333,1458
26.99167,1458
27.00000,1458
27.00833,1458
27.01667,1459
27.02500,1459
27.03333,1459
27.04167,1459
27.05000,1460
27.05833,1460
27.06667,1461
27.07500,1462
27.08333,1462
27.09167,1463
27.10000,1464
27.10833,1465
27.11667,1465
27.12500,1466
27.13333,1467
27.14167,1467
27.15000,1467
27.15833,1466
27.16667,1466
27.17500,1467
27.18333,1467
27.19167,1468
27.20000,1469
27.20833,1469
27.21667,1470
27.22500,1470
27.23333,1470
27.24167,1470
27.25000,1470
27.25833,1471
27.26667,1471
27.27500,1472
27.28333,1472
27.29167,1473
27.30000,1473
27.30833,1474
27.31667,1474
27.32500,1474
27.33333,1475
27.34167,1475
27.35000,1476
27.35833,1476
27.36667,1477
27.37500,1477
27.38333,1478
27.39167,1478
27.40000,1479
27.40833,1479
27.41667,1479
27.42500,1480
27.43333,1480
27.44167,1481
27.45000,1481
27.45833,1482
27.46667,1482
27.47500,1483
27.48333,1483
27.49167,1483
27.50000,1483
27.50833,1484
27.51667,1485
27.52500,1485
27.53333,1486
27.54167,1486
27.55000,1486
27.55833,1487
27.56667,1487
27.57500,1488
27.58333,1488
27.59167,1488
27.60000,1489
27.60833,1489
27.61667,1489
27.62500,1490
27.63333,1490
27.64167,1490
27.65000,1491
27.65833,1491
27.66667,1491
27.67500,1492
27.68333,1492
27.69167,1492
27.70000,1492
27.70833,1492
27.71667,1493
27.72500,1492
27.73333,1492
27.74167,1492
27.75000,1492
27.75833,1492
27.76667,1492
27.77500,1492
27.78333,1491
27.79167,1491
27.80000,1491
27.80833,1490
27.81667,1489
27.82500,1488
27.83333,1487
27.84167,1486
27.85000,1485
27.85833,1484
27.86667,1483
27.87500,1481
27.88333,1479
27.89167,1477
27.90000,1475
27.90833,1473
27.91667,1470
27.92500,1467
27.93333,1464
27.94167,1460
27.95000,1457
27.95833,1452
27.96667,1447
27.97500,1442
27.98333,1437
27.99167,1431
28.00000,1424
28.00833,1418
28.01667,1411
28.02500,1403
28.03333,1396
28.04167,1387
28.05000,1378
28.05833,1368
28.06667,1357
28.07500,1346
28.08333,1334
28.09167,1322
28.10000,1309
28.10833,1295
28.11667,1280
28.12500,1265
28.13333,1249
28.14167,1232
28.15000,1215
28.15833,1197
28.16667,1178
28.17500,1158
28.18333,1138
28.19167,1117
28.20000,1095
28.20833,1072
28.21667,1049
28.22500,1025
28.23333,1000
28.24167,976
28.25000,950
28.25833,924
28.26667,897
28.27500,869
28.28333,842
28.29167,814
28.30000,785
28.30833,757
28.31667,729
28.32500,700
28.33333,671
28.34167,642
28.35000,613
28.35833,584
28.36667,555
28.37500,526
28.38333,497
28.39167,469
28.40000,441
28.40833,413
28.41667,386
28.42500,360
28.43333,334
28.44167,309
28.45000,285
28.45833,262
28.46667,239
28.47500,218
28.48333,197
28.49167,177
28.50000,158
28.50833,140
28.51667,123
28.52500,107
28.53333,93
28.54167,79
28.55000,67
28.55833,56
28.56667,46
28.57500,37
28.58333,30
28.59167,23
28.60000,17
28.60833,12
28.61667,8
28.62500,6
28.63333,4
28.64167,4
28.65000,5
28.65833,6
28.66667,9
28.67500,12
28.68333,16
28.69167,21
28.70000,26
28.70833,32
28.71667,38
28.72500,46
28.73333,54
28.74167,62
28.75000,71
28.75833,80
28.76667,90
28.77500,99
28.78333,109
28.79167,120
28.80000,131
28.80833,141
28.81667,152
28.82500,162
28.83333,173
28.84167,185
28.85000,196
28.85833,208
28.86667,219
28.87500,230
28.88333,241
28.89167,251
28.90000,262
28.90833,272
28.91667,283
28.92500,293
28.93333,304
28.94167,314
28.95000,323
28.95833,333
28.96667,342
28.97500,351
28.98333,360
28.99167,368
29.00000,376
29.00833,384
29.01667,392
29.02500,399
29.03333,407
29.04167,415
29.05000,422
29.05833,429
29.06667,436
29.07500,443
29.08333,449
29.09167,456
29.10000,462
29.10833,467
29.11667,473
29.12500,478
29.13333,484
29.14167,489
29.15000,494
29.15833,499
29.16667,504
29.17500,509
29.18333,514
29.19167,518
29.20000,523
29.20833,528
29.21667,532
29.22500,536
29.23333,540
29.24167,544
29.25000,548
29.25833,552
29.26667,556
29.27500,560
29.28333,564
29.29167,568
29.30000,572
29.30833,575
29.31667,579
29.32500,583
29.33333,586
29.34167,590
29.35000,594
29.35833,597
29.36667,601
29.37500,604
29.38333,608
29.39167,611
29.40000,615
29.40833,618
29.41667,621
29.42500,625
29.43333,628
29.44167,632
29.45000,635
29.45833,638
29.46667,641
29.47500,644
29.48333,647
29.49167,650
29.50000,654
29.50833,657
29.51667,660
29.52500,662
29.53333,665
29.54167,667
29.55000,670
29.55833,672
29.56667,675
29.57500,677
29.58333,680
29.59167,682
29.60000,685
29.60833,687
29.61667,689
29.62500,691
29.63333,693
29.64167,695
29.65000,697
29.65833,699
29.66667,700
29.67500,702
29.68333,703
29.69167,704
29.70000,705
29.70833,705
29.71667,706
29.72500,706
29.73333,706
29.74167,707
29.75000,707
29.75833,706
29.76667,706
29.77500,705
29.78333,704
29.79167,703
29.80000,702
29.80833,701
29.81667,699
29.82500,697
29.83333,695
29.84167,693
29.85000,690
29.85833,687
29.86667,684
29.87500,681
29.88333,678
29.89167,674
29.90000,670
29.90833,665
29.91667,661
29.92500,656
29.93333,652
29.94167,646
29.95000,641
29.95833,635
29.96667,630
29.97500,624
29.98333,618
29.99167,611
30.00000,605
30.00833,598
30.01667,592
30.02500,585
30.03333,579
30.04167,572
30.05000,565
30.05833,558
30.06667,551
30.07500,544
30.08333,537
30.09167,530
30.10000,523
30.10833,516
30.11667,509
30.12500,502
30.13333,496
30.14167,489
30.15000,482
30.15833,476
30.16667,470
30.17500,464
30.18333,458
30.19167,453
30.20000,448
30.20833,443
30.21667,438
30.22500,434
30.23333,430
30.24167,426
30.25000,423
30.25833,420
30.26667,417
30.27500,414
30.28333,412
30.29167,411
30.30000,410
30.30833,409
30.31667,408
30.32500,408
30.33333,408
30.34167,408
30.35000,409
30.35833,410
30.36667,412
30.37500,415
30.38333,417
30.39167,420
30.40000,424
30.40833,428
30.41667,431
30.42500,435
30.43333,440
30.44167,444
30.45000,449
30.45833,454
30.46667,459
30.47500,465
30.48333,471
30.49167,477
30.50000,483
30.50833,490
30.51667,496
30.52500,503
30.53333,510
30.54167,517
30.55000,524
30.55833,532
30.56667,539
30.57500,546
30.58333,554
30.59167,561
30.60000,569
30.60833,577
30.61667,585
30.62500,592
30.63333,600
30.64167,608
30.65000,616
30.65833,624
30.66667,631
30.67500,639
30.68333,647
30.69167,654
30.70000,662
30.70833,669
30.71667,676
30.72500,683
30.73333,690
30.74167,697
30.75000,704
30.75833,710
30.76667,717
30.77500,724
30.78333,731
30.79167,737
30.80000,744
30.80833,750
30.81667,756
30.82500,762
30.83333,768
30.84167,774
30.85000,780
30.85833,786
30.86667,792
30.87500,797
30.88333,803
30.89167,808
30.90000,813
30.90833,818
30.91667,824
30.92500,829
30.93333,835
30.94167,840
30.95000,845
30.95833,850
30.96667,855
30.97500,860
30.98333,865
30.99167,870
31.00000,874
31.00833,878
31.01667,883
31.02500,887
31.03333,892
31.04167,897
31.05000,901
31.05833,906
31.06667,910
31.07500,914
31.08333,918
31.09167,923
31.10000,927
31.10833,931
31.11667,935
31.12500,939
31.13333,943
31.14167,947
31.15000,951
31.15833,955
31.16667,959
31.17500,962
31.18333,966
31.19167,970
31.20000,974
31.20833,978
31.21667,981
31.22500,985
31.23333,988
31.24167,991
31.25000,994
31.25833,998
31.26667,1001
31.27500,1005
31.28333,1008
31.29167,1012
31.30000,1015
31.30833,1019
31.31667,1022
31.32500,1026
31.33333,1029
31.34167,1032
31.35000,1035
31.35833,1038
31.36667,1042
31.37500,1045
31.38333,1048
31.39167,1051
31.40000,1055
31.40833,1058
31.41667,1061
31.42500,1064
31.43333,1067
31.44167,1070
31.45000,1073
31.45833,1075
31.46667,1078
31.47500,1081
31.48333,1084
31.49167,1087
31.50000,1089
31.50833,1092
31.51667,1095
31.52500,1098
31.53333,1100
31.54167,1103
31.55000,1105
31.55833,1108
31.56667,1110
31.57500,1112
31.58333,1114
31.59167,1117
31.60000,1119
31.60833,1122
31.61667,1124
31.62500,1126
31.63333,1129
31.64167,1131
31.65000,1133
31.65833,1135
31.66667,1137
31.67500,1140
31.68333,1142
31.69167,1145
31.70000,1147
31.70833,1149
31.71667,1152
31.72500,1154
31.73333,1155
31.74167,1157
31.75000,1159
31.75833,1160
31.76667,1162
31.77500,1164
31.78333,1166
31.79167,1168
31.80000,1170
31.80833,1172
31.81667,1174
31.82500,1176
31.83333,1177
31.84167,1179
31.85000,1181
31.85833,1182
31.86667,1184
31.87500,1185
31.88333,1187
31.89167,1189
31.90000,1191
31.90833,1193
31.91667,1194
31.92500,1196
31.93333,1198
31.94167,1200
31.95000,1201
31.95833,1203
31.96667,1205
31.97500,1206
31.98333,1208
31.99167,1209
32.00000,1211
32.00833,1212
32.01667,1214
32.02500,1215
32.03333,1217
32.04167,1218
32.05000,1220
32.05833,1221
32.06667,1222
32.07500,1223
32.08333,1225
32.09167,1226
32.10000,1227
32.10833,1229
32.11667,1230
32.12500,1232
32.13333,1233
32.14167,1235
32.15000,1236
32.15833,1237
32.16667,1238
32.17500,1240
32.18333,1241
32.19167,1243
32.20000,1245
32.20833,1246
32.21667,1248
32.22500,1249
32.23333,1250
32.24167,1252
32.25000,1253
32.25833,1254
32.26667,1255
32.27500,1256
32.28333,1257
32.29167,1259
32.30000,1260
32.30833,1261
32.31667,1262
32.32500,1263
32.33333,1264
32.34167,1265
32.35000,1266
32.35833,1268
32.36667,1269
32.37500,1270
32.38333,1272
32.39167,1273
32.40000,1273
32.40833,1274
32.41667,1276
32.42500,1277
32.43333,1278
32.44167,1280
32.45000,1281
32.45833,1282
32.46667,1283
32.47500,1284
32.48333,1285
32.49167,1286
32.50000,1287
32.50833,1288
32.51667,1289
32.52500,1291
32.53333,1292
32.54167,1293
32.55000,1295
32.55833,1296
32.56667,1297
32.57500,1297
32.58333,1298
32.59167,1299
32.60000,1300
32.60833,1301
32.61667,1302
32.62500,1303
32.63333,1304
32.64167,1305
32.65000,1306
32.65833,1307
32.66667,1308
32.67500,1310
32.68333,1311
32.69167,1312
32.70000,1313
32.70833,1314
32.71667,1315
32.72500,1316
32.73333,1317
32.74167,1318
32.75000,1319
32.75833,1320
32.76667,1321
32.77500,1322
32.78333,1324
32.79167,1324
32.80000,1325
32.80833,1326
32.81667,1327
32.82500,1327
32.83333,1328
32.84167,1329
32.85000,1331
32.85833,1332
32.86667,1333
32.87500,1334
32.88333,1334
32.89167,1335
32.90000,1336
32.90833,1337
32.91667,1338
32.92500,1339
32.93333,1340
32.94167,1341
32.95000,1342
32.95833,1343
32.96667,1344
32.97500,1345
32.98333,1346
32.99167,1348
33.00000,1349
33.00833,1350
33.01667,1351
33.02500,1352
33.03333,1353
33.04167,1354
33.05000,1355
33.05833,1356
33.06667,1357
33.07500,1358
33.08333,1359
33.09167,1361
33.10000,1362
33.10833,1363
33.11667,1364
33.12500,1365
33.13333,1366
33.14167,1367
33.15000,1368
33.15833,1369
33.16667,1370
33.17500,1371
33.18333,1372
33.19167,1373
33.20000,1374
33.20833,1375
33.21667,1376
33.22500,1377
33.23333,1379
33.24167,1380
33.25000,1381
33.25833,1383
33.26667,1384
33.27500,1386
33.28333,1387
33.29167,1388
33.30000,1389
33.30833,1390
33.31667,1391
33.32500,1392
33.33333,1393
33.34167,1394
33.35000,1396
33.35833,1397
33.36667,1398
33.37500,1399
33.38333,1399
33.39167,1400
33.40000,1401
33.40833,1403
33.41667,1404
33.42500,1405
33.43333,1407
33.44167,1408
33.45000,1409
33.45833,1411
33.46667,1412
33.47500,1413
33.48333,1415
33.49167,1416
33.50000,1417
33.50833,1418
33.51667,1419
33.52500,1420
33.53333,1421
33.54167,1423
33.55000,1424
33.55833,1426
33.56667,1427
33.57500,1429
33.58333,1430
33.59167,1431
33.60000,1432
33.60833,1433
33.61667,1433
33.62500,1434
33.63333,1435
33.64167,1436
33.65000,1437
33.65833,1438
33.66667,1439
33.67500,1441
33.68333,1442
33.69167,1444
33.70000,1445
33.70833,1446
33.71667,1447
33.72500,1448
33.73333,1450
33.74167,1451
33.75000,1452
33.75833,1453
33.76667,1455
33.77500,1456
33.78333,1457
33.79167,1458
33.80000,1459
33.80833,1460
33.81667,1461
33.82500,1462
33.83333,1464
33.84167,1465
33.85000,1466
33.85833,1467
33.86667,1468
33.87500,1470
33.88333,1471
33.89167,1472
33.90000,1473
33.90833,1474
33.91667,1475
33.92500,1476
33.93333,1477
33.94167,1478
33.95000,1479
33.95833,1480
33.96667,1481
33.97500,1483
33.98333,1484
33.99167,1485
34.00000,1486
34.00833,1487
34.01667,1488
34.02500,1490
34.03333,1491
34.04167,1493
34.05000,1494
34.05833,1496
34.06667,1497
34.07500,1498
34.08333,1499
34.09167,1501
34.10000,1502
34.10833,1503
34.11667,1504
34.12500,1505
34.13333,1506
34.14167,1507
34.15000,1508
34.15833,1509
34.16667,1511
34.17500,1512
34.18333,1513
34.19167,1515
34.20000,1516
34.20833,1517
34.21667,1518
34.22500,1520
34.23333,1521
34.24167,1522
34.25000,1523
34.25833,1524
34.26667,1526
34.27500,1527
34.28333,1528
34.29167,1529
34.30000,1530
34.30833,1531
34.31667,1533
34.32500,1534
34.33333,1535
34.34167,1536
34.35000,1537
34.35833,1538
34.36667,1539
34.37500,1540
34.38333,1540
34.39167,1541
34.40000,1543
34.40833,1544
34.41667,1545
34.42500,1546
34.43333,1548
34.44167,1549
34.45000,1551
34.45833,1552
34.46667,1553
34.47500,1554
34.48333,1555
34.49167,1556
34.50000,1557
34.50833,1558
34.51667,1559
34.52500,1560
34.53333,1561
34.54167,1562
34.55000,1564
34.55833,1565
34.56667,1566
34.57500,1568
34.58333,1569
34.59167,1570
34.60000,1572
34.60833,1573
34.61667,1574
34.62500,1575
34.63333,1576
34.64167,1577
34.65000,1578
34.65833,1579
34.66667,1581
34.67500,1582
34.68333,1583
34.69167,1584
34.70000,1585
34.70833,1586
34.71667,1588
34.72500,1589
34.73333,1590
34.74167,1591
34.75000,1592
34.75833,1593
34.76667,1594
34.77500,1595
34.78333,1596
34.79167,1598
34.80000,1599
34.80833,1600
34.81667,1601
34.82500,1602
34.83333,1603
34.84167,1604
34.85000,1605
34.85833,1606
34.86667,1607
34.87500,1608
34.88333,1609
34.89167,1611
34.90000,1612
34.90833,1613
34.91667,1615
34.92500,1616
34.93333,1617
34.94167,1619
34.95000,1620
34.95833,1620
34.96667,1621
34.97500,1623
34.98333,1624
34.99167,1625
35.00000,1626
35.00833,1627
35.01667,1628
35.02500,1629
35.03333,1630
35.04167,1631
35.05000,1633
35.05833,1635
35.06667,1636
35.07500,1637
35.08333,1638
35.09167,1639
35.10000,1640
35.10833,1641
35.11667,1642
35.12500,1643
35.13333,1644
35.14167,1645
35.15000,1647
35.15833,1648
35.16667,1649
35.17500,1650
35.18333,1651
35.19167,1652
35.20000,1653
35.20833,1654
35.21667,1655
35.22500,1656
35.23333,1658
35.24167,1659
35.25000,1660
35.25833,1661
35.26667,1662
35.27500,1663
35.28333,1664
35.29167,1665
35.30000,1666
35.30833,1668
35.31667,1669
35.32500,1670
35.33333,1671
35.34167,1672
35.35000,1673
35.35833,1674
35.36667,1675
35.37500,1676
35.38333,1677
35.39167,1678
35.40000,1679
35.40833,1680
35.41667,1681
35.42500,1682
35.43333,1684
35.44167,1685
35.45000,1686
35.45833,1688
35.46667,1689
35.47500,1690
35.48333,1691
35.49167,1692
35.50000,1693
35.50833,1695
35.51667,1696
35.52500,1696
35.53333,1697
35.54167,1699
35.55000,1700
35.55833,1701
35.56667,1701
35.57500,1702
35.58333,1703
35.59167,1704
35.60000,1705
35.60833,1706
35.61667,1706
35.62500,1707
35.63333,1708
35.64167,1709
35.65000,1710
35.65833,1712
35.66667,1713
35.67500,1714
35.68333,1715
35.69167,1716
35.70000,1717
35.70833,1718
35.71667,1720
35.72500,1721
35.73333,1722
35.74167,1723
35.75000,1724
35.75833,1725
35.76667,1725
35.77500,1726
35.78333,1727
35.79167,1728
35.80000,1729
35.80833,1730
35.81667,1731
35.82500,1733
35.83333,1734
35.84167,1735
35.85000,1736
35.85833,1737
35.86667,1738
35.87500,1738
35.88333,1739
35.89167,1740
35.90000,1741
35.90833,1742
35.91667,1743
35.92500,1744
35.93333,1745
35.94167,1747
35.95000,1748
35.95833,1749
35.96667,1750
35.97500,1751
35.98333,1752
35.99167,1753
36.00000,1754
36.00833,1756
36.01667,1757
36.02500,1757
36.03333,1758
36.04167,1759
36.05000,1760
36.05833,1761
36.06667,1761
36.07500,1762
36.08333,1763
36.09167,1764
36.10000,1766
36.10833,1767
36.11667,1768
36.12500,1769
36.13333,1770
36.14167,1771
36.15000,1772
36.15833,1773
36.16667,1773
36.17500,1774
36.18333,1775
36.19167,1776
36.20000,1777
36.20833,1778
36.21667,1779
36.22500,1780
36.23333,1781
36.24167,1783
36.25000,1784
36.25833,1785
36.26667,1786
36.27500,1787
36.28333,1788
36.29167,1789
36.30000,1790
36.30833,1792
36.31667,1792
36.32500,1794
36.33333,1795
36.34167,1796
36.35000,1797
36.35833,1798
36.36667,1799
36.37500,1799
36.38333,1800
36.39167,1802
36.40000,1803
36.40833,1804
36.41667,1805
36.42500,1806
36.43333,1807
36.44167,1809
36.45000,1810
36.45833,1811
36.46667,1812
36.47500,1813
36.48333,1814
36.49167,1816
36.50000,1817
36.50833,1819
36.51667,1820
36.52500,1821
36.53333,1822
36.54167,1823
36.55000,1824
36.55833,1825
36.56667,1826
36.57500,1828
36.58333,1829
36.59167,1830
36.60000,1832
36.60833,1834
36.61667,1835
36.62500,1837
36.63333,1839
36.64167,1840
36.65000,1842
36.65833,1844
36.66667,1845
36.67500,1847
36.68333,1848
36.69167,1850
36.70000,1852
36.70833,1854
36.71667,1856
36.72500,1858
36.73333,1860
36.74167,1863
36.75000,1865
36.75833,1867
36.76667,1870
36.77500,1872
36.78333,1874
36.79167,1877
36.80000,1879
36.80833,1881
36.81667,1884
36.82500,1886
36.83333,1889
36.84167,1892
36.85000,1894
36.85833,1897
36.86667,1901
36.87500,1904
36.88333,1906
36.89167,1909
36.90000,1912
36.90833,1915
36.91667,1918
36.92500,1922
36.93333,1925
36.94167,1928
36.95000,1932
36.95833,1935
36.96667,1939
36.97500,1942
36.98333,1945
36.99167,1949
37.00000,1953
37.00833,1957
37.01667,1960
37.02500,1964
37.03333,1967
37.04167,1971
37.05000,1974
37.05833,1978
37.06667,1982
37.07500,1985
37.08333,1989
37.09167,1993
37.10000,1996
37.10833,2000
37.11667,2003
37.12500,2007
37.13333,2010
37.14167,2014
37.15000,2017
37.15833,2020
37.16667,2023
37.17500,2026
37.18333,2029
37.19167,2032
37.20000,2035
37.20833,2038
37.21667,2041
37.22500,2043
37.23333,2045
37.24167,2048
37.25000,2051
37.25833,2053
37.26667,2055
37.27500,2057
37.28333,2058
37.29167,2060
37.30000,2062
37.30833,2063
37.31667,2065
37.32500,2067
37.33333,2068
37.34167,2069
37.35000,2070
37.35833,2071
37.36667,2072
37.37500,2073
37.38333,2074
37.39167,2075
37.40000,2075
37.40833,2076
37.41667,2076
37.42500,2076
37.43333,2075
37.44167,2075
37.45000,2075
37.45833,2074
37.46667,2074
37.47500,2073
37.48333,2072
37.49167,2072
37.50000,2071
37.50833,2070
37.51667,2069
37.52500,2068
37.53333,2067
37.54167,2066
37.55000,2065
37.55833,2063
37.56667,2062
37.57500,2061
37.58333,2059
37.59167,2057
37.60000,2056
37.60833,2055
37.61667,2053
37.62500,2051
37.63333,2050
37.64167,2048
37.65000,2046
37.65833,2044
37.66667,2042
37.67500,2040
37.68333,2038
37.69167,2036
37.70000,2035
37.70833,2033
37.71667,2031
37.72500,2030
37.73333,2028
37.74167,2025
37.75000,2023
37.75833,2022
37.76667,2020
37.77500,2019
37.78333,2017
37.79167,2015
37.80000,2014
37.80833,2012
37.81667,2010
37.82500,2009
37.83333,2007
37.84167,2005
37.85000,2004
37.85833,2002
37.86667,2001
37.87500,1999
37.88333,1998
37.89167,1997
37.90000,1996
37.90833,1994
37.91667,1993
37.92500,1991
37.93333,1990
37.94167,1989
37.95000,1988
37.95833,1987
37.96667,1986
37.97500,1985
37.98333,1984
37.99167,1983
38.00000,1983
38.00833,1982
38.01667,1980
38.02500,1980
38.03333,1979
38.04167,1978
38.05000,1978
38.05833,1977
38.06667,1977
38.07500,1976
38.08333,1976
38.09167,1976
38.10000,1975
38.10833,1975
38.11667,1975
38.12500,1975
38.13333,1975
38.14167,1974
38.15000,1974
38.15833,1974
38.16667,1974
38.17500,1974
38.18333,1973
38.19167,1973
38.20000,1973
38.20833,1974
38.21667,1974
38.22500,1975
38.23333,1975
38.24167,1975
38.25000,1975
38.25833,1975
38.26667,1975
38.27500,1975
38.28333,1975
38.29167,1976
38.30000,1976
38.30833,1976
38.31667,1977
38.32500,1977
38.33333,1977
38.34167,1978
38.35000,1977
38.35833,1977
38.36667,1977
38.37500,1977
38.38333,1978
38.39167,1978
38.40000,1979
38.40833,1980
38.41667,1980
38.42500,1981
38.43333,1981
38.44167,1982
38.45000,1982
38.45833,1982
38.46667,1982
38.47500,1983
38.48333,1983
38.49167,1984
38.50000,1984
38.50833,1985
38.51667,1985
38.52500,1986
38.53333,1987
38.54167,1988
38.55000,1989
38.55833,1989
38.56667,1990
38.57500,1990
38.58333,1990
38.59167,1991
38.60000,1992
38.60833,1992
38.61667,1993
38.62500,1993
38.63333,1994
38.64167,1995
38.65000,1996
38.65833,1996
38.66667,1997
38.67500,1997
38.68333,1997
38.69167,1998
38.70000,1999
38.70833,1999
38.71667,1999
38.72500,2000
38.73333,2000
38.74167,2000
38.75000,2001
38.75833,2002
38.76667,2002
38.77500,2003
38.78333,2004
38.79167,2004
38.80000,2005
38.80833,2006
38.81667,2006
38.82500,2006
38.83333,2006
38.84167,2007
38.85000,2007
38.85833,2007
38.86667,2008
38.87500,2008
38.88333,2009
38.89167,2010
38.90000,2010
38.90833,2011
38.91667,2011
38.92500,2012
38.93333,2012
38.94167,2013
38.95000,2014
38.95833,2014
38.96667,2015
38.97500,2015
38.98333,2016
38.99167,2016
39.00000,2016
39.00833,2017
39.01667,2017
39.02500,2018
39.03333,2019
39.04167,2019
39.05000,2019
39.05833,2019
39.06667,2020
39.07500,2020
39.08333,2021
39.09167,2022
39.10000,2022
39.10833,2023
39.11667,2023
39.12500,2024
39.13333,2025
39.14167,2025
39.15000,2026
39.15833,2026
39.16667,2026
39.17500,2027
39.18333,2027
39.19167,2027
39.20000,2027
39.20833,2028
39.21667,2028
39.22500,2028
39.23333,2029
39.24167,2029
39.25000,2030
39.25833,2030
39.26667,2031
39.27500,2031
39.28333,2031
39.29167,2032
39.30000,2032
39.30833,2033
39.31667,2033
39.32500,2033
39.33333,2034
39.34167,2034
39.35000,2035
39.35833,2035
39.36667,2036
39.37500,2036
39.38333,2036
39.39167,2036
39.40000,2036
39.40833,2037
39.41667,2037
39.42500,2038
39.43333,2039
39.44167,2039
39.45000,2040
39.45833,2040
39.46667,2041
39.47500,2041
39.48333,2041
39.49167,2042
39.50000,2042
39.50833,2043
39.51667,2043
39.52500,2044
39.53333,2045
39.54167,2045
39.55000,2046
39.55833,2046
39.56667,2046
39.57500,2046
39.58333,2046
39.59167,2046
39.60000,2047
39.60833,2048
39.61667,2048
39.62500,2049
39.63333,2050
39.64167,2050
39.65000,2051
39.65833,2051
39.66667,2052
39.67500,2052
39.68333,2053
39.69167,2053
39.70000,2054
39.70833,2054
39.71667,2054
39.72500,2054
39.73333,2055
39.74167,2056
39.75000,2056
39.75833,2056
39.76667,2057
39.77500,2056
39.78333,2056
39.79167,2056
39.80000,2057
39.80833,2057
39.81667,2058
39.82500,2059
39.83333,2059
39.84167,2060
39.85000,2061
39.85833,2062
39.86667,2062
39.87500,2063
39.88333,2063
39.89167,2063
39.90000,2063
39.90833,2064
39.91667,2064
39.92500,2065
39.93333,2066
39.94167,2066
39.95000,2067
39.95833,2067
39.96667,2068
39.97500,2068
39.98333,2068
39.99167,2069
40.00000,2070
40.00833,2070
40.01667,2070
40.02500,2070
40.03333,2070
40.04167,2071
40.05000,2071
40.05833,2071
40.06667,2072
40.07500,2072
40.08333,2072
40.09167,2073
40.10000,2074
40.10833,2074
40.11667,2075
40.12500,2075
40.13333,2076
40.14167,2077
40.15000,2077
40.15833,2078
40.16667,2078
40.17500,2078
40.18333,2079
40.19167,2079
40.20000,2080
40.20833,2080
40.21667,2080
40.22500,2081
40.23333,2081
40.24167,2082
40.25000,2082
40.25833,2082
40.26667,2082
40.27500,2082
40.28333,2082
40.29167,2083
40.30000,2083
40.30833,2083
40.31667,2084
40.32500,2084
40.33333,2084
40.34167,2085
40.35000,2085
40.35833,2085
40.36667,2086
40.37500,2086
40.38333,2087
40.39167,2088
40.40000,2088
40.40833,2089
40.41667,2089
40.42500,2090
40.43333,2090
40.44167,2091
40.45000,2091
40.45833,2092
40.46667,2092
40.47500,2092
40.48333,2093
40.49167,2093
40.50000,2093
40.50833,2093
40.51667,2094
40.52500,2094
40.53333,2094
40.54167,2095
40.55000,2095
40.55833,2096
40.56667,2096
40.57500,2096
40.58333,2097
40.59167,2097
40.60000,2098
40.60833,2098
40.61667,2099
40.62500,2099
40.63333,2100
40.64167,2100
40.65000,2101
40.65833,2102
40.66667,2102
40.67500,2102
40.68333,2103
40.69167,2103
40.70000,2103
40.70833,2104
40.71667,2104
40.72500,2104
40.73333,2105
40.74167,2105
40.75000,2105
40.75833,2106
40.76667,2106
40.77500,2106
40.78333,2106
40.79167,2107
40.80000,2107
40.80833,2108
40.81667,2108
40.82500,2108
40.83333,2109
40.84167,2110
40.85000,2110
40.85833,2111
40.86667,2111
40.87500,2112
40.88333,2112
40.89167,2112
40.90000,2113
40.90833,2113
40.91667,2113
40.92500,2113
40.93333,2114
40.94167,2114
40.95000,2114
40.95833,2115
40.96667,2115
40.97500,2115
40.98333,2116
40.99167,2116
41.00000,2117
41.00833,2117
41.01667,2118
41.02500,2118
41.03333,2119
41.04167,2119
41.05000,2120
41.05833,2120
41.06667,2120
41.07500,2121
41.08333,2121
41.09167,2122
41.10000,2122
41.10833,2122
41.11667,2122
41.12500,2123
41.13333,2123
41.14167,2123
41.15000,2123
41.15833,2124
41.16667,2124
41.17500,2125
41.18333,2125
41.19167,2126
41.20000,2127
41.20833,2127
41.21667,2127
41.22500,2128
41.23333,2128
41.24167,2128
41.25000,2128
41.25833,2129
41.26667,2129
41.27500,2130
41.28333,2131
41.29167,2132
41.30000,2133
41.30833,2133
41.31667,2133
41.32500,2133
41.33333,2134
41.34167,2135
41.35000,2136
41.35833,2136
41.36667,2136
41.37500,2136
41.38333,2136
41.39167,2136
41.40000,2136
41.40833,2137
41.41667,2137
41.42500,2138
41.43333,2138
41.44167,2139
41.45000,2139
41.45833,2139
41.46667,2140
41.47500,2140
41.48333,2140
41.49167,2141
41.50000,2141
41.50833,2142
41.51667,2142
41.52500,2143
41.53333,2143
41.54167,2143
41.55000,2143
41.55833,2144
41.56667,2144
41.57500,2144
41.58333,2145
41.59167,2145
41.60000,2145
41.60833,2146
41.61667,2146
41.62500,2147
41.63333,2147
41.64167,2147
41.65000,2147
41.65833,2148
41.66667,2148
41.67500,2149
41.68333,2149
41.69167,2150
41.70000,2150
41.70833,2151
41.71667,2151
41.72500,2151
41.73333,2151
41.74167,2151
41.75000,2152
41.75833,2152
41.76667,2152
41.77500,2152
41.78333,2152
41.79167,2153
41.80000,2153
41.80833,2154
41.81667,2154
41.82500,2154
41.83333,2155
41.84167,2155
41.85000,2156
41.85833,2156
41.86667,2157
41.87500,2157
41.88333,2158
41.89167,2158
41.90000,2159
41.90833,2159
41.91667,2160
41.92500,2160
41.93333,2160
41.94167,2160
41.95000,2160
41.95833,2161
41.96667,2161
41.97500,2161
41.98333,2162
41.99167,2162
42.00000,2163
42.00833,2163
42.01667,2164
42.02500,2164
42.03333,2164
42.04167,2164
42.05000,2165
42.05833,2165
42.06667,2166
42.07500,2166
42.08333,2166
42.09167,2166
42.10000,2167
42.10833,2167
42.11667,2167
42.12500,2168
42.13333,2168
42.14167,2169
42.15000,2169
42.15833,2170
42.16667,2170
42.17500,2171
42.18333,2171
42.19167,2172
42.20000,2172
42.20833,2172
42.21667,2172
42.22500,2172
42.23333,2173
42.24167,2173
42.25000,2174
42.25833,2174
42.26667,2174
42.27500,2174
42.28333,2174
42.29167,2174
42.30000,2175
42.30833,2176
42.31667,2176
42.32500,2177
42.33333,2177
42.34167,2177
42.35000,2178
42.35833,2178
42.36667,2178
42.37500,2179
42.38333,2179
42.39167,2180
42.40000,2180
42.40833,2180
42.41667,2181
42.42500,2181
42.43333,2181
42.44167,2181
42.45000,2182
42.45833,2182
42.46667,2183
42.47500,2183
42.48333,2184
42.49167,2184
42.50000,2184
42.50833,2184
42.51667,2185
42.52500,2185
42.53333,2186
42.54167,2186
42.55000,2186
42.55833,2186
42.56667,2187
42.57500,2187
42.58333,2187
42.59167,2188
42.60000,2188
42.60833,2189
42.61667,2189
42.62500,2190
42.63333,2191
42.64167,2191
42.65000,2191
42.65833,2191
42.66667,2191
42.67500,2192
42.68333,2192
42.69167,2193
42.70000,2193
42.70833,2193
42.71667,2194
42.72500,2194
42.73333,2194
42.74167,2195
42.75000,2195
42.75833,2196
42.76667,2196
42.77500,2197
42.78333,2198
42.79167,2198
42.80000,2198
42.80833,2199
42.81667,2199
42.82500,2200
42.83333,2200
42.84167,2200
42.85000,2200
42.85833,2201
42.86667,2201
42.87500,2201
42.88333,2202
42.89167,2202
42.90000,2203
42.90833,2203
42.91667,2204
42.92500,2204
42.93333,2205
42.94167,2205
42.95000,2205
42.95833,2206
42.96667,2206
42.97500,2207
42.98333,2207
42.99167,2207
43.00000,2208
43.00833,2208
43.01667,2208
43.02500,2209
43.03333,2209
43.04167,2209
43.05000,2210
43.05833,2210
43.06667,2211
43.07500,2211
43.08333,2212
43.09167,2212
43.10000,2213
43.10833,2213
43.11667,2213
43.12500,2214
43.13333,2214
43.14167,2214
43.15000,2214
43.15833,2215
43.16667,2215
43.17500,2215
43.18333,2215
43.19167,2216
43.20000,2216
43.20833,2217
43.21667,2217
43.22500,2218
43.23333,2219
43.24167,2219
43.25000,2220
43.25833,2220
43.26667,2221
43.27500,2221
43.28333,2221
43.29167,2221
43.30000,2222
43.30833,2222
43.31667,2222
43.32500,2223
43.33333,2223
43.34167,2223
43.35000,2224
43.35833,2224
43.36667,2224
43.37500,2224
43.38333,2225
43.39167,2225
43.40000,2225
43.40833,2226
43.41667,2227
43.42500,2227
43.43333,2227
43.44167,2228
43.45000,2228
43.45833,2228
43.46667,2228
43.47500,2229
43.48333,2229
43.49167,2230
43.50000,2230
43.50833,2230
43.51667,2230
43.52500,2230
43.53333,2231
43.54167,2232
43.55000,2232
43.55833,2233
43.56667,2233
43.57500,2234
43.58333,2234
43.59167,2234
43.60000,2234
43.60833,2234
43.61667,2235
43.62500,2235
43.63333,2236
43.64167,2237
43.65000,2237
43.65833,2237
43.66667,2238
43.67500,2238
43.68333,2238
43.69167,2239
43.70000,2239
43.70833,2240
43.71667,2240
43.72500,2240
43.73333,2241
43.74167,2241
43.75000,2241
43.75833,2242
43.76667,2242
43.77500,2242
43.78333,2243
43.79167,2243
43.80000,2243
43.80833,2243
43.81667,2244
43.82500,2244
43.83333,2244
43.84167,2245
43.85000,2245
43.85833,2246
43.86667,2246
43.87500,2246
43.88333,2247
43.89167,2247
43.90000,2247
43.90833,2247
43.91667,2247
43.92500,2247
43.93333,2247
43.94167,2247
43.95000,2248
43.95833,2248
43.96667,2249
43.97500,2250
43.98333,2250
43.99167,2251
44.00000,2251
44.00833,2251
44.01667,2252
44.02500,2253
44.03333,2253
44.04167,2254
44.05000,2254
44.05833,2254
44.06667,2255
44.07500,2256
44.08333,2256
44.09167,2257
44.10000,2257
44.10833,2257
44.11667,2257
44.12500,2257
44.13333,2257
44.14167,2257
44.15000,2257
44.15833,2258
44.16667,2258
44.17500,2259
44.18333,2259
44.19167,2260
44.20000,2260
44.20833,2260
44.21667,2260
44.22500,2261
44.23333,2262
44.24167,2262
44.25000,2262
44.25833,2263
44.26667,2263
44.27500,2264
44.28333,2264
44.29167,2264
44.30000,2265
44.30833,2265
44.31667,2266
44.32500,2266
44.33333,2266
44.34167,2267
44.35000,2267
44.35833,2267
44.36667,2268
44.37500,2269
44.38333,2269
44.39167,2268
44.40000,2268
44.40833,2269
44.41667,2270
44.42500,2270
44.43333,2271
44.44167,2271
44.45000,2272
44.45833,2272
44.46667,2272
44.47500,2272
44.48333,2273
44.49167,2273
44.50000,2273
44.50833,2273
44.51667,2273
44.52500,2273
44.53333,2273
44.54167,2274
44.55000,2274
44.55833,2275
44.56667,2275
44.57500,2276
44.58333,2276
44.59167,2276
44.60000,2277
44.60833,2277
44.61667,2278
44.62500,2278
44.63333,2278
44.64167,2279
44.65000,2279
44.65833,2279
44.66667,2280
44.67500,2280
44.68333,2281
44.69167,2281
44.70000,2281
44.70833,2282
44.71667,2282
44.72500,2282
44.73333,2283
44.74167,2283
44.75000,2284
44.75833,2284
44.76667,2284
44.77500,2285
44.78333,2286
44.79167,2286
44.80000,2286
44.80833,2286
44.81667,2287
44.82500,2287
44.83333,2287
44.84167,2288
44.85000,2288
44.85833,2288
44.86667,2289
44.87500,2289
44.88333,2289
44.89167,2290
44.90000,2290
44.90833,2290
44.91667,2290
44.92500,2290
44.93333,2291
44.94167,2291
44.95000,2292
44.95833,2292
44.96667,2293
44.97500,2293
44.98333,2294
44.99167,2294
45.00000,2295

