[Header]
Application Name,LabSolutions
Version,5.97 SP1
Data File Name,C:\Users\cremerlab\Desktop\batch_template_3182021_001_006.lcd
Output Date,3/18/2021
Output Time,4:00:41 PM

[File Information]
Type,Data File
Generated,3/18/2021 3:15:21 PM
Generated by,System Administrator
Modified,3/18/2021 4:00:41 PM
Modified by,System Administrator

[Sample Information]
Operator Name,System Administrator
Acquired,3/18/2021 3:15:40 PM
Sample Type,1:Standard
Level,1
Sample Name,2021-03-18_NC_base001
Sample ID,001
ISTD Amount1,1
ISTD Amount2,1
ISTD Amount3,1
ISTD Amount4,1
ISTD Amount5,1
ISTD Amount6,1
ISTD Amount7,1
ISTD Amount8,1
ISTD Amount9,1
ISTD Amount10,1
ISTD Amount11,1
ISTD Amount12,1
ISTD Amount13,1
ISTD Amount14,1
ISTD Amount15,1
ISTD Amount16,1
ISTD Amount17,1
ISTD Amount18,1
ISTD Amount19,1
ISTD Amount20,1
ISTD Amount21,1
ISTD Amount22,1
ISTD Amount23,1
ISTD Amount24,1
ISTD Amount25,1
ISTD Amount26,1
ISTD Amount27,1
ISTD Amount28,1
ISTD Amount29,1
ISTD Amount30,1
ISTD Amount31,1
ISTD Amount32,1
Sample Amount,1
Dilution Factor,1
Vial#,6
Injection Volume,20

[Original Files]
Data File,C:\Users\cremerlab\Desktop\batch_template_3182021_001_006.lcd
Method File,C:\LabSolutions\Data\Project1\organicacidsetc2.lcm
Batch File,C:\Users\cremerlab\Desktop\batch_template.lcb
Report Format File,c:\LabSolutions\System\DEFAULT.lsr

[File Description]


[Configuration]
Instrument Name,HPLC-PC-Instrument1
Instrument #,1
Line #,1
# of Detectors,2
Detector ID,Detector A,Detector B
Detector Name,Detector A,Detector B
# of Channels,1,1

[LC Chromatogram(Detector B-Ch1)]
Interval(msec),500
# of Points,5401
Start Time(min),0.000
End Time(min),45.000
Intensity Units,mV
Intensity Multiplier,0.001
R.Time (min),Intensity
0.00000,-8
0.00833,-8
0.01667,-4
0.02500,-2
0.03333,-6
0.04167,-12
0.05000,-16
0.05833,-19
0.06667,-21
0.07500,-21
0.08333,-20
0.09167,-18
0.10000,-16
0.10833,-14
0.11667,-12
0.12500,-10
0.13333,-8
0.14167,-7
0.15000,-6
0.15833,-5
0.16667,-5
0.17500,-4
0.18333,-4
0.19167,-4
0.20000,-5
0.20833,-5
0.21667,-6
0.22500,-6
0.23333,-5
0.24167,-5
0.25000,-4
0.25833,-4
0.26667,-4
0.27500,-4
0.28333,-4
0.29167,-5
0.30000,-5
0.30833,-6
0.31667,-6
0.32500,-7
0.33333,-7
0.34167,-8
0.35000,-8
0.35833,-9
0.36667,-10
0.37500,-11
0.38333,-11
0.39167,-12
0.40000,-12
0.40833,-12
0.41667,-12
0.42500,-12
0.43333,-12
0.44167,-12
0.45000,-12
0.45833,-12
0.46667,-12
0.47500,-13
0.48333,-13
0.49167,-13
0.50000,-14
0.50833,-14
0.51667,-14
0.52500,-14
0.53333,-14
0.54167,-13
0.55000,-13
0.55833,-11
0.56667,-10
0.57500,-9
0.58333,-7
0.59167,-6
0.60000,-5
0.60833,-5
0.61667,-5
0.62500,-6
0.63333,-8
0.64167,-10
0.65000,-13
0.65833,-16
0.66667,-19
0.67500,-23
0.68333,-26
0.69167,-29
0.70000,-32
0.70833,-34
0.71667,-36
0.72500,-37
0.73333,-38
0.74167,-39
0.75000,-39
0.75833,-39
0.76667,-39
0.77500,-39
0.78333,-39
0.79167,-38
0.80000,-38
0.80833,-37
0.81667,-37
0.82500,-36
0.83333,-36
0.84167,-35
0.85000,-34
0.85833,-34
0.86667,-33
0.87500,-33
0.88333,-32
0.89167,-32
0.90000,-32
0.90833,-31
0.91667,-31
0.92500,-31
0.93333,-31
0.94167,-30
0.95000,-30
0.95833,-30
0.96667,-30
0.97500,-30
0.98333,-30
0.99167,-30
1.00000,-30
1.00833,-30
1.01667,-30
1.02500,-30
1.03333,-31
1.04167,-31
1.05000,-32
1.05833,-32
1.06667,-32
1.07500,-33
1.08333,-33
1.09167,-33
1.10000,-33
1.10833,-33
1.11667,-34
1.12500,-34
1.13333,-35
1.14167,-35
1.15000,-35
1.15833,-35
1.16667,-35
1.17500,-35
1.18333,-35
1.19167,-35
1.20000,-35
1.20833,-36
1.21667,-36
1.22500,-37
1.23333,-37
1.24167,-37
1.25000,-37
1.25833,-37
1.26667,-38
1.27500,-38
1.28333,-38
1.29167,-38
1.30000,-39
1.30833,-39
1.31667,-39
1.32500,-40
1.33333,-40
1.34167,-41
1.35000,-41
1.35833,-41
1.36667,-41
1.37500,-42
1.38333,-42
1.39167,-42
1.40000,-42
1.40833,-43
1.41667,-44
1.42500,-44
1.43333,-44
1.44167,-45
1.45000,-45
1.45833,-46
1.46667,-46
1.47500,-46
1.48333,-45
1.49167,-46
1.50000,-46
1.50833,-46
1.51667,-47
1.52500,-47
1.53333,-47
1.54167,-47
1.55000,-47
1.55833,-48
1.56667,-48
1.57500,-48
1.58333,-49
1.59167,-49
1.60000,-50
1.60833,-50
1.61667,-50
1.62500,-51
1.63333,-50
1.64167,-50
1.65000,-50
1.65833,-50
1.66667,-50
1.67500,-50
1.68333,-51
1.69167,-51
1.70000,-51
1.70833,-52
1.71667,-52
1.72500,-53
1.73333,-54
1.74167,-55
1.75000,-55
1.75833,-55
1.76667,-55
1.77500,-55
1.78333,-55
1.79167,-56
1.80000,-56
1.80833,-56
1.81667,-56
1.82500,-56
1.83333,-56
1.84167,-56
1.85000,-56
1.85833,-56
1.86667,-56
1.87500,-56
1.88333,-57
1.89167,-57
1.90000,-57
1.90833,-57
1.91667,-58
1.92500,-58
1.93333,-58
1.94167,-58
1.95000,-58
1.95833,-59
1.96667,-59
1.97500,-60
1.98333,-60
1.99167,-61
2.00000,-61
2.00833,-61
2.01667,-61
2.02500,-62
2.03333,-62
2.04167,-62
2.05000,-62
2.05833,-62
2.06667,-62
2.07500,-62
2.08333,-62
2.09167,-63
2.10000,-63
2.10833,-63
2.11667,-63
2.12500,-63
2.13333,-63
2.14167,-63
2.15000,-64
2.15833,-64
2.16667,-64
2.17500,-64
2.18333,-65
2.19167,-65
2.20000,-65
2.20833,-66
2.21667,-66
2.22500,-66
2.23333,-67
2.24167,-67
2.25000,-67
2.25833,-67
2.26667,-68
2.27500,-68
2.28333,-68
2.29167,-68
2.30000,-68
2.30833,-68
2.31667,-69
2.32500,-69
2.33333,-70
2.34167,-70
2.35000,-71
2.35833,-71
2.36667,-72
2.37500,-72
2.38333,-72
2.39167,-72
2.40000,-73
2.40833,-73
2.41667,-73
2.42500,-73
2.43333,-73
2.44167,-73
2.45000,-73
2.45833,-73
2.46667,-73
2.47500,-73
2.48333,-73
2.49167,-74
2.50000,-74
2.50833,-74
2.51667,-75
2.52500,-75
2.53333,-75
2.54167,-75
2.55000,-75
2.55833,-76
2.56667,-76
2.57500,-76
2.58333,-76
2.59167,-77
2.60000,-77
2.60833,-77
2.61667,-77
2.62500,-77
2.63333,-77
2.64167,-77
2.65000,-78
2.65833,-78
2.66667,-79
2.67500,-79
2.68333,-79
2.69167,-79
2.70000,-79
2.70833,-79
2.71667,-80
2.72500,-80
2.73333,-81
2.74167,-81
2.75000,-82
2.75833,-82
2.76667,-82
2.77500,-82
2.78333,-82
2.79167,-82
2.80000,-82
2.80833,-82
2.81667,-82
2.82500,-82
2.83333,-83
2.84167,-83
2.85000,-84
2.85833,-84
2.86667,-84
2.87500,-84
2.88333,-84
2.89167,-84
2.90000,-85
2.90833,-85
2.91667,-85
2.92500,-85
2.93333,-85
2.94167,-86
2.95000,-86
2.95833,-86
2.96667,-86
2.97500,-87
2.98333,-87
2.99167,-87
3.00000,-87
3.00833,-87
3.01667,-88
3.02500,-88
3.03333,-88
3.04167,-88
3.05000,-88
3.05833,-88
3.06667,-88
3.07500,-89
3.08333,-89
3.09167,-90
3.10000,-90
3.10833,-90
3.11667,-90
3.12500,-90
3.13333,-90
3.14167,-90
3.15000,-90
3.15833,-90
3.16667,-91
3.17500,-91
3.18333,-91
3.19167,-91
3.20000,-91
3.20833,-91
3.21667,-91
3.22500,-91
3.23333,-91
3.24167,-91
3.25000,-91
3.25833,-92
3.26667,-92
3.27500,-92
3.28333,-93
3.29167,-93
3.30000,-93
3.30833,-93
3.31667,-93
3.32500,-93
3.33333,-94
3.34167,-94
3.35000,-94
3.35833,-94
3.36667,-94
3.37500,-95
3.38333,-95
3.39167,-95
3.40000,-95
3.40833,-95
3.41667,-96
3.42500,-96
3.43333,-96
3.44167,-96
3.45000,-96
3.45833,-96
3.46667,-97
3.47500,-97
3.48333,-97
3.49167,-97
3.50000,-97
3.50833,-97
3.51667,-97
3.52500,-97
3.53333,-96
3.54167,-97
3.55000,-97
3.55833,-97
3.56667,-98
3.57500,-98
3.58333,-98
3.59167,-98
3.60000,-99
3.60833,-99
3.61667,-99
3.62500,-99
3.63333,-99
3.64167,-99
3.65000,-99
3.65833,-99
3.66667,-100
3.67500,-100
3.68333,-100
3.69167,-100
3.70000,-100
3.70833,-100
3.71667,-101
3.72500,-101
3.73333,-102
3.74167,-102
3.75000,-102
3.75833,-102
3.76667,-102
3.77500,-103
3.78333,-103
3.79167,-103
3.80000,-104
3.80833,-104
3.81667,-104
3.82500,-104
3.83333,-104
3.84167,-104
3.85000,-104
3.85833,-105
3.86667,-105
3.87500,-105
3.88333,-106
3.89167,-106
3.90000,-106
3.90833,-106
3.91667,-106
3.92500,-106
3.93333,-106
3.94167,-106
3.95000,-107
3.95833,-107
3.96667,-107
3.97500,-107
3.98333,-108
3.99167,-108
4.00000,-108
4.00833,-108
4.01667,-109
4.02500,-108
4.03333,-108
4.04167,-108
4.05000,-109
4.05833,-109
4.06667,-109
4.07500,-110
4.08333,-110
4.09167,-110
4.10000,-111
4.10833,-111
4.11667,-111
4.12500,-111
4.13333,-111
4.14167,-112
4.15000,-112
4.15833,-112
4.16667,-113
4.17500,-113
4.18333,-114
4.19167,-114
4.20000,-114
4.20833,-114
4.21667,-115
4.22500,-115
4.23333,-115
4.24167,-115
4.25000,-115
4.25833,-115
4.26667,-116
4.27500,-116
4.28333,-116
4.29167,-116
4.30000,-116
4.30833,-117
4.31667,-117
4.32500,-117
4.33333,-117
4.34167,-118
4.35000,-118
4.35833,-118
4.36667,-118
4.37500,-119
4.38333,-119
4.39167,-120
4.40000,-120
4.40833,-120
4.41667,-120
4.42500,-121
4.43333,-121
4.44167,-121
4.45000,-121
4.45833,-121
4.46667,-121
4.47500,-122
4.48333,-122
4.49167,-123
4.50000,-123
4.50833,-123
4.51667,-123
4.52500,-124
4.53333,-124
4.54167,-124
4.55000,-124
4.55833,-124
4.56667,-125
4.57500,-125
4.58333,-126
4.59167,-126
4.60000,-126
4.60833,-127
4.61667,-127
4.62500,-127
4.63333,-128
4.64167,-128
4.65000,-129
4.65833,-129
4.66667,-129
4.67500,-129
4.68333,-129
4.69167,-129
4.70000,-129
4.70833,-129
4.71667,-130
4.72500,-130
4.73333,-130
4.74167,-130
4.75000,-131
4.75833,-131
4.76667,-132
4.77500,-132
4.78333,-133
4.79167,-133
4.80000,-133
4.80833,-133
4.81667,-133
4.82500,-133
4.83333,-133
4.84167,-133
4.85000,-134
4.85833,-134
4.86667,-134
4.87500,-135
4.88333,-135
4.89167,-135
4.90000,-135
4.90833,-135
4.91667,-135
4.92500,-136
4.93333,-136
4.94167,-136
4.95000,-137
4.95833,-137
4.96667,-138
4.97500,-138
4.98333,-138
4.99167,-138
5.00000,-138
5.00833,-138
5.01667,-139
5.02500,-139
5.03333,-139
5.04167,-140
5.05000,-140
5.05833,-140
5.06667,-141
5.07500,-141
5.08333,-141
5.09167,-141
5.10000,-141
5.10833,-141
5.11667,-142
5.12500,-142
5.13333,-143
5.14167,-143
5.15000,-143
5.15833,-143
5.16667,-143
5.17500,-144
5.18333,-144
5.19167,-144
5.20000,-144
5.20833,-144
5.21667,-144
5.22500,-144
5.23333,-144
5.24167,-145
5.25000,-145
5.25833,-146
5.26667,-146
5.27500,-146
5.28333,-147
5.29167,-147
5.30000,-147
5.30833,-147
5.31667,-148
5.32500,-148
5.33333,-148
5.34167,-148
5.35000,-148
5.35833,-149
5.36667,-149
5.37500,-150
5.38333,-150
5.39167,-150
5.40000,-150
5.40833,-151
5.41667,-151
5.42500,-151
5.43333,-152
5.44167,-152
5.45000,-152
5.45833,-152
5.46667,-152
5.47500,-153
5.48333,-153
5.49167,-154
5.50000,-154
5.50833,-154
5.51667,-154
5.52500,-155
5.53333,-155
5.54167,-155
5.55000,-155
5.55833,-155
5.56667,-155
5.57500,-155
5.58333,-155
5.59167,-156
5.60000,-156
5.60833,-156
5.61667,-156
5.62500,-157
5.63333,-157
5.64167,-157
5.65000,-157
5.65833,-158
5.66667,-158
5.67500,-159
5.68333,-159
5.69167,-159
5.70000,-159
5.70833,-159
5.71667,-159
5.72500,-159
5.73333,-159
5.74167,-160
5.75000,-160
5.75833,-160
5.76667,-161
5.77500,-161
5.78333,-161
5.79167,-162
5.80000,-162
5.80833,-163
5.81667,-163
5.82500,-163
5.83333,-164
5.84167,-164
5.85000,-164
5.85833,-165
5.86667,-165
5.87500,-166
5.88333,-166
5.89167,-167
5.90000,-167
5.90833,-167
5.91667,-167
5.92500,-167
5.93333,-166
5.94167,-166
5.95000,-166
5.95833,-167
5.96667,-167
5.97500,-167
5.98333,-168
5.99167,-168
6.00000,-169
6.00833,-169
6.01667,-169
6.02500,-169
6.03333,-169
6.04167,-169
6.05000,-169
6.05833,-169
6.06667,-169
6.07500,-169
6.08333,-169
6.09167,-170
6.10000,-170
6.10833,-171
6.11667,-171
6.12500,-171
6.13333,-172
6.14167,-172
6.15000,-172
6.15833,-173
6.16667,-173
6.17500,-173
6.18333,-174
6.19167,-174
6.20000,-174
6.20833,-174
6.21667,-174
6.22500,-174
6.23333,-175
6.24167,-175
6.25000,-176
6.25833,-176
6.26667,-176
6.27500,-176
6.28333,-176
6.29167,-176
6.30000,-177
6.30833,-177
6.31667,-178
6.32500,-178
6.33333,-178
6.34167,-178
6.35000,-179
6.35833,-178
6.36667,-178
6.37500,-178
6.38333,-179
6.39167,-179
6.40000,-179
6.40833,-180
6.41667,-180
6.42500,-180
6.43333,-181
6.44167,-181
6.45000,-181
6.45833,-181
6.46667,-182
6.47500,-182
6.48333,-183
6.49167,-183
6.50000,-183
6.50833,-183
6.51667,-183
6.52500,-184
6.53333,-184
6.54167,-184
6.55000,-185
6.55833,-185
6.56667,-185
6.57500,-186
6.58333,-186
6.59167,-186
6.60000,-186
6.60833,-187
6.61667,-187
6.62500,-187
6.63333,-187
6.64167,-187
6.65000,-187
6.65833,-188
6.66667,-188
6.67500,-188
6.68333,-188
6.69167,-188
6.70000,-188
6.70833,-188
6.71667,-189
6.72500,-189
6.73333,-189
6.74167,-189
6.75000,-190
6.75833,-190
6.76667,-190
6.77500,-190
6.78333,-191
6.79167,-191
6.80000,-192
6.80833,-192
6.81667,-192
6.82500,-192
6.83333,-192
6.84167,-192
6.85000,-193
6.85833,-193
6.86667,-194
6.87500,-194
6.88333,-194
6.89167,-195
6.90000,-196
6.90833,-196
6.91667,-196
6.92500,-196
6.93333,-197
6.94167,-197
6.95000,-197
6.95833,-197
6.96667,-198
6.97500,-198
6.98333,-198
6.99167,-198
7.00000,-198
7.00833,-199
7.01667,-199
7.02500,-199
7.03333,-200
7.04167,-200
7.05000,-200
7.05833,-200
7.06667,-200
7.07500,-200
7.08333,-201
7.09167,-202
7.10000,-202
7.10833,-203
7.11667,-203
7.12500,-203
7.13333,-204
7.14167,-204
7.15000,-204
7.15833,-204
7.16667,-205
7.17500,-205
7.18333,-206
7.19167,-206
7.20000,-207
7.20833,-207
7.21667,-207
7.22500,-207
7.23333,-207
7.24167,-207
7.25000,-207
7.25833,-208
7.26667,-208
7.27500,-208
7.28333,-209
7.29167,-209
7.30000,-209
7.30833,-209
7.31667,-209
7.32500,-209
7.33333,-209
7.34167,-209
7.35000,-209
7.35833,-210
7.36667,-210
7.37500,-211
7.38333,-211
7.39167,-211
7.40000,-211
7.40833,-212
7.41667,-212
7.42500,-213
7.43333,-213
7.44167,-213
7.45000,-213
7.45833,-214
7.46667,-214
7.47500,-214
7.48333,-214
7.49167,-214
7.50000,-215
7.50833,-215
7.51667,-215
7.52500,-215
7.53333,-215
7.54167,-216
7.55000,-216
7.55833,-216
7.56667,-217
7.57500,-217
7.58333,-217
7.59167,-218
7.60000,-218
7.60833,-218
7.61667,-218
7.62500,-218
7.63333,-218
7.64167,-218
7.65000,-218
7.65833,-218
7.66667,-219
7.67500,-219
7.68333,-220
7.69167,-220
7.70000,-220
7.70833,-220
7.71667,-221
7.72500,-221
7.73333,-221
7.74167,-221
7.75000,-222
7.75833,-222
7.76667,-223
7.77500,-223
7.78333,-224
7.79167,-224
7.80000,-224
7.80833,-224
7.81667,-224
7.82500,-225
7.83333,-225
7.84167,-225
7.85000,-226
7.85833,-226
7.86667,-226
7.87500,-226
7.88333,-226
7.89167,-226
7.90000,-226
7.90833,-227
7.91667,-228
7.92500,-228
7.93333,-228
7.94167,-228
7.95000,-228
7.95833,-228
7.96667,-229
7.97500,-229
7.98333,-229
7.99167,-229
8.00000,-229
8.00833,-229
8.01667,-229
8.02500,-230
8.03333,-230
8.04167,-230
8.05000,-231
8.05833,-231
8.06667,-231
8.07500,-232
8.08333,-232
8.09167,-232
8.10000,-233
8.10833,-233
8.11667,-233
8.12500,-233
8.13333,-234
8.14167,-234
8.15000,-235
8.15833,-235
8.16667,-235
8.17500,-236
8.18333,-236
8.19167,-236
8.20000,-236
8.20833,-237
8.21667,-237
8.22500,-237
8.23333,-238
8.24167,-238
8.25000,-238
8.25833,-238
8.26667,-238
8.27500,-238
8.28333,-239
8.29167,-239
8.30000,-240
8.30833,-240
8.31667,-241
8.32500,-240
8.33333,-240
8.34167,-240
8.35000,-241
8.35833,-241
8.36667,-241
8.37500,-242
8.38333,-242
8.39167,-242
8.40000,-242
8.40833,-243
8.41667,-243
8.42500,-243
8.43333,-243
8.44167,-243
8.45000,-244
8.45833,-245
8.46667,-245
8.47500,-246
8.48333,-246
8.49167,-246
8.50000,-245
8.50833,-245
8.51667,-246
8.52500,-246
8.53333,-246
8.54167,-246
8.55000,-247
8.55833,-247
8.56667,-248
8.57500,-248
8.58333,-248
8.59167,-248
8.60000,-248
8.60833,-248
8.61667,-248
8.62500,-249
8.63333,-249
8.64167,-250
8.65000,-251
8.65833,-251
8.66667,-251
8.67500,-251
8.68333,-251
8.69167,-252
8.70000,-252
8.70833,-253
8.71667,-253
8.72500,-253
8.73333,-253
8.74167,-253
8.75000,-253
8.75833,-253
8.76667,-253
8.77500,-254
8.78333,-255
8.79167,-255
8.80000,-256
8.80833,-256
8.81667,-256
8.82500,-256
8.83333,-256
8.84167,-256
8.85000,-256
8.85833,-257
8.86667,-257
8.87500,-258
8.88333,-258
8.89167,-258
8.90000,-259
8.90833,-259
8.91667,-259
8.92500,-259
8.93333,-259
8.94167,-259
8.95000,-259
8.95833,-260
8.96667,-260
8.97500,-260
8.98333,-260
8.99167,-260
9.00000,-260
9.00833,-260
9.01667,-260
9.02500,-260
9.03333,-261
9.04167,-261
9.05000,-261
9.05833,-262
9.06667,-262
9.07500,-263
9.08333,-263
9.09167,-264
9.10000,-264
9.10833,-264
9.11667,-265
9.12500,-265
9.13333,-265
9.14167,-265
9.15000,-265
9.15833,-265
9.16667,-266
9.17500,-266
9.18333,-267
9.19167,-267
9.20000,-268
9.20833,-268
9.21667,-268
9.22500,-268
9.23333,-268
9.24167,-268
9.25000,-268
9.25833,-269
9.26667,-269
9.27500,-269
9.28333,-269
9.29167,-269
9.30000,-270
9.30833,-270
9.31667,-270
9.32500,-270
9.33333,-271
9.34167,-272
9.35000,-272
9.35833,-272
9.36667,-272
9.37500,-273
9.38333,-273
9.39167,-273
9.40000,-273
9.40833,-273
9.41667,-273
9.42500,-273
9.43333,-273
9.44167,-274
9.45000,-274
9.45833,-274
9.46667,-274
9.47500,-275
9.48333,-275
9.49167,-275
9.50000,-276
9.50833,-276
9.51667,-276
9.52500,-277
9.53333,-277
9.54167,-278
9.55000,-278
9.55833,-278
9.56667,-278
9.57500,-279
9.58333,-279
9.59167,-279
9.60000,-280
9.60833,-280
9.61667,-281
9.62500,-282
9.63333,-282
9.64167,-282
9.65000,-282
9.65833,-282
9.66667,-282
9.67500,-282
9.68333,-282
9.69167,-282
9.70000,-282
9.70833,-283
9.71667,-283
9.72500,-284
9.73333,-284
9.74167,-284
9.75000,-284
9.75833,-285
9.76667,-285
9.77500,-285
9.78333,-285
9.79167,-286
9.80000,-286
9.80833,-287
9.81667,-287
9.82500,-288
9.83333,-288
9.84167,-288
9.85000,-289
9.85833,-289
9.86667,-289
9.87500,-289
9.88333,-289
9.89167,-289
9.90000,-290
9.90833,-290
9.91667,-290
9.92500,-291
9.93333,-291
9.94167,-292
9.95000,-292
9.95833,-292
9.96667,-292
9.97500,-292
9.98333,-292
9.99167,-293
10.00000,-293
10.00833,-294
10.01667,-294
10.02500,-295
10.03333,-295
10.04167,-295
10.05000,-296
10.05833,-296
10.06667,-297
10.07500,-297
10.08333,-297
10.09167,-297
10.10000,-298
10.10833,-298
10.11667,-299
10.12500,-299
10.13333,-300
10.14167,-301
10.15000,-301
10.15833,-301
10.16667,-302
10.17500,-302
10.18333,-303
10.19167,-303
10.20000,-303
10.20833,-303
10.21667,-304
10.22500,-304
10.23333,-304
10.24167,-305
10.25000,-305
10.25833,-305
10.26667,-305
10.27500,-305
10.28333,-305
10.29167,-305
10.30000,-304
10.30833,-304
10.31667,-304
10.32500,-304
10.33333,-303
10.34167,-302
10.35000,-302
10.35833,-302
10.36667,-302
10.37500,-301
10.38333,-300
10.39167,-300
10.40000,-299
10.40833,-298
10.41667,-298
10.42500,-297
10.43333,-297
10.44167,-296
10.45000,-296
10.45833,-297
10.46667,-297
10.47500,-297
10.48333,-298
10.49167,-298
10.50000,-299
10.50833,-301
10.51667,-303
10.52500,-306
10.53333,-311
10.54167,-317
10.55000,-326
10.55833,-337
10.56667,-352
10.57500,-372
10.58333,-397
10.59167,-430
10.60000,-471
10.60833,-523
10.61667,-585
10.62500,-660
10.63333,-747
10.64167,-849
10.65000,-964
10.65833,-1092
10.66667,-1233
10.67500,-1382
10.68333,-1537
10.69167,-1694
10.70000,-1846
10.70833,-1986
10.71667,-2108
10.72500,-2201
10.73333,-2256
10.74167,-2263
10.75000,-2212
10.75833,-2090
10.76667,-1888
10.77500,-1595
10.78333,-1201
10.79167,-698
10.80000,-77
10.80833,668
10.81667,1543
10.82500,2551
10.83333,3694
10.84167,4971
10.85000,6381
10.85833,7921
10.86667,9585
10.87500,11364
10.88333,13248
10.89167,15225
10.90000,17278
10.90833,19391
10.91667,21541
10.92500,23708
10.93333,25864
10.94167,27984
10.95000,30037
10.95833,31992
10.96667,33817
10.97500,35482
10.98333,36958
10.99167,38215
11.00000,39231
11.00833,39985
11.01667,40465
11.02500,40661
11.03333,40572
11.04167,40204
11.05000,39569
11.05833,38684
11.06667,37572
11.07500,36261
11.08333,34779
11.09167,33160
11.10000,31434
11.10833,29634
11.11667,27790
11.12500,25930
11.13333,24078
11.14167,22258
11.15000,20487
11.15833,18780
11.16667,17150
11.17500,15606
11.18333,14153
11.19167,12794
11.20000,11532
11.20833,10366
11.21667,9293
11.22500,8311
11.23333,7416
11.24167,6604
11.25000,5869
11.25833,5206
11.26667,4610
11.27500,4076
11.28333,3599
11.29167,3172
11.30000,2793
11.30833,2456
11.31667,2157
11.32500,1893
11.33333,1658
11.34167,1451
11.35000,1268
11.35833,1107
11.36667,965
11.37500,840
11.38333,730
11.39167,633
11.40000,547
11.40833,471
11.41667,404
11.42500,345
11.43333,293
11.44167,247
11.45000,205
11.45833,169
11.46667,136
11.47500,106
11.48333,80
11.49167,56
11.50000,35
11.50833,16
11.51667,-1
11.52500,-17
11.53333,-32
11.54167,-45
11.55000,-58
11.55833,-69
11.56667,-80
11.57500,-90
11.58333,-99
11.59167,-108
11.60000,-116
11.60833,-123
11.61667,-131
11.62500,-138
11.63333,-144
11.64167,-150
11.65000,-156
11.65833,-162
11.66667,-167
11.67500,-172
11.68333,-178
11.69167,-183
11.70000,-188
11.70833,-192
11.71667,-196
11.72500,-201
11.73333,-205
11.74167,-210
11.75000,-214
11.75833,-218
11.76667,-222
11.77500,-226
11.78333,-229
11.79167,-232
11.80000,-236
11.80833,-239
11.81667,-242
11.82500,-245
11.83333,-249
11.84167,-252
11.85000,-255
11.85833,-259
11.86667,-262
11.87500,-265
11.88333,-268
11.89167,-270
11.90000,-273
11.90833,-275
11.91667,-278
11.92500,-280
11.93333,-282
11.94167,-284
11.95000,-286
11.95833,-288
11.96667,-289
11.97500,-290
11.98333,-292
11.99167,-293
12.00000,-294
12.00833,-296
12.01667,-297
12.02500,-298
12.03333,-300
12.04167,-301
12.05000,-302
12.05833,-302
12.06667,-303
12.07500,-304
12.08333,-304
12.09167,-305
12.10000,-306
12.10833,-307
12.11667,-307
12.12500,-307
12.13333,-307
12.14167,-307
12.15000,-307
12.15833,-307
12.16667,-308
12.17500,-308
12.18333,-308
12.19167,-308
12.20000,-308
12.20833,-307
12.21667,-307
12.22500,-308
12.23333,-308
12.24167,-307
12.25000,-307
12.25833,-307
12.26667,-307
12.27500,-308
12.28333,-308
12.29167,-307
12.30000,-307
12.30833,-307
12.31667,-307
12.32500,-307
12.33333,-307
12.34167,-307
12.35000,-307
12.35833,-307
12.36667,-307
12.37500,-306
12.38333,-306
12.39167,-307
12.40000,-307
12.40833,-307
12.41667,-307
12.42500,-308
12.43333,-308
12.44167,-308
12.45000,-308
12.45833,-308
12.46667,-308
12.47500,-309
12.48333,-309
12.49167,-309
12.50000,-310
12.50833,-310
12.51667,-311
12.52500,-311
12.53333,-312
12.54167,-312
12.55000,-312
12.55833,-312
12.56667,-312
12.57500,-313
12.58333,-313
12.59167,-313
12.60000,-314
12.60833,-314
12.61667,-315
12.62500,-316
12.63333,-316
12.64167,-317
12.65000,-317
12.65833,-318
12.66667,-319
12.67500,-319
12.68333,-320
12.69167,-321
12.70000,-321
12.70833,-322
12.71667,-323
12.72500,-323
12.73333,-324
12.74167,-325
12.75000,-325
12.75833,-326
12.76667,-326
12.77500,-326
12.78333,-327
12.79167,-327
12.80000,-328
12.80833,-328
12.81667,-328
12.82500,-329
12.83333,-330
12.84167,-331
12.85000,-332
12.85833,-333
12.86667,-334
12.87500,-335
12.88333,-335
12.89167,-336
12.90000,-337
12.90833,-337
12.91667,-338
12.92500,-338
12.93333,-339
12.94167,-339
12.95000,-339
12.95833,-340
12.96667,-341
12.97500,-341
12.98333,-342
12.99167,-342
13.00000,-343
13.00833,-343
13.01667,-343
13.02500,-344
13.03333,-344
13.04167,-345
13.05000,-345
13.05833,-346
13.06667,-347
13.07500,-347
13.08333,-348
13.09167,-349
13.10000,-350
13.10833,-351
13.11667,-351
13.12500,-351
13.13333,-351
13.14167,-352
13.15000,-352
13.15833,-353
13.16667,-354
13.17500,-355
13.18333,-355
13.19167,-356
13.20000,-356
13.20833,-357
13.21667,-358
13.22500,-358
13.23333,-359
13.24167,-359
13.25000,-359
13.25833,-360
13.26667,-360
13.27500,-361
13.28333,-361
13.29167,-362
13.30000,-362
13.30833,-363
13.31667,-363
13.32500,-364
13.33333,-365
13.34167,-365
13.35000,-366
13.35833,-366
13.36667,-367
13.37500,-368
13.38333,-368
13.39167,-369
13.40000,-370
13.40833,-370
13.41667,-371
13.42500,-371
13.43333,-372
13.44167,-372
13.45000,-373
13.45833,-374
13.46667,-374
13.47500,-375
13.48333,-375
13.49167,-376
13.50000,-377
13.50833,-377
13.51667,-378
13.52500,-378
13.53333,-378
13.54167,-378
13.55000,-379
13.55833,-380
13.56667,-380
13.57500,-381
13.58333,-381
13.59167,-381
13.60000,-382
13.60833,-383
13.61667,-384
13.62500,-384
13.63333,-385
13.64167,-385
13.65000,-385
13.65833,-385
13.66667,-385
13.67500,-386
13.68333,-386
13.69167,-386
13.70000,-387
13.70833,-387
13.71667,-387
13.72500,-388
13.73333,-388
13.74167,-388
13.75000,-388
13.75833,-389
13.76667,-389
13.77500,-389
13.78333,-389
13.79167,-390
13.80000,-390
13.80833,-391
13.81667,-391
13.82500,-392
13.83333,-392
13.84167,-392
13.85000,-392
13.85833,-392
13.86667,-392
13.87500,-392
13.88333,-392
13.89167,-392
13.90000,-392
13.90833,-392
13.91667,-392
13.92500,-392
13.93333,-392
13.94167,-392
13.95000,-392
13.95833,-392
13.96667,-393
13.97500,-393
13.98333,-393
13.99167,-393
14.00000,-393
14.00833,-392
14.01667,-392
14.02500,-392
14.03333,-392
14.04167,-392
14.05000,-391
14.05833,-390
14.06667,-389
14.07500,-389
14.08333,-388
14.09167,-387
14.10000,-386
14.10833,-385
14.11667,-383
14.12500,-382
14.13333,-380
14.14167,-378
14.15000,-375
14.15833,-372
14.16667,-369
14.17500,-365
14.18333,-360
14.19167,-354
14.20000,-347
14.20833,-338
14.21667,-327
14.22500,-315
14.23333,-300
14.24167,-282
14.25000,-260
14.25833,-233
14.26667,-202
14.27500,-165
14.28333,-121
14.29167,-69
14.30000,-8
14.30833,64
14.31667,147
14.32500,245
14.33333,357
14.34167,486
14.35000,633
14.35833,801
14.36667,991
14.37500,1204
14.38333,1442
14.39167,1708
14.40000,2002
14.40833,2326
14.41667,2681
14.42500,3069
14.43333,3490
14.44167,3946
14.45000,4437
14.45833,4965
14.46667,5529
14.47500,6130
14.48333,6768
14.49167,7444
14.50000,8156
14.50833,8906
14.51667,9693
14.52500,10515
14.53333,11374
14.54167,12269
14.55000,13199
14.55833,14163
14.56667,15161
14.57500,16191
14.58333,17254
14.59167,18348
14.60000,19473
14.60833,20629
14.61667,21814
14.62500,23028
14.63333,24271
14.64167,25541
14.65000,26838
14.65833,28162
14.66667,29512
14.67500,30886
14.68333,32286
14.69167,33709
14.70000,35156
14.70833,36626
14.71667,38119
14.72500,39635
14.73333,41172
14.74167,42730
14.75000,44309
14.75833,45909
14.76667,47528
14.77500,49167
14.78333,50824
14.79167,52499
14.80000,54192
14.80833,55902
14.81667,57628
14.82500,59370
14.83333,61126
14.84167,62895
14.85000,64676
14.85833,66469
14.86667,68270
14.87500,70078
14.88333,71891
14.89167,73704
14.90000,75514
14.90833,77315
14.91667,79098
14.92500,80853
14.93333,82567
14.94167,84222
14.95000,85793
14.95833,87255
14.96667,88572
14.97500,89705
14.98333,90611
14.99167,91246
15.00000,91561
15.00833,91513
15.01667,91064
15.02500,90181
15.03333,88844
15.04167,87044
15.05000,84788
15.05833,82097
15.06667,79004
15.07500,75558
15.08333,71814
15.09167,67838
15.10000,63699
15.10833,59466
15.11667,55208
15.12500,50987
15.13333,46860
15.14167,42874
15.15000,39068
15.15833,35470
15.16667,32102
15.17500,28974
15.18333,26091
15.19167,23453
15.20000,21051
15.20833,18877
15.21667,16916
15.22500,15155
15.23333,13577
15.24167,12166
15.25000,10908
15.25833,9786
15.26667,8787
15.27500,7897
15.28333,7104
15.29167,6398
15.30000,5770
15.30833,5208
15.31667,4707
15.32500,4259
15.33333,3858
15.34167,3498
15.35000,3176
15.35833,2886
15.36667,2625
15.37500,2390
15.38333,2178
15.39167,1986
15.40000,1813
15.40833,1656
15.41667,1514
15.42500,1384
15.43333,1267
15.44167,1161
15.45000,1064
15.45833,975
15.46667,894
15.47500,820
15.48333,752
15.49167,690
15.50000,632
15.50833,580
15.51667,531
15.52500,487
15.53333,446
15.54167,407
15.55000,372
15.55833,339
15.56667,308
15.57500,280
15.58333,253
15.59167,229
15.60000,207
15.60833,185
15.61667,165
15.62500,146
15.63333,128
15.64167,111
15.65000,96
15.65833,81
15.66667,67
15.67500,54
15.68333,41
15.69167,29
15.70000,18
15.70833,7
15.71667,-3
15.72500,-13
15.73333,-22
15.74167,-31
15.75000,-39
15.75833,-47
15.76667,-54
15.77500,-61
15.78333,-68
15.79167,-74
15.80000,-80
15.80833,-85
15.81667,-91
15.82500,-96
15.83333,-101
15.84167,-106
15.85000,-111
15.85833,-115
15.86667,-120
15.87500,-124
15.88333,-127
15.89167,-131
15.90000,-134
15.90833,-138
15.91667,-141
15.92500,-145
15.93333,-148
15.94167,-151
15.95000,-154
15.95833,-157
15.96667,-159
15.97500,-161
15.98333,-164
15.99167,-166
16.00000,-168
16.00833,-171
16.01667,-174
16.02500,-176
16.03333,-178
16.04167,-181
16.05000,-183
16.05833,-185
16.06667,-188
16.07500,-190
16.08333,-192
16.09167,-194
16.10000,-196
16.10833,-198
16.11667,-200
16.12500,-202
16.13333,-204
16.14167,-206
16.15000,-209
16.15833,-211
16.16667,-213
16.17500,-215
16.18333,-217
16.19167,-219
16.20000,-221
16.20833,-223
16.21667,-225
16.22500,-228
16.23333,-230
16.24167,-232
16.25000,-234
16.25833,-236
16.26667,-239
16.27500,-241
16.28333,-243
16.29167,-246
16.30000,-248
16.30833,-250
16.31667,-253
16.32500,-255
16.33333,-257
16.34167,-259
16.35000,-261
16.35833,-263
16.36667,-265
16.37500,-267
16.38333,-269
16.39167,-271
16.40000,-273
16.40833,-275
16.41667,-277
16.42500,-279
16.43333,-281
16.44167,-283
16.45000,-285
16.45833,-287
16.46667,-289
16.47500,-290
16.48333,-292
16.49167,-294
16.50000,-296
16.50833,-297
16.51667,-299
16.52500,-301
16.53333,-304
16.54167,-305
16.55000,-307
16.55833,-308
16.56667,-310
16.57500,-312
16.58333,-314
16.59167,-315
16.60000,-317
16.60833,-319
16.61667,-321
16.62500,-323
16.63333,-325
16.64167,-326
16.65000,-327
16.65833,-329
16.66667,-331
16.67500,-332
16.68333,-334
16.69167,-335
16.70000,-337
16.70833,-338
16.71667,-339
16.72500,-341
16.73333,-342
16.74167,-344
16.75000,-346
16.75833,-347
16.76667,-349
16.77500,-350
16.78333,-352
16.79167,-353
16.80000,-354
16.80833,-356
16.81667,-357
16.82500,-358
16.83333,-359
16.84167,-361
16.85000,-362
16.85833,-363
16.86667,-365
16.87500,-366
16.88333,-367
16.89167,-369
16.90000,-370
16.90833,-371
16.91667,-373
16.92500,-374
16.93333,-376
16.94167,-376
16.95000,-377
16.95833,-378
16.96667,-379
16.97500,-380
16.98333,-382
16.99167,-383
17.00000,-384
17.00833,-385
17.01667,-386
17.02500,-388
17.03333,-389
17.04167,-390
17.05000,-391
17.05833,-392
17.06667,-393
17.07500,-394
17.08333,-395
17.09167,-397
17.10000,-398
17.10833,-399
17.11667,-401
17.12500,-402
17.13333,-403
17.14167,-404
17.15000,-405
17.15833,-406
17.16667,-407
17.17500,-408
17.18333,-409
17.19167,-411
17.20000,-412
17.20833,-413
17.21667,-415
17.22500,-416
17.23333,-417
17.24167,-418
17.25000,-419
17.25833,-420
17.26667,-421
17.27500,-422
17.28333,-422
17.29167,-423
17.30000,-424
17.30833,-425
17.31667,-427
17.32500,-428
17.33333,-429
17.34167,-430
17.35000,-431
17.35833,-432
17.36667,-433
17.37500,-434
17.38333,-436
17.39167,-437
17.40000,-438
17.40833,-439
17.41667,-440
17.42500,-441
17.43333,-442
17.44167,-443
17.45000,-444
17.45833,-445
17.46667,-446
17.47500,-446
17.48333,-448
17.49167,-449
17.50000,-450
17.50833,-450
17.51667,-451
17.52500,-452
17.53333,-453
17.54167,-454
17.55000,-455
17.55833,-456
17.56667,-457
17.57500,-458
17.58333,-460
17.59167,-461
17.60000,-462
17.60833,-463
17.61667,-464
17.62500,-465
17.63333,-465
17.64167,-466
17.65000,-467
17.65833,-468
17.66667,-469
17.67500,-470
17.68333,-471
17.69167,-472
17.70000,-473
17.70833,-474
17.71667,-475
17.72500,-476
17.73333,-477
17.74167,-478
17.75000,-478
17.75833,-479
17.76667,-480
17.77500,-481
17.78333,-482
17.79167,-483
17.80000,-483
17.80833,-484
17.81667,-485
17.82500,-486
17.83333,-487
17.84167,-488
17.85000,-489
17.85833,-490
17.86667,-491
17.87500,-492
17.88333,-493
17.89167,-493
17.90000,-494
17.90833,-495
17.91667,-495
17.92500,-496
17.93333,-497
17.94167,-498
17.95000,-498
17.95833,-499
17.96667,-500
17.97500,-501
17.98333,-502
17.99167,-503
18.00000,-504
18.00833,-504
18.01667,-504
18.02500,-505
18.03333,-506
18.04167,-506
18.05000,-507
18.05833,-507
18.06667,-508
18.07500,-509
18.08333,-509
18.09167,-510
18.10000,-511
18.10833,-512
18.11667,-513
18.12500,-513
18.13333,-514
18.14167,-515
18.15000,-516
18.15833,-517
18.16667,-517
18.17500,-518
18.18333,-519
18.19167,-519
18.20000,-520
18.20833,-520
18.21667,-520
18.22500,-521
18.23333,-521
18.24167,-522
18.25000,-523
18.25833,-524
18.26667,-524
18.27500,-525
18.28333,-526
18.29167,-527
18.30000,-527
18.30833,-528
18.31667,-529
18.32500,-529
18.33333,-530
18.34167,-531
18.35000,-531
18.35833,-531
18.36667,-531
18.37500,-532
18.38333,-532
18.39167,-533
18.40000,-533
18.40833,-534
18.41667,-534
18.42500,-535
18.43333,-535
18.44167,-536
18.45000,-537
18.45833,-537
18.46667,-538
18.47500,-539
18.48333,-540
18.49167,-540
18.50000,-541
18.50833,-542
18.51667,-542
18.52500,-543
18.53333,-543
18.54167,-543
18.55000,-544
18.55833,-544
18.56667,-545
18.57500,-545
18.58333,-546
18.59167,-547
18.60000,-547
18.60833,-547
18.61667,-548
18.62500,-548
18.63333,-549
18.64167,-549
18.65000,-550
18.65833,-550
18.66667,-551
18.67500,-551
18.68333,-551
18.69167,-551
18.70000,-551
18.70833,-551
18.71667,-551
18.72500,-551
18.73333,-552
18.74167,-552
18.75000,-553
18.75833,-553
18.76667,-553
18.77500,-553
18.78333,-553
18.79167,-553
18.80000,-553
18.80833,-553
18.81667,-553
18.82500,-553
18.83333,-553
18.84167,-553
18.85000,-553
18.85833,-553
18.86667,-553
18.87500,-554
18.88333,-554
18.89167,-554
18.90000,-555
18.90833,-555
18.91667,-555
18.92500,-556
18.93333,-556
18.94167,-556
18.95000,-556
18.95833,-557
18.96667,-558
18.97500,-559
18.98333,-559
18.99167,-560
19.00000,-561
19.00833,-562
19.01667,-563
19.02500,-563
19.03333,-564
19.04167,-565
19.05000,-566
19.05833,-567
19.06667,-568
19.07500,-568
19.08333,-569
19.09167,-570
19.10000,-571
19.10833,-572
19.11667,-573
19.12500,-573
19.13333,-574
19.14167,-575
19.15000,-576
19.15833,-577
19.16667,-578
19.17500,-579
19.18333,-580
19.19167,-581
19.20000,-582
19.20833,-582
19.21667,-583
19.22500,-583
19.23333,-584
19.24167,-585
19.25000,-586
19.25833,-586
19.26667,-587
19.27500,-588
19.28333,-588
19.29167,-589
19.30000,-590
19.30833,-591
19.31667,-591
19.32500,-592
19.33333,-592
19.34167,-593
19.35000,-594
19.35833,-594
19.36667,-595
19.37500,-596
19.38333,-597
19.39167,-597
19.40000,-598
19.40833,-598
19.41667,-598
19.42500,-598
19.43333,-599
19.44167,-599
19.45000,-599
19.45833,-600
19.46667,-601
19.47500,-601
19.48333,-602
19.49167,-603
19.50000,-603
19.50833,-604
19.51667,-604
19.52500,-604
19.53333,-605
19.54167,-606
19.55000,-606
19.55833,-607
19.56667,-607
19.57500,-608
19.58333,-609
19.59167,-609
19.60000,-609
19.60833,-610
19.61667,-610
19.62500,-610
19.63333,-610
19.64167,-611
19.65000,-611
19.65833,-612
19.66667,-612
19.67500,-613
19.68333,-614
19.69167,-614
19.70000,-615
19.70833,-615
19.71667,-616
19.72500,-616
19.73333,-616
19.74167,-617
19.75000,-618
19.75833,-618
19.76667,-619
19.77500,-619
19.78333,-620
19.79167,-620
19.80000,-620
19.80833,-620
19.81667,-621
19.82500,-621
19.83333,-622
19.84167,-623
19.85000,-623
19.85833,-624
19.86667,-624
19.87500,-625
19.88333,-625
19.89167,-626
19.90000,-626
19.90833,-626
19.91667,-627
19.92500,-628
19.93333,-628
19.94167,-628
19.95000,-628
19.95833,-628
19.96667,-629
19.97500,-629
19.98333,-630
19.99167,-630
20.00000,-631
20.00833,-631
20.01667,-632
20.02500,-632
20.03333,-633
20.04167,-633
20.05000,-634
20.05833,-634
20.06667,-634
20.07500,-634
20.08333,-635
20.09167,-635
20.10000,-636
20.10833,-636
20.11667,-637
20.12500,-637
20.13333,-638
20.14167,-639
20.15000,-639
20.15833,-640
20.16667,-640
20.17500,-640
20.18333,-640
20.19167,-640
20.20000,-641
20.20833,-641
20.21667,-642
20.22500,-642
20.23333,-642
20.24167,-643
20.25000,-643
20.25833,-644
20.26667,-644
20.27500,-644
20.28333,-645
20.29167,-645
20.30000,-646
20.30833,-646
20.31667,-647
20.32500,-647
20.33333,-648
20.34167,-648
20.35000,-648
20.35833,-649
20.36667,-649
20.37500,-650
20.38333,-650
20.39167,-650
20.40000,-651
20.40833,-651
20.41667,-651
20.42500,-651
20.43333,-652
20.44167,-653
20.45000,-653
20.45833,-653
20.46667,-654
20.47500,-655
20.48333,-655
20.49167,-655
20.50000,-655
20.50833,-656
20.51667,-656
20.52500,-656
20.53333,-657
20.54167,-657
20.55000,-657
20.55833,-658
20.56667,-658
20.57500,-658
20.58333,-659
20.59167,-659
20.60000,-660
20.60833,-661
20.61667,-661
20.62500,-662
20.63333,-663
20.64167,-663
20.65000,-663
20.65833,-664
20.66667,-664
20.67500,-664
20.68333,-665
20.69167,-665
20.70000,-666
20.70833,-666
20.71667,-667
20.72500,-667
20.73333,-667
20.74167,-667
20.75000,-668
20.75833,-668
20.76667,-668
20.77500,-669
20.78333,-669
20.79167,-670
20.80000,-670
20.80833,-670
20.81667,-671
20.82500,-671
20.83333,-672
20.84167,-672
20.85000,-672
20.85833,-673
20.86667,-673
20.87500,-673
20.88333,-674
20.89167,-674
20.90000,-674
20.90833,-675
20.91667,-675
20.92500,-675
20.93333,-676
20.94167,-676
20.95000,-677
20.95833,-677
20.96667,-677
20.97500,-678
20.98333,-678
20.99167,-679
21.00000,-679
21.00833,-679
21.01667,-680
21.02500,-680
21.03333,-681
21.04167,-682
21.05000,-682
21.05833,-683
21.06667,-683
21.07500,-683
21.08333,-683
21.09167,-683
21.10000,-684
21.10833,-684
21.11667,-684
21.12500,-685
21.13333,-685
21.14167,-685
21.15000,-686
21.15833,-686
21.16667,-686
21.17500,-687
21.18333,-687
21.19167,-688
21.20000,-688
21.20833,-688
21.21667,-688
21.22500,-688
21.23333,-688
21.24167,-688
21.25000,-689
21.25833,-689
21.26667,-689
21.27500,-690
21.28333,-691
21.29167,-691
21.30000,-692
21.30833,-692
21.31667,-692
21.32500,-692
21.33333,-693
21.34167,-693
21.35000,-693
21.35833,-694
21.36667,-694
21.37500,-695
21.38333,-695
21.39167,-696
21.40000,-696
21.40833,-696
21.41667,-697
21.42500,-697
21.43333,-697
21.44167,-697
21.45000,-698
21.45833,-698
21.46667,-698
21.47500,-699
21.48333,-699
21.49167,-700
21.50000,-700
21.50833,-701
21.51667,-701
21.52500,-702
21.53333,-702
21.54167,-703
21.55000,-703
21.55833,-704
21.56667,-704
21.57500,-705
21.58333,-705
21.59167,-706
21.60000,-706
21.60833,-706
21.61667,-706
21.62500,-706
21.63333,-706
21.64167,-706
21.65000,-707
21.65833,-707
21.66667,-708
21.67500,-708
21.68333,-708
21.69167,-709
21.70000,-709
21.70833,-710
21.71667,-710
21.72500,-710
21.73333,-710
21.74167,-710
21.75000,-711
21.75833,-711
21.76667,-712
21.77500,-712
21.78333,-712
21.79167,-712
21.80000,-713
21.80833,-713
21.81667,-713
21.82500,-714
21.83333,-714
21.84167,-714
21.85000,-714
21.85833,-715
21.86667,-715
21.87500,-716
21.88333,-716
21.89167,-717
21.90000,-717
21.90833,-718
21.91667,-718
21.92500,-718
21.93333,-718
21.94167,-719
21.95000,-720
21.95833,-720
21.96667,-721
21.97500,-721
21.98333,-721
21.99167,-722
22.00000,-722
22.00833,-723
22.01667,-723
22.02500,-723
22.03333,-723
22.04167,-724
22.05000,-724
22.05833,-724
22.06667,-725
22.07500,-725
22.08333,-725
22.09167,-725
22.10000,-725
22.10833,-726
22.11667,-726
22.12500,-726
22.13333,-727
22.14167,-727
22.15000,-727
22.15833,-728
22.16667,-728
22.17500,-728
22.18333,-728
22.19167,-729
22.20000,-729
22.20833,-729
22.21667,-729
22.22500,-730
22.23333,-730
22.24167,-730
22.25000,-730
22.25833,-731
22.26667,-732
22.27500,-732
22.28333,-733
22.29167,-733
22.30000,-734
22.30833,-734
22.31667,-734
22.32500,-734
22.33333,-735
22.34167,-735
22.35000,-736
22.35833,-736
22.36667,-736
22.37500,-737
22.38333,-737
22.39167,-737
22.40000,-738
22.40833,-738
22.41667,-738
22.42500,-738
22.43333,-739
22.44167,-739
22.45000,-740
22.45833,-740
22.46667,-740
22.47500,-741
22.48333,-742
22.49167,-742
22.50000,-743
22.50833,-743
22.51667,-743
22.52500,-742
22.53333,-743
22.54167,-743
22.55000,-743
22.55833,-744
22.56667,-744
22.57500,-744
22.58333,-745
22.59167,-745
22.60000,-746
22.60833,-746
22.61667,-746
22.62500,-746
22.63333,-747
22.64167,-747
22.65000,-748
22.65833,-748
22.66667,-748
22.67500,-749
22.68333,-749
22.69167,-750
22.70000,-750
22.70833,-751
22.71667,-751
22.72500,-752
22.73333,-752
22.74167,-752
22.75000,-753
22.75833,-753
22.76667,-753
22.77500,-754
22.78333,-754
22.79167,-754
22.80000,-755
22.80833,-755
22.81667,-756
22.82500,-756
22.83333,-757
22.84167,-757
22.85000,-757
22.85833,-757
22.86667,-758
22.87500,-758
22.88333,-758
22.89167,-759
22.90000,-759
22.90833,-759
22.91667,-760
22.92500,-760
22.93333,-761
22.94167,-761
22.95000,-762
22.95833,-762
22.96667,-762
22.97500,-763
22.98333,-763
22.99167,-764
23.00000,-764
23.00833,-764
23.01667,-764
23.02500,-765
23.03333,-765
23.04167,-765
23.05000,-765
23.05833,-766
23.06667,-766
23.07500,-767
23.08333,-767
23.09167,-768
23.10000,-768
23.10833,-768
23.11667,-768
23.12500,-769
23.13333,-769
23.14167,-770
23.15000,-770
23.15833,-770
23.16667,-770
23.17500,-771
23.18333,-771
23.19167,-772
23.20000,-772
23.20833,-773
23.21667,-773
23.22500,-774
23.23333,-774
23.24167,-775
23.25000,-775
23.25833,-776
23.26667,-776
23.27500,-776
23.28333,-776
23.29167,-776
23.30000,-776
23.30833,-776
23.31667,-776
23.32500,-777
23.33333,-777
23.34167,-778
23.35000,-778
23.35833,-779
23.36667,-780
23.37500,-780
23.38333,-780
23.39167,-781
23.40000,-781
23.40833,-781
23.41667,-781
23.42500,-782
23.43333,-782
23.44167,-782
23.45000,-782
23.45833,-783
23.46667,-783
23.47500,-784
23.48333,-784
23.49167,-784
23.50000,-785
23.50833,-785
23.51667,-785
23.52500,-786
23.53333,-786
23.54167,-787
23.55000,-787
23.55833,-788
23.56667,-788
23.57500,-789
23.58333,-789
23.59167,-789
23.60000,-789
23.60833,-790
23.61667,-790
23.62500,-791
23.63333,-791
23.64167,-792
23.65000,-792
23.65833,-792
23.66667,-792
23.67500,-792
23.68333,-793
23.69167,-793
23.70000,-794
23.70833,-794
23.71667,-795
23.72500,-795
23.73333,-795
23.74167,-795
23.75000,-795
23.75833,-796
23.76667,-797
23.77500,-797
23.78333,-797
23.79167,-798
23.80000,-798
23.80833,-798
23.81667,-799
23.82500,-799
23.83333,-800
23.84167,-800
23.85000,-800
23.85833,-801
23.86667,-801
23.87500,-802
23.88333,-802
23.89167,-803
23.90000,-803
23.90833,-803
23.91667,-804
23.92500,-804
23.93333,-805
23.94167,-805
23.95000,-805
23.95833,-805
23.96667,-805
23.97500,-805
23.98333,-806
23.99167,-807
24.00000,-807
24.00833,-808
24.01667,-808
24.02500,-809
24.03333,-809
24.04167,-809
24.05000,-809
24.05833,-810
24.06667,-810
24.07500,-810
24.08333,-811
24.09167,-811
24.10000,-812
24.10833,-812
24.11667,-812
24.12500,-813
24.13333,-813
24.14167,-813
24.15000,-813
24.15833,-814
24.16667,-814
24.17500,-815
24.18333,-816
24.19167,-816
24.20000,-817
24.20833,-818
24.21667,-818
24.22500,-818
24.23333,-819
24.24167,-819
24.25000,-819
24.25833,-819
24.26667,-820
24.27500,-820
24.28333,-820
24.29167,-820
24.30000,-820
24.30833,-821
24.31667,-822
24.32500,-822
24.33333,-823
24.34167,-823
24.35000,-823
24.35833,-823
24.36667,-824
24.37500,-824
24.38333,-824
24.39167,-825
24.40000,-825
24.40833,-825
24.41667,-825
24.42500,-825
24.43333,-826
24.44167,-826
24.45000,-826
24.45833,-826
24.46667,-826
24.47500,-827
24.48333,-827
24.49167,-827
24.50000,-828
24.50833,-828
24.51667,-829
24.52500,-830
24.53333,-830
24.54167,-831
24.55000,-831
24.55833,-831
24.56667,-831
24.57500,-832
24.58333,-832
24.59167,-832
24.60000,-833
24.60833,-833
24.61667,-834
24.62500,-834
24.63333,-834
24.64167,-834
24.65000,-835
24.65833,-835
24.66667,-836
24.67500,-836
24.68333,-836
24.69167,-837
24.70000,-837
24.70833,-837
24.71667,-837
24.72500,-838
24.73333,-838
24.74167,-839
24.75000,-840
24.75833,-840
24.76667,-840
24.77500,-841
24.78333,-840
24.79167,-840
24.80000,-840
24.80833,-841
24.81667,-841
24.82500,-842
24.83333,-842
24.84167,-842
24.85000,-843
24.85833,-843
24.86667,-844
24.87500,-844
24.88333,-845
24.89167,-845
24.90000,-846
24.90833,-846
24.91667,-846
24.92500,-846
24.93333,-846
24.94167,-847
24.95000,-847
24.95833,-847
24.96667,-848
24.97500,-849
24.98333,-849
24.99167,-850
25.00000,-850
25.00833,-850
25.01667,-850
25.02500,-851
25.03333,-851
25.04167,-851
25.05000,-851
25.05833,-851
25.06667,-852
25.07500,-853
25.08333,-853
25.09167,-853
25.10000,-854
25.10833,-854
25.11667,-854
25.12500,-855
25.13333,-855
25.14167,-856
25.15000,-856
25.15833,-857
25.16667,-857
25.17500,-858
25.18333,-858
25.19167,-858
25.20000,-858
25.20833,-858
25.21667,-858
25.22500,-859
25.23333,-859
25.24167,-859
25.25000,-860
25.25833,-860
25.26667,-861
25.27500,-862
25.28333,-862
25.29167,-863
25.30000,-863
25.30833,-863
25.31667,-863
25.32500,-863
25.33333,-864
25.34167,-864
25.35000,-864
25.35833,-864
25.36667,-864
25.37500,-865
25.38333,-865
25.39167,-866
25.40000,-866
25.40833,-866
25.41667,-867
25.42500,-867
25.43333,-867
25.44167,-868
25.45000,-868
25.45833,-869
25.46667,-870
25.47500,-870
25.48333,-870
25.49167,-871
25.50000,-871
25.50833,-872
25.51667,-872
25.52500,-872
25.53333,-872
25.54167,-872
25.55000,-872
25.55833,-872
25.56667,-873
25.57500,-873
25.58333,-874
25.59167,-874
25.60000,-875
25.60833,-875
25.61667,-875
25.62500,-876
25.63333,-876
25.64167,-877
25.65000,-877
25.65833,-878
25.66667,-878
25.67500,-878
25.68333,-878
25.69167,-878
25.70000,-879
25.70833,-879
25.71667,-879
25.72500,-879
25.73333,-880
25.74167,-880
25.75000,-880
25.75833,-881
25.76667,-881
25.77500,-881
25.78333,-881
25.79167,-882
25.80000,-882
25.80833,-883
25.81667,-883
25.82500,-883
25.83333,-883
25.84167,-884
25.85000,-884
25.85833,-885
25.86667,-885
25.87500,-885
25.88333,-885
25.89167,-885
25.90000,-885
25.90833,-886
25.91667,-886
25.92500,-887
25.93333,-887
25.94167,-888
25.95000,-888
25.95833,-889
25.96667,-889
25.97500,-889
25.98333,-890
25.99167,-890
26.00000,-890
26.00833,-890
26.01667,-891
26.02500,-891
26.03333,-891
26.04167,-891
26.05000,-891
26.05833,-892
26.06667,-892
26.07500,-893
26.08333,-893
26.09167,-893
26.10000,-894
26.10833,-894
26.11667,-895
26.12500,-895
26.13333,-896
26.14167,-896
26.15000,-897
26.15833,-897
26.16667,-897
26.17500,-897
26.18333,-898
26.19167,-898
26.20000,-898
26.20833,-898
26.21667,-899
26.22500,-899
26.23333,-899
26.24167,-900
26.25000,-900
26.25833,-901
26.26667,-901
26.27500,-901
26.28333,-902
26.29167,-902
26.30000,-902
26.30833,-902
26.31667,-903
26.32500,-903
26.33333,-904
26.34167,-905
26.35000,-905
26.35833,-905
26.36667,-905
26.37500,-906
26.38333,-906
26.39167,-906
26.40000,-906
26.40833,-906
26.41667,-907
26.42500,-907
26.43333,-908
26.44167,-909
26.45000,-909
26.45833,-909
26.46667,-909
26.47500,-909
26.48333,-910
26.49167,-910
26.50000,-910
26.50833,-910
26.51667,-910
26.52500,-911
26.53333,-911
26.54167,-911
26.55000,-912
26.55833,-912
26.56667,-912
26.57500,-913
26.58333,-913
26.59167,-914
26.60000,-914
26.60833,-914
26.61667,-914
26.62500,-914
26.63333,-915
26.64167,-915
26.65000,-916
26.65833,-916
26.66667,-917
26.67500,-917
26.68333,-917
26.69167,-918
26.70000,-918
26.70833,-918
26.71667,-918
26.72500,-918
26.73333,-918
26.74167,-919
26.75000,-920
26.75833,-920
26.76667,-920
26.77500,-921
26.78333,-921
26.79167,-921
26.80000,-922
26.80833,-922
26.81667,-923
26.82500,-923
26.83333,-923
26.84167,-923
26.85000,-924
26.85833,-924
26.86667,-925
26.87500,-926
26.88333,-926
26.89167,-927
26.90000,-927
26.90833,-927
26.91667,-927
26.92500,-928
26.93333,-928
26.94167,-928
26.95000,-929
26.95833,-929
26.96667,-929
26.97500,-930
26.98333,-930
26.99167,-930
27.00000,-930
27.00833,-930
27.01667,-931
27.02500,-931
27.03333,-932
27.04167,-932
27.05000,-933
27.05833,-933
27.06667,-934
27.07500,-934
27.08333,-934
27.09167,-935
27.10000,-935
27.10833,-935
27.11667,-935
27.12500,-936
27.13333,-936
27.14167,-937
27.15000,-937
27.15833,-938
27.16667,-938
27.17500,-939
27.18333,-939
27.19167,-939
27.20000,-939
27.20833,-939
27.21667,-940
27.22500,-940
27.23333,-940
27.24167,-941
27.25000,-942
27.25833,-942
27.26667,-942
27.27500,-943
27.28333,-943
27.29167,-943
27.30000,-944
27.30833,-945
27.31667,-945
27.32500,-946
27.33333,-947
27.34167,-947
27.35000,-947
27.35833,-948
27.36667,-948
27.37500,-949
27.38333,-949
27.39167,-949
27.40000,-949
27.40833,-950
27.41667,-950
27.42500,-950
27.43333,-950
27.44167,-951
27.45000,-951
27.45833,-951
27.46667,-951
27.47500,-952
27.48333,-953
27.49167,-953
27.50000,-954
27.50833,-954
27.51667,-954
27.52500,-955
27.53333,-955
27.54167,-955
27.55000,-956
27.55833,-956
27.56667,-957
27.57500,-957
27.58333,-958
27.59167,-958
27.60000,-959
27.60833,-959
27.61667,-960
27.62500,-961
27.63333,-961
27.64167,-962
27.65000,-962
27.65833,-962
27.66667,-963
27.67500,-963
27.68333,-964
27.69167,-964
27.70000,-965
27.70833,-965
27.71667,-966
27.72500,-967
27.73333,-967
27.74167,-968
27.75000,-969
27.75833,-970
27.76667,-970
27.77500,-971
27.78333,-972
27.79167,-973
27.80000,-974
27.80833,-975
27.81667,-976
27.82500,-978
27.83333,-979
27.84167,-980
27.85000,-982
27.85833,-983
27.86667,-985
27.87500,-987
27.88333,-989
27.89167,-991
27.90000,-994
27.90833,-996
27.91667,-999
27.92500,-1003
27.93333,-1006
27.94167,-1009
27.95000,-1013
27.95833,-1016
27.96667,-1020
27.97500,-1024
27.98333,-1029
27.99167,-1034
28.00000,-1039
28.00833,-1045
28.01667,-1051
28.02500,-1057
28.03333,-1064
28.04167,-1071
28.05000,-1078
28.05833,-1086
28.06667,-1094
28.07500,-1102
28.08333,-1112
28.09167,-1121
28.10000,-1131
28.10833,-1141
28.11667,-1152
28.12500,-1163
28.13333,-1175
28.14167,-1187
28.15000,-1200
28.15833,-1212
28.16667,-1225
28.17500,-1238
28.18333,-1252
28.19167,-1267
28.20000,-1282
28.20833,-1297
28.21667,-1313
28.22500,-1329
28.23333,-1346
28.24167,-1362
28.25000,-1379
28.25833,-1395
28.26667,-1412
28.27500,-1430
28.28333,-1447
28.29167,-1465
28.30000,-1483
28.30833,-1501
28.31667,-1519
28.32500,-1537
28.33333,-1554
28.34167,-1572
28.35000,-1590
28.35833,-1607
28.36667,-1625
28.37500,-1642
28.38333,-1659
28.39167,-1675
28.40000,-1690
28.40833,-1706
28.41667,-1720
28.42500,-1735
28.43333,-1749
28.44167,-1762
28.45000,-1775
28.45833,-1787
28.46667,-1799
28.47500,-1810
28.48333,-1820
28.49167,-1830
28.50000,-1839
28.50833,-1848
28.51667,-1856
28.52500,-1863
28.53333,-1868
28.54167,-1873
28.55000,-1878
28.55833,-1882
28.56667,-1885
28.57500,-1888
28.58333,-1889
28.59167,-1890
28.60000,-1890
28.60833,-1890
28.61667,-1889
28.62500,-1887
28.63333,-1885
28.64167,-1883
28.65000,-1879
28.65833,-1875
28.66667,-1870
28.67500,-1865
28.68333,-1860
28.69167,-1854
28.70000,-1848
28.70833,-1842
28.71667,-1835
28.72500,-1827
28.73333,-1820
28.74167,-1813
28.75000,-1806
28.75833,-1798
28.76667,-1790
28.77500,-1782
28.78333,-1773
28.79167,-1765
28.80000,-1756
28.80833,-1748
28.81667,-1740
28.82500,-1731
28.83333,-1723
28.84167,-1714
28.85000,-1706
28.85833,-1698
28.86667,-1690
28.87500,-1681
28.88333,-1673
28.89167,-1665
28.90000,-1657
28.90833,-1650
28.91667,-1642
28.92500,-1635
28.93333,-1627
28.94167,-1620
28.95000,-1614
28.95833,-1607
28.96667,-1601
28.97500,-1595
28.98333,-1589
28.99167,-1582
29.00000,-1577
29.00833,-1571
29.01667,-1565
29.02500,-1560
29.03333,-1555
29.04167,-1551
29.05000,-1546
29.05833,-1541
29.06667,-1536
29.07500,-1532
29.08333,-1527
29.09167,-1523
29.10000,-1519
29.10833,-1515
29.11667,-1512
29.12500,-1508
29.13333,-1504
29.14167,-1501
29.15000,-1497
29.15833,-1494
29.16667,-1491
29.17500,-1489
29.18333,-1486
29.19167,-1483
29.20000,-1480
29.20833,-1477
29.21667,-1475
29.22500,-1472
29.23333,-1470
29.24167,-1468
29.25000,-1465
29.25833,-1463
29.26667,-1461
29.27500,-1459
29.28333,-1456
29.29167,-1454
29.30000,-1452
29.30833,-1450
29.31667,-1448
29.32500,-1447
29.33333,-1445
29.34167,-1443
29.35000,-1441
29.35833,-1440
29.36667,-1438
29.37500,-1437
29.38333,-1435
29.39167,-1434
29.40000,-1432
29.40833,-1431
29.41667,-1429
29.42500,-1428
29.43333,-1426
29.44167,-1425
29.45000,-1424
29.45833,-1423
29.46667,-1422
29.47500,-1421
29.48333,-1420
29.49167,-1419
29.50000,-1418
29.50833,-1417
29.51667,-1416
29.52500,-1415
29.53333,-1415
29.54167,-1414
29.55000,-1414
29.55833,-1413
29.56667,-1413
29.57500,-1412
29.58333,-1411
29.59167,-1410
29.60000,-1410
29.60833,-1409
29.61667,-1409
29.62500,-1409
29.63333,-1409
29.64167,-1409
29.65000,-1410
29.65833,-1410
29.66667,-1410
29.67500,-1410
29.68333,-1411
29.69167,-1411
29.70000,-1412
29.70833,-1413
29.71667,-1414
29.72500,-1415
29.73333,-1416
29.74167,-1418
29.75000,-1420
29.75833,-1421
29.76667,-1424
29.77500,-1426
29.78333,-1428
29.79167,-1430
29.80000,-1432
29.80833,-1435
29.81667,-1437
29.82500,-1440
29.83333,-1443
29.84167,-1446
29.85000,-1449
29.85833,-1453
29.86667,-1456
29.87500,-1460
29.88333,-1463
29.89167,-1467
29.90000,-1471
29.90833,-1475
29.91667,-1479
29.92500,-1484
29.93333,-1489
29.94167,-1494
29.95000,-1499
29.95833,-1503
29.96667,-1509
29.97500,-1514
29.98333,-1519
29.99167,-1524
30.00000,-1530
30.00833,-1535
30.01667,-1541
30.02500,-1546
30.03333,-1552
30.04167,-1558
30.05000,-1564
30.05833,-1569
30.06667,-1575
30.07500,-1581
30.08333,-1587
30.09167,-1593
30.10000,-1599
30.10833,-1605
30.11667,-1610
30.12500,-1615
30.13333,-1621
30.14167,-1626
30.15000,-1631
30.15833,-1637
30.16667,-1642
30.17500,-1647
30.18333,-1652
30.19167,-1657
30.20000,-1661
30.20833,-1665
30.21667,-1669
30.22500,-1673
30.23333,-1677
30.24167,-1680
30.25000,-1684
30.25833,-1687
30.26667,-1690
30.27500,-1692
30.28333,-1695
30.29167,-1697
30.30000,-1700
30.30833,-1702
30.31667,-1703
30.32500,-1705
30.33333,-1706
30.34167,-1706
30.35000,-1706
30.35833,-1707
30.36667,-1707
30.37500,-1707
30.38333,-1707
30.39167,-1706
30.40000,-1706
30.40833,-1705
30.41667,-1704
30.42500,-1703
30.43333,-1702
30.44167,-1700
30.45000,-1699
30.45833,-1697
30.46667,-1696
30.47500,-1694
30.48333,-1692
30.49167,-1690
30.50000,-1688
30.50833,-1685
30.51667,-1683
30.52500,-1680
30.53333,-1677
30.54167,-1675
30.55000,-1672
30.55833,-1670
30.56667,-1667
30.57500,-1665
30.58333,-1662
30.59167,-1659
30.60000,-1656
30.60833,-1653
30.61667,-1650
30.62500,-1647
30.63333,-1645
30.64167,-1642
30.65000,-1640
30.65833,-1637
30.66667,-1634
30.67500,-1631
30.68333,-1629
30.69167,-1626
30.70000,-1623
30.70833,-1621
30.71667,-1619
30.72500,-1616
30.73333,-1614
30.74167,-1612
30.75000,-1610
30.75833,-1608
30.76667,-1606
30.77500,-1604
30.78333,-1602
30.79167,-1601
30.80000,-1599
30.80833,-1597
30.81667,-1595
30.82500,-1593
30.83333,-1592
30.84167,-1590
30.85000,-1589
30.85833,-1587
30.86667,-1586
30.87500,-1585
30.88333,-1584
30.89167,-1583
30.90000,-1582
30.90833,-1580
30.91667,-1579
30.92500,-1579
30.93333,-1578
30.94167,-1577
30.95000,-1576
30.95833,-1575
30.96667,-1574
30.97500,-1573
30.98333,-1573
30.99167,-1572
31.00000,-1571
31.00833,-1570
31.01667,-1569
31.02500,-1569
31.03333,-1568
31.04167,-1567
31.05000,-1566
31.05833,-1566
31.06667,-1565
31.07500,-1564
31.08333,-1564
31.09167,-1563
31.10000,-1563
31.10833,-1563
31.11667,-1562
31.12500,-1562
31.13333,-1561
31.14167,-1561
31.15000,-1560
31.15833,-1560
31.16667,-1559
31.17500,-1558
31.18333,-1558
31.19167,-1557
31.20000,-1557
31.20833,-1557
31.21667,-1556
31.22500,-1556
31.23333,-1555
31.24167,-1554
31.25000,-1553
31.25833,-1553
31.26667,-1552
31.27500,-1552
31.28333,-1551
31.29167,-1551
31.30000,-1550
31.30833,-1550
31.31667,-1549
31.32500,-1549
31.33333,-1549
31.34167,-1548
31.35000,-1548
31.35833,-1547
31.36667,-1547
31.37500,-1546
31.38333,-1545
31.39167,-1544
31.40000,-1544
31.40833,-1543
31.41667,-1543
31.42500,-1542
31.43333,-1542
31.44167,-1542
31.45000,-1541
31.45833,-1541
31.46667,-1540
31.47500,-1540
31.48333,-1539
31.49167,-1539
31.50000,-1539
31.50833,-1538
31.51667,-1537
31.52500,-1536
31.53333,-1536
31.54167,-1535
31.55000,-1535
31.55833,-1534
31.56667,-1534
31.57500,-1533
31.58333,-1533
31.59167,-1532
31.60000,-1531
31.60833,-1531
31.61667,-1531
31.62500,-1531
31.63333,-1531
31.64167,-1530
31.65000,-1529
31.65833,-1529
31.66667,-1529
31.67500,-1529
31.68333,-1528
31.69167,-1528
31.70000,-1528
31.70833,-1528
31.71667,-1527
31.72500,-1527
31.73333,-1527
31.74167,-1526
31.75000,-1526
31.75833,-1526
31.76667,-1525
31.77500,-1525
31.78333,-1524
31.79167,-1524
31.80000,-1524
31.80833,-1523
31.81667,-1523
31.82500,-1522
31.83333,-1522
31.84167,-1521
31.85000,-1521
31.85833,-1520
31.86667,-1519
31.87500,-1519
31.88333,-1519
31.89167,-1518
31.90000,-1518
31.90833,-1517
31.91667,-1517
31.92500,-1517
31.93333,-1516
31.94167,-1516
31.95000,-1516
31.95833,-1515
31.96667,-1515
31.97500,-1515
31.98333,-1515
31.99167,-1515
32.00000,-1514
32.00833,-1514
32.01667,-1513
32.02500,-1513
32.03333,-1512
32.04167,-1512
32.05000,-1511
32.05833,-1511
32.06667,-1510
32.07500,-1510
32.08333,-1510
32.09167,-1509
32.10000,-1509
32.10833,-1508
32.11667,-1508
32.12500,-1508
32.13333,-1507
32.14167,-1507
32.15000,-1507
32.15833,-1507
32.16667,-1507
32.17500,-1507
32.18333,-1506
32.19167,-1505
32.20000,-1505
32.20833,-1504
32.21667,-1504
32.22500,-1503
32.23333,-1503
32.24167,-1503
32.25000,-1502
32.25833,-1502
32.26667,-1501
32.27500,-1501
32.28333,-1501
32.29167,-1500
32.30000,-1500
32.30833,-1500
32.31667,-1499
32.32500,-1499
32.33333,-1498
32.34167,-1498
32.35000,-1497
32.35833,-1497
32.36667,-1496
32.37500,-1496
32.38333,-1496
32.39167,-1495
32.40000,-1495
32.40833,-1494
32.41667,-1493
32.42500,-1493
32.43333,-1493
32.44167,-1493
32.45000,-1493
32.45833,-1492
32.46667,-1491
32.47500,-1491
32.48333,-1491
32.49167,-1491
32.50000,-1490
32.50833,-1490
32.51667,-1490
32.52500,-1489
32.53333,-1489
32.54167,-1489
32.55000,-1488
32.55833,-1488
32.56667,-1487
32.57500,-1487
32.58333,-1487
32.59167,-1486
32.60000,-1485
32.60833,-1485
32.61667,-1485
32.62500,-1484
32.63333,-1484
32.64167,-1484
32.65000,-1483
32.65833,-1483
32.66667,-1483
32.67500,-1482
32.68333,-1482
32.69167,-1482
32.70000,-1482
32.70833,-1481
32.71667,-1480
32.72500,-1480
32.73333,-1479
32.74167,-1479
32.75000,-1478
32.75833,-1478
32.76667,-1478
32.77500,-1477
32.78333,-1477
32.79167,-1477
32.80000,-1477
32.80833,-1477
32.81667,-1476
32.82500,-1476
32.83333,-1476
32.84167,-1476
32.85000,-1475
32.85833,-1475
32.86667,-1474
32.87500,-1473
32.88333,-1473
32.89167,-1472
32.90000,-1472
32.90833,-1472
32.91667,-1472
32.92500,-1472
32.93333,-1472
32.94167,-1471
32.95000,-1471
32.95833,-1470
32.96667,-1470
32.97500,-1470
32.98333,-1469
32.99167,-1468
33.00000,-1468
33.00833,-1468
33.01667,-1468
33.02500,-1468
33.03333,-1468
33.04167,-1467
33.05000,-1467
33.05833,-1467
33.06667,-1466
33.07500,-1466
33.08333,-1466
33.09167,-1466
33.10000,-1466
33.10833,-1465
33.11667,-1464
33.12500,-1464
33.13333,-1464
33.14167,-1463
33.15000,-1463
33.15833,-1462
33.16667,-1462
33.17500,-1461
33.18333,-1461
33.19167,-1460
33.20000,-1460
33.20833,-1459
33.21667,-1459
33.22500,-1459
33.23333,-1459
33.24167,-1459
33.25000,-1459
33.25833,-1459
33.26667,-1458
33.27500,-1458
33.28333,-1457
33.29167,-1457
33.30000,-1456
33.30833,-1456
33.31667,-1455
33.32500,-1455
33.33333,-1455
33.34167,-1454
33.35000,-1453
33.35833,-1453
33.36667,-1452
33.37500,-1452
33.38333,-1452
33.39167,-1451
33.40000,-1451
33.40833,-1451
33.41667,-1451
33.42500,-1451
33.43333,-1450
33.44167,-1450
33.45000,-1449
33.45833,-1449
33.46667,-1449
33.47500,-1449
33.48333,-1449
33.49167,-1449
33.50000,-1448
33.50833,-1448
33.51667,-1448
33.52500,-1448
33.53333,-1448
33.54167,-1447
33.55000,-1447
33.55833,-1447
33.56667,-1447
33.57500,-1446
33.58333,-1446
33.59167,-1446
33.60000,-1445
33.60833,-1445
33.61667,-1445
33.62500,-1444
33.63333,-1444
33.64167,-1444
33.65000,-1443
33.65833,-1443
33.66667,-1442
33.67500,-1442
33.68333,-1442
33.69167,-1442
33.70000,-1442
33.70833,-1441
33.71667,-1441
33.72500,-1441
33.73333,-1440
33.74167,-1440
33.75000,-1440
33.75833,-1440
33.76667,-1440
33.77500,-1440
33.78333,-1439
33.79167,-1439
33.80000,-1439
33.80833,-1438
33.81667,-1438
33.82500,-1438
33.83333,-1437
33.84167,-1437
33.85000,-1437
33.85833,-1437
33.86667,-1437
33.87500,-1437
33.88333,-1436
33.89167,-1436
33.90000,-1436
33.90833,-1436
33.91667,-1436
33.92500,-1436
33.93333,-1435
33.94167,-1435
33.95000,-1435
33.95833,-1435
33.96667,-1434
33.97500,-1434
33.98333,-1434
33.99167,-1434
34.00000,-1434
34.00833,-1433
34.01667,-1433
34.02500,-1433
34.03333,-1432
34.04167,-1432
34.05000,-1432
34.05833,-1432
34.06667,-1432
34.07500,-1432
34.08333,-1431
34.09167,-1431
34.10000,-1431
34.10833,-1431
34.11667,-1431
34.12500,-1431
34.13333,-1430
34.14167,-1430
34.15000,-1429
34.15833,-1428
34.16667,-1428
34.17500,-1429
34.18333,-1429
34.19167,-1428
34.20000,-1428
34.20833,-1428
34.21667,-1427
34.22500,-1427
34.23333,-1427
34.24167,-1427
34.25000,-1427
34.25833,-1426
34.26667,-1426
34.27500,-1426
34.28333,-1426
34.29167,-1426
34.30000,-1425
34.30833,-1425
34.31667,-1425
34.32500,-1424
34.33333,-1424
34.34167,-1423
34.35000,-1423
34.35833,-1423
34.36667,-1423
34.37500,-1423
34.38333,-1422
34.39167,-1422
34.40000,-1422
34.40833,-1422
34.41667,-1422
34.42500,-1422
34.43333,-1422
34.44167,-1422
34.45000,-1421
34.45833,-1421
34.46667,-1421
34.47500,-1420
34.48333,-1420
34.49167,-1420
34.50000,-1420
34.50833,-1420
34.51667,-1420
34.52500,-1420
34.53333,-1420
34.54167,-1420
34.55000,-1420
34.55833,-1420
34.56667,-1420
34.57500,-1419
34.58333,-1419
34.59167,-1418
34.60000,-1418
34.60833,-1417
34.61667,-1417
34.62500,-1417
34.63333,-1417
34.64167,-1417
34.65000,-1417
34.65833,-1416
34.66667,-1416
34.67500,-1416
34.68333,-1415
34.69167,-1415
34.70000,-1415
34.70833,-1415
34.71667,-1415
34.72500,-1415
34.73333,-1415
34.74167,-1415
34.75000,-1414
34.75833,-1414
34.76667,-1414
34.77500,-1414
34.78333,-1414
34.79167,-1414
34.80000,-1414
34.80833,-1413
34.81667,-1413
34.82500,-1413
34.83333,-1413
34.84167,-1413
34.85000,-1413
34.85833,-1412
34.86667,-1412
34.87500,-1412
34.88333,-1411
34.89167,-1411
34.90000,-1411
34.90833,-1410
34.91667,-1410
34.92500,-1410
34.93333,-1410
34.94167,-1410
34.95000,-1410
34.95833,-1410
34.96667,-1410
34.97500,-1409
34.98333,-1409
34.99167,-1409
35.00000,-1409
35.00833,-1409
35.01667,-1409
35.02500,-1409
35.03333,-1409
35.04167,-1410
35.05000,-1409
35.05833,-1409
35.06667,-1409
35.07500,-1409
35.08333,-1409
35.09167,-1408
35.10000,-1408
35.10833,-1408
35.11667,-1407
35.12500,-1407
35.13333,-1407
35.14167,-1407
35.15000,-1407
35.15833,-1406
35.16667,-1406
35.17500,-1406
35.18333,-1406
35.19167,-1406
35.20000,-1406
35.20833,-1406
35.21667,-1406
35.22500,-1406
35.23333,-1406
35.24167,-1405
35.25000,-1405
35.25833,-1405
35.26667,-1406
35.27500,-1405
35.28333,-1405
35.29167,-1404
35.30000,-1404
35.30833,-1404
35.31667,-1404
35.32500,-1403
35.33333,-1403
35.34167,-1403
35.35000,-1403
35.35833,-1403
35.36667,-1403
35.37500,-1403
35.38333,-1403
35.39167,-1403
35.40000,-1402
35.40833,-1402
35.41667,-1402
35.42500,-1402
35.43333,-1401
35.44167,-1401
35.45000,-1401
35.45833,-1401
35.46667,-1401
35.47500,-1401
35.48333,-1401
35.49167,-1401
35.50000,-1401
35.50833,-1401
35.51667,-1401
35.52500,-1400
35.53333,-1400
35.54167,-1400
35.55000,-1400
35.55833,-1400
35.56667,-1399
35.57500,-1399
35.58333,-1399
35.59167,-1399
35.60000,-1399
35.60833,-1399
35.61667,-1399
35.62500,-1399
35.63333,-1398
35.64167,-1398
35.65000,-1398
35.65833,-1398
35.66667,-1398
35.67500,-1398
35.68333,-1398
35.69167,-1398
35.70000,-1398
35.70833,-1397
35.71667,-1397
35.72500,-1397
35.73333,-1397
35.74167,-1396
35.75000,-1396
35.75833,-1396
35.76667,-1396
35.77500,-1396
35.78333,-1396
35.79167,-1396
35.80000,-1395
35.80833,-1395
35.81667,-1395
35.82500,-1395
35.83333,-1395
35.84167,-1395
35.85000,-1395
35.85833,-1395
35.86667,-1395
35.87500,-1395
35.88333,-1394
35.89167,-1395
35.90000,-1395
35.90833,-1394
35.91667,-1394
35.92500,-1394
35.93333,-1394
35.94167,-1394
35.95000,-1394
35.95833,-1394
35.96667,-1394
35.97500,-1394
35.98333,-1394
35.99167,-1394
36.00000,-1393
36.00833,-1393
36.01667,-1393
36.02500,-1392
36.03333,-1393
36.04167,-1393
36.05000,-1393
36.05833,-1393
36.06667,-1393
36.07500,-1392
36.08333,-1392
36.09167,-1392
36.10000,-1391
36.10833,-1391
36.11667,-1391
36.12500,-1391
36.13333,-1391
36.14167,-1391
36.15000,-1391
36.15833,-1391
36.16667,-1391
36.17500,-1391
36.18333,-1390
36.19167,-1390
36.20000,-1389
36.20833,-1389
36.21667,-1389
36.22500,-1389
36.23333,-1390
36.24167,-1390
36.25000,-1390
36.25833,-1390
36.26667,-1390
36.27500,-1389
36.28333,-1389
36.29167,-1389
36.30000,-1389
36.30833,-1389
36.31667,-1389
36.32500,-1389
36.33333,-1389
36.34167,-1389
36.35000,-1389
36.35833,-1389
36.36667,-1389
36.37500,-1389
36.38333,-1389
36.39167,-1389
36.40000,-1389
36.40833,-1388
36.41667,-1388
36.42500,-1388
36.43333,-1388
36.44167,-1388
36.45000,-1389
36.45833,-1389
36.46667,-1390
36.47500,-1390
36.48333,-1390
36.49167,-1390
36.50000,-1390
36.50833,-1389
36.51667,-1389
36.52500,-1389
36.53333,-1389
36.54167,-1389
36.55000,-1389
36.55833,-1389
36.56667,-1389
36.57500,-1390
36.58333,-1389
36.59167,-1389
36.60000,-1389
36.60833,-1389
36.61667,-1389
36.62500,-1389
36.63333,-1389
36.64167,-1389
36.65000,-1389
36.65833,-1389
36.66667,-1389
36.67500,-1389
36.68333,-1389
36.69167,-1388
36.70000,-1388
36.70833,-1388
36.71667,-1387
36.72500,-1387
36.73333,-1387
36.74167,-1387
36.75000,-1386
36.75833,-1386
36.76667,-1386
36.77500,-1385
36.78333,-1385
36.79167,-1384
36.80000,-1384
36.80833,-1383
36.81667,-1382
36.82500,-1382
36.83333,-1381
36.84167,-1381
36.85000,-1380
36.85833,-1379
36.86667,-1378
36.87500,-1378
36.88333,-1377
36.89167,-1377
36.90000,-1376
36.90833,-1375
36.91667,-1374
36.92500,-1373
36.93333,-1373
36.94167,-1372
36.95000,-1371
36.95833,-1370
36.96667,-1370
36.97500,-1369
36.98333,-1368
36.99167,-1367
37.00000,-1366
37.00833,-1366
37.01667,-1365
37.02500,-1364
37.03333,-1363
37.04167,-1362
37.05000,-1361
37.05833,-1360
37.06667,-1359
37.07500,-1359
37.08333,-1358
37.09167,-1357
37.10000,-1356
37.10833,-1355
37.11667,-1355
37.12500,-1354
37.13333,-1354
37.14167,-1354
37.15000,-1353
37.15833,-1352
37.16667,-1351
37.17500,-1351
37.18333,-1350
37.19167,-1350
37.20000,-1349
37.20833,-1349
37.21667,-1348
37.22500,-1348
37.23333,-1348
37.24167,-1348
37.25000,-1348
37.25833,-1348
37.26667,-1348
37.27500,-1348
37.28333,-1348
37.29167,-1348
37.30000,-1348
37.30833,-1349
37.31667,-1349
37.32500,-1349
37.33333,-1350
37.34167,-1350
37.35000,-1350
37.35833,-1351
37.36667,-1351
37.37500,-1351
37.38333,-1352
37.39167,-1353
37.40000,-1354
37.40833,-1355
37.41667,-1355
37.42500,-1356
37.43333,-1357
37.44167,-1358
37.45000,-1359
37.45833,-1359
37.46667,-1360
37.47500,-1361
37.48333,-1362
37.49167,-1363
37.50000,-1365
37.50833,-1366
37.51667,-1367
37.52500,-1369
37.53333,-1371
37.54167,-1372
37.55000,-1374
37.55833,-1375
37.56667,-1377
37.57500,-1379
37.58333,-1380
37.59167,-1381
37.60000,-1383
37.60833,-1384
37.61667,-1385
37.62500,-1387
37.63333,-1388
37.64167,-1389
37.65000,-1391
37.65833,-1393
37.66667,-1394
37.67500,-1396
37.68333,-1397
37.69167,-1399
37.70000,-1400
37.70833,-1402
37.71667,-1403
37.72500,-1405
37.73333,-1407
37.74167,-1408
37.75000,-1410
37.75833,-1411
37.76667,-1413
37.77500,-1414
37.78333,-1416
37.79167,-1417
37.80000,-1419
37.80833,-1420
37.81667,-1422
37.82500,-1423
37.83333,-1425
37.84167,-1426
37.85000,-1427
37.85833,-1429
37.86667,-1430
37.87500,-1432
37.88333,-1433
37.89167,-1435
37.90000,-1436
37.90833,-1437
37.91667,-1438
37.92500,-1438
37.93333,-1439
37.94167,-1441
37.95000,-1442
37.95833,-1443
37.96667,-1444
37.97500,-1445
37.98333,-1446
37.99167,-1447
38.00000,-1448
38.00833,-1449
38.01667,-1450
38.02500,-1452
38.03333,-1453
38.04167,-1454
38.05000,-1454
38.05833,-1455
38.06667,-1456
38.07500,-1457
38.08333,-1459
38.09167,-1459
38.10000,-1460
38.10833,-1461
38.11667,-1462
38.12500,-1463
38.13333,-1463
38.14167,-1464
38.15000,-1465
38.15833,-1465
38.16667,-1465
38.17500,-1466
38.18333,-1467
38.19167,-1468
38.20000,-1468
38.20833,-1469
38.21667,-1470
38.22500,-1470
38.23333,-1471
38.24167,-1472
38.25000,-1472
38.25833,-1473
38.26667,-1474
38.27500,-1474
38.28333,-1475
38.29167,-1475
38.30000,-1475
38.30833,-1476
38.31667,-1476
38.32500,-1477
38.33333,-1477
38.34167,-1478
38.35000,-1478
38.35833,-1479
38.36667,-1480
38.37500,-1480
38.38333,-1481
38.39167,-1481
38.40000,-1482
38.40833,-1483
38.41667,-1483
38.42500,-1484
38.43333,-1484
38.44167,-1484
38.45000,-1485
38.45833,-1485
38.46667,-1485
38.47500,-1486
38.48333,-1486
38.49167,-1486
38.50000,-1487
38.50833,-1487
38.51667,-1488
38.52500,-1488
38.53333,-1489
38.54167,-1489
38.55000,-1490
38.55833,-1491
38.56667,-1492
38.57500,-1492
38.58333,-1492
38.59167,-1492
38.60000,-1492
38.60833,-1493
38.61667,-1493
38.62500,-1493
38.63333,-1494
38.64167,-1495
38.65000,-1495
38.65833,-1496
38.66667,-1496
38.67500,-1497
38.68333,-1497
38.69167,-1497
38.70000,-1498
38.70833,-1498
38.71667,-1498
38.72500,-1499
38.73333,-1499
38.74167,-1499
38.75000,-1500
38.75833,-1500
38.76667,-1500
38.77500,-1501
38.78333,-1501
38.79167,-1502
38.80000,-1502
38.80833,-1503
38.81667,-1503
38.82500,-1504
38.83333,-1504
38.84167,-1505
38.85000,-1505
38.85833,-1505
38.86667,-1505
38.87500,-1505
38.88333,-1506
38.89167,-1506
38.90000,-1506
38.90833,-1507
38.91667,-1508
38.92500,-1508
38.93333,-1509
38.94167,-1509
38.95000,-1509
38.95833,-1510
38.96667,-1510
38.97500,-1511
38.98333,-1511
38.99167,-1511
39.00000,-1511
39.00833,-1512
39.01667,-1513
39.02500,-1513
39.03333,-1514
39.04167,-1514
39.05000,-1515
39.05833,-1515
39.06667,-1515
39.07500,-1515
39.08333,-1516
39.09167,-1516
39.10000,-1516
39.10833,-1516
39.11667,-1517
39.12500,-1517
39.13333,-1517
39.14167,-1518
39.15000,-1519
39.15833,-1519
39.16667,-1519
39.17500,-1520
39.18333,-1520
39.19167,-1520
39.20000,-1521
39.20833,-1521
39.21667,-1522
39.22500,-1522
39.23333,-1523
39.24167,-1523
39.25000,-1523
39.25833,-1523
39.26667,-1523
39.27500,-1524
39.28333,-1525
39.29167,-1525
39.30000,-1526
39.30833,-1526
39.31667,-1527
39.32500,-1527
39.33333,-1528
39.34167,-1529
39.35000,-1529
39.35833,-1530
39.36667,-1531
39.37500,-1531
39.38333,-1531
39.39167,-1531
39.40000,-1531
39.40833,-1531
39.41667,-1532
39.42500,-1532
39.43333,-1533
39.44167,-1534
39.45000,-1534
39.45833,-1534
39.46667,-1535
39.47500,-1535
39.48333,-1536
39.49167,-1536
39.50000,-1536
39.50833,-1537
39.51667,-1537
39.52500,-1538
39.53333,-1538
39.54167,-1538
39.55000,-1539
39.55833,-1539
39.56667,-1540
39.57500,-1540
39.58333,-1541
39.59167,-1541
39.60000,-1541
39.60833,-1542
39.61667,-1542
39.62500,-1542
39.63333,-1542
39.64167,-1543
39.65000,-1543
39.65833,-1544
39.66667,-1544
39.67500,-1544
39.68333,-1545
39.69167,-1545
39.70000,-1546
39.70833,-1547
39.71667,-1548
39.72500,-1548
39.73333,-1549
39.74167,-1549
39.75000,-1549
39.75833,-1550
39.76667,-1550
39.77500,-1550
39.78333,-1551
39.79167,-1551
39.80000,-1551
39.80833,-1552
39.81667,-1553
39.82500,-1553
39.83333,-1553
39.84167,-1554
39.85000,-1554
39.85833,-1554
39.86667,-1555
39.87500,-1555
39.88333,-1556
39.89167,-1556
39.90000,-1557
39.90833,-1558
39.91667,-1558
39.92500,-1559
39.93333,-1559
39.94167,-1560
39.95000,-1560
39.95833,-1560
39.96667,-1560
39.97500,-1560
39.98333,-1561
39.99167,-1561
40.00000,-1562
40.00833,-1562
40.01667,-1562
40.02500,-1563
40.03333,-1563
40.04167,-1563
40.05000,-1564
40.05833,-1564
40.06667,-1565
40.07500,-1566
40.08333,-1566
40.09167,-1567
40.10000,-1567
40.10833,-1568
40.11667,-1568
40.12500,-1568
40.13333,-1569
40.14167,-1569
40.15000,-1570
40.15833,-1570
40.16667,-1571
40.17500,-1571
40.18333,-1572
40.19167,-1572
40.20000,-1573
40.20833,-1573
40.21667,-1574
40.22500,-1575
40.23333,-1575
40.24167,-1575
40.25000,-1575
40.25833,-1576
40.26667,-1576
40.27500,-1576
40.28333,-1576
40.29167,-1577
40.30000,-1577
40.30833,-1577
40.31667,-1578
40.32500,-1578
40.33333,-1579
40.34167,-1579
40.35000,-1580
40.35833,-1580
40.36667,-1580
40.37500,-1581
40.38333,-1582
40.39167,-1582
40.40000,-1583
40.40833,-1583
40.41667,-1583
40.42500,-1583
40.43333,-1583
40.44167,-1584
40.45000,-1584
40.45833,-1584
40.46667,-1585
40.47500,-1585
40.48333,-1585
40.49167,-1586
40.50000,-1586
40.50833,-1587
40.51667,-1587
40.52500,-1588
40.53333,-1588
40.54167,-1589
40.55000,-1590
40.55833,-1590
40.56667,-1591
40.57500,-1591
40.58333,-1591
40.59167,-1592
40.60000,-1592
40.60833,-1593
40.61667,-1594
40.62500,-1594
40.63333,-1594
40.64167,-1594
40.65000,-1594
40.65833,-1594
40.66667,-1595
40.67500,-1595
40.68333,-1596
40.69167,-1597
40.70000,-1597
40.70833,-1598
40.71667,-1598
40.72500,-1599
40.73333,-1599
40.74167,-1600
40.75000,-1600
40.75833,-1600
40.76667,-1601
40.77500,-1601
40.78333,-1601
40.79167,-1602
40.80000,-1603
40.80833,-1603
40.81667,-1603
40.82500,-1604
40.83333,-1604
40.84167,-1605
40.85000,-1605
40.85833,-1605
40.86667,-1606
40.87500,-1606
40.88333,-1606
40.89167,-1607
40.90000,-1607
40.90833,-1608
40.91667,-1609
40.92500,-1609
40.93333,-1609
40.94167,-1610
40.95000,-1610
40.95833,-1611
40.96667,-1612
40.97500,-1612
40.98333,-1613
40.99167,-1613
41.00000,-1613
41.00833,-1614
41.01667,-1614
41.02500,-1614
41.03333,-1615
41.04167,-1616
41.05000,-1616
41.05833,-1617
41.06667,-1618
41.07500,-1618
41.08333,-1618
41.09167,-1619
41.10000,-1619
41.10833,-1619
41.11667,-1620
41.12500,-1620
41.13333,-1620
41.14167,-1621
41.15000,-1621
41.15833,-1622
41.16667,-1622
41.17500,-1622
41.18333,-1623
41.19167,-1623
41.20000,-1623
41.20833,-1624
41.21667,-1624
41.22500,-1625
41.23333,-1625
41.24167,-1626
41.25000,-1626
41.25833,-1626
41.26667,-1627
41.27500,-1627
41.28333,-1627
41.29167,-1628
41.30000,-1628
41.30833,-1628
41.31667,-1629
41.32500,-1629
41.33333,-1630
41.34167,-1630
41.35000,-1631
41.35833,-1631
41.36667,-1631
41.37500,-1632
41.38333,-1632
41.39167,-1633
41.40000,-1633
41.40833,-1633
41.41667,-1634
41.42500,-1635
41.43333,-1635
41.44167,-1636
41.45000,-1636
41.45833,-1636
41.46667,-1637
41.47500,-1637
41.48333,-1638
41.49167,-1638
41.50000,-1638
41.50833,-1638
41.51667,-1638
41.52500,-1639
41.53333,-1639
41.54167,-1639
41.55000,-1640
41.55833,-1640
41.56667,-1641
41.57500,-1641
41.58333,-1642
41.59167,-1642
41.60000,-1643
41.60833,-1643
41.61667,-1643
41.62500,-1644
41.63333,-1644
41.64167,-1645
41.65000,-1645
41.65833,-1646
41.66667,-1646
41.67500,-1647
41.68333,-1647
41.69167,-1648
41.70000,-1648
41.70833,-1648
41.71667,-1648
41.72500,-1649
41.73333,-1650
41.74167,-1650
41.75000,-1651
41.75833,-1651
41.76667,-1652
41.77500,-1652
41.78333,-1652
41.79167,-1652
41.80000,-1653
41.80833,-1653
41.81667,-1653
41.82500,-1654
41.83333,-1654
41.84167,-1655
41.85000,-1655
41.85833,-1656
41.86667,-1656
41.87500,-1657
41.88333,-1657
41.89167,-1657
41.90000,-1658
41.90833,-1658
41.91667,-1659
41.92500,-1659
41.93333,-1660
41.94167,-1660
41.95000,-1661
41.95833,-1661
41.96667,-1661
41.97500,-1661
41.98333,-1662
41.99167,-1662
42.00000,-1663
42.00833,-1663
42.01667,-1664
42.02500,-1664
42.03333,-1665
42.04167,-1665
42.05000,-1665
42.05833,-1665
42.06667,-1666
42.07500,-1666
42.08333,-1667
42.09167,-1667
42.10000,-1668
42.10833,-1668
42.11667,-1669
42.12500,-1669
42.13333,-1669
42.14167,-1669
42.15000,-1670
42.15833,-1671
42.16667,-1671
42.17500,-1671
42.18333,-1672
42.19167,-1673
42.20000,-1673
42.20833,-1673
42.21667,-1674
42.22500,-1674
42.23333,-1675
42.24167,-1675
42.25000,-1676
42.25833,-1676
42.26667,-1677
42.27500,-1677
42.28333,-1678
42.29167,-1678
42.30000,-1679
42.30833,-1679
42.31667,-1680
42.32500,-1680
42.33333,-1681
42.34167,-1681
42.35000,-1682
42.35833,-1682
42.36667,-1682
42.37500,-1683
42.38333,-1684
42.39167,-1684
42.40000,-1684
42.40833,-1685
42.41667,-1685
42.42500,-1685
42.43333,-1686
42.44167,-1686
42.45000,-1687
42.45833,-1687
42.46667,-1688
42.47500,-1688
42.48333,-1689
42.49167,-1689
42.50000,-1689
42.50833,-1690
42.51667,-1690
42.52500,-1691
42.53333,-1691
42.54167,-1691
42.55000,-1692
42.55833,-1692
42.56667,-1693
42.57500,-1693
42.58333,-1693
42.59167,-1694
42.60000,-1694
42.60833,-1695
42.61667,-1695
42.62500,-1695
42.63333,-1696
42.64167,-1696
42.65000,-1697
42.65833,-1697
42.66667,-1698
42.67500,-1698
42.68333,-1698
42.69167,-1699
42.70000,-1699
42.70833,-1699
42.71667,-1700
42.72500,-1701
42.73333,-1701
42.74167,-1702
42.75000,-1703
42.75833,-1703
42.76667,-1704
42.77500,-1704
42.78333,-1705
42.79167,-1705
42.80000,-1705
42.80833,-1706
42.81667,-1706
42.82500,-1707
42.83333,-1707
42.84167,-1708
42.85000,-1709
42.85833,-1709
42.86667,-1710
42.87500,-1710
42.88333,-1710
42.89167,-1710
42.90000,-1711
42.90833,-1711
42.91667,-1711
42.92500,-1712
42.93333,-1713
42.94167,-1713
42.95000,-1714
42.95833,-1714
42.96667,-1714
42.97500,-1715
42.98333,-1715
42.99167,-1715
43.00000,-1716
43.00833,-1716
43.01667,-1717
43.02500,-1717
43.03333,-1718
43.04167,-1718
43.05000,-1718
43.05833,-1718
43.06667,-1719
43.07500,-1719
43.08333,-1720
43.09167,-1720
43.10000,-1721
43.10833,-1722
43.11667,-1723
43.12500,-1723
43.13333,-1723
43.14167,-1724
43.15000,-1724
43.15833,-1724
43.16667,-1725
43.17500,-1725
43.18333,-1725
43.19167,-1726
43.20000,-1726
43.20833,-1727
43.21667,-1727
43.22500,-1728
43.23333,-1728
43.24167,-1729
43.25000,-1729
43.25833,-1730
43.26667,-1730
43.27500,-1731
43.28333,-1731
43.29167,-1732
43.30000,-1732
43.30833,-1733
43.31667,-1733
43.32500,-1733
43.33333,-1734
43.34167,-1734
43.35000,-1735
43.35833,-1736
43.36667,-1736
43.37500,-1737
43.38333,-1737
43.39167,-1738
43.40000,-1738
43.40833,-1738
43.41667,-1739
43.42500,-1739
43.43333,-1739
43.44167,-1740
43.45000,-1740
43.45833,-1741
43.46667,-1742
43.47500,-1742
43.48333,-1743
43.49167,-1743
43.50000,-1743
43.50833,-1743
43.51667,-1744
43.52500,-1744
43.53333,-1745
43.54167,-1746
43.55000,-1746
43.55833,-1746
43.56667,-1747
43.57500,-1747
43.58333,-1748
43.59167,-1749
43.60000,-1749
43.60833,-1750
43.61667,-1750
43.62500,-1751
43.63333,-1752
43.64167,-1752
43.65000,-1752
43.65833,-1753
43.66667,-1753
43.67500,-1753
43.68333,-1754
43.69167,-1754
43.70000,-1755
43.70833,-1755
43.71667,-1756
43.72500,-1757
43.73333,-1757
43.74167,-1757
43.75000,-1758
43.75833,-1758
43.76667,-1759
43.77500,-1759
43.78333,-1760
43.79167,-1760
43.80000,-1760
43.80833,-1760
43.81667,-1761
43.82500,-1761
43.83333,-1762
43.84167,-1762
43.85000,-1762
43.85833,-1763
43.86667,-1763
43.87500,-1763
43.88333,-1764
43.89167,-1765
43.90000,-1765
43.90833,-1766
43.91667,-1766
43.92500,-1767
43.93333,-1767
43.94167,-1768
43.95000,-1768
43.95833,-1769
43.96667,-1769
43.97500,-1770
43.98333,-1770
43.99167,-1771
44.00000,-1771
44.00833,-1771
44.01667,-1772
44.02500,-1772
44.03333,-1773
44.04167,-1773
44.05000,-1774
44.05833,-1774
44.06667,-1775
44.07500,-1775
44.08333,-1775
44.09167,-1775
44.10000,-1775
44.10833,-1776
44.11667,-1776
44.12500,-1777
44.13333,-1778
44.14167,-1778
44.15000,-1778
44.15833,-1779
44.16667,-1779
44.17500,-1780
44.18333,-1781
44.19167,-1781
44.20000,-1782
44.20833,-1782
44.21667,-1782
44.22500,-1782
44.23333,-1783
44.24167,-1783
44.25000,-1784
44.25833,-1784
44.26667,-1785
44.27500,-1786
44.28333,-1786
44.29167,-1786
44.30000,-1786
44.30833,-1787
44.31667,-1788
44.32500,-1788
44.33333,-1789
44.34167,-1789
44.35000,-1790
44.35833,-1790
44.36667,-1791
44.37500,-1791
44.38333,-1791
44.39167,-1792
44.40000,-1792
44.40833,-1793
44.41667,-1793
44.42500,-1794
44.43333,-1794
44.44167,-1794
44.45000,-1794
44.45833,-1794
44.46667,-1795
44.47500,-1795
44.48333,-1796
44.49167,-1797
44.50000,-1797
44.50833,-1798
44.51667,-1798
44.52500,-1799
44.53333,-1799
44.54167,-1800
44.55000,-1801
44.55833,-1801
44.56667,-1801
44.57500,-1801
44.58333,-1802
44.59167,-1802
44.60000,-1802
44.60833,-1802
44.61667,-1802
44.62500,-1802
44.63333,-1803
44.64167,-1803
44.65000,-1803
44.65833,-1804
44.66667,-1804
44.67500,-1804
44.68333,-1805
44.69167,-1805
44.70000,-1806
44.70833,-1807
44.71667,-1807
44.72500,-1808
44.73333,-1808
44.74167,-1809
44.75000,-1809
44.75833,-1810
44.76667,-1811
44.77500,-1811
44.78333,-1811
44.79167,-1812
44.80000,-1812
44.80833,-1812
44.81667,-1812
44.82500,-1813
44.83333,-1813
44.84167,-1813
44.85000,-1814
44.85833,-1814
44.86667,-1815
44.87500,-1815
44.88333,-1816
44.89167,-1816
44.90000,-1817
44.90833,-1817
44.91667,-1818
44.92500,-1818
44.93333,-1818
44.94167,-1819
44.95000,-1819
44.95833,-1819
44.96667,-1820
44.97500,-1821
44.98333,-1821
44.99167,-1822
45.00000,-1822

