[Header]
Application Name,LabSolutions
Version,5.97 SP1
Data File Name,C:\Users\cremerlab\Desktop\batch_template_3182021_001_008.lcd
Output Date,3/18/2021
Output Time,5:31:22 PM

[File Information]
Type,Data File
Generated,3/18/2021 4:46:03 PM
Generated by,System Administrator
Modified,3/18/2021 5:31:22 PM
Modified by,System Administrator

[Sample Information]
Operator Name,System Administrator
Acquired,3/18/2021 4:46:21 PM
Sample Type,1:Standard
Level,1
Sample Name,2021-03-18_DM_base001
Sample ID,001
ISTD Amount1,1
ISTD Amount2,1
ISTD Amount3,1
ISTD Amount4,1
ISTD Amount5,1
ISTD Amount6,1
ISTD Amount7,1
ISTD Amount8,1
ISTD Amount9,1
ISTD Amount10,1
ISTD Amount11,1
ISTD Amount12,1
ISTD Amount13,1
ISTD Amount14,1
ISTD Amount15,1
ISTD Amount16,1
ISTD Amount17,1
ISTD Amount18,1
ISTD Amount19,1
ISTD Amount20,1
ISTD Amount21,1
ISTD Amount22,1
ISTD Amount23,1
ISTD Amount24,1
ISTD Amount25,1
ISTD Amount26,1
ISTD Amount27,1
ISTD Amount28,1
ISTD Amount29,1
ISTD Amount30,1
ISTD Amount31,1
ISTD Amount32,1
Sample Amount,1
Dilution Factor,1
Vial#,20
Injection Volume,20

[Original Files]
Data File,C:\Users\cremerlab\Desktop\batch_template_3182021_001_008.lcd
Method File,C:\LabSolutions\Data\Project1\organicacidsetc2.lcm
Batch File,C:\Users\cremerlab\Desktop\batch_template.lcb
Report Format File,c:\LabSolutions\System\DEFAULT.lsr

[File Description]


[Configuration]
Instrument Name,HPLC-PC-Instrument1
Instrument #,1
Line #,1
# of Detectors,2
Detector ID,Detector A,Detector B
Detector Name,Detector A,Detector B
# of Channels,1,1

[LC Chromatogram(Detector B-Ch1)]
Interval(msec),500
# of Points,5401
Start Time(min),0.000
End Time(min),45.000
Intensity Units,mV
Intensity Multiplier,0.001
R.Time (min),Intensity
0.00000,-13
0.00833,-13
0.01667,-4
0.02500,-1
0.03333,-3
0.04167,-6
0.05000,-9
0.05833,-12
0.06667,-13
0.07500,-13
0.08333,-13
0.09167,-12
0.10000,-11
0.10833,-9
0.11667,-8
0.12500,-8
0.13333,-7
0.14167,-7
0.15000,-7
0.15833,-8
0.16667,-8
0.17500,-9
0.18333,-9
0.19167,-10
0.20000,-10
0.20833,-11
0.21667,-11
0.22500,-11
0.23333,-11
0.24167,-10
0.25000,-10
0.25833,-10
0.26667,-11
0.27500,-11
0.28333,-12
0.29167,-12
0.30000,-13
0.30833,-14
0.31667,-15
0.32500,-16
0.33333,-16
0.34167,-17
0.35000,-18
0.35833,-18
0.36667,-19
0.37500,-20
0.38333,-20
0.39167,-20
0.40000,-21
0.40833,-21
0.41667,-22
0.42500,-22
0.43333,-23
0.44167,-24
0.45000,-24
0.45833,-24
0.46667,-24
0.47500,-25
0.48333,-25
0.49167,-26
0.50000,-26
0.50833,-27
0.51667,-27
0.52500,-28
0.53333,-28
0.54167,-28
0.55000,-28
0.55833,-27
0.56667,-26
0.57500,-25
0.58333,-25
0.59167,-24
0.60000,-24
0.60833,-24
0.61667,-25
0.62500,-26
0.63333,-28
0.64167,-30
0.65000,-32
0.65833,-35
0.66667,-37
0.67500,-40
0.68333,-42
0.69167,-45
0.70000,-47
0.70833,-49
0.71667,-50
0.72500,-51
0.73333,-53
0.74167,-54
0.75000,-54
0.75833,-55
0.76667,-55
0.77500,-55
0.78333,-54
0.79167,-54
0.80000,-54
0.80833,-54
0.81667,-54
0.82500,-55
0.83333,-54
0.84167,-54
0.85000,-54
0.85833,-54
0.86667,-54
0.87500,-54
0.88333,-54
0.89167,-54
0.90000,-55
0.90833,-55
0.91667,-55
0.92500,-55
0.93333,-55
0.94167,-55
0.95000,-55
0.95833,-55
0.96667,-55
0.97500,-56
0.98333,-57
0.99167,-57
1.00000,-58
1.00833,-58
1.01667,-59
1.02500,-59
1.03333,-60
1.04167,-61
1.05000,-61
1.05833,-62
1.06667,-63
1.07500,-63
1.08333,-64
1.09167,-65
1.10000,-66
1.10833,-67
1.11667,-67
1.12500,-67
1.13333,-68
1.14167,-68
1.15000,-68
1.15833,-69
1.16667,-69
1.17500,-70
1.18333,-71
1.19167,-71
1.20000,-72
1.20833,-72
1.21667,-73
1.22500,-73
1.23333,-74
1.24167,-74
1.25000,-74
1.25833,-75
1.26667,-75
1.27500,-75
1.28333,-76
1.29167,-76
1.30000,-77
1.30833,-78
1.31667,-78
1.32500,-79
1.33333,-80
1.34167,-81
1.35000,-81
1.35833,-82
1.36667,-83
1.37500,-83
1.38333,-84
1.39167,-84
1.40000,-85
1.40833,-86
1.41667,-87
1.42500,-87
1.43333,-88
1.44167,-89
1.45000,-89
1.45833,-90
1.46667,-90
1.47500,-90
1.48333,-91
1.49167,-91
1.50000,-92
1.50833,-92
1.51667,-93
1.52500,-94
1.53333,-95
1.54167,-96
1.55000,-96
1.55833,-97
1.56667,-97
1.57500,-98
1.58333,-99
1.59167,-100
1.60000,-100
1.60833,-101
1.61667,-101
1.62500,-102
1.63333,-102
1.64167,-102
1.65000,-103
1.65833,-103
1.66667,-104
1.67500,-105
1.68333,-105
1.69167,-106
1.70000,-107
1.70833,-107
1.71667,-108
1.72500,-109
1.73333,-109
1.74167,-109
1.75000,-109
1.75833,-110
1.76667,-111
1.77500,-112
1.78333,-112
1.79167,-113
1.80000,-113
1.80833,-113
1.81667,-114
1.82500,-114
1.83333,-115
1.84167,-115
1.85000,-116
1.85833,-116
1.86667,-117
1.87500,-118
1.88333,-119
1.89167,-119
1.90000,-120
1.90833,-121
1.91667,-121
1.92500,-122
1.93333,-123
1.94167,-123
1.95000,-123
1.95833,-124
1.96667,-125
1.97500,-126
1.98333,-126
1.99167,-127
2.00000,-127
2.00833,-128
2.01667,-128
2.02500,-129
2.03333,-130
2.04167,-130
2.05000,-131
2.05833,-132
2.06667,-132
2.07500,-133
2.08333,-134
2.09167,-134
2.10000,-135
2.10833,-135
2.11667,-136
2.12500,-136
2.13333,-137
2.14167,-137
2.15000,-138
2.15833,-139
2.16667,-140
2.17500,-140
2.18333,-141
2.19167,-142
2.20000,-142
2.20833,-142
2.21667,-143
2.22500,-143
2.23333,-144
2.24167,-145
2.25000,-145
2.25833,-146
2.26667,-146
2.27500,-147
2.28333,-147
2.29167,-148
2.30000,-148
2.30833,-149
2.31667,-150
2.32500,-151
2.33333,-152
2.34167,-152
2.35000,-153
2.35833,-153
2.36667,-154
2.37500,-154
2.38333,-155
2.39167,-156
2.40000,-156
2.40833,-157
2.41667,-157
2.42500,-158
2.43333,-158
2.44167,-159
2.45000,-159
2.45833,-160
2.46667,-161
2.47500,-161
2.48333,-162
2.49167,-163
2.50000,-163
2.50833,-164
2.51667,-164
2.52500,-165
2.53333,-165
2.54167,-166
2.55000,-167
2.55833,-167
2.56667,-167
2.57500,-168
2.58333,-169
2.59167,-169
2.60000,-170
2.60833,-171
2.61667,-171
2.62500,-172
2.63333,-172
2.64167,-173
2.65000,-173
2.65833,-174
2.66667,-175
2.67500,-175
2.68333,-176
2.69167,-177
2.70000,-177
2.70833,-177
2.71667,-178
2.72500,-178
2.73333,-179
2.74167,-180
2.75000,-180
2.75833,-180
2.76667,-181
2.77500,-181
2.78333,-182
2.79167,-183
2.80000,-184
2.80833,-184
2.81667,-185
2.82500,-185
2.83333,-186
2.84167,-186
2.85000,-187
2.85833,-188
2.86667,-188
2.87500,-189
2.88333,-190
2.89167,-190
2.90000,-191
2.90833,-191
2.91667,-192
2.92500,-193
2.93333,-194
2.94167,-194
2.95000,-195
2.95833,-195
2.96667,-196
2.97500,-197
2.98333,-197
2.99167,-198
3.00000,-199
3.00833,-199
3.01667,-200
3.02500,-201
3.03333,-201
3.04167,-202
3.05000,-202
3.05833,-203
3.06667,-203
3.07500,-204
3.08333,-205
3.09167,-205
3.10000,-206
3.10833,-207
3.11667,-207
3.12500,-208
3.13333,-209
3.14167,-210
3.15000,-210
3.15833,-211
3.16667,-212
3.17500,-212
3.18333,-213
3.19167,-213
3.20000,-214
3.20833,-214
3.21667,-215
3.22500,-215
3.23333,-216
3.24167,-217
3.25000,-217
3.25833,-218
3.26667,-218
3.27500,-219
3.28333,-219
3.29167,-220
3.30000,-221
3.30833,-222
3.31667,-222
3.32500,-223
3.33333,-224
3.34167,-225
3.35000,-225
3.35833,-226
3.36667,-226
3.37500,-226
3.38333,-226
3.39167,-227
3.40000,-228
3.40833,-228
3.41667,-229
3.42500,-230
3.43333,-230
3.44167,-231
3.45000,-232
3.45833,-232
3.46667,-233
3.47500,-234
3.48333,-234
3.49167,-235
3.50000,-236
3.50833,-236
3.51667,-237
3.52500,-238
3.53333,-238
3.54167,-239
3.55000,-240
3.55833,-240
3.56667,-241
3.57500,-242
3.58333,-242
3.59167,-243
3.60000,-244
3.60833,-245
3.61667,-245
3.62500,-246
3.63333,-246
3.64167,-247
3.65000,-248
3.65833,-249
3.66667,-249
3.67500,-250
3.68333,-250
3.69167,-251
3.70000,-252
3.70833,-252
3.71667,-253
3.72500,-253
3.73333,-253
3.74167,-254
3.75000,-255
3.75833,-256
3.76667,-257
3.77500,-257
3.78333,-258
3.79167,-258
3.80000,-259
3.80833,-260
3.81667,-260
3.82500,-260
3.83333,-261
3.84167,-262
3.85000,-263
3.85833,-263
3.86667,-264
3.87500,-264
3.88333,-265
3.89167,-265
3.90000,-266
3.90833,-267
3.91667,-268
3.92500,-268
3.93333,-268
3.94167,-269
3.95000,-269
3.95833,-269
3.96667,-270
3.97500,-271
3.98333,-271
3.99167,-272
4.00000,-272
4.00833,-273
4.01667,-274
4.02500,-275
4.03333,-276
4.04167,-276
4.05000,-277
4.05833,-278
4.06667,-279
4.07500,-279
4.08333,-280
4.09167,-280
4.10000,-281
4.10833,-281
4.11667,-282
4.12500,-282
4.13333,-282
4.14167,-283
4.15000,-284
4.15833,-284
4.16667,-285
4.17500,-286
4.18333,-287
4.19167,-288
4.20000,-288
4.20833,-289
4.21667,-290
4.22500,-290
4.23333,-291
4.24167,-291
4.25000,-291
4.25833,-292
4.26667,-292
4.27500,-292
4.28333,-293
4.29167,-294
4.30000,-294
4.30833,-295
4.31667,-296
4.32500,-297
4.33333,-298
4.34167,-298
4.35000,-299
4.35833,-299
4.36667,-300
4.37500,-301
4.38333,-302
4.39167,-303
4.40000,-304
4.40833,-305
4.41667,-306
4.42500,-307
4.43333,-307
4.44167,-308
4.45000,-309
4.45833,-309
4.46667,-310
4.47500,-310
4.48333,-310
4.49167,-311
4.50000,-311
4.50833,-312
4.51667,-313
4.52500,-314
4.53333,-314
4.54167,-315
4.55000,-316
4.55833,-316
4.56667,-317
4.57500,-317
4.58333,-318
4.59167,-318
4.60000,-319
4.60833,-320
4.61667,-320
4.62500,-321
4.63333,-322
4.64167,-323
4.65000,-323
4.65833,-323
4.66667,-324
4.67500,-325
4.68333,-326
4.69167,-327
4.70000,-328
4.70833,-328
4.71667,-329
4.72500,-329
4.73333,-330
4.74167,-330
4.75000,-330
4.75833,-331
4.76667,-332
4.77500,-332
4.78333,-333
4.79167,-333
4.80000,-334
4.80833,-335
4.81667,-336
4.82500,-337
4.83333,-337
4.84167,-337
4.85000,-338
4.85833,-339
4.86667,-339
4.87500,-340
4.88333,-340
4.89167,-341
4.90000,-342
4.90833,-343
4.91667,-344
4.92500,-344
4.93333,-345
4.94167,-345
4.95000,-346
4.95833,-346
4.96667,-347
4.97500,-348
4.98333,-349
4.99167,-350
5.00000,-351
5.00833,-351
5.01667,-352
5.02500,-352
5.03333,-353
5.04167,-353
5.05000,-353
5.05833,-354
5.06667,-355
5.07500,-356
5.08333,-356
5.09167,-357
5.10000,-358
5.10833,-359
5.11667,-359
5.12500,-360
5.13333,-360
5.14167,-361
5.15000,-361
5.15833,-361
5.16667,-362
5.17500,-363
5.18333,-364
5.19167,-364
5.20000,-365
5.20833,-366
5.21667,-366
5.22500,-367
5.23333,-368
5.24167,-368
5.25000,-369
5.25833,-370
5.26667,-371
5.27500,-372
5.28333,-372
5.29167,-373
5.30000,-373
5.30833,-374
5.31667,-374
5.32500,-375
5.33333,-375
5.34167,-376
5.35000,-376
5.35833,-377
5.36667,-378
5.37500,-378
5.38333,-379
5.39167,-380
5.40000,-381
5.40833,-381
5.41667,-382
5.42500,-382
5.43333,-382
5.44167,-383
5.45000,-383
5.45833,-384
5.46667,-386
5.47500,-387
5.48333,-388
5.49167,-389
5.50000,-389
5.50833,-390
5.51667,-390
5.52500,-390
5.53333,-391
5.54167,-391
5.55000,-392
5.55833,-393
5.56667,-394
5.57500,-394
5.58333,-395
5.59167,-395
5.60000,-396
5.60833,-397
5.61667,-398
5.62500,-398
5.63333,-399
5.64167,-400
5.65000,-400
5.65833,-401
5.66667,-401
5.67500,-402
5.68333,-402
5.69167,-403
5.70000,-403
5.70833,-403
5.71667,-404
5.72500,-405
5.73333,-406
5.74167,-407
5.75000,-407
5.75833,-408
5.76667,-408
5.77500,-409
5.78333,-409
5.79167,-410
5.80000,-411
5.80833,-412
5.81667,-413
5.82500,-413
5.83333,-414
5.84167,-414
5.85000,-415
5.85833,-416
5.86667,-417
5.87500,-417
5.88333,-418
5.89167,-418
5.90000,-419
5.90833,-420
5.91667,-421
5.92500,-421
5.93333,-422
5.94167,-423
5.95000,-423
5.95833,-424
5.96667,-425
5.97500,-425
5.98333,-426
5.99167,-427
6.00000,-428
6.00833,-428
6.01667,-429
6.02500,-430
6.03333,-430
6.04167,-431
6.05000,-431
6.05833,-431
6.06667,-432
6.07500,-433
6.08333,-433
6.09167,-434
6.10000,-435
6.10833,-436
6.11667,-437
6.12500,-438
6.13333,-439
6.14167,-439
6.15000,-439
6.15833,-440
6.16667,-440
6.17500,-441
6.18333,-441
6.19167,-442
6.20000,-442
6.20833,-443
6.21667,-444
6.22500,-444
6.23333,-445
6.24167,-446
6.25000,-447
6.25833,-448
6.26667,-449
6.27500,-449
6.28333,-450
6.29167,-450
6.30000,-451
6.30833,-451
6.31667,-452
6.32500,-452
6.33333,-453
6.34167,-453
6.35000,-454
6.35833,-455
6.36667,-456
6.37500,-456
6.38333,-457
6.39167,-457
6.40000,-458
6.40833,-458
6.41667,-459
6.42500,-459
6.43333,-460
6.44167,-461
6.45000,-461
6.45833,-461
6.46667,-462
6.47500,-463
6.48333,-463
6.49167,-464
6.50000,-465
6.50833,-466
6.51667,-466
6.52500,-467
6.53333,-468
6.54167,-468
6.55000,-469
6.55833,-469
6.56667,-470
6.57500,-471
6.58333,-472
6.59167,-472
6.60000,-473
6.60833,-473
6.61667,-473
6.62500,-474
6.63333,-474
6.64167,-475
6.65000,-475
6.65833,-475
6.66667,-476
6.67500,-477
6.68333,-477
6.69167,-478
6.70000,-479
6.70833,-479
6.71667,-480
6.72500,-480
6.73333,-481
6.74167,-482
6.75000,-483
6.75833,-483
6.76667,-484
6.77500,-485
6.78333,-486
6.79167,-486
6.80000,-487
6.80833,-487
6.81667,-488
6.82500,-488
6.83333,-489
6.84167,-489
6.85000,-489
6.85833,-490
6.86667,-491
6.87500,-491
6.88333,-492
6.89167,-493
6.90000,-493
6.90833,-494
6.91667,-494
6.92500,-495
6.93333,-496
6.94167,-496
6.95000,-497
6.95833,-498
6.96667,-499
6.97500,-500
6.98333,-500
6.99167,-500
7.00000,-501
7.00833,-501
7.01667,-502
7.02500,-503
7.03333,-503
7.04167,-504
7.05000,-505
7.05833,-505
7.06667,-506
7.07500,-507
7.08333,-507
7.09167,-508
7.10000,-508
7.10833,-509
7.11667,-509
7.12500,-510
7.13333,-511
7.14167,-511
7.15000,-512
7.15833,-513
7.16667,-513
7.17500,-514
7.18333,-515
7.19167,-515
7.20000,-515
7.20833,-516
7.21667,-516
7.22500,-517
7.23333,-518
7.24167,-518
7.25000,-519
7.25833,-519
7.26667,-519
7.27500,-520
7.28333,-521
7.29167,-522
7.30000,-523
7.30833,-524
7.31667,-524
7.32500,-525
7.33333,-526
7.34167,-526
7.35000,-527
7.35833,-527
7.36667,-528
7.37500,-529
7.38333,-530
7.39167,-530
7.40000,-531
7.40833,-532
7.41667,-532
7.42500,-533
7.43333,-534
7.44167,-535
7.45000,-535
7.45833,-536
7.46667,-536
7.47500,-537
7.48333,-538
7.49167,-539
7.50000,-540
7.50833,-540
7.51667,-541
7.52500,-541
7.53333,-542
7.54167,-542
7.55000,-543
7.55833,-543
7.56667,-544
7.57500,-544
7.58333,-545
7.59167,-546
7.60000,-546
7.60833,-547
7.61667,-548
7.62500,-549
7.63333,-550
7.64167,-551
7.65000,-551
7.65833,-552
7.66667,-553
7.67500,-553
7.68333,-554
7.69167,-554
7.70000,-555
7.70833,-556
7.71667,-556
7.72500,-557
7.73333,-558
7.74167,-558
7.75000,-559
7.75833,-559
7.76667,-560
7.77500,-560
7.78333,-561
7.79167,-562
7.80000,-562
7.80833,-563
7.81667,-564
7.82500,-565
7.83333,-566
7.84167,-566
7.85000,-567
7.85833,-568
7.86667,-568
7.87500,-569
7.88333,-570
7.89167,-570
7.90000,-571
7.90833,-571
7.91667,-572
7.92500,-572
7.93333,-573
7.94167,-574
7.95000,-575
7.95833,-575
7.96667,-576
7.97500,-577
7.98333,-577
7.99167,-578
8.00000,-578
8.00833,-579
8.01667,-579
8.02500,-580
8.03333,-581
8.04167,-581
8.05000,-582
8.05833,-583
8.06667,-584
8.07500,-584
8.08333,-585
8.09167,-586
8.10000,-586
8.10833,-587
8.11667,-588
8.12500,-589
8.13333,-590
8.14167,-590
8.15000,-590
8.15833,-591
8.16667,-591
8.17500,-592
8.18333,-593
8.19167,-593
8.20000,-594
8.20833,-595
8.21667,-595
8.22500,-596
8.23333,-596
8.24167,-597
8.25000,-598
8.25833,-599
8.26667,-600
8.27500,-600
8.28333,-601
8.29167,-601
8.30000,-602
8.30833,-602
8.31667,-603
8.32500,-603
8.33333,-604
8.34167,-605
8.35000,-605
8.35833,-605
8.36667,-606
8.37500,-606
8.38333,-606
8.39167,-607
8.40000,-607
8.40833,-608
8.41667,-608
8.42500,-609
8.43333,-610
8.44167,-610
8.45000,-611
8.45833,-612
8.46667,-613
8.47500,-614
8.48333,-614
8.49167,-615
8.50000,-616
8.50833,-617
8.51667,-617
8.52500,-618
8.53333,-618
8.54167,-619
8.55000,-620
8.55833,-620
8.56667,-621
8.57500,-621
8.58333,-622
8.59167,-623
8.60000,-623
8.60833,-624
8.61667,-625
8.62500,-625
8.63333,-626
8.64167,-626
8.65000,-627
8.65833,-627
8.66667,-628
8.67500,-629
8.68333,-630
8.69167,-630
8.70000,-631
8.70833,-631
8.71667,-632
8.72500,-633
8.73333,-633
8.74167,-633
8.75000,-634
8.75833,-634
8.76667,-635
8.77500,-636
8.78333,-637
8.79167,-638
8.80000,-638
8.80833,-639
8.81667,-640
8.82500,-640
8.83333,-641
8.84167,-641
8.85000,-642
8.85833,-643
8.86667,-643
8.87500,-643
8.88333,-644
8.89167,-644
8.90000,-645
8.90833,-645
8.91667,-646
8.92500,-647
8.93333,-648
8.94167,-649
8.95000,-649
8.95833,-650
8.96667,-651
8.97500,-652
8.98333,-653
8.99167,-654
9.00000,-654
9.00833,-655
9.01667,-655
9.02500,-656
9.03333,-656
9.04167,-657
9.05000,-658
9.05833,-658
9.06667,-658
9.07500,-659
9.08333,-659
9.09167,-659
9.10000,-660
9.10833,-661
9.11667,-661
9.12500,-662
9.13333,-663
9.14167,-664
9.15000,-664
9.15833,-665
9.16667,-665
9.17500,-666
9.18333,-667
9.19167,-667
9.20000,-668
9.20833,-668
9.21667,-669
9.22500,-669
9.23333,-670
9.24167,-671
9.25000,-671
9.25833,-672
9.26667,-672
9.27500,-673
9.28333,-674
9.29167,-675
9.30000,-675
9.30833,-676
9.31667,-676
9.32500,-677
9.33333,-677
9.34167,-678
9.35000,-679
9.35833,-679
9.36667,-680
9.37500,-681
9.38333,-681
9.39167,-682
9.40000,-683
9.40833,-684
9.41667,-684
9.42500,-685
9.43333,-685
9.44167,-686
9.45000,-687
9.45833,-687
9.46667,-688
9.47500,-689
9.48333,-689
9.49167,-689
9.50000,-690
9.50833,-691
9.51667,-691
9.52500,-692
9.53333,-693
9.54167,-694
9.55000,-694
9.55833,-695
9.56667,-696
9.57500,-696
9.58333,-697
9.59167,-698
9.60000,-698
9.60833,-698
9.61667,-699
9.62500,-699
9.63333,-700
9.64167,-700
9.65000,-700
9.65833,-701
9.66667,-702
9.67500,-702
9.68333,-703
9.69167,-704
9.70000,-704
9.70833,-705
9.71667,-705
9.72500,-706
9.73333,-707
9.74167,-707
9.75000,-708
9.75833,-708
9.76667,-709
9.77500,-709
9.78333,-710
9.79167,-710
9.80000,-711
9.80833,-712
9.81667,-712
9.82500,-713
9.83333,-713
9.84167,-714
9.85000,-715
9.85833,-715
9.86667,-716
9.87500,-716
9.88333,-717
9.89167,-718
9.90000,-718
9.90833,-719
9.91667,-720
9.92500,-720
9.93333,-721
9.94167,-721
9.95000,-722
9.95833,-722
9.96667,-723
9.97500,-724
9.98333,-724
9.99167,-725
10.00000,-725
10.00833,-726
10.01667,-727
10.02500,-728
10.03333,-728
10.04167,-729
10.05000,-730
10.05833,-730
10.06667,-730
10.07500,-731
10.08333,-731
10.09167,-731
10.10000,-732
10.10833,-733
10.11667,-734
10.12500,-735
10.13333,-735
10.14167,-736
10.15000,-736
10.15833,-737
10.16667,-738
10.17500,-738
10.18333,-739
10.19167,-739
10.20000,-740
10.20833,-741
10.21667,-742
10.22500,-742
10.23333,-743
10.24167,-744
10.25000,-745
10.25833,-745
10.26667,-745
10.27500,-745
10.28333,-745
10.29167,-746
10.30000,-746
10.30833,-746
10.31667,-746
10.32500,-746
10.33333,-747
10.34167,-747
10.35000,-747
10.35833,-747
10.36667,-747
10.37500,-747
10.38333,-747
10.39167,-746
10.40000,-746
10.40833,-747
10.41667,-747
10.42500,-747
10.43333,-748
10.44167,-748
10.45000,-749
10.45833,-749
10.46667,-750
10.47500,-751
10.48333,-752
10.49167,-753
10.50000,-754
10.50833,-755
10.51667,-756
10.52500,-757
10.53333,-757
10.54167,-758
10.55000,-758
10.55833,-758
10.56667,-757
10.57500,-757
10.58333,-755
10.59167,-753
10.60000,-749
10.60833,-745
10.61667,-739
10.62500,-732
10.63333,-722
10.64167,-710
10.65000,-695
10.65833,-679
10.66667,-659
10.67500,-638
10.68333,-614
10.69167,-589
10.70000,-563
10.70833,-539
10.71667,-517
10.72500,-500
10.73333,-490
10.74167,-489
10.75000,-500
10.75833,-528
10.76667,-574
10.77500,-641
10.78333,-732
10.79167,-849
10.80000,-993
10.80833,-1166
10.81667,-1366
10.82500,-1593
10.83333,-1844
10.84167,-2117
10.85000,-2406
10.85833,-2706
10.86667,-3013
10.87500,-3319
10.88333,-3619
10.89167,-3906
10.90000,-4174
10.90833,-4416
10.91667,-4629
10.92500,-4806
10.93333,-4946
10.94167,-5045
10.95000,-5102
10.95833,-5118
10.96667,-5092
10.97500,-5028
10.98333,-4926
10.99167,-4792
11.00000,-4628
11.00833,-4439
11.01667,-4230
11.02500,-4006
11.03333,-3771
11.04167,-3531
11.05000,-3288
11.05833,-3048
11.06667,-2813
11.07500,-2588
11.08333,-2374
11.09167,-2173
11.10000,-1987
11.10833,-1816
11.11667,-1662
11.12500,-1524
11.13333,-1403
11.14167,-1297
11.15000,-1205
11.15833,-1127
11.16667,-1063
11.17500,-1010
11.18333,-967
11.19167,-933
11.20000,-908
11.20833,-888
11.21667,-874
11.22500,-865
11.23333,-860
11.24167,-857
11.25000,-856
11.25833,-858
11.26667,-860
11.27500,-864
11.28333,-867
11.29167,-870
11.30000,-874
11.30833,-878
11.31667,-881
11.32500,-884
11.33333,-887
11.34167,-889
11.35000,-891
11.35833,-892
11.36667,-892
11.37500,-892
11.38333,-892
11.39167,-892
11.40000,-892
11.40833,-891
11.41667,-891
11.42500,-890
11.43333,-890
11.44167,-889
11.45000,-888
11.45833,-887
11.46667,-886
11.47500,-885
11.48333,-884
11.49167,-883
11.50000,-882
11.50833,-882
11.51667,-882
11.52500,-881
11.53333,-880
11.54167,-880
11.55000,-880
11.55833,-879
11.56667,-879
11.57500,-879
11.58333,-879
11.59167,-880
11.60000,-880
11.60833,-880
11.61667,-880
11.62500,-880
11.63333,-880
11.64167,-880
11.65000,-880
11.65833,-880
11.66667,-881
11.67500,-881
11.68333,-882
11.69167,-883
11.70000,-884
11.70833,-885
11.71667,-886
11.72500,-886
11.73333,-887
11.74167,-888
11.75000,-889
11.75833,-889
11.76667,-890
11.77500,-891
11.78333,-892
11.79167,-893
11.80000,-894
11.80833,-895
11.81667,-896
11.82500,-896
11.83333,-897
11.84167,-898
11.85000,-900
11.85833,-901
11.86667,-902
11.87500,-904
11.88333,-905
11.89167,-906
11.90000,-907
11.90833,-908
11.91667,-909
11.92500,-910
11.93333,-911
11.94167,-912
11.95000,-913
11.95833,-913
11.96667,-914
11.97500,-915
11.98333,-916
11.99167,-917
12.00000,-918
12.00833,-918
12.01667,-919
12.02500,-920
12.03333,-920
12.04167,-920
12.05000,-921
12.05833,-921
12.06667,-922
12.07500,-922
12.08333,-923
12.09167,-923
12.10000,-923
12.10833,-924
12.11667,-924
12.12500,-924
12.13333,-924
12.14167,-924
12.15000,-925
12.15833,-925
12.16667,-925
12.17500,-925
12.18333,-925
12.19167,-925
12.20000,-925
12.20833,-925
12.21667,-924
12.22500,-924
12.23333,-924
12.24167,-924
12.25000,-925
12.25833,-925
12.26667,-924
12.27500,-924
12.28333,-924
12.29167,-924
12.30000,-925
12.30833,-925
12.31667,-925
12.32500,-925
12.33333,-926
12.34167,-926
12.35000,-926
12.35833,-926
12.36667,-926
12.37500,-927
12.38333,-927
12.39167,-927
12.40000,-927
12.40833,-927
12.41667,-927
12.42500,-928
12.43333,-928
12.44167,-928
12.45000,-928
12.45833,-929
12.46667,-929
12.47500,-930
12.48333,-930
12.49167,-931
12.50000,-931
12.50833,-931
12.51667,-932
12.52500,-932
12.53333,-932
12.54167,-933
12.55000,-933
12.55833,-934
12.56667,-934
12.57500,-935
12.58333,-935
12.59167,-936
12.60000,-936
12.60833,-937
12.61667,-938
12.62500,-938
12.63333,-939
12.64167,-939
12.65000,-940
12.65833,-940
12.66667,-941
12.67500,-941
12.68333,-942
12.69167,-942
12.70000,-943
12.70833,-943
12.71667,-944
12.72500,-944
12.73333,-944
12.74167,-945
12.75000,-945
12.75833,-946
12.76667,-947
12.77500,-948
12.78333,-949
12.79167,-949
12.80000,-949
12.80833,-950
12.81667,-950
12.82500,-951
12.83333,-952
12.84167,-952
12.85000,-953
12.85833,-953
12.86667,-954
12.87500,-954
12.88333,-954
12.89167,-955
12.90000,-956
12.90833,-956
12.91667,-957
12.92500,-958
12.93333,-959
12.94167,-959
12.95000,-959
12.95833,-960
12.96667,-961
12.97500,-961
12.98333,-962
12.99167,-962
13.00000,-963
13.00833,-963
13.01667,-964
13.02500,-964
13.03333,-964
13.04167,-965
13.05000,-966
13.05833,-966
13.06667,-967
13.07500,-968
13.08333,-969
13.09167,-969
13.10000,-970
13.10833,-970
13.11667,-971
13.12500,-971
13.13333,-972
13.14167,-973
13.15000,-973
13.15833,-974
13.16667,-974
13.17500,-974
13.18333,-975
13.19167,-975
13.20000,-976
13.20833,-976
13.21667,-977
13.22500,-978
13.23333,-978
13.24167,-979
13.25000,-980
13.25833,-981
13.26667,-981
13.27500,-981
13.28333,-982
13.29167,-982
13.30000,-983
13.30833,-983
13.31667,-984
13.32500,-985
13.33333,-986
13.34167,-986
13.35000,-987
13.35833,-987
13.36667,-987
13.37500,-988
13.38333,-988
13.39167,-989
13.40000,-989
13.40833,-990
13.41667,-991
13.42500,-991
13.43333,-992
13.44167,-992
13.45000,-992
13.45833,-993
13.46667,-994
13.47500,-995
13.48333,-995
13.49167,-995
13.50000,-996
13.50833,-996
13.51667,-997
13.52500,-997
13.53333,-998
13.54167,-998
13.55000,-999
13.55833,-1000
13.56667,-1000
13.57500,-1001
13.58333,-1002
13.59167,-1002
13.60000,-1003
13.60833,-1004
13.61667,-1004
13.62500,-1005
13.63333,-1006
13.64167,-1007
13.65000,-1007
13.65833,-1008
13.66667,-1008
13.67500,-1009
13.68333,-1010
13.69167,-1010
13.70000,-1010
13.70833,-1011
13.71667,-1011
13.72500,-1012
13.73333,-1012
13.74167,-1013
13.75000,-1014
13.75833,-1015
13.76667,-1016
13.77500,-1016
13.78333,-1017
13.79167,-1017
13.80000,-1018
13.80833,-1018
13.81667,-1018
13.82500,-1019
13.83333,-1019
13.84167,-1020
13.85000,-1020
13.85833,-1021
13.86667,-1021
13.87500,-1022
13.88333,-1022
13.89167,-1022
13.90000,-1023
13.90833,-1023
13.91667,-1024
13.92500,-1025
13.93333,-1026
13.94167,-1026
13.95000,-1026
13.95833,-1026
13.96667,-1026
13.97500,-1027
13.98333,-1027
13.99167,-1028
14.00000,-1028
14.00833,-1028
14.01667,-1028
14.02500,-1028
14.03333,-1027
14.04167,-1027
14.05000,-1027
14.05833,-1026
14.06667,-1025
14.07500,-1023
14.08333,-1022
14.09167,-1020
14.10000,-1018
14.10833,-1016
14.11667,-1013
14.12500,-1009
14.13333,-1004
14.14167,-997
14.15000,-989
14.15833,-979
14.16667,-967
14.17500,-953
14.18333,-936
14.19167,-915
14.20000,-891
14.20833,-861
14.21667,-827
14.22500,-786
14.23333,-738
14.24167,-683
14.25000,-618
14.25833,-543
14.26667,-457
14.27500,-358
14.28333,-245
14.29167,-116
14.30000,30
14.30833,194
14.31667,377
14.32500,582
14.33333,810
14.34167,1061
14.35000,1338
14.35833,1641
14.36667,1971
14.37500,2329
14.38333,2716
14.39167,3132
14.40000,3577
14.40833,4052
14.41667,4557
14.42500,5091
14.43333,5654
14.44167,6246
14.45000,6866
14.45833,7513
14.46667,8186
14.47500,8884
14.48333,9606
14.49167,10351
14.50000,11118
14.50833,11906
14.51667,12713
14.52500,13537
14.53333,14379
14.54167,15235
14.55000,16107
14.55833,16991
14.56667,17888
14.57500,18795
14.58333,19712
14.59167,20639
14.60000,21573
14.60833,22515
14.61667,23462
14.62500,24414
14.63333,25369
14.64167,26327
14.65000,27285
14.65833,28244
14.66667,29200
14.67500,30153
14.68333,31101
14.69167,32039
14.70000,32965
14.70833,33875
14.71667,34766
14.72500,35630
14.73333,36462
14.74167,37254
14.75000,37997
14.75833,38681
14.76667,39294
14.77500,39823
14.78333,40254
14.79167,40575
14.80000,40770
14.80833,40826
14.81667,40731
14.82500,40475
14.83333,40050
14.84167,39452
14.85000,38680
14.85833,37738
14.86667,36635
14.87500,35381
14.88333,33991
14.89167,32485
14.90000,30882
14.90833,29204
14.91667,27476
14.92500,25719
14.93333,23955
14.94167,22207
14.95000,20490
14.95833,18823
14.96667,17218
14.97500,15685
14.98333,14234
14.99167,12870
15.00000,11596
15.00833,10414
15.01667,9322
15.02500,8320
15.03333,7404
15.04167,6570
15.05000,5814
15.05833,5131
15.06667,4514
15.07500,3959
15.08333,3461
15.09167,3015
15.10000,2615
15.10833,2258
15.11667,1938
15.12500,1653
15.13333,1398
15.14167,1170
15.15000,967
15.15833,786
15.16667,624
15.17500,479
15.18333,349
15.19167,233
15.20000,128
15.20833,34
15.21667,-50
15.22500,-126
15.23333,-195
15.24167,-257
15.25000,-313
15.25833,-364
15.26667,-410
15.27500,-452
15.28333,-490
15.29167,-525
15.30000,-557
15.30833,-586
15.31667,-613
15.32500,-638
15.33333,-661
15.34167,-682
15.35000,-701
15.35833,-719
15.36667,-736
15.37500,-752
15.38333,-766
15.39167,-780
15.40000,-793
15.40833,-805
15.41667,-816
15.42500,-826
15.43333,-835
15.44167,-845
15.45000,-853
15.45833,-861
15.46667,-869
15.47500,-876
15.48333,-882
15.49167,-889
15.50000,-895
15.50833,-901
15.51667,-906
15.52500,-912
15.53333,-917
15.54167,-922
15.55000,-926
15.55833,-931
15.56667,-935
15.57500,-940
15.58333,-944
15.59167,-948
15.60000,-952
15.60833,-956
15.61667,-960
15.62500,-963
15.63333,-966
15.64167,-969
15.65000,-972
15.65833,-976
15.66667,-979
15.67500,-982
15.68333,-986
15.69167,-989
15.70000,-992
15.70833,-995
15.71667,-998
15.72500,-1001
15.73333,-1004
15.74167,-1006
15.75000,-1008
15.75833,-1011
15.76667,-1013
15.77500,-1015
15.78333,-1017
15.79167,-1020
15.80000,-1022
15.80833,-1025
15.81667,-1027
15.82500,-1029
15.83333,-1031
15.84167,-1033
15.85000,-1035
15.85833,-1038
15.86667,-1040
15.87500,-1042
15.88333,-1044
15.89167,-1046
15.90000,-1048
15.90833,-1049
15.91667,-1051
15.92500,-1053
15.93333,-1055
15.94167,-1056
15.95000,-1058
15.95833,-1060
15.96667,-1062
15.97500,-1064
15.98333,-1066
15.99167,-1068
16.00000,-1069
16.00833,-1072
16.01667,-1073
16.02500,-1075
16.03333,-1077
16.04167,-1079
16.05000,-1081
16.05833,-1082
16.06667,-1084
16.07500,-1086
16.08333,-1088
16.09167,-1089
16.10000,-1090
16.10833,-1091
16.11667,-1092
16.12500,-1094
16.13333,-1096
16.14167,-1098
16.15000,-1099
16.15833,-1101
16.16667,-1102
16.17500,-1104
16.18333,-1105
16.19167,-1107
16.20000,-1108
16.20833,-1110
16.21667,-1112
16.22500,-1113
16.23333,-1115
16.24167,-1116
16.25000,-1117
16.25833,-1119
16.26667,-1120
16.27500,-1121
16.28333,-1123
16.29167,-1124
16.30000,-1125
16.30833,-1127
16.31667,-1128
16.32500,-1129
16.33333,-1130
16.34167,-1132
16.35000,-1133
16.35833,-1134
16.36667,-1135
16.37500,-1137
16.38333,-1138
16.39167,-1139
16.40000,-1140
16.40833,-1142
16.41667,-1143
16.42500,-1144
16.43333,-1145
16.44167,-1147
16.45000,-1148
16.45833,-1149
16.46667,-1150
16.47500,-1151
16.48333,-1153
16.49167,-1154
16.50000,-1155
16.50833,-1156
16.51667,-1157
16.52500,-1159
16.53333,-1160
16.54167,-1161
16.55000,-1162
16.55833,-1163
16.56667,-1164
16.57500,-1165
16.58333,-1166
16.59167,-1167
16.60000,-1168
16.60833,-1169
16.61667,-1170
16.62500,-1170
16.63333,-1170
16.64167,-1171
16.65000,-1172
16.65833,-1173
16.66667,-1174
16.67500,-1176
16.68333,-1177
16.69167,-1178
16.70000,-1179
16.70833,-1180
16.71667,-1181
16.72500,-1181
16.73333,-1182
16.74167,-1183
16.75000,-1184
16.75833,-1185
16.76667,-1186
16.77500,-1187
16.78333,-1188
16.79167,-1189
16.80000,-1190
16.80833,-1191
16.81667,-1192
16.82500,-1192
16.83333,-1193
16.84167,-1194
16.85000,-1196
16.85833,-1197
16.86667,-1198
16.87500,-1199
16.88333,-1200
16.89167,-1200
16.90000,-1201
16.90833,-1202
16.91667,-1203
16.92500,-1203
16.93333,-1204
16.94167,-1205
16.95000,-1206
16.95833,-1208
16.96667,-1209
16.97500,-1209
16.98333,-1210
16.99167,-1212
17.00000,-1213
17.00833,-1214
17.01667,-1214
17.02500,-1215
17.03333,-1215
17.04167,-1216
17.05000,-1217
17.05833,-1218
17.06667,-1220
17.07500,-1221
17.08333,-1222
17.09167,-1223
17.10000,-1223
17.10833,-1224
17.11667,-1225
17.12500,-1226
17.13333,-1227
17.14167,-1228
17.15000,-1228
17.15833,-1229
17.16667,-1230
17.17500,-1231
17.18333,-1232
17.19167,-1233
17.20000,-1234
17.20833,-1235
17.21667,-1236
17.22500,-1237
17.23333,-1238
17.24167,-1238
17.25000,-1239
17.25833,-1241
17.26667,-1242
17.27500,-1243
17.28333,-1244
17.29167,-1245
17.30000,-1246
17.30833,-1247
17.31667,-1248
17.32500,-1249
17.33333,-1250
17.34167,-1251
17.35000,-1251
17.35833,-1252
17.36667,-1253
17.37500,-1254
17.38333,-1255
17.39167,-1255
17.40000,-1256
17.40833,-1257
17.41667,-1258
17.42500,-1259
17.43333,-1260
17.44167,-1261
17.45000,-1262
17.45833,-1263
17.46667,-1264
17.47500,-1265
17.48333,-1266
17.49167,-1267
17.50000,-1268
17.50833,-1269
17.51667,-1269
17.52500,-1270
17.53333,-1271
17.54167,-1272
17.55000,-1273
17.55833,-1274
17.56667,-1275
17.57500,-1276
17.58333,-1277
17.59167,-1277
17.60000,-1278
17.60833,-1279
17.61667,-1279
17.62500,-1280
17.63333,-1281
17.64167,-1282
17.65000,-1283
17.65833,-1284
17.66667,-1285
17.67500,-1286
17.68333,-1288
17.69167,-1289
17.70000,-1290
17.70833,-1291
17.71667,-1291
17.72500,-1292
17.73333,-1293
17.74167,-1294
17.75000,-1295
17.75833,-1297
17.76667,-1298
17.77500,-1298
17.78333,-1299
17.79167,-1300
17.80000,-1301
17.80833,-1301
17.81667,-1302
17.82500,-1303
17.83333,-1303
17.84167,-1304
17.85000,-1305
17.85833,-1307
17.86667,-1308
17.87500,-1309
17.88333,-1309
17.89167,-1310
17.90000,-1311
17.90833,-1311
17.91667,-1312
17.92500,-1313
17.93333,-1314
17.94167,-1315
17.95000,-1316
17.95833,-1317
17.96667,-1317
17.97500,-1318
17.98333,-1319
17.99167,-1320
18.00000,-1321
18.00833,-1322
18.01667,-1322
18.02500,-1323
18.03333,-1324
18.04167,-1325
18.05000,-1325
18.05833,-1326
18.06667,-1327
18.07500,-1328
18.08333,-1329
18.09167,-1330
18.10000,-1331
18.10833,-1331
18.11667,-1332
18.12500,-1333
18.13333,-1334
18.14167,-1335
18.15000,-1337
18.15833,-1337
18.16667,-1338
18.17500,-1339
18.18333,-1340
18.19167,-1341
18.20000,-1341
18.20833,-1342
18.21667,-1343
18.22500,-1344
18.23333,-1344
18.24167,-1345
18.25000,-1346
18.25833,-1346
18.26667,-1348
18.27500,-1349
18.28333,-1350
18.29167,-1350
18.30000,-1351
18.30833,-1352
18.31667,-1353
18.32500,-1354
18.33333,-1355
18.34167,-1356
18.35000,-1356
18.35833,-1357
18.36667,-1358
18.37500,-1359
18.38333,-1360
18.39167,-1361
18.40000,-1361
18.40833,-1362
18.41667,-1362
18.42500,-1363
18.43333,-1364
18.44167,-1365
18.45000,-1365
18.45833,-1366
18.46667,-1367
18.47500,-1367
18.48333,-1368
18.49167,-1369
18.50000,-1370
18.50833,-1370
18.51667,-1371
18.52500,-1371
18.53333,-1372
18.54167,-1373
18.55000,-1374
18.55833,-1375
18.56667,-1375
18.57500,-1376
18.58333,-1376
18.59167,-1377
18.60000,-1377
18.60833,-1378
18.61667,-1378
18.62500,-1379
18.63333,-1380
18.64167,-1381
18.65000,-1381
18.65833,-1382
18.66667,-1382
18.67500,-1382
18.68333,-1383
18.69167,-1383
18.70000,-1384
18.70833,-1384
18.71667,-1384
18.72500,-1384
18.73333,-1384
18.74167,-1384
18.75000,-1384
18.75833,-1384
18.76667,-1384
18.77500,-1384
18.78333,-1385
18.79167,-1385
18.80000,-1385
18.80833,-1385
18.81667,-1385
18.82500,-1384
18.83333,-1384
18.84167,-1384
18.85000,-1384
18.85833,-1384
18.86667,-1384
18.87500,-1384
18.88333,-1385
18.89167,-1385
18.90000,-1385
18.90833,-1386
18.91667,-1386
18.92500,-1387
18.93333,-1388
18.94167,-1388
18.95000,-1389
18.95833,-1390
18.96667,-1391
18.97500,-1392
18.98333,-1393
18.99167,-1394
19.00000,-1395
19.00833,-1396
19.01667,-1398
19.02500,-1399
19.03333,-1401
19.04167,-1402
19.05000,-1404
19.05833,-1405
19.06667,-1406
19.07500,-1408
19.08333,-1410
19.09167,-1411
19.10000,-1412
19.10833,-1414
19.11667,-1415
19.12500,-1416
19.13333,-1418
19.14167,-1419
19.15000,-1420
19.15833,-1421
19.16667,-1423
19.17500,-1424
19.18333,-1426
19.19167,-1427
19.20000,-1428
19.20833,-1429
19.21667,-1430
19.22500,-1432
19.23333,-1433
19.24167,-1434
19.25000,-1435
19.25833,-1436
19.26667,-1437
19.27500,-1438
19.28333,-1438
19.29167,-1439
19.30000,-1440
19.30833,-1441
19.31667,-1442
19.32500,-1443
19.33333,-1444
19.34167,-1445
19.35000,-1446
19.35833,-1447
19.36667,-1448
19.37500,-1449
19.38333,-1450
19.39167,-1450
19.40000,-1451
19.40833,-1452
19.41667,-1453
19.42500,-1454
19.43333,-1455
19.44167,-1456
19.45000,-1456
19.45833,-1457
19.46667,-1458
19.47500,-1459
19.48333,-1460
19.49167,-1461
19.50000,-1462
19.50833,-1463
19.51667,-1464
19.52500,-1464
19.53333,-1465
19.54167,-1465
19.55000,-1465
19.55833,-1466
19.56667,-1467
19.57500,-1467
19.58333,-1468
19.59167,-1469
19.60000,-1470
19.60833,-1471
19.61667,-1472
19.62500,-1473
19.63333,-1474
19.64167,-1475
19.65000,-1475
19.65833,-1476
19.66667,-1476
19.67500,-1477
19.68333,-1478
19.69167,-1478
19.70000,-1479
19.70833,-1480
19.71667,-1481
19.72500,-1482
19.73333,-1482
19.74167,-1483
19.75000,-1484
19.75833,-1485
19.76667,-1486
19.77500,-1486
19.78333,-1487
19.79167,-1488
19.80000,-1488
19.80833,-1489
19.81667,-1490
19.82500,-1490
19.83333,-1491
19.84167,-1491
19.85000,-1492
19.85833,-1493
19.86667,-1493
19.87500,-1494
19.88333,-1495
19.89167,-1496
19.90000,-1496
19.90833,-1497
19.91667,-1498
19.92500,-1499
19.93333,-1500
19.94167,-1501
19.95000,-1502
19.95833,-1502
19.96667,-1503
19.97500,-1503
19.98333,-1504
19.99167,-1504
20.00000,-1505
20.00833,-1505
20.01667,-1506
20.02500,-1507
20.03333,-1507
20.04167,-1508
20.05000,-1509
20.05833,-1510
20.06667,-1511
20.07500,-1512
20.08333,-1513
20.09167,-1514
20.10000,-1514
20.10833,-1515
20.11667,-1516
20.12500,-1516
20.13333,-1517
20.14167,-1518
20.15000,-1518
20.15833,-1519
20.16667,-1520
20.17500,-1521
20.18333,-1521
20.19167,-1522
20.20000,-1523
20.20833,-1524
20.21667,-1525
20.22500,-1526
20.23333,-1527
20.24167,-1527
20.25000,-1528
20.25833,-1529
20.26667,-1530
20.27500,-1530
20.28333,-1531
20.29167,-1531
20.30000,-1532
20.30833,-1533
20.31667,-1533
20.32500,-1534
20.33333,-1535
20.34167,-1536
20.35000,-1536
20.35833,-1537
20.36667,-1537
20.37500,-1538
20.38333,-1539
20.39167,-1540
20.40000,-1541
20.40833,-1542
20.41667,-1543
20.42500,-1543
20.43333,-1544
20.44167,-1544
20.45000,-1545
20.45833,-1546
20.46667,-1546
20.47500,-1547
20.48333,-1547
20.49167,-1548
20.50000,-1549
20.50833,-1550
20.51667,-1551
20.52500,-1552
20.53333,-1552
20.54167,-1553
20.55000,-1553
20.55833,-1554
20.56667,-1555
20.57500,-1555
20.58333,-1556
20.59167,-1557
20.60000,-1557
20.60833,-1558
20.61667,-1559
20.62500,-1559
20.63333,-1560
20.64167,-1560
20.65000,-1561
20.65833,-1562
20.66667,-1563
20.67500,-1563
20.68333,-1564
20.69167,-1565
20.70000,-1566
20.70833,-1567
20.71667,-1567
20.72500,-1568
20.73333,-1569
20.74167,-1570
20.75000,-1571
20.75833,-1572
20.76667,-1572
20.77500,-1572
20.78333,-1573
20.79167,-1574
20.80000,-1574
20.80833,-1574
20.81667,-1575
20.82500,-1575
20.83333,-1575
20.84167,-1576
20.85000,-1577
20.85833,-1577
20.86667,-1578
20.87500,-1579
20.88333,-1580
20.89167,-1582
20.90000,-1583
20.90833,-1583
20.91667,-1584
20.92500,-1585
20.93333,-1586
20.94167,-1587
20.95000,-1588
20.95833,-1588
20.96667,-1589
20.97500,-1590
20.98333,-1591
20.99167,-1591
21.00000,-1592
21.00833,-1592
21.01667,-1593
21.02500,-1593
21.03333,-1594
21.04167,-1595
21.05000,-1595
21.05833,-1595
21.06667,-1596
21.07500,-1596
21.08333,-1597
21.09167,-1598
21.10000,-1599
21.10833,-1600
21.11667,-1601
21.12500,-1602
21.13333,-1602
21.14167,-1603
21.15000,-1603
21.15833,-1603
21.16667,-1604
21.17500,-1605
21.18333,-1606
21.19167,-1607
21.20000,-1608
21.20833,-1608
21.21667,-1609
21.22500,-1610
21.23333,-1611
21.24167,-1612
21.25000,-1613
21.25833,-1613
21.26667,-1614
21.27500,-1615
21.28333,-1615
21.29167,-1616
21.30000,-1616
21.30833,-1617
21.31667,-1618
21.32500,-1619
21.33333,-1619
21.34167,-1620
21.35000,-1620
21.35833,-1621
21.36667,-1622
21.37500,-1623
21.38333,-1623
21.39167,-1624
21.40000,-1625
21.40833,-1626
21.41667,-1626
21.42500,-1627
21.43333,-1627
21.44167,-1627
21.45000,-1628
21.45833,-1629
21.46667,-1630
21.47500,-1631
21.48333,-1632
21.49167,-1633
21.50000,-1634
21.50833,-1635
21.51667,-1635
21.52500,-1636
21.53333,-1636
21.54167,-1637
21.55000,-1637
21.55833,-1637
21.56667,-1638
21.57500,-1638
21.58333,-1639
21.59167,-1640
21.60000,-1641
21.60833,-1642
21.61667,-1642
21.62500,-1643
21.63333,-1644
21.64167,-1644
21.65000,-1645
21.65833,-1646
21.66667,-1647
21.67500,-1648
21.68333,-1648
21.69167,-1649
21.70000,-1649
21.70833,-1650
21.71667,-1650
21.72500,-1651
21.73333,-1651
21.74167,-1652
21.75000,-1652
21.75833,-1653
21.76667,-1653
21.77500,-1654
21.78333,-1655
21.79167,-1656
21.80000,-1656
21.80833,-1657
21.81667,-1657
21.82500,-1658
21.83333,-1659
21.84167,-1660
21.85000,-1660
21.85833,-1661
21.86667,-1662
21.87500,-1663
21.88333,-1663
21.89167,-1664
21.90000,-1664
21.90833,-1665
21.91667,-1665
21.92500,-1665
21.93333,-1666
21.94167,-1666
21.95000,-1667
21.95833,-1667
21.96667,-1668
21.97500,-1668
21.98333,-1669
21.99167,-1669
22.00000,-1670
22.00833,-1670
22.01667,-1670
22.02500,-1671
22.03333,-1672
22.04167,-1673
22.05000,-1674
22.05833,-1675
22.06667,-1676
22.07500,-1676
22.08333,-1677
22.09167,-1677
22.10000,-1678
22.10833,-1679
22.11667,-1680
22.12500,-1681
22.13333,-1682
22.14167,-1683
22.15000,-1684
22.15833,-1685
22.16667,-1685
22.17500,-1686
22.18333,-1687
22.19167,-1687
22.20000,-1688
22.20833,-1688
22.21667,-1689
22.22500,-1690
22.23333,-1691
22.24167,-1691
22.25000,-1692
22.25833,-1693
22.26667,-1693
22.27500,-1694
22.28333,-1695
22.29167,-1696
22.30000,-1697
22.30833,-1697
22.31667,-1698
22.32500,-1699
22.33333,-1700
22.34167,-1700
22.35000,-1701
22.35833,-1702
22.36667,-1703
22.37500,-1703
22.38333,-1704
22.39167,-1705
22.40000,-1706
22.40833,-1706
22.41667,-1707
22.42500,-1708
22.43333,-1709
22.44167,-1710
22.45000,-1710
22.45833,-1711
22.46667,-1712
22.47500,-1712
22.48333,-1713
22.49167,-1713
22.50000,-1714
22.50833,-1715
22.51667,-1716
22.52500,-1717
22.53333,-1717
22.54167,-1718
22.55000,-1719
22.55833,-1720
22.56667,-1720
22.57500,-1721
22.58333,-1722
22.59167,-1722
22.60000,-1723
22.60833,-1724
22.61667,-1724
22.62500,-1725
22.63333,-1725
22.64167,-1726
22.65000,-1727
22.65833,-1728
22.66667,-1730
22.67500,-1731
22.68333,-1732
22.69167,-1732
22.70000,-1733
22.70833,-1734
22.71667,-1735
22.72500,-1736
22.73333,-1736
22.74167,-1737
22.75000,-1737
22.75833,-1738
22.76667,-1738
22.77500,-1739
22.78333,-1739
22.79167,-1740
22.80000,-1741
22.80833,-1742
22.81667,-1743
22.82500,-1743
22.83333,-1744
22.84167,-1745
22.85000,-1745
22.85833,-1746
22.86667,-1747
22.87500,-1747
22.88333,-1748
22.89167,-1749
22.90000,-1750
22.90833,-1750
22.91667,-1751
22.92500,-1752
22.93333,-1753
22.94167,-1753
22.95000,-1754
22.95833,-1755
22.96667,-1756
22.97500,-1757
22.98333,-1757
22.99167,-1758
23.00000,-1759
23.00833,-1760
23.01667,-1760
23.02500,-1761
23.03333,-1762
23.04167,-1763
23.05000,-1763
23.05833,-1764
23.06667,-1764
23.07500,-1764
23.08333,-1765
23.09167,-1766
23.10000,-1766
23.10833,-1767
23.11667,-1768
23.12500,-1769
23.13333,-1770
23.14167,-1770
23.15000,-1771
23.15833,-1772
23.16667,-1772
23.17500,-1773
23.18333,-1774
23.19167,-1774
23.20000,-1775
23.20833,-1776
23.21667,-1776
23.22500,-1777
23.23333,-1778
23.24167,-1779
23.25000,-1779
23.25833,-1780
23.26667,-1780
23.27500,-1781
23.28333,-1782
23.29167,-1782
23.30000,-1783
23.30833,-1784
23.31667,-1785
23.32500,-1785
23.33333,-1786
23.34167,-1786
23.35000,-1787
23.35833,-1788
23.36667,-1789
23.37500,-1790
23.38333,-1791
23.39167,-1792
23.40000,-1793
23.40833,-1794
23.41667,-1795
23.42500,-1796
23.43333,-1796
23.44167,-1797
23.45000,-1798
23.45833,-1798
23.46667,-1799
23.47500,-1800
23.48333,-1800
23.49167,-1801
23.50000,-1802
23.50833,-1802
23.51667,-1803
23.52500,-1804
23.53333,-1805
23.54167,-1805
23.55000,-1806
23.55833,-1807
23.56667,-1807
23.57500,-1808
23.58333,-1809
23.59167,-1810
23.60000,-1810
23.60833,-1811
23.61667,-1812
23.62500,-1812
23.63333,-1813
23.64167,-1814
23.65000,-1815
23.65833,-1816
23.66667,-1817
23.67500,-1817
23.68333,-1818
23.69167,-1819
23.70000,-1819
23.70833,-1820
23.71667,-1821
23.72500,-1821
23.73333,-1822
23.74167,-1822
23.75000,-1823
23.75833,-1824
23.76667,-1824
23.77500,-1825
23.78333,-1826
23.79167,-1827
23.80000,-1828
23.80833,-1829
23.81667,-1830
23.82500,-1831
23.83333,-1832
23.84167,-1833
23.85000,-1833
23.85833,-1834
23.86667,-1834
23.87500,-1835
23.88333,-1836
23.89167,-1836
23.90000,-1837
23.90833,-1838
23.91667,-1839
23.92500,-1840
23.93333,-1841
23.94167,-1842
23.95000,-1842
23.95833,-1843
23.96667,-1843
23.97500,-1844
23.98333,-1844
23.99167,-1845
24.00000,-1846
24.00833,-1847
24.01667,-1848
24.02500,-1849
24.03333,-1850
24.04167,-1850
24.05000,-1851
24.05833,-1852
24.06667,-1852
24.07500,-1853
24.08333,-1854
24.09167,-1855
24.10000,-1856
24.10833,-1856
24.11667,-1857
24.12500,-1857
24.13333,-1858
24.14167,-1858
24.15000,-1859
24.15833,-1859
24.16667,-1860
24.17500,-1861
24.18333,-1862
24.19167,-1863
24.20000,-1864
24.20833,-1864
24.21667,-1865
24.22500,-1866
24.23333,-1867
24.24167,-1867
24.25000,-1868
24.25833,-1869
24.26667,-1870
24.27500,-1871
24.28333,-1872
24.29167,-1873
24.30000,-1874
24.30833,-1874
24.31667,-1875
24.32500,-1875
24.33333,-1876
24.34167,-1877
24.35000,-1878
24.35833,-1878
24.36667,-1879
24.37500,-1880
24.38333,-1880
24.39167,-1881
24.40000,-1882
24.40833,-1882
24.41667,-1883
24.42500,-1883
24.43333,-1884
24.44167,-1884
24.45000,-1885
24.45833,-1886
24.46667,-1887
24.47500,-1888
24.48333,-1889
24.49167,-1889
24.50000,-1890
24.50833,-1891
24.51667,-1892
24.52500,-1893
24.53333,-1893
24.54167,-1894
24.55000,-1895
24.55833,-1896
24.56667,-1896
24.57500,-1897
24.58333,-1898
24.59167,-1898
24.60000,-1899
24.60833,-1900
24.61667,-1901
24.62500,-1902
24.63333,-1902
24.64167,-1903
24.65000,-1904
24.65833,-1905
24.66667,-1906
24.67500,-1906
24.68333,-1907
24.69167,-1908
24.70000,-1909
24.70833,-1909
24.71667,-1910
24.72500,-1910
24.73333,-1911
24.74167,-1912
24.75000,-1913
24.75833,-1913
24.76667,-1914
24.77500,-1915
24.78333,-1915
24.79167,-1916
24.80000,-1917
24.80833,-1917
24.81667,-1918
24.82500,-1919
24.83333,-1920
24.84167,-1921
24.85000,-1921
24.85833,-1922
24.86667,-1923
24.87500,-1924
24.88333,-1924
24.89167,-1925
24.90000,-1925
24.90833,-1926
24.91667,-1927
24.92500,-1928
24.93333,-1928
24.94167,-1929
24.95000,-1930
24.95833,-1931
24.96667,-1932
24.97500,-1932
24.98333,-1933
24.99167,-1934
25.00000,-1934
25.00833,-1935
25.01667,-1936
25.02500,-1936
25.03333,-1937
25.04167,-1938
25.05000,-1938
25.05833,-1939
25.06667,-1939
25.07500,-1940
25.08333,-1940
25.09167,-1941
25.10000,-1942
25.10833,-1943
25.11667,-1944
25.12500,-1945
25.13333,-1946
25.14167,-1946
25.15000,-1947
25.15833,-1948
25.16667,-1948
25.17500,-1949
25.18333,-1950
25.19167,-1951
25.20000,-1952
25.20833,-1953
25.21667,-1954
25.22500,-1954
25.23333,-1955
25.24167,-1955
25.25000,-1956
25.25833,-1957
25.26667,-1957
25.27500,-1958
25.28333,-1959
25.29167,-1960
25.30000,-1961
25.30833,-1961
25.31667,-1962
25.32500,-1962
25.33333,-1963
25.34167,-1964
25.35000,-1965
25.35833,-1966
25.36667,-1966
25.37500,-1967
25.38333,-1968
25.39167,-1969
25.40000,-1970
25.40833,-1970
25.41667,-1971
25.42500,-1972
25.43333,-1973
25.44167,-1974
25.45000,-1975
25.45833,-1975
25.46667,-1976
25.47500,-1977
25.48333,-1978
25.49167,-1979
25.50000,-1979
25.50833,-1980
25.51667,-1981
25.52500,-1981
25.53333,-1981
25.54167,-1982
25.55000,-1983
25.55833,-1984
25.56667,-1985
25.57500,-1985
25.58333,-1986
25.59167,-1988
25.60000,-1989
25.60833,-1990
25.61667,-1990
25.62500,-1991
25.63333,-1992
25.64167,-1992
25.65000,-1992
25.65833,-1993
25.66667,-1994
25.67500,-1995
25.68333,-1995
25.69167,-1996
25.70000,-1998
25.70833,-1999
25.71667,-1999
25.72500,-1999
25.73333,-2000
25.74167,-2000
25.75000,-2001
25.75833,-2001
25.76667,-2002
25.77500,-2003
25.78333,-2004
25.79167,-2005
25.80000,-2005
25.80833,-2006
25.81667,-2007
25.82500,-2008
25.83333,-2009
25.84167,-2009
25.85000,-2010
25.85833,-2010
25.86667,-2011
25.87500,-2011
25.88333,-2012
25.89167,-2013
25.90000,-2013
25.90833,-2014
25.91667,-2014
25.92500,-2015
25.93333,-2016
25.94167,-2016
25.95000,-2017
25.95833,-2018
25.96667,-2019
25.97500,-2019
25.98333,-2020
25.99167,-2021
26.00000,-2022
26.00833,-2023
26.01667,-2023
26.02500,-2024
26.03333,-2025
26.04167,-2026
26.05000,-2027
26.05833,-2028
26.06667,-2028
26.07500,-2029
26.08333,-2029
26.09167,-2030
26.10000,-2031
26.10833,-2032
26.11667,-2032
26.12500,-2032
26.13333,-2033
26.14167,-2034
26.15000,-2034
26.15833,-2035
26.16667,-2036
26.17500,-2037
26.18333,-2037
26.19167,-2038
26.20000,-2039
26.20833,-2040
26.21667,-2040
26.22500,-2041
26.23333,-2042
26.24167,-2043
26.25000,-2043
26.25833,-2043
26.26667,-2043
26.27500,-2044
26.28333,-2044
26.29167,-2045
26.30000,-2046
26.30833,-2047
26.31667,-2048
26.32500,-2049
26.33333,-2049
26.34167,-2050
26.35000,-2051
26.35833,-2052
26.36667,-2053
26.37500,-2054
26.38333,-2055
26.39167,-2056
26.40000,-2056
26.40833,-2057
26.41667,-2057
26.42500,-2058
26.43333,-2059
26.44167,-2060
26.45000,-2060
26.45833,-2061
26.46667,-2062
26.47500,-2063
26.48333,-2063
26.49167,-2064
26.50000,-2065
26.50833,-2065
26.51667,-2066
26.52500,-2066
26.53333,-2067
26.54167,-2069
26.55000,-2070
26.55833,-2070
26.56667,-2071
26.57500,-2071
26.58333,-2072
26.59167,-2073
26.60000,-2073
26.60833,-2074
26.61667,-2075
26.62500,-2076
26.63333,-2077
26.64167,-2077
26.65000,-2078
26.65833,-2079
26.66667,-2079
26.67500,-2080
26.68333,-2080
26.69167,-2081
26.70000,-2082
26.70833,-2083
26.71667,-2084
26.72500,-2084
26.73333,-2085
26.74167,-2086
26.75000,-2087
26.75833,-2088
26.76667,-2088
26.77500,-2089
26.78333,-2089
26.79167,-2090
26.80000,-2091
26.80833,-2092
26.81667,-2092
26.82500,-2093
26.83333,-2094
26.84167,-2095
26.85000,-2096
26.85833,-2096
26.86667,-2097
26.87500,-2098
26.88333,-2098
26.89167,-2098
26.90000,-2099
26.90833,-2099
26.91667,-2100
26.92500,-2101
26.93333,-2101
26.94167,-2102
26.95000,-2104
26.95833,-2105
26.96667,-2105
26.97500,-2106
26.98333,-2107
26.99167,-2108
27.00000,-2109
27.00833,-2110
27.01667,-2110
27.02500,-2111
27.03333,-2112
27.04167,-2113
27.05000,-2113
27.05833,-2114
27.06667,-2115
27.07500,-2116
27.08333,-2116
27.09167,-2117
27.10000,-2117
27.10833,-2118
27.11667,-2119
27.12500,-2120
27.13333,-2121
27.14167,-2122
27.15000,-2123
27.15833,-2124
27.16667,-2125
27.17500,-2125
27.18333,-2125
27.19167,-2126
27.20000,-2127
27.20833,-2128
27.21667,-2129
27.22500,-2130
27.23333,-2131
27.24167,-2131
27.25000,-2132
27.25833,-2133
27.26667,-2134
27.27500,-2135
27.28333,-2136
27.29167,-2136
27.30000,-2137
27.30833,-2138
27.31667,-2139
27.32500,-2140
27.33333,-2141
27.34167,-2141
27.35000,-2142
27.35833,-2142
27.36667,-2143
27.37500,-2144
27.38333,-2145
27.39167,-2145
27.40000,-2146
27.40833,-2147
27.41667,-2147
27.42500,-2148
27.43333,-2149
27.44167,-2150
27.45000,-2151
27.45833,-2152
27.46667,-2153
27.47500,-2154
27.48333,-2154
27.49167,-2155
27.50000,-2156
27.50833,-2157
27.51667,-2157
27.52500,-2158
27.53333,-2159
27.54167,-2159
27.55000,-2160
27.55833,-2161
27.56667,-2163
27.57500,-2163
27.58333,-2164
27.59167,-2165
27.60000,-2166
27.60833,-2166
27.61667,-2167
27.62500,-2168
27.63333,-2169
27.64167,-2170
27.65000,-2171
27.65833,-2172
27.66667,-2173
27.67500,-2174
27.68333,-2175
27.69167,-2176
27.70000,-2178
27.70833,-2179
27.71667,-2180
27.72500,-2181
27.73333,-2182
27.74167,-2183
27.75000,-2184
27.75833,-2184
27.76667,-2186
27.77500,-2187
27.78333,-2188
27.79167,-2190
27.80000,-2192
27.80833,-2194
27.81667,-2196
27.82500,-2198
27.83333,-2200
27.84167,-2202
27.85000,-2204
27.85833,-2206
27.86667,-2208
27.87500,-2211
27.88333,-2213
27.89167,-2216
27.90000,-2219
27.90833,-2222
27.91667,-2225
27.92500,-2228
27.93333,-2232
27.94167,-2236
27.95000,-2240
27.95833,-2245
27.96667,-2250
27.97500,-2255
27.98333,-2260
27.99167,-2265
28.00000,-2271
28.00833,-2277
28.01667,-2283
28.02500,-2290
28.03333,-2297
28.04167,-2304
28.05000,-2312
28.05833,-2320
28.06667,-2329
28.07500,-2338
28.08333,-2347
28.09167,-2357
28.10000,-2367
28.10833,-2377
28.11667,-2388
28.12500,-2400
28.13333,-2412
28.14167,-2424
28.15000,-2437
28.15833,-2449
28.16667,-2463
28.17500,-2477
28.18333,-2491
28.19167,-2505
28.20000,-2520
28.20833,-2535
28.21667,-2551
28.22500,-2567
28.23333,-2583
28.24167,-2599
28.25000,-2616
28.25833,-2632
28.26667,-2649
28.27500,-2666
28.28333,-2683
28.29167,-2700
28.30000,-2717
28.30833,-2733
28.31667,-2750
28.32500,-2767
28.33333,-2784
28.34167,-2800
28.35000,-2816
28.35833,-2832
28.36667,-2848
28.37500,-2863
28.38333,-2878
28.39167,-2892
28.40000,-2906
28.40833,-2919
28.41667,-2932
28.42500,-2945
28.43333,-2956
28.44167,-2968
28.45000,-2978
28.45833,-2988
28.46667,-2997
28.47500,-3006
28.48333,-3013
28.49167,-3020
28.50000,-3026
28.50833,-3032
28.51667,-3037
28.52500,-3041
28.53333,-3044
28.54167,-3046
28.55000,-3048
28.55833,-3049
28.56667,-3049
28.57500,-3048
28.58333,-3047
28.59167,-3046
28.60000,-3043
28.60833,-3040
28.61667,-3037
28.62500,-3033
28.63333,-3028
28.64167,-3022
28.65000,-3016
28.65833,-3010
28.66667,-3003
28.67500,-2996
28.68333,-2989
28.69167,-2981
28.70000,-2973
28.70833,-2965
28.71667,-2956
28.72500,-2948
28.73333,-2939
28.74167,-2930
28.75000,-2921
28.75833,-2912
28.76667,-2902
28.77500,-2893
28.78333,-2884
28.79167,-2874
28.80000,-2865
28.80833,-2856
28.81667,-2847
28.82500,-2838
28.83333,-2829
28.84167,-2820
28.85000,-2812
28.85833,-2803
28.86667,-2795
28.87500,-2787
28.88333,-2779
28.89167,-2771
28.90000,-2764
28.90833,-2757
28.91667,-2750
28.92500,-2743
28.93333,-2737
28.94167,-2731
28.95000,-2725
28.95833,-2719
28.96667,-2713
28.97500,-2708
28.98333,-2703
28.99167,-2698
29.00000,-2694
29.00833,-2689
29.01667,-2686
29.02500,-2682
29.03333,-2678
29.04167,-2675
29.05000,-2672
29.05833,-2669
29.06667,-2666
29.07500,-2664
29.08333,-2661
29.09167,-2659
29.10000,-2657
29.10833,-2655
29.11667,-2653
29.12500,-2651
29.13333,-2650
29.14167,-2648
29.15000,-2646
29.15833,-2645
29.16667,-2644
29.17500,-2643
29.18333,-2642
29.19167,-2641
29.20000,-2640
29.20833,-2640
29.21667,-2639
29.22500,-2639
29.23333,-2639
29.24167,-2638
29.25000,-2638
29.25833,-2638
29.26667,-2638
29.27500,-2638
29.28333,-2638
29.29167,-2638
29.30000,-2638
29.30833,-2639
29.31667,-2639
29.32500,-2639
29.33333,-2640
29.34167,-2640
29.35000,-2640
29.35833,-2640
29.36667,-2640
29.37500,-2641
29.38333,-2641
29.39167,-2642
29.40000,-2642
29.40833,-2643
29.41667,-2643
29.42500,-2644
29.43333,-2644
29.44167,-2645
29.45000,-2646
29.45833,-2646
29.46667,-2647
29.47500,-2648
29.48333,-2649
29.49167,-2650
29.50000,-2651
29.50833,-2651
29.51667,-2652
29.52500,-2653
29.53333,-2654
29.54167,-2655
29.55000,-2656
29.55833,-2657
29.56667,-2659
29.57500,-2660
29.58333,-2661
29.59167,-2662
29.60000,-2664
29.60833,-2665
29.61667,-2667
29.62500,-2668
29.63333,-2669
29.64167,-2671
29.65000,-2672
29.65833,-2674
29.66667,-2676
29.67500,-2678
29.68333,-2680
29.69167,-2681
29.70000,-2683
29.70833,-2686
29.71667,-2688
29.72500,-2691
29.73333,-2693
29.74167,-2696
29.75000,-2699
29.75833,-2701
29.76667,-2704
29.77500,-2707
29.78333,-2710
29.79167,-2713
29.80000,-2716
29.80833,-2719
29.81667,-2722
29.82500,-2726
29.83333,-2730
29.84167,-2734
29.85000,-2738
29.85833,-2742
29.86667,-2746
29.87500,-2751
29.88333,-2755
29.89167,-2759
29.90000,-2763
29.90833,-2768
29.91667,-2773
29.92500,-2778
29.93333,-2783
29.94167,-2788
29.95000,-2793
29.95833,-2799
29.96667,-2804
29.97500,-2809
29.98333,-2815
29.99167,-2820
30.00000,-2826
30.00833,-2832
30.01667,-2837
30.02500,-2842
30.03333,-2847
30.04167,-2853
30.05000,-2858
30.05833,-2863
30.06667,-2868
30.07500,-2873
30.08333,-2879
30.09167,-2884
30.10000,-2889
30.10833,-2894
30.11667,-2899
30.12500,-2904
30.13333,-2909
30.14167,-2914
30.15000,-2918
30.15833,-2922
30.16667,-2926
30.17500,-2930
30.18333,-2934
30.19167,-2938
30.20000,-2942
30.20833,-2945
30.21667,-2949
30.22500,-2952
30.23333,-2954
30.24167,-2956
30.25000,-2958
30.25833,-2959
30.26667,-2961
30.27500,-2962
30.28333,-2964
30.29167,-2965
30.30000,-2965
30.30833,-2966
30.31667,-2966
30.32500,-2966
30.33333,-2966
30.34167,-2965
30.35000,-2965
30.35833,-2964
30.36667,-2963
30.37500,-2962
30.38333,-2960
30.39167,-2959
30.40000,-2958
30.40833,-2956
30.41667,-2954
30.42500,-2952
30.43333,-2950
30.44167,-2948
30.45000,-2946
30.45833,-2943
30.46667,-2940
30.47500,-2937
30.48333,-2934
30.49167,-2932
30.50000,-2928
30.50833,-2925
30.51667,-2922
30.52500,-2919
30.53333,-2916
30.54167,-2914
30.55000,-2911
30.55833,-2908
30.56667,-2905
30.57500,-2901
30.58333,-2898
30.59167,-2895
30.60000,-2891
30.60833,-2888
30.61667,-2885
30.62500,-2882
30.63333,-2879
30.64167,-2876
30.65000,-2873
30.65833,-2870
30.66667,-2867
30.67500,-2865
30.68333,-2862
30.69167,-2859
30.70000,-2857
30.70833,-2854
30.71667,-2852
30.72500,-2850
30.73333,-2847
30.74167,-2845
30.75000,-2843
30.75833,-2841
30.76667,-2839
30.77500,-2837
30.78333,-2835
30.79167,-2834
30.80000,-2832
30.80833,-2831
30.81667,-2829
30.82500,-2828
30.83333,-2826
30.84167,-2825
30.85000,-2823
30.85833,-2822
30.86667,-2820
30.87500,-2819
30.88333,-2818
30.89167,-2817
30.90000,-2815
30.90833,-2814
30.91667,-2814
30.92500,-2813
30.93333,-2812
30.94167,-2812
30.95000,-2811
30.95833,-2810
30.96667,-2810
30.97500,-2809
30.98333,-2809
30.99167,-2808
31.00000,-2808
31.00833,-2807
31.01667,-2806
31.02500,-2805
31.03333,-2805
31.04167,-2805
31.05000,-2805
31.05833,-2804
31.06667,-2804
31.07500,-2804
31.08333,-2804
31.09167,-2804
31.10000,-2803
31.10833,-2803
31.11667,-2802
31.12500,-2802
31.13333,-2802
31.14167,-2802
31.15000,-2802
31.15833,-2802
31.16667,-2802
31.17500,-2801
31.18333,-2801
31.19167,-2800
31.20000,-2800
31.20833,-2800
31.21667,-2800
31.22500,-2799
31.23333,-2799
31.24167,-2799
31.25000,-2799
31.25833,-2800
31.26667,-2800
31.27500,-2800
31.28333,-2800
31.29167,-2800
31.30000,-2799
31.30833,-2799
31.31667,-2799
31.32500,-2799
31.33333,-2799
31.34167,-2798
31.35000,-2798
31.35833,-2798
31.36667,-2798
31.37500,-2797
31.38333,-2797
31.39167,-2797
31.40000,-2796
31.40833,-2796
31.41667,-2796
31.42500,-2796
31.43333,-2796
31.44167,-2796
31.45000,-2796
31.45833,-2796
31.46667,-2796
31.47500,-2796
31.48333,-2796
31.49167,-2795
31.50000,-2796
31.50833,-2795
31.51667,-2795
31.52500,-2795
31.53333,-2795
31.54167,-2795
31.55000,-2795
31.55833,-2796
31.56667,-2796
31.57500,-2796
31.58333,-2796
31.59167,-2796
31.60000,-2796
31.60833,-2795
31.61667,-2794
31.62500,-2794
31.63333,-2793
31.64167,-2793
31.65000,-2793
31.65833,-2793
31.66667,-2794
31.67500,-2794
31.68333,-2795
31.69167,-2795
31.70000,-2795
31.70833,-2795
31.71667,-2795
31.72500,-2794
31.73333,-2794
31.74167,-2795
31.75000,-2794
31.75833,-2794
31.76667,-2794
31.77500,-2794
31.78333,-2794
31.79167,-2794
31.80000,-2794
31.80833,-2794
31.81667,-2793
31.82500,-2793
31.83333,-2793
31.84167,-2793
31.85000,-2793
31.85833,-2793
31.86667,-2793
31.87500,-2793
31.88333,-2793
31.89167,-2793
31.90000,-2792
31.90833,-2792
31.91667,-2792
31.92500,-2792
31.93333,-2793
31.94167,-2793
31.95000,-2793
31.95833,-2793
31.96667,-2793
31.97500,-2793
31.98333,-2793
31.99167,-2792
32.00000,-2792
32.00833,-2792
32.01667,-2792
32.02500,-2792
32.03333,-2792
32.04167,-2791
32.05000,-2791
32.05833,-2791
32.06667,-2791
32.07500,-2792
32.08333,-2792
32.09167,-2792
32.10000,-2792
32.10833,-2792
32.11667,-2792
32.12500,-2792
32.13333,-2792
32.14167,-2792
32.15000,-2792
32.15833,-2792
32.16667,-2792
32.17500,-2791
32.18333,-2791
32.19167,-2791
32.20000,-2791
32.20833,-2792
32.21667,-2792
32.22500,-2792
32.23333,-2792
32.24167,-2792
32.25000,-2792
32.25833,-2792
32.26667,-2792
32.27500,-2792
32.28333,-2792
32.29167,-2792
32.30000,-2792
32.30833,-2792
32.31667,-2791
32.32500,-2791
32.33333,-2791
32.34167,-2792
32.35000,-2792
32.35833,-2792
32.36667,-2792
32.37500,-2792
32.38333,-2792
32.39167,-2793
32.40000,-2792
32.40833,-2792
32.41667,-2792
32.42500,-2792
32.43333,-2792
32.44167,-2792
32.45000,-2792
32.45833,-2793
32.46667,-2793
32.47500,-2793
32.48333,-2792
32.49167,-2792
32.50000,-2792
32.50833,-2792
32.51667,-2792
32.52500,-2792
32.53333,-2793
32.54167,-2793
32.55000,-2793
32.55833,-2793
32.56667,-2793
32.57500,-2793
32.58333,-2793
32.59167,-2793
32.60000,-2793
32.60833,-2793
32.61667,-2793
32.62500,-2793
32.63333,-2793
32.64167,-2793
32.65000,-2794
32.65833,-2794
32.66667,-2794
32.67500,-2794
32.68333,-2794
32.69167,-2795
32.70000,-2795
32.70833,-2795
32.71667,-2794
32.72500,-2794
32.73333,-2794
32.74167,-2795
32.75000,-2795
32.75833,-2795
32.76667,-2795
32.77500,-2795
32.78333,-2795
32.79167,-2795
32.80000,-2795
32.80833,-2795
32.81667,-2796
32.82500,-2796
32.83333,-2796
32.84167,-2796
32.85000,-2796
32.85833,-2796
32.86667,-2796
32.87500,-2796
32.88333,-2796
32.89167,-2796
32.90000,-2797
32.90833,-2797
32.91667,-2797
32.92500,-2798
32.93333,-2798
32.94167,-2798
32.95000,-2798
32.95833,-2798
32.96667,-2798
32.97500,-2798
32.98333,-2798
32.99167,-2798
33.00000,-2798
33.00833,-2798
33.01667,-2798
33.02500,-2799
33.03333,-2799
33.04167,-2799
33.05000,-2799
33.05833,-2799
33.06667,-2800
33.07500,-2800
33.08333,-2801
33.09167,-2801
33.10000,-2801
33.10833,-2802
33.11667,-2802
33.12500,-2802
33.13333,-2803
33.14167,-2803
33.15000,-2803
33.15833,-2803
33.16667,-2803
33.17500,-2804
33.18333,-2804
33.19167,-2804
33.20000,-2804
33.20833,-2804
33.21667,-2804
33.22500,-2804
33.23333,-2805
33.24167,-2805
33.25000,-2805
33.25833,-2805
33.26667,-2805
33.27500,-2805
33.28333,-2806
33.29167,-2806
33.30000,-2807
33.30833,-2807
33.31667,-2807
33.32500,-2807
33.33333,-2808
33.34167,-2808
33.35000,-2808
33.35833,-2808
33.36667,-2808
33.37500,-2809
33.38333,-2809
33.39167,-2809
33.40000,-2810
33.40833,-2810
33.41667,-2810
33.42500,-2810
33.43333,-2811
33.44167,-2811
33.45000,-2811
33.45833,-2812
33.46667,-2812
33.47500,-2813
33.48333,-2813
33.49167,-2814
33.50000,-2814
33.50833,-2814
33.51667,-2814
33.52500,-2815
33.53333,-2815
33.54167,-2816
33.55000,-2816
33.55833,-2817
33.56667,-2818
33.57500,-2818
33.58333,-2818
33.59167,-2818
33.60000,-2819
33.60833,-2819
33.61667,-2819
33.62500,-2819
33.63333,-2820
33.64167,-2820
33.65000,-2820
33.65833,-2820
33.66667,-2821
33.67500,-2821
33.68333,-2822
33.69167,-2823
33.70000,-2823
33.70833,-2823
33.71667,-2823
33.72500,-2824
33.73333,-2824
33.74167,-2824
33.75000,-2825
33.75833,-2825
33.76667,-2825
33.77500,-2826
33.78333,-2826
33.79167,-2826
33.80000,-2827
33.80833,-2827
33.81667,-2827
33.82500,-2828
33.83333,-2828
33.84167,-2828
33.85000,-2829
33.85833,-2829
33.86667,-2830
33.87500,-2830
33.88333,-2830
33.89167,-2831
33.90000,-2831
33.90833,-2832
33.91667,-2832
33.92500,-2832
33.93333,-2833
33.94167,-2833
33.95000,-2834
33.95833,-2834
33.96667,-2834
33.97500,-2834
33.98333,-2834
33.99167,-2835
34.00000,-2835
34.00833,-2835
34.01667,-2836
34.02500,-2837
34.03333,-2837
34.04167,-2837
34.05000,-2838
34.05833,-2838
34.06667,-2839
34.07500,-2839
34.08333,-2840
34.09167,-2840
34.10000,-2840
34.10833,-2841
34.11667,-2841
34.12500,-2841
34.13333,-2841
34.14167,-2841
34.15000,-2842
34.15833,-2842
34.16667,-2842
34.17500,-2843
34.18333,-2843
34.19167,-2844
34.20000,-2844
34.20833,-2845
34.21667,-2845
34.22500,-2846
34.23333,-2846
34.24167,-2847
34.25000,-2848
34.25833,-2848
34.26667,-2848
34.27500,-2848
34.28333,-2849
34.29167,-2849
34.30000,-2849
34.30833,-2850
34.31667,-2850
34.32500,-2850
34.33333,-2851
34.34167,-2851
34.35000,-2852
34.35833,-2852
34.36667,-2853
34.37500,-2853
34.38333,-2853
34.39167,-2854
34.40000,-2854
34.40833,-2855
34.41667,-2855
34.42500,-2856
34.43333,-2856
34.44167,-2857
34.45000,-2857
34.45833,-2858
34.46667,-2858
34.47500,-2858
34.48333,-2858
34.49167,-2859
34.50000,-2859
34.50833,-2860
34.51667,-2860
34.52500,-2861
34.53333,-2862
34.54167,-2862
34.55000,-2862
34.55833,-2863
34.56667,-2863
34.57500,-2864
34.58333,-2864
34.59167,-2865
34.60000,-2865
34.60833,-2865
34.61667,-2866
34.62500,-2867
34.63333,-2868
34.64167,-2868
34.65000,-2869
34.65833,-2869
34.66667,-2870
34.67500,-2870
34.68333,-2870
34.69167,-2871
34.70000,-2871
34.70833,-2872
34.71667,-2872
34.72500,-2873
34.73333,-2873
34.74167,-2874
34.75000,-2874
34.75833,-2874
34.76667,-2874
34.77500,-2874
34.78333,-2875
34.79167,-2876
34.80000,-2876
34.80833,-2876
34.81667,-2877
34.82500,-2878
34.83333,-2878
34.84167,-2879
34.85000,-2879
34.85833,-2880
34.86667,-2880
34.87500,-2881
34.88333,-2882
34.89167,-2882
34.90000,-2883
34.90833,-2883
34.91667,-2884
34.92500,-2884
34.93333,-2885
34.94167,-2885
34.95000,-2886
34.95833,-2886
34.96667,-2887
34.97500,-2887
34.98333,-2888
34.99167,-2888
35.00000,-2889
35.00833,-2889
35.01667,-2890
35.02500,-2891
35.03333,-2891
35.04167,-2892
35.05000,-2892
35.05833,-2893
35.06667,-2893
35.07500,-2893
35.08333,-2894
35.09167,-2894
35.10000,-2895
35.10833,-2895
35.11667,-2895
35.12500,-2896
35.13333,-2896
35.14167,-2897
35.15000,-2898
35.15833,-2899
35.16667,-2900
35.17500,-2900
35.18333,-2901
35.19167,-2901
35.20000,-2902
35.20833,-2902
35.21667,-2903
35.22500,-2903
35.23333,-2904
35.24167,-2904
35.25000,-2905
35.25833,-2905
35.26667,-2906
35.27500,-2906
35.28333,-2907
35.29167,-2908
35.30000,-2908
35.30833,-2909
35.31667,-2910
35.32500,-2911
35.33333,-2911
35.34167,-2912
35.35000,-2912
35.35833,-2913
35.36667,-2914
35.37500,-2914
35.38333,-2914
35.39167,-2915
35.40000,-2915
35.40833,-2916
35.41667,-2917
35.42500,-2917
35.43333,-2918
35.44167,-2919
35.45000,-2920
35.45833,-2920
35.46667,-2921
35.47500,-2922
35.48333,-2923
35.49167,-2923
35.50000,-2924
35.50833,-2924
35.51667,-2925
35.52500,-2926
35.53333,-2926
35.54167,-2927
35.55000,-2927
35.55833,-2928
35.56667,-2928
35.57500,-2929
35.58333,-2930
35.59167,-2930
35.60000,-2931
35.60833,-2932
35.61667,-2932
35.62500,-2933
35.63333,-2934
35.64167,-2934
35.65000,-2934
35.65833,-2935
35.66667,-2936
35.67500,-2936
35.68333,-2937
35.69167,-2938
35.70000,-2939
35.70833,-2940
35.71667,-2940
35.72500,-2941
35.73333,-2942
35.74167,-2943
35.75000,-2943
35.75833,-2944
35.76667,-2944
35.77500,-2945
35.78333,-2946
35.79167,-2947
35.80000,-2948
35.80833,-2948
35.81667,-2949
35.82500,-2950
35.83333,-2950
35.84167,-2950
35.85000,-2951
35.85833,-2952
35.86667,-2952
35.87500,-2953
35.88333,-2954
35.89167,-2955
35.90000,-2956
35.90833,-2957
35.91667,-2958
35.92500,-2958
35.93333,-2959
35.94167,-2960
35.95000,-2961
35.95833,-2962
35.96667,-2963
35.97500,-2963
35.98333,-2964
35.99167,-2965
36.00000,-2965
36.00833,-2965
36.01667,-2966
36.02500,-2967
36.03333,-2968
36.04167,-2969
36.05000,-2970
36.05833,-2970
36.06667,-2971
36.07500,-2972
36.08333,-2973
36.09167,-2974
36.10000,-2974
36.10833,-2975
36.11667,-2975
36.12500,-2976
36.13333,-2976
36.14167,-2977
36.15000,-2978
36.15833,-2979
36.16667,-2980
36.17500,-2981
36.18333,-2982
36.19167,-2983
36.20000,-2984
36.20833,-2984
36.21667,-2985
36.22500,-2986
36.23333,-2986
36.24167,-2986
36.25000,-2987
36.25833,-2987
36.26667,-2988
36.27500,-2989
36.28333,-2990
36.29167,-2991
36.30000,-2992
36.30833,-2992
36.31667,-2993
36.32500,-2994
36.33333,-2995
36.34167,-2995
36.35000,-2996
36.35833,-2996
36.36667,-2997
36.37500,-2998
36.38333,-2999
36.39167,-2999
36.40000,-3000
36.40833,-3001
36.41667,-3002
36.42500,-3003
36.43333,-3004
36.44167,-3004
36.45000,-3005
36.45833,-3006
36.46667,-3007
36.47500,-3007
36.48333,-3008
36.49167,-3008
36.50000,-3009
36.50833,-3009
36.51667,-3010
36.52500,-3010
36.53333,-3010
36.54167,-3011
36.55000,-3011
36.55833,-3012
36.56667,-3013
36.57500,-3014
36.58333,-3015
36.59167,-3015
36.60000,-3016
36.60833,-3017
36.61667,-3017
36.62500,-3018
36.63333,-3019
36.64167,-3019
36.65000,-3020
36.65833,-3020
36.66667,-3021
36.67500,-3021
36.68333,-3021
36.69167,-3022
36.70000,-3022
36.70833,-3023
36.71667,-3023
36.72500,-3023
36.73333,-3024
36.74167,-3024
36.75000,-3024
36.75833,-3025
36.76667,-3025
36.77500,-3026
36.78333,-3026
36.79167,-3027
36.80000,-3027
36.80833,-3028
36.81667,-3028
36.82500,-3028
36.83333,-3028
36.84167,-3028
36.85000,-3028
36.85833,-3029
36.86667,-3029
36.87500,-3030
36.88333,-3030
36.89167,-3030
36.90000,-3030
36.90833,-3031
36.91667,-3031
36.92500,-3031
36.93333,-3031
36.94167,-3032
36.95000,-3032
36.95833,-3031
36.96667,-3031
36.97500,-3031
36.98333,-3031
36.99167,-3031
37.00000,-3031
37.00833,-3031
37.01667,-3031
37.02500,-3031
37.03333,-3031
37.04167,-3032
37.05000,-3032
37.05833,-3032
37.06667,-3032
37.07500,-3032
37.08333,-3032
37.09167,-3032
37.10000,-3032
37.10833,-3032
37.11667,-3032
37.12500,-3033
37.13333,-3033
37.14167,-3033
37.15000,-3034
37.15833,-3034
37.16667,-3034
37.17500,-3035
37.18333,-3035
37.19167,-3035
37.20000,-3035
37.20833,-3035
37.21667,-3035
37.22500,-3036
37.23333,-3036
37.24167,-3036
37.25000,-3037
37.25833,-3038
37.26667,-3038
37.27500,-3039
37.28333,-3040
37.29167,-3041
37.30000,-3041
37.30833,-3042
37.31667,-3042
37.32500,-3043
37.33333,-3044
37.34167,-3044
37.35000,-3045
37.35833,-3046
37.36667,-3047
37.37500,-3048
37.38333,-3049
37.39167,-3050
37.40000,-3051
37.40833,-3053
37.41667,-3054
37.42500,-3055
37.43333,-3056
37.44167,-3057
37.45000,-3058
37.45833,-3059
37.46667,-3060
37.47500,-3060
37.48333,-3061
37.49167,-3063
37.50000,-3064
37.50833,-3065
37.51667,-3067
37.52500,-3068
37.53333,-3069
37.54167,-3071
37.55000,-3072
37.55833,-3073
37.56667,-3075
37.57500,-3076
37.58333,-3078
37.59167,-3079
37.60000,-3080
37.60833,-3082
37.61667,-3083
37.62500,-3085
37.63333,-3086
37.64167,-3088
37.65000,-3089
37.65833,-3091
37.66667,-3092
37.67500,-3093
37.68333,-3095
37.69167,-3096
37.70000,-3098
37.70833,-3100
37.71667,-3101
37.72500,-3102
37.73333,-3103
37.74167,-3104
37.75000,-3106
37.75833,-3108
37.76667,-3109
37.77500,-3111
37.78333,-3112
37.79167,-3113
37.80000,-3114
37.80833,-3116
37.81667,-3117
37.82500,-3118
37.83333,-3120
37.84167,-3121
37.85000,-3122
37.85833,-3123
37.86667,-3125
37.87500,-3126
37.88333,-3128
37.89167,-3129
37.90000,-3130
37.90833,-3132
37.91667,-3133
37.92500,-3135
37.93333,-3136
37.94167,-3137
37.95000,-3138
37.95833,-3139
37.96667,-3140
37.97500,-3142
37.98333,-3143
37.99167,-3144
38.00000,-3145
38.00833,-3146
38.01667,-3147
38.02500,-3148
38.03333,-3149
38.04167,-3150
38.05000,-3151
38.05833,-3152
38.06667,-3153
38.07500,-3154
38.08333,-3155
38.09167,-3156
38.10000,-3156
38.10833,-3157
38.11667,-3159
38.12500,-3160
38.13333,-3161
38.14167,-3162
38.15000,-3163
38.15833,-3164
38.16667,-3165
38.17500,-3166
38.18333,-3167
38.19167,-3168
38.20000,-3169
38.20833,-3170
38.21667,-3170
38.22500,-3171
38.23333,-3172
38.24167,-3173
38.25000,-3174
38.25833,-3175
38.26667,-3176
38.27500,-3176
38.28333,-3177
38.29167,-3178
38.30000,-3179
38.30833,-3180
38.31667,-3181
38.32500,-3182
38.33333,-3183
38.34167,-3184
38.35000,-3185
38.35833,-3186
38.36667,-3187
38.37500,-3188
38.38333,-3189
38.39167,-3189
38.40000,-3190
38.40833,-3191
38.41667,-3191
38.42500,-3192
38.43333,-3193
38.44167,-3194
38.45000,-3194
38.45833,-3195
38.46667,-3196
38.47500,-3197
38.48333,-3197
38.49167,-3198
38.50000,-3199
38.50833,-3200
38.51667,-3201
38.52500,-3202
38.53333,-3203
38.54167,-3203
38.55000,-3204
38.55833,-3205
38.56667,-3206
38.57500,-3207
38.58333,-3208
38.59167,-3209
38.60000,-3210
38.60833,-3211
38.61667,-3212
38.62500,-3212
38.63333,-3213
38.64167,-3214
38.65000,-3215
38.65833,-3216
38.66667,-3217
38.67500,-3217
38.68333,-3218
38.69167,-3219
38.70000,-3220
38.70833,-3221
38.71667,-3222
38.72500,-3223
38.73333,-3223
38.74167,-3224
38.75000,-3225
38.75833,-3226
38.76667,-3227
38.77500,-3228
38.78333,-3228
38.79167,-3229
38.80000,-3229
38.80833,-3230
38.81667,-3231
38.82500,-3232
38.83333,-3233
38.84167,-3234
38.85000,-3235
38.85833,-3235
38.86667,-3236
38.87500,-3237
38.88333,-3238
38.89167,-3239
38.90000,-3240
38.90833,-3241
38.91667,-3242
38.92500,-3242
38.93333,-3243
38.94167,-3243
38.95000,-3243
38.95833,-3244
38.96667,-3245
38.97500,-3246
38.98333,-3247
38.99167,-3248
39.00000,-3249
39.00833,-3250
39.01667,-3251
39.02500,-3252
39.03333,-3253
39.04167,-3254
39.05000,-3254
39.05833,-3255
39.06667,-3255
39.07500,-3256
39.08333,-3256
39.09167,-3257
39.10000,-3258
39.10833,-3259
39.11667,-3259
39.12500,-3260
39.13333,-3261
39.14167,-3262
39.15000,-3262
39.15833,-3263
39.16667,-3264
39.17500,-3265
39.18333,-3266
39.19167,-3266
39.20000,-3267
39.20833,-3268
39.21667,-3269
39.22500,-3270
39.23333,-3271
39.24167,-3271
39.25000,-3272
39.25833,-3273
39.26667,-3274
39.27500,-3274
39.28333,-3275
39.29167,-3276
39.30000,-3277
39.30833,-3278
39.31667,-3279
39.32500,-3279
39.33333,-3279
39.34167,-3280
39.35000,-3282
39.35833,-3283
39.36667,-3283
39.37500,-3284
39.38333,-3285
39.39167,-3286
39.40000,-3287
39.40833,-3288
39.41667,-3288
39.42500,-3289
39.43333,-3290
39.44167,-3291
39.45000,-3292
39.45833,-3293
39.46667,-3294
39.47500,-3295
39.48333,-3296
39.49167,-3296
39.50000,-3297
39.50833,-3298
39.51667,-3298
39.52500,-3299
39.53333,-3300
39.54167,-3301
39.55000,-3302
39.55833,-3303
39.56667,-3303
39.57500,-3304
39.58333,-3305
39.59167,-3305
39.60000,-3306
39.60833,-3307
39.61667,-3308
39.62500,-3308
39.63333,-3309
39.64167,-3309
39.65000,-3310
39.65833,-3311
39.66667,-3312
39.67500,-3312
39.68333,-3313
39.69167,-3314
39.70000,-3314
39.70833,-3315
39.71667,-3316
39.72500,-3317
39.73333,-3318
39.74167,-3318
39.75000,-3319
39.75833,-3320
39.76667,-3320
39.77500,-3321
39.78333,-3322
39.79167,-3323
39.80000,-3324
39.80833,-3325
39.81667,-3326
39.82500,-3327
39.83333,-3328
39.84167,-3329
39.85000,-3331
39.85833,-3331
39.86667,-3332
39.87500,-3333
39.88333,-3333
39.89167,-3334
39.90000,-3334
39.90833,-3335
39.91667,-3336
39.92500,-3337
39.93333,-3338
39.94167,-3338
39.95000,-3339
39.95833,-3340
39.96667,-3341
39.97500,-3342
39.98333,-3343
39.99167,-3344
40.00000,-3344
40.00833,-3345
40.01667,-3345
40.02500,-3346
40.03333,-3346
40.04167,-3347
40.05000,-3347
40.05833,-3348
40.06667,-3349
40.07500,-3350
40.08333,-3351
40.09167,-3352
40.10000,-3353
40.10833,-3353
40.11667,-3354
40.12500,-3354
40.13333,-3355
40.14167,-3356
40.15000,-3357
40.15833,-3358
40.16667,-3359
40.17500,-3360
40.18333,-3361
40.19167,-3362
40.20000,-3363
40.20833,-3363
40.21667,-3364
40.22500,-3364
40.23333,-3365
40.24167,-3366
40.25000,-3367
40.25833,-3368
40.26667,-3369
40.27500,-3369
40.28333,-3370
40.29167,-3370
40.30000,-3371
40.30833,-3372
40.31667,-3373
40.32500,-3374
40.33333,-3375
40.34167,-3376
40.35000,-3377
40.35833,-3377
40.36667,-3378
40.37500,-3378
40.38333,-3379
40.39167,-3379
40.40000,-3379
40.40833,-3380
40.41667,-3381
40.42500,-3382
40.43333,-3383
40.44167,-3384
40.45000,-3385
40.45833,-3385
40.46667,-3386
40.47500,-3387
40.48333,-3388
40.49167,-3389
40.50000,-3390
40.50833,-3391
40.51667,-3391
40.52500,-3392
40.53333,-3392
40.54167,-3393
40.55000,-3394
40.55833,-3395
40.56667,-3396
40.57500,-3397
40.58333,-3398
40.59167,-3399
40.60000,-3399
40.60833,-3400
40.61667,-3400
40.62500,-3401
40.63333,-3402
40.64167,-3403
40.65000,-3404
40.65833,-3405
40.66667,-3406
40.67500,-3407
40.68333,-3408
40.69167,-3409
40.70000,-3409
40.70833,-3410
40.71667,-3411
40.72500,-3411
40.73333,-3412
40.74167,-3413
40.75000,-3413
40.75833,-3414
40.76667,-3415
40.77500,-3416
40.78333,-3417
40.79167,-3418
40.80000,-3418
40.80833,-3419
40.81667,-3420
40.82500,-3421
40.83333,-3421
40.84167,-3422
40.85000,-3423
40.85833,-3424
40.86667,-3425
40.87500,-3425
40.88333,-3426
40.89167,-3427
40.90000,-3427
40.90833,-3428
40.91667,-3429
40.92500,-3430
40.93333,-3431
40.94167,-3432
40.95000,-3433
40.95833,-3433
40.96667,-3434
40.97500,-3434
40.98333,-3435
40.99167,-3436
41.00000,-3436
41.00833,-3437
41.01667,-3437
41.02500,-3438
41.03333,-3439
41.04167,-3440
41.05000,-3441
41.05833,-3442
41.06667,-3443
41.07500,-3444
41.08333,-3445
41.09167,-3446
41.10000,-3447
41.10833,-3448
41.11667,-3449
41.12500,-3449
41.13333,-3450
41.14167,-3451
41.15000,-3451
41.15833,-3452
41.16667,-3452
41.17500,-3453
41.18333,-3454
41.19167,-3454
41.20000,-3455
41.20833,-3456
41.21667,-3456
41.22500,-3457
41.23333,-3458
41.24167,-3459
41.25000,-3460
41.25833,-3461
41.26667,-3462
41.27500,-3463
41.28333,-3464
41.29167,-3465
41.30000,-3465
41.30833,-3466
41.31667,-3466
41.32500,-3467
41.33333,-3468
41.34167,-3469
41.35000,-3469
41.35833,-3470
41.36667,-3471
41.37500,-3472
41.38333,-3473
41.39167,-3474
41.40000,-3474
41.40833,-3475
41.41667,-3476
41.42500,-3477
41.43333,-3477
41.44167,-3478
41.45000,-3479
41.45833,-3480
41.46667,-3481
41.47500,-3483
41.48333,-3484
41.49167,-3484
41.50000,-3485
41.50833,-3485
41.51667,-3486
41.52500,-3486
41.53333,-3487
41.54167,-3488
41.55000,-3489
41.55833,-3490
41.56667,-3491
41.57500,-3492
41.58333,-3492
41.59167,-3493
41.60000,-3494
41.60833,-3495
41.61667,-3495
41.62500,-3495
41.63333,-3496
41.64167,-3497
41.65000,-3498
41.65833,-3499
41.66667,-3500
41.67500,-3501
41.68333,-3502
41.69167,-3502
41.70000,-3503
41.70833,-3504
41.71667,-3504
41.72500,-3505
41.73333,-3506
41.74167,-3507
41.75000,-3508
41.75833,-3508
41.76667,-3509
41.77500,-3511
41.78333,-3512
41.79167,-3512
41.80000,-3513
41.80833,-3514
41.81667,-3515
41.82500,-3515
41.83333,-3516
41.84167,-3517
41.85000,-3518
41.85833,-3519
41.86667,-3520
41.87500,-3521
41.88333,-3521
41.89167,-3522
41.90000,-3523
41.90833,-3523
41.91667,-3524
41.92500,-3525
41.93333,-3526
41.94167,-3527
41.95000,-3528
41.95833,-3529
41.96667,-3529
41.97500,-3530
41.98333,-3531
41.99167,-3532
42.00000,-3533
42.00833,-3534
42.01667,-3535
42.02500,-3535
42.03333,-3536
42.04167,-3536
42.05000,-3537
42.05833,-3538
42.06667,-3539
42.07500,-3540
42.08333,-3541
42.09167,-3542
42.10000,-3543
42.10833,-3544
42.11667,-3545
42.12500,-3545
42.13333,-3546
42.14167,-3547
42.15000,-3547
42.15833,-3548
42.16667,-3548
42.17500,-3549
42.18333,-3550
42.19167,-3551
42.20000,-3552
42.20833,-3553
42.21667,-3554
42.22500,-3555
42.23333,-3556
42.24167,-3557
42.25000,-3558
42.25833,-3559
42.26667,-3560
42.27500,-3561
42.28333,-3561
42.29167,-3562
42.30000,-3563
42.30833,-3564
42.31667,-3564
42.32500,-3564
42.33333,-3565
42.34167,-3567
42.35000,-3568
42.35833,-3569
42.36667,-3570
42.37500,-3570
42.38333,-3571
42.39167,-3572
42.40000,-3573
42.40833,-3573
42.41667,-3574
42.42500,-3575
42.43333,-3576
42.44167,-3577
42.45000,-3577
42.45833,-3578
42.46667,-3579
42.47500,-3580
42.48333,-3581
42.49167,-3581
42.50000,-3582
42.50833,-3583
42.51667,-3584
42.52500,-3585
42.53333,-3585
42.54167,-3586
42.55000,-3587
42.55833,-3587
42.56667,-3587
42.57500,-3588
42.58333,-3589
42.59167,-3590
42.60000,-3590
42.60833,-3591
42.61667,-3592
42.62500,-3593
42.63333,-3594
42.64167,-3595
42.65000,-3596
42.65833,-3597
42.66667,-3598
42.67500,-3599
42.68333,-3600
42.69167,-3601
42.70000,-3601
42.70833,-3602
42.71667,-3602
42.72500,-3603
42.73333,-3604
42.74167,-3605
42.75000,-3605
42.75833,-3606
42.76667,-3607
42.77500,-3608
42.78333,-3609
42.79167,-3610
42.80000,-3610
42.80833,-3611
42.81667,-3612
42.82500,-3613
42.83333,-3614
42.84167,-3615
42.85000,-3616
42.85833,-3616
42.86667,-3617
42.87500,-3618
42.88333,-3619
42.89167,-3620
42.90000,-3620
42.90833,-3621
42.91667,-3621
42.92500,-3622
42.93333,-3622
42.94167,-3623
42.95000,-3624
42.95833,-3625
42.96667,-3626
42.97500,-3627
42.98333,-3628
42.99167,-3629
43.00000,-3630
43.00833,-3631
43.01667,-3632
43.02500,-3632
43.03333,-3633
43.04167,-3633
43.05000,-3634
43.05833,-3635
43.06667,-3636
43.07500,-3637
43.08333,-3638
43.09167,-3638
43.10000,-3640
43.10833,-3641
43.11667,-3642
43.12500,-3643
43.13333,-3643
43.14167,-3644
43.15000,-3645
43.15833,-3646
43.16667,-3647
43.17500,-3647
43.18333,-3648
43.19167,-3649
43.20000,-3649
43.20833,-3650
43.21667,-3651
43.22500,-3652
43.23333,-3653
43.24167,-3653
43.25000,-3654
43.25833,-3655
43.26667,-3656
43.27500,-3657
43.28333,-3658
43.29167,-3658
43.30000,-3659
43.30833,-3660
43.31667,-3661
43.32500,-3661
43.33333,-3662
43.34167,-3663
43.35000,-3664
43.35833,-3664
43.36667,-3665
43.37500,-3666
43.38333,-3667
43.39167,-3668
43.40000,-3668
43.40833,-3669
43.41667,-3670
43.42500,-3671
43.43333,-3672
43.44167,-3673
43.45000,-3673
43.45833,-3674
43.46667,-3675
43.47500,-3676
43.48333,-3677
43.49167,-3678
43.50000,-3678
43.50833,-3679
43.51667,-3680
43.52500,-3681
43.53333,-3681
43.54167,-3682
43.55000,-3683
43.55833,-3684
43.56667,-3685
43.57500,-3686
43.58333,-3686
43.59167,-3687
43.60000,-3688
43.60833,-3688
43.61667,-3689
43.62500,-3690
43.63333,-3691
43.64167,-3692
43.65000,-3693
43.65833,-3694
43.66667,-3695
43.67500,-3695
43.68333,-3696
43.69167,-3697
43.70000,-3697
43.70833,-3698
43.71667,-3699
43.72500,-3700
43.73333,-3701
43.74167,-3702
43.75000,-3702
43.75833,-3703
43.76667,-3704
43.77500,-3704
43.78333,-3705
43.79167,-3706
43.80000,-3707
43.80833,-3708
43.81667,-3709
43.82500,-3709
43.83333,-3710
43.84167,-3711
43.85000,-3712
43.85833,-3713
43.86667,-3714
43.87500,-3714
43.88333,-3715
43.89167,-3716
43.90000,-3717
43.90833,-3718
43.91667,-3719
43.92500,-3719
43.93333,-3720
43.94167,-3721
43.95000,-3721
43.95833,-3722
43.96667,-3723
43.97500,-3723
43.98333,-3724
43.99167,-3724
44.00000,-3725
44.00833,-3726
44.01667,-3727
44.02500,-3728
44.03333,-3728
44.04167,-3729
44.05000,-3730
44.05833,-3731
44.06667,-3732
44.07500,-3733
44.08333,-3734
44.09167,-3734
44.10000,-3735
44.10833,-3736
44.11667,-3736
44.12500,-3737
44.13333,-3738
44.14167,-3738
44.15000,-3739
44.15833,-3740
44.16667,-3741
44.17500,-3743
44.18333,-3744
44.19167,-3744
44.20000,-3745
44.20833,-3746
44.21667,-3746
44.22500,-3747
44.23333,-3748
44.24167,-3749
44.25000,-3750
44.25833,-3751
44.26667,-3752
44.27500,-3753
44.28333,-3753
44.29167,-3754
44.30000,-3754
44.30833,-3755
44.31667,-3756
44.32500,-3756
44.33333,-3757
44.34167,-3758
44.35000,-3759
44.35833,-3760
44.36667,-3761
44.37500,-3762
44.38333,-3762
44.39167,-3763
44.40000,-3764
44.40833,-3764
44.41667,-3765
44.42500,-3765
44.43333,-3766
44.44167,-3767
44.45000,-3768
44.45833,-3769
44.46667,-3769
44.47500,-3770
44.48333,-3771
44.49167,-3772
44.50000,-3773
44.50833,-3774
44.51667,-3775
44.52500,-3776
44.53333,-3776
44.54167,-3777
44.55000,-3778
44.55833,-3779
44.56667,-3780
44.57500,-3781
44.58333,-3781
44.59167,-3782
44.60000,-3782
44.60833,-3783
44.61667,-3784
44.62500,-3784
44.63333,-3785
44.64167,-3786
44.65000,-3787
44.65833,-3787
44.66667,-3788
44.67500,-3789
44.68333,-3789
44.69167,-3790
44.70000,-3791
44.70833,-3792
44.71667,-3793
44.72500,-3793
44.73333,-3794
44.74167,-3795
44.75000,-3796
44.75833,-3796
44.76667,-3797
44.77500,-3797
44.78333,-3798
44.79167,-3799
44.80000,-3800
44.80833,-3801
44.81667,-3801
44.82500,-3802
44.83333,-3803
44.84167,-3804
44.85000,-3805
44.85833,-3805
44.86667,-3805
44.87500,-3806
44.88333,-3807
44.89167,-3807
44.90000,-3808
44.90833,-3809
44.91667,-3810
44.92500,-3811
44.93333,-3812
44.94167,-3813
44.95000,-3813
44.95833,-3814
44.96667,-3815
44.97500,-3816
44.98333,-3816
44.99167,-3817
45.00000,-3818

