[Header]
Application Name,LabSolutions
Version,5.97 SP1
Data File Name,C:\Users\cremerlab\Desktop\batch_template_3182021_001_004.lcd
Output Date,3/18/2021
Output Time,2:29:59 PM

[File Information]
Type,Data File
Generated,3/18/2021 1:44:39 PM
Generated by,System Administrator
Modified,3/18/2021 2:29:59 PM
Modified by,System Administrator

[Sample Information]
Operator Name,System Administrator
Acquired,3/18/2021 1:44:58 PM
Sample Type,1:Standard
Level,1
Sample Name,2021-03-18_KH2PO4
Sample ID,001
ISTD Amount1,1
ISTD Amount2,1
ISTD Amount3,1
ISTD Amount4,1
ISTD Amount5,1
ISTD Amount6,1
ISTD Amount7,1
ISTD Amount8,1
ISTD Amount9,1
ISTD Amount10,1
ISTD Amount11,1
ISTD Amount12,1
ISTD Amount13,1
ISTD Amount14,1
ISTD Amount15,1
ISTD Amount16,1
ISTD Amount17,1
ISTD Amount18,1
ISTD Amount19,1
ISTD Amount20,1
ISTD Amount21,1
ISTD Amount22,1
ISTD Amount23,1
ISTD Amount24,1
ISTD Amount25,1
ISTD Amount26,1
ISTD Amount27,1
ISTD Amount28,1
ISTD Amount29,1
ISTD Amount30,1
ISTD Amount31,1
ISTD Amount32,1
Sample Amount,1
Dilution Factor,1
Vial#,4
Injection Volume,20

[Original Files]
Data File,C:\Users\cremerlab\Desktop\batch_template_3182021_001_004.lcd
Method File,C:\LabSolutions\Data\Project1\organicacidsetc2.lcm
Batch File,C:\Users\cremerlab\Desktop\batch_template.lcb
Report Format File,c:\LabSolutions\System\DEFAULT.lsr

[File Description]


[Configuration]
Instrument Name,HPLC-PC-Instrument1
Instrument #,1
Line #,1
# of Detectors,2
Detector ID,Detector A,Detector B
Detector Name,Detector A,Detector B
# of Channels,1,1

[LC Chromatogram(Detector B-Ch1)]
Interval(msec),500
# of Points,5401
Start Time(min),0.000
End Time(min),45.000
Intensity Units,mV
Intensity Multiplier,0.001
R.Time (min),Intensity
0.00000,5
0.00833,5
0.01667,0
0.02500,0
0.03333,-1
0.04167,-4
0.05000,-8
0.05833,-10
0.06667,-11
0.07500,-11
0.08333,-10
0.09167,-9
0.10000,-7
0.10833,-4
0.11667,-2
0.12500,0
0.13333,3
0.14167,4
0.15000,6
0.15833,7
0.16667,7
0.17500,8
0.18333,9
0.19167,10
0.20000,9
0.20833,9
0.21667,9
0.22500,10
0.23333,11
0.24167,12
0.25000,14
0.25833,15
0.26667,15
0.27500,16
0.28333,16
0.29167,16
0.30000,16
0.30833,16
0.31667,16
0.32500,16
0.33333,16
0.34167,16
0.35000,16
0.35833,16
0.36667,16
0.37500,16
0.38333,17
0.39167,17
0.40000,17
0.40833,18
0.41667,18
0.42500,18
0.43333,18
0.44167,19
0.45000,19
0.45833,20
0.46667,20
0.47500,20
0.48333,21
0.49167,21
0.50000,21
0.50833,21
0.51667,22
0.52500,23
0.53333,23
0.54167,24
0.55000,26
0.55833,28
0.56667,30
0.57500,32
0.58333,34
0.59167,35
0.60000,37
0.60833,38
0.61667,38
0.62500,38
0.63333,37
0.64167,35
0.65000,33
0.65833,31
0.66667,28
0.67500,25
0.68333,22
0.69167,19
0.70000,17
0.70833,15
0.71667,14
0.72500,13
0.73333,12
0.74167,12
0.75000,13
0.75833,13
0.76667,14
0.77500,15
0.78333,17
0.79167,18
0.80000,19
0.80833,20
0.81667,22
0.82500,23
0.83333,24
0.84167,25
0.85000,26
0.85833,27
0.86667,28
0.87500,29
0.88333,30
0.89167,31
0.90000,32
0.90833,33
0.91667,33
0.92500,34
0.93333,35
0.94167,36
0.95000,36
0.95833,37
0.96667,37
0.97500,38
0.98333,38
0.99167,39
1.00000,39
1.00833,39
1.01667,39
1.02500,40
1.03333,41
1.04167,41
1.05000,42
1.05833,42
1.06667,43
1.07500,44
1.08333,44
1.09167,45
1.10000,45
1.10833,45
1.11667,45
1.12500,45
1.13333,45
1.14167,46
1.15000,46
1.15833,47
1.16667,47
1.17500,47
1.18333,47
1.19167,47
1.20000,48
1.20833,48
1.21667,49
1.22500,49
1.23333,49
1.24167,49
1.25000,49
1.25833,49
1.26667,50
1.27500,50
1.28333,51
1.29167,52
1.30000,52
1.30833,52
1.31667,53
1.32500,53
1.33333,53
1.34167,54
1.35000,54
1.35833,54
1.36667,55
1.37500,55
1.38333,55
1.39167,56
1.40000,56
1.40833,57
1.41667,57
1.42500,58
1.43333,58
1.44167,58
1.45000,59
1.45833,59
1.46667,59
1.47500,60
1.48333,60
1.49167,61
1.50000,61
1.50833,61
1.51667,61
1.52500,62
1.53333,62
1.54167,62
1.55000,62
1.55833,62
1.56667,63
1.57500,63
1.58333,63
1.59167,64
1.60000,64
1.60833,65
1.61667,65
1.62500,66
1.63333,66
1.64167,66
1.65000,67
1.65833,67
1.66667,67
1.67500,68
1.68333,68
1.69167,68
1.70000,68
1.70833,69
1.71667,69
1.72500,70
1.73333,70
1.74167,71
1.75000,71
1.75833,71
1.76667,71
1.77500,72
1.78333,72
1.79167,73
1.80000,73
1.80833,73
1.81667,73
1.82500,74
1.83333,74
1.84167,75
1.85000,75
1.85833,76
1.86667,76
1.87500,77
1.88333,77
1.89167,77
1.90000,77
1.90833,77
1.91667,78
1.92500,78
1.93333,78
1.94167,78
1.95000,79
1.95833,79
1.96667,80
1.97500,80
1.98333,81
1.99167,81
2.00000,81
2.00833,82
2.01667,82
2.02500,83
2.03333,83
2.04167,83
2.05000,84
2.05833,84
2.06667,85
2.07500,85
2.08333,85
2.09167,85
2.10000,86
2.10833,86
2.11667,86
2.12500,86
2.13333,87
2.14167,87
2.15000,88
2.15833,88
2.16667,88
2.17500,89
2.18333,89
2.19167,89
2.20000,90
2.20833,90
2.21667,90
2.22500,90
2.23333,91
2.24167,91
2.25000,91
2.25833,92
2.26667,92
2.27500,92
2.28333,93
2.29167,93
2.30000,94
2.30833,95
2.31667,95
2.32500,96
2.33333,96
2.34167,97
2.35000,97
2.35833,97
2.36667,97
2.37500,96
2.38333,97
2.39167,97
2.40000,98
2.40833,98
2.41667,98
2.42500,99
2.43333,99
2.44167,99
2.45000,100
2.45833,100
2.46667,100
2.47500,101
2.48333,101
2.49167,102
2.50000,102
2.50833,102
2.51667,102
2.52500,102
2.53333,103
2.54167,103
2.55000,104
2.55833,105
2.56667,105
2.57500,106
2.58333,106
2.59167,106
2.60000,106
2.60833,106
2.61667,107
2.62500,107
2.63333,107
2.64167,107
2.65000,108
2.65833,108
2.66667,108
2.67500,108
2.68333,108
2.69167,109
2.70000,109
2.70833,110
2.71667,110
2.72500,110
2.73333,110
2.74167,111
2.75000,111
2.75833,112
2.76667,112
2.77500,112
2.78333,113
2.79167,113
2.80000,113
2.80833,113
2.81667,113
2.82500,114
2.83333,114
2.84167,114
2.85000,115
2.85833,115
2.86667,116
2.87500,116
2.88333,116
2.89167,117
2.90000,117
2.90833,118
2.91667,118
2.92500,118
2.93333,119
2.94167,119
2.95000,119
2.95833,119
2.96667,120
2.97500,120
2.98333,120
2.99167,120
3.00000,121
3.00833,121
3.01667,122
3.02500,122
3.03333,123
3.04167,123
3.05000,123
3.05833,123
3.06667,124
3.07500,124
3.08333,125
3.09167,126
3.10000,126
3.10833,126
3.11667,126
3.12500,126
3.13333,126
3.14167,126
3.15000,127
3.15833,127
3.16667,127
3.17500,128
3.18333,128
3.19167,128
3.20000,128
3.20833,129
3.21667,129
3.22500,129
3.23333,129
3.24167,130
3.25000,130
3.25833,131
3.26667,131
3.27500,131
3.28333,132
3.29167,132
3.30000,133
3.30833,133
3.31667,134
3.32500,134
3.33333,134
3.34167,135
3.35000,135
3.35833,135
3.36667,136
3.37500,136
3.38333,136
3.39167,136
3.40000,137
3.40833,138
3.41667,138
3.42500,139
3.43333,140
3.44167,140
3.45000,140
3.45833,140
3.46667,140
3.47500,141
3.48333,141
3.49167,141
3.50000,141
3.50833,141
3.51667,142
3.52500,142
3.53333,143
3.54167,143
3.55000,144
3.55833,144
3.56667,145
3.57500,145
3.58333,146
3.59167,146
3.60000,146
3.60833,146
3.61667,146
3.62500,147
3.63333,147
3.64167,147
3.65000,147
3.65833,147
3.66667,147
3.67500,148
3.68333,148
3.69167,149
3.70000,149
3.70833,149
3.71667,150
3.72500,150
3.73333,151
3.74167,151
3.75000,151
3.75833,152
3.76667,152
3.77500,153
3.78333,153
3.79167,153
3.80000,153
3.80833,153
3.81667,154
3.82500,154
3.83333,155
3.84167,155
3.85000,155
3.85833,155
3.86667,155
3.87500,156
3.88333,157
3.89167,157
3.90000,158
3.90833,158
3.91667,158
3.92500,159
3.93333,159
3.94167,160
3.95000,160
3.95833,160
3.96667,161
3.97500,161
3.98333,161
3.99167,161
4.00000,162
4.00833,162
4.01667,163
4.02500,163
4.03333,163
4.04167,164
4.05000,164
4.05833,164
4.06667,164
4.07500,164
4.08333,165
4.09167,165
4.10000,166
4.10833,166
4.11667,166
4.12500,166
4.13333,167
4.14167,167
4.15000,168
4.15833,168
4.16667,168
4.17500,169
4.18333,170
4.19167,170
4.20000,170
4.20833,171
4.21667,171
4.22500,171
4.23333,171
4.24167,171
4.25000,172
4.25833,172
4.26667,172
4.27500,172
4.28333,173
4.29167,173
4.30000,174
4.30833,174
4.31667,175
4.32500,175
4.33333,175
4.34167,175
4.35000,176
4.35833,176
4.36667,176
4.37500,176
4.38333,176
4.39167,177
4.40000,177
4.40833,178
4.41667,178
4.42500,179
4.43333,180
4.44167,180
4.45000,180
4.45833,180
4.46667,181
4.47500,181
4.48333,181
4.49167,181
4.50000,182
4.50833,182
4.51667,182
4.52500,183
4.53333,183
4.54167,184
4.55000,184
4.55833,184
4.56667,184
4.57500,185
4.58333,185
4.59167,185
4.60000,185
4.60833,186
4.61667,186
4.62500,186
4.63333,186
4.64167,187
4.65000,187
4.65833,188
4.66667,188
4.67500,189
4.68333,189
4.69167,189
4.70000,189
4.70833,190
4.71667,190
4.72500,190
4.73333,190
4.74167,190
4.75000,190
4.75833,191
4.76667,191
4.77500,191
4.78333,192
4.79167,192
4.80000,193
4.80833,193
4.81667,194
4.82500,194
4.83333,194
4.84167,195
4.85000,195
4.85833,195
4.86667,195
4.87500,196
4.88333,196
4.89167,196
4.90000,196
4.90833,197
4.91667,197
4.92500,198
4.93333,198
4.94167,198
4.95000,199
4.95833,199
4.96667,199
4.97500,199
4.98333,199
4.99167,199
5.00000,200
5.00833,200
5.01667,201
5.02500,201
5.03333,201
5.04167,202
5.05000,202
5.05833,202
5.06667,203
5.07500,203
5.08333,203
5.09167,204
5.10000,204
5.10833,205
5.11667,205
5.12500,205
5.13333,206
5.14167,206
5.15000,206
5.15833,206
5.16667,206
5.17500,206
5.18333,206
5.19167,206
5.20000,206
5.20833,206
5.21667,207
5.22500,207
5.23333,208
5.24167,208
5.25000,209
5.25833,209
5.26667,210
5.27500,210
5.28333,210
5.29167,211
5.30000,211
5.30833,211
5.31667,211
5.32500,211
5.33333,211
5.34167,212
5.35000,212
5.35833,212
5.36667,213
5.37500,213
5.38333,213
5.39167,213
5.40000,213
5.40833,214
5.41667,214
5.42500,214
5.43333,214
5.44167,214
5.45000,215
5.45833,215
5.46667,215
5.47500,216
5.48333,216
5.49167,217
5.50000,217
5.50833,217
5.51667,218
5.52500,218
5.53333,218
5.54167,218
5.55000,218
5.55833,219
5.56667,219
5.57500,219
5.58333,220
5.59167,220
5.60000,220
5.60833,221
5.61667,221
5.62500,222
5.63333,222
5.64167,223
5.65000,223
5.65833,223
5.66667,224
5.67500,224
5.68333,224
5.69167,225
5.70000,225
5.70833,225
5.71667,226
5.72500,226
5.73333,226
5.74167,226
5.75000,227
5.75833,227
5.76667,227
5.77500,227
5.78333,227
5.79167,228
5.80000,228
5.80833,228
5.81667,229
5.82500,229
5.83333,230
5.84167,230
5.85000,230
5.85833,230
5.86667,231
5.87500,231
5.88333,232
5.89167,231
5.90000,232
5.90833,232
5.91667,232
5.92500,232
5.93333,232
5.94167,233
5.95000,233
5.95833,233
5.96667,233
5.97500,234
5.98333,235
5.99167,235
6.00000,236
6.00833,236
6.01667,236
6.02500,236
6.03333,236
6.04167,237
6.05000,237
6.05833,237
6.06667,237
6.07500,238
6.08333,238
6.09167,239
6.10000,239
6.10833,239
6.11667,240
6.12500,240
6.13333,240
6.14167,241
6.15000,241
6.15833,241
6.16667,241
6.17500,241
6.18333,241
6.19167,241
6.20000,242
6.20833,242
6.21667,242
6.22500,243
6.23333,243
6.24167,244
6.25000,244
6.25833,245
6.26667,245
6.27500,245
6.28333,245
6.29167,245
6.30000,246
6.30833,246
6.31667,246
6.32500,246
6.33333,247
6.34167,247
6.35000,248
6.35833,248
6.36667,249
6.37500,248
6.38333,248
6.39167,249
6.40000,249
6.40833,249
6.41667,250
6.42500,250
6.43333,250
6.44167,251
6.45000,251
6.45833,251
6.46667,252
6.47500,252
6.48333,253
6.49167,253
6.50000,253
6.50833,254
6.51667,254
6.52500,254
6.53333,254
6.54167,254
6.55000,254
6.55833,255
6.56667,255
6.57500,255
6.58333,256
6.59167,256
6.60000,257
6.60833,257
6.61667,257
6.62500,257
6.63333,258
6.64167,258
6.65000,259
6.65833,259
6.66667,259
6.67500,259
6.68333,259
6.69167,259
6.70000,260
6.70833,260
6.71667,260
6.72500,261
6.73333,261
6.74167,261
6.75000,262
6.75833,262
6.76667,263
6.77500,263
6.78333,263
6.79167,264
6.80000,264
6.80833,264
6.81667,265
6.82500,265
6.83333,265
6.84167,265
6.85000,265
6.85833,266
6.86667,266
6.87500,266
6.88333,267
6.89167,267
6.90000,267
6.90833,268
6.91667,268
6.92500,269
6.93333,269
6.94167,270
6.95000,271
6.95833,271
6.96667,272
6.97500,272
6.98333,272
6.99167,272
7.00000,272
7.00833,273
7.01667,273
7.02500,273
7.03333,273
7.04167,273
7.05000,273
7.05833,274
7.06667,274
7.07500,275
7.08333,275
7.09167,275
7.10000,275
7.10833,275
7.11667,275
7.12500,276
7.13333,276
7.14167,276
7.15000,276
7.15833,276
7.16667,277
7.17500,277
7.18333,278
7.19167,278
7.20000,279
7.20833,279
7.21667,280
7.22500,280
7.23333,281
7.24167,281
7.25000,281
7.25833,282
7.26667,282
7.27500,282
7.28333,282
7.29167,282
7.30000,282
7.30833,283
7.31667,283
7.32500,283
7.33333,283
7.34167,284
7.35000,284
7.35833,284
7.36667,284
7.37500,284
7.38333,284
7.39167,284
7.40000,285
7.40833,286
7.41667,287
7.42500,287
7.43333,287
7.44167,288
7.45000,288
7.45833,288
7.46667,288
7.47500,289
7.48333,289
7.49167,290
7.50000,290
7.50833,290
7.51667,291
7.52500,291
7.53333,291
7.54167,291
7.55000,292
7.55833,292
7.56667,292
7.57500,292
7.58333,293
7.59167,293
7.60000,293
7.60833,293
7.61667,294
7.62500,294
7.63333,294
7.64167,295
7.65000,295
7.65833,295
7.66667,295
7.67500,295
7.68333,295
7.69167,295
7.70000,296
7.70833,296
7.71667,296
7.72500,296
7.73333,297
7.74167,297
7.75000,297
7.75833,298
7.76667,298
7.77500,298
7.78333,299
7.79167,300
7.80000,300
7.80833,300
7.81667,300
7.82500,301
7.83333,301
7.84167,301
7.85000,301
7.85833,302
7.86667,302
7.87500,302
7.88333,302
7.89167,303
7.90000,303
7.90833,303
7.91667,304
7.92500,304
7.93333,305
7.94167,305
7.95000,306
7.95833,306
7.96667,306
7.97500,306
7.98333,307
7.99167,307
8.00000,307
8.00833,308
8.01667,309
8.02500,309
8.03333,310
8.04167,310
8.05000,309
8.05833,309
8.06667,310
8.07500,310
8.08333,310
8.09167,311
8.10000,311
8.10833,312
8.11667,312
8.12500,313
8.13333,313
8.14167,313
8.15000,313
8.15833,314
8.16667,314
8.17500,315
8.18333,315
8.19167,315
8.20000,316
8.20833,317
8.21667,317
8.22500,318
8.23333,318
8.24167,319
8.25000,319
8.25833,319
8.26667,319
8.27500,319
8.28333,319
8.29167,320
8.30000,320
8.30833,321
8.31667,321
8.32500,322
8.33333,322
8.34167,322
8.35000,322
8.35833,323
8.36667,323
8.37500,323
8.38333,324
8.39167,325
8.40000,325
8.40833,326
8.41667,326
8.42500,327
8.43333,327
8.44167,328
8.45000,328
8.45833,328
8.46667,329
8.47500,329
8.48333,329
8.49167,329
8.50000,329
8.50833,330
8.51667,330
8.52500,330
8.53333,331
8.54167,331
8.55000,331
8.55833,331
8.56667,332
8.57500,332
8.58333,332
8.59167,333
8.60000,333
8.60833,333
8.61667,334
8.62500,334
8.63333,334
8.64167,334
8.65000,335
8.65833,335
8.66667,336
8.67500,336
8.68333,337
8.69167,337
8.70000,338
8.70833,338
8.71667,338
8.72500,339
8.73333,339
8.74167,339
8.75000,340
8.75833,340
8.76667,340
8.77500,341
8.78333,341
8.79167,342
8.80000,342
8.80833,343
8.81667,343
8.82500,343
8.83333,344
8.84167,344
8.85000,344
8.85833,344
8.86667,345
8.87500,345
8.88333,345
8.89167,345
8.90000,346
8.90833,346
8.91667,346
8.92500,347
8.93333,347
8.94167,347
8.95000,347
8.95833,348
8.96667,348
8.97500,348
8.98333,348
8.99167,348
9.00000,349
9.00833,349
9.01667,350
9.02500,350
9.03333,351
9.04167,351
9.05000,351
9.05833,351
9.06667,351
9.07500,351
9.08333,352
9.09167,352
9.10000,352
9.10833,353
9.11667,353
9.12500,354
9.13333,354
9.14167,354
9.15000,354
9.15833,354
9.16667,355
9.17500,355
9.18333,355
9.19167,356
9.20000,356
9.20833,356
9.21667,357
9.22500,357
9.23333,357
9.24167,358
9.25000,358
9.25833,358
9.26667,359
9.27500,359
9.28333,359
9.29167,359
9.30000,360
9.30833,360
9.31667,360
9.32500,361
9.33333,361
9.34167,361
9.35000,361
9.35833,362
9.36667,362
9.37500,362
9.38333,362
9.39167,362
9.40000,363
9.40833,363
9.41667,364
9.42500,364
9.43333,364
9.44167,364
9.45000,364
9.45833,364
9.46667,364
9.47500,365
9.48333,365
9.49167,365
9.50000,365
9.50833,366
9.51667,366
9.52500,366
9.53333,367
9.54167,367
9.55000,367
9.55833,367
9.56667,367
9.57500,367
9.58333,368
9.59167,368
9.60000,368
9.60833,369
9.61667,369
9.62500,369
9.63333,369
9.64167,369
9.65000,369
9.65833,370
9.66667,370
9.67500,371
9.68333,372
9.69167,372
9.70000,372
9.70833,372
9.71667,372
9.72500,372
9.73333,372
9.74167,372
9.75000,373
9.75833,373
9.76667,373
9.77500,374
9.78333,374
9.79167,374
9.80000,375
9.80833,375
9.81667,375
9.82500,375
9.83333,376
9.84167,376
9.85000,376
9.85833,376
9.86667,376
9.87500,377
9.88333,377
9.89167,377
9.90000,378
9.90833,378
9.91667,378
9.92500,378
9.93333,379
9.94167,379
9.95000,380
9.95833,380
9.96667,380
9.97500,380
9.98333,380
9.99167,380
10.00000,380
10.00833,381
10.01667,381
10.02500,381
10.03333,381
10.04167,382
10.05000,382
10.05833,382
10.06667,382
10.07500,382
10.08333,383
10.09167,383
10.10000,383
10.10833,384
10.11667,384
10.12500,384
10.13333,384
10.14167,384
10.15000,384
10.15833,384
10.16667,385
10.17500,385
10.18333,385
10.19167,385
10.20000,386
10.20833,386
10.21667,386
10.22500,386
10.23333,386
10.24167,387
10.25000,387
10.25833,387
10.26667,388
10.27500,388
10.28333,389
10.29167,389
10.30000,390
10.30833,390
10.31667,391
10.32500,392
10.33333,393
10.34167,394
10.35000,394
10.35833,395
10.36667,397
10.37500,397
10.38333,399
10.39167,400
10.40000,401
10.40833,402
10.41667,403
10.42500,403
10.43333,404
10.44167,404
10.45000,405
10.45833,405
10.46667,405
10.47500,405
10.48333,405
10.49167,405
10.50000,405
10.50833,405
10.51667,404
10.52500,404
10.53333,404
10.54167,403
10.55000,403
10.55833,402
10.56667,401
10.57500,400
10.58333,399
10.59167,397
10.60000,395
10.60833,392
10.61667,388
10.62500,382
10.63333,375
10.64167,365
10.65000,352
10.65833,333
10.66667,310
10.67500,279
10.68333,238
10.69167,187
10.70000,121
10.70833,40
10.71667,-61
10.72500,-184
10.73333,-332
10.74167,-508
10.75000,-714
10.75833,-954
10.76667,-1230
10.77500,-1542
10.78333,-1892
10.79167,-2280
10.80000,-2704
10.80833,-3162
10.81667,-3650
10.82500,-4163
10.83333,-4696
10.84167,-5242
10.85000,-5793
10.85833,-6342
10.86667,-6880
10.87500,-7399
10.88333,-7890
10.89167,-8346
10.90000,-8759
10.90833,-9124
10.91667,-9434
10.92500,-9687
10.93333,-9879
10.94167,-10008
10.95000,-10075
10.95833,-10079
10.96667,-10023
10.97500,-9910
10.98333,-9743
10.99167,-9527
11.00000,-9268
11.00833,-8969
11.01667,-8638
11.02500,-8279
11.03333,-7898
11.04167,-7501
11.05000,-7093
11.05833,-6679
11.06667,-6263
11.07500,-5850
11.08333,-5442
11.09167,-5045
11.10000,-4659
11.10833,-4287
11.11667,-3931
11.12500,-3593
11.13333,-3273
11.14167,-2971
11.15000,-2689
11.15833,-2425
11.16667,-2180
11.17500,-1953
11.18333,-1743
11.19167,-1550
11.20000,-1373
11.20833,-1211
11.21667,-1063
11.22500,-929
11.23333,-806
11.24167,-695
11.25000,-594
11.25833,-503
11.26667,-420
11.27500,-345
11.28333,-278
11.29167,-217
11.30000,-162
11.30833,-111
11.31667,-66
11.32500,-26
11.33333,11
11.34167,44
11.35000,74
11.35833,101
11.36667,125
11.37500,147
11.38333,167
11.39167,185
11.40000,202
11.40833,217
11.41667,231
11.42500,243
11.43333,254
11.44167,265
11.45000,274
11.45833,283
11.46667,291
11.47500,299
11.48333,306
11.49167,312
11.50000,318
11.50833,323
11.51667,328
11.52500,333
11.53333,337
11.54167,341
11.55000,345
11.55833,348
11.56667,352
11.57500,355
11.58333,357
11.59167,360
11.60000,362
11.60833,365
11.61667,367
11.62500,369
11.63333,370
11.64167,372
11.65000,373
11.65833,375
11.66667,377
11.67500,378
11.68333,379
11.69167,380
11.70000,381
11.70833,382
11.71667,383
11.72500,383
11.73333,384
11.74167,384
11.75000,384
11.75833,385
11.76667,384
11.77500,384
11.78333,384
11.79167,384
11.80000,384
11.80833,383
11.81667,383
11.82500,382
11.83333,382
11.84167,381
11.85000,381
11.85833,380
11.86667,380
11.87500,380
11.88333,380
11.89167,380
11.90000,379
11.90833,379
11.91667,378
11.92500,378
11.93333,378
11.94167,377
11.95000,377
11.95833,377
11.96667,377
11.97500,377
11.98333,378
11.99167,377
12.00000,377
12.00833,377
12.01667,377
12.02500,377
12.03333,377
12.04167,378
12.05000,378
12.05833,379
12.06667,379
12.07500,380
12.08333,380
12.09167,380
12.10000,381
12.10833,382
12.11667,383
12.12500,384
12.13333,385
12.14167,386
12.15000,388
12.15833,389
12.16667,391
12.17500,392
12.18333,394
12.19167,395
12.20000,396
12.20833,397
12.21667,399
12.22500,400
12.23333,402
12.24167,404
12.25000,405
12.25833,406
12.26667,407
12.27500,409
12.28333,410
12.29167,412
12.30000,413
12.30833,415
12.31667,416
12.32500,417
12.33333,418
12.34167,419
12.35000,420
12.35833,422
12.36667,423
12.37500,424
12.38333,425
12.39167,426
12.40000,427
12.40833,427
12.41667,428
12.42500,429
12.43333,430
12.44167,431
12.45000,432
12.45833,433
12.46667,434
12.47500,435
12.48333,436
12.49167,437
12.50000,437
12.50833,438
12.51667,438
12.52500,439
12.53333,439
12.54167,440
12.55000,441
12.55833,442
12.56667,443
12.57500,443
12.58333,444
12.59167,445
12.60000,445
12.60833,446
12.61667,446
12.62500,447
12.63333,447
12.64167,448
12.65000,449
12.65833,449
12.66667,450
12.67500,450
12.68333,450
12.69167,451
12.70000,451
12.70833,452
12.71667,452
12.72500,453
12.73333,453
12.74167,454
12.75000,454
12.75833,455
12.76667,455
12.77500,456
12.78333,456
12.79167,456
12.80000,456
12.80833,457
12.81667,457
12.82500,458
12.83333,458
12.84167,459
12.85000,459
12.85833,459
12.86667,459
12.87500,460
12.88333,460
12.89167,461
12.90000,462
12.90833,462
12.91667,463
12.92500,463
12.93333,464
12.94167,464
12.95000,464
12.95833,464
12.96667,464
12.97500,464
12.98333,465
12.99167,465
13.00000,465
13.00833,466
13.01667,466
13.02500,467
13.03333,467
13.04167,468
13.05000,468
13.05833,469
13.06667,469
13.07500,470
13.08333,470
13.09167,470
13.10000,471
13.10833,471
13.11667,471
13.12500,471
13.13333,472
13.14167,472
13.15000,472
13.15833,473
13.16667,473
13.17500,473
13.18333,474
13.19167,475
13.20000,475
13.20833,475
13.21667,476
13.22500,476
13.23333,476
13.24167,477
13.25000,478
13.25833,478
13.26667,478
13.27500,479
13.28333,479
13.29167,480
13.30000,480
13.30833,480
13.31667,481
13.32500,481
13.33333,481
13.34167,481
13.35000,481
13.35833,482
13.36667,482
13.37500,482
13.38333,482
13.39167,483
13.40000,483
13.40833,483
13.41667,484
13.42500,485
13.43333,485
13.44167,485
13.45000,486
13.45833,486
13.46667,487
13.47500,487
13.48333,488
13.49167,488
13.50000,489
13.50833,489
13.51667,489
13.52500,490
13.53333,490
13.54167,491
13.55000,491
13.55833,491
13.56667,491
13.57500,491
13.58333,492
13.59167,492
13.60000,493
13.60833,493
13.61667,493
13.62500,494
13.63333,494
13.64167,495
13.65000,495
13.65833,496
13.66667,496
13.67500,496
13.68333,496
13.69167,497
13.70000,497
13.70833,497
13.71667,497
13.72500,497
13.73333,497
13.74167,498
13.75000,498
13.75833,499
13.76667,499
13.77500,499
13.78333,500
13.79167,500
13.80000,500
13.80833,501
13.81667,501
13.82500,502
13.83333,503
13.84167,503
13.85000,504
13.85833,504
13.86667,505
13.87500,505
13.88333,506
13.89167,506
13.90000,506
13.90833,506
13.91667,507
13.92500,507
13.93333,507
13.94167,508
13.95000,508
13.95833,509
13.96667,509
13.97500,509
13.98333,509
13.99167,509
14.00000,509
14.00833,509
14.01667,510
14.02500,510
14.03333,511
14.04167,512
14.05000,512
14.05833,513
14.06667,514
14.07500,514
14.08333,514
14.09167,515
14.10000,516
14.10833,517
14.11667,518
14.12500,520
14.13333,521
14.14167,524
14.15000,526
14.15833,528
14.16667,531
14.17500,534
14.18333,538
14.19167,542
14.20000,548
14.20833,555
14.21667,564
14.22500,575
14.23333,587
14.24167,601
14.25000,618
14.25833,639
14.26667,665
14.27500,695
14.28333,730
14.29167,772
14.30000,821
14.30833,878
14.31667,944
14.32500,1021
14.33333,1110
14.34167,1211
14.35000,1327
14.35833,1457
14.36667,1604
14.37500,1768
14.38333,1951
14.39167,2154
14.40000,2377
14.40833,2622
14.41667,2889
14.42500,3180
14.43333,3494
14.44167,3833
14.45000,4195
14.45833,4583
14.46667,4995
14.47500,5432
14.48333,5893
14.49167,6377
14.50000,6885
14.50833,7415
14.51667,7966
14.52500,8538
14.53333,9130
14.54167,9740
14.55000,10366
14.55833,11009
14.56667,11665
14.57500,12333
14.58333,13012
14.59167,13699
14.60000,14393
14.60833,15089
14.61667,15786
14.62500,16481
14.63333,17170
14.64167,17851
14.65000,18518
14.65833,19169
14.66667,19798
14.67500,20401
14.68333,20971
14.69167,21503
14.70000,21990
14.70833,22426
14.71667,22804
14.72500,23118
14.73333,23361
14.74167,23528
14.75000,23612
14.75833,23610
14.76667,23519
14.77500,23335
14.78333,23060
14.79167,22693
14.80000,22239
14.80833,21701
14.81667,21086
14.82500,20401
14.83333,19655
14.84167,18857
14.85000,18016
14.85833,17145
14.86667,16253
14.87500,15349
14.88333,14445
14.89167,13547
14.90000,12664
14.90833,11805
14.91667,10973
14.92500,10176
14.93333,9415
14.94167,8694
14.95000,8015
14.95833,7379
14.96667,6786
14.97500,6235
14.98333,5725
14.99167,5256
15.00000,4825
15.00833,4431
15.01667,4072
15.02500,3745
15.03333,3448
15.04167,3178
15.05000,2935
15.05833,2714
15.06667,2515
15.07500,2336
15.08333,2175
15.09167,2029
15.10000,1899
15.10833,1781
15.11667,1675
15.12500,1581
15.13333,1495
15.14167,1419
15.15000,1349
15.15833,1287
15.16667,1231
15.17500,1180
15.18333,1135
15.19167,1093
15.20000,1056
15.20833,1022
15.21667,992
15.22500,964
15.23333,939
15.24167,916
15.25000,896
15.25833,877
15.26667,860
15.27500,844
15.28333,830
15.29167,817
15.30000,805
15.30833,794
15.31667,784
15.32500,775
15.33333,767
15.34167,760
15.35000,752
15.35833,746
15.36667,740
15.37500,735
15.38333,730
15.39167,725
15.40000,720
15.40833,716
15.41667,712
15.42500,709
15.43333,706
15.44167,703
15.45000,701
15.45833,698
15.46667,696
15.47500,694
15.48333,692
15.49167,690
15.50000,688
15.50833,686
15.51667,684
15.52500,683
15.53333,681
15.54167,679
15.55000,678
15.55833,677
15.56667,675
15.57500,674
15.58333,673
15.59167,672
15.60000,670
15.60833,669
15.61667,667
15.62500,666
15.63333,665
15.64167,663
15.65000,662
15.65833,660
15.66667,659
15.67500,658
15.68333,656
15.69167,655
15.70000,654
15.70833,653
15.71667,652
15.72500,651
15.73333,650
15.74167,649
15.75000,648
15.75833,647
15.76667,646
15.77500,645
15.78333,644
15.79167,643
15.80000,642
15.80833,642
15.81667,641
15.82500,640
15.83333,639
15.84167,638
15.85000,637
15.85833,636
15.86667,636
15.87500,635
15.88333,635
15.89167,634
15.90000,634
15.90833,633
15.91667,633
15.92500,633
15.93333,633
15.94167,632
15.95000,632
15.95833,631
15.96667,631
15.97500,631
15.98333,630
15.99167,630
16.00000,630
16.00833,629
16.01667,629
16.02500,628
16.03333,628
16.04167,627
16.05000,627
16.05833,627
16.06667,627
16.07500,627
16.08333,626
16.09167,626
16.10000,626
16.10833,625
16.11667,625
16.12500,624
16.13333,624
16.14167,624
16.15000,623
16.15833,623
16.16667,623
16.17500,623
16.18333,623
16.19167,623
16.20000,622
16.20833,622
16.21667,622
16.22500,622
16.23333,622
16.24167,622
16.25000,622
16.25833,622
16.26667,622
16.27500,621
16.28333,621
16.29167,621
16.30000,620
16.30833,620
16.31667,620
16.32500,620
16.33333,620
16.34167,620
16.35000,619
16.35833,619
16.36667,619
16.37500,619
16.38333,618
16.39167,618
16.40000,619
16.40833,619
16.41667,619
16.42500,619
16.43333,619
16.44167,619
16.45000,619
16.45833,619
16.46667,619
16.47500,619
16.48333,619
16.49167,618
16.50000,619
16.50833,619
16.51667,619
16.52500,619
16.53333,619
16.54167,619
16.55000,618
16.55833,618
16.56667,618
16.57500,618
16.58333,618
16.59167,618
16.60000,618
16.60833,618
16.61667,619
16.62500,619
16.63333,619
16.64167,619
16.65000,619
16.65833,619
16.66667,619
16.67500,619
16.68333,619
16.69167,619
16.70000,619
16.70833,619
16.71667,619
16.72500,619
16.73333,620
16.74167,620
16.75000,620
16.75833,620
16.76667,620
16.77500,619
16.78333,619
16.79167,619
16.80000,619
16.80833,619
16.81667,619
16.82500,620
16.83333,620
16.84167,620
16.85000,620
16.85833,620
16.86667,620
16.87500,620
16.88333,620
16.89167,620
16.90000,620
16.90833,620
16.91667,620
16.92500,620
16.93333,621
16.94167,620
16.95000,620
16.95833,620
16.96667,620
16.97500,620
16.98333,621
16.99167,621
17.00000,621
17.00833,621
17.01667,621
17.02500,621
17.03333,621
17.04167,621
17.05000,621
17.05833,621
17.06667,621
17.07500,622
17.08333,622
17.09167,622
17.10000,622
17.10833,622
17.11667,622
17.12500,622
17.13333,622
17.14167,622
17.15000,622
17.15833,622
17.16667,622
17.17500,622
17.18333,622
17.19167,622
17.20000,623
17.20833,623
17.21667,623
17.22500,623
17.23333,623
17.24167,623
17.25000,624
17.25833,623
17.26667,624
17.27500,624
17.28333,624
17.29167,624
17.30000,624
17.30833,624
17.31667,624
17.32500,624
17.33333,624
17.34167,625
17.35000,625
17.35833,625
17.36667,625
17.37500,625
17.38333,625
17.39167,625
17.40000,626
17.40833,626
17.41667,626
17.42500,626
17.43333,625
17.44167,626
17.45000,626
17.45833,626
17.46667,626
17.47500,626
17.48333,627
17.49167,627
17.50000,627
17.50833,627
17.51667,627
17.52500,627
17.53333,627
17.54167,627
17.55000,627
17.55833,627
17.56667,627
17.57500,627
17.58333,628
17.59167,628
17.60000,629
17.60833,629
17.61667,630
17.62500,630
17.63333,630
17.64167,630
17.65000,630
17.65833,631
17.66667,631
17.67500,631
17.68333,631
17.69167,631
17.70000,631
17.70833,630
17.71667,630
17.72500,630
17.73333,630
17.74167,631
17.75000,631
17.75833,632
17.76667,632
17.77500,633
17.78333,633
17.79167,633
17.80000,633
17.80833,633
17.81667,633
17.82500,632
17.83333,632
17.84167,632
17.85000,632
17.85833,633
17.86667,633
17.87500,634
17.88333,634
17.89167,634
17.90000,634
17.90833,634
17.91667,635
17.92500,635
17.93333,635
17.94167,635
17.95000,635
17.95833,635
17.96667,635
17.97500,635
17.98333,635
17.99167,635
18.00000,635
18.00833,636
18.01667,636
18.02500,637
18.03333,637
18.04167,637
18.05000,637
18.05833,638
18.06667,638
18.07500,638
18.08333,638
18.09167,638
18.10000,639
18.10833,639
18.11667,639
18.12500,639
18.13333,639
18.14167,640
18.15000,640
18.15833,640
18.16667,640
18.17500,640
18.18333,641
18.19167,641
18.20000,642
18.20833,642
18.21667,643
18.22500,643
18.23333,643
18.24167,643
18.25000,643
18.25833,643
18.26667,643
18.27500,643
18.28333,643
18.29167,643
18.30000,644
18.30833,644
18.31667,645
18.32500,645
18.33333,645
18.34167,645
18.35000,645
18.35833,645
18.36667,645
18.37500,645
18.38333,645
18.39167,645
18.40000,645
18.40833,645
18.41667,646
18.42500,646
18.43333,647
18.44167,647
18.45000,647
18.45833,647
18.46667,648
18.47500,648
18.48333,648
18.49167,648
18.50000,648
18.50833,648
18.51667,648
18.52500,648
18.53333,649
18.54167,649
18.55000,649
18.55833,649
18.56667,649
18.57500,649
18.58333,650
18.59167,650
18.60000,650
18.60833,650
18.61667,650
18.62500,651
18.63333,651
18.64167,651
18.65000,651
18.65833,652
18.66667,652
18.67500,651
18.68333,651
18.69167,652
18.70000,652
18.70833,652
18.71667,653
18.72500,653
18.73333,653
18.74167,653
18.75000,653
18.75833,653
18.76667,654
18.77500,654
18.78333,654
18.79167,655
18.80000,655
18.80833,656
18.81667,656
18.82500,657
18.83333,657
18.84167,657
18.85000,657
18.85833,657
18.86667,657
18.87500,657
18.88333,657
18.89167,657
18.90000,657
18.90833,657
18.91667,657
18.92500,658
18.93333,658
18.94167,658
18.95000,659
18.95833,659
18.96667,660
18.97500,660
18.98333,660
18.99167,660
19.00000,660
19.00833,660
19.01667,661
19.02500,661
19.03333,661
19.04167,661
19.05000,661
19.05833,661
19.06667,661
19.07500,661
19.08333,661
19.09167,661
19.10000,661
19.10833,661
19.11667,662
19.12500,662
19.13333,662
19.14167,662
19.15000,662
19.15833,663
19.16667,663
19.17500,663
19.18333,663
19.19167,663
19.20000,663
19.20833,663
19.21667,663
19.22500,664
19.23333,664
19.24167,665
19.25000,665
19.25833,665
19.26667,665
19.27500,665
19.28333,664
19.29167,664
19.30000,664
19.30833,664
19.31667,664
19.32500,665
19.33333,665
19.34167,666
19.35000,666
19.35833,667
19.36667,667
19.37500,667
19.38333,667
19.39167,668
19.40000,668
19.40833,668
19.41667,668
19.42500,668
19.43333,668
19.44167,669
19.45000,669
19.45833,669
19.46667,669
19.47500,669
19.48333,669
19.49167,669
19.50000,670
19.50833,670
19.51667,670
19.52500,671
19.53333,671
19.54167,671
19.55000,671
19.55833,671
19.56667,671
19.57500,671
19.58333,671
19.59167,672
19.60000,672
19.60833,672
19.61667,673
19.62500,673
19.63333,673
19.64167,673
19.65000,673
19.65833,673
19.66667,673
19.67500,673
19.68333,674
19.69167,674
19.70000,674
19.70833,674
19.71667,674
19.72500,674
19.73333,675
19.74167,675
19.75000,675
19.75833,675
19.76667,675
19.77500,675
19.78333,675
19.79167,676
19.80000,676
19.80833,676
19.81667,677
19.82500,677
19.83333,677
19.84167,677
19.85000,677
19.85833,678
19.86667,678
19.87500,678
19.88333,678
19.89167,678
19.90000,679
19.90833,679
19.91667,679
19.92500,679
19.93333,680
19.94167,680
19.95000,680
19.95833,681
19.96667,681
19.97500,681
19.98333,681
19.99167,681
20.00000,681
20.00833,681
20.01667,681
20.02500,681
20.03333,682
20.04167,682
20.05000,682
20.05833,682
20.06667,682
20.07500,682
20.08333,682
20.09167,683
20.10000,683
20.10833,683
20.11667,683
20.12500,683
20.13333,683
20.14167,684
20.15000,684
20.15833,684
20.16667,685
20.17500,685
20.18333,685
20.19167,685
20.20000,685
20.20833,686
20.21667,686
20.22500,686
20.23333,686
20.24167,686
20.25000,686
20.25833,687
20.26667,687
20.27500,688
20.28333,688
20.29167,688
20.30000,689
20.30833,689
20.31667,690
20.32500,690
20.33333,690
20.34167,690
20.35000,690
20.35833,691
20.36667,691
20.37500,691
20.38333,691
20.39167,692
20.40000,692
20.40833,692
20.41667,693
20.42500,693
20.43333,693
20.44167,694
20.45000,694
20.45833,694
20.46667,693
20.47500,693
20.48333,693
20.49167,693
20.50000,693
20.50833,694
20.51667,695
20.52500,695
20.53333,695
20.54167,695
20.55000,695
20.55833,695
20.56667,695
20.57500,696
20.58333,696
20.59167,696
20.60000,696
20.60833,696
20.61667,696
20.62500,696
20.63333,697
20.64167,697
20.65000,698
20.65833,698
20.66667,698
20.67500,699
20.68333,699
20.69167,699
20.70000,700
20.70833,700
20.71667,700
20.72500,700
20.73333,701
20.74167,701
20.75000,701
20.75833,701
20.76667,702
20.77500,702
20.78333,702
20.79167,702
20.80000,702
20.80833,702
20.81667,702
20.82500,701
20.83333,701
20.84167,701
20.85000,702
20.85833,702
20.86667,702
20.87500,702
20.88333,702
20.89167,703
20.90000,703
20.90833,703
20.91667,704
20.92500,704
20.93333,704
20.94167,705
20.95000,706
20.95833,706
20.96667,707
20.97500,707
20.98333,707
20.99167,707
21.00000,707
21.00833,707
21.01667,707
21.02500,708
21.03333,708
21.04167,708
21.05000,708
21.05833,707
21.06667,708
21.07500,708
21.08333,708
21.09167,709
21.10000,709
21.10833,709
21.11667,709
21.12500,709
21.13333,709
21.14167,709
21.15000,710
21.15833,710
21.16667,710
21.17500,710
21.18333,711
21.19167,711
21.20000,711
21.20833,711
21.21667,711
21.22500,712
21.23333,712
21.24167,713
21.25000,713
21.25833,713
21.26667,713
21.27500,713
21.28333,713
21.29167,713
21.30000,714
21.30833,714
21.31667,714
21.32500,715
21.33333,715
21.34167,715
21.35000,715
21.35833,715
21.36667,716
21.37500,715
21.38333,715
21.39167,716
21.40000,716
21.40833,717
21.41667,717
21.42500,717
21.43333,717
21.44167,717
21.45000,718
21.45833,718
21.46667,719
21.47500,719
21.48333,719
21.49167,720
21.50000,720
21.50833,720
21.51667,720
21.52500,720
21.53333,721
21.54167,721
21.55000,721
21.55833,721
21.56667,722
21.57500,722
21.58333,722
21.59167,723
21.60000,723
21.60833,723
21.61667,723
21.62500,723
21.63333,723
21.64167,723
21.65000,724
21.65833,724
21.66667,724
21.67500,724
21.68333,724
21.69167,724
21.70000,724
21.70833,725
21.71667,725
21.72500,725
21.73333,725
21.74167,726
21.75000,726
21.75833,727
21.76667,727
21.77500,727
21.78333,728
21.79167,728
21.80000,728
21.80833,728
21.81667,728
21.82500,728
21.83333,728
21.84167,728
21.85000,729
21.85833,729
21.86667,729
21.87500,730
21.88333,730
21.89167,731
21.90000,731
21.90833,731
21.91667,731
21.92500,731
21.93333,732
21.94167,732
21.95000,732
21.95833,733
21.96667,733
21.97500,733
21.98333,733
21.99167,733
22.00000,733
22.00833,733
22.01667,733
22.02500,733
22.03333,733
22.04167,734
22.05000,734
22.05833,735
22.06667,735
22.07500,735
22.08333,735
22.09167,735
22.10000,735
22.10833,735
22.11667,735
22.12500,735
22.13333,735
22.14167,736
22.15000,736
22.15833,736
22.16667,737
22.17500,737
22.18333,737
22.19167,737
22.20000,738
22.20833,738
22.21667,739
22.22500,739
22.23333,739
22.24167,739
22.25000,739
22.25833,739
22.26667,739
22.27500,740
22.28333,740
22.29167,740
22.30000,740
22.30833,740
22.31667,741
22.32500,741
22.33333,741
22.34167,742
22.35000,742
22.35833,742
22.36667,743
22.37500,743
22.38333,743
22.39167,743
22.40000,743
22.40833,743
22.41667,743
22.42500,743
22.43333,743
22.44167,744
22.45000,744
22.45833,744
22.46667,744
22.47500,744
22.48333,744
22.49167,744
22.50000,744
22.50833,745
22.51667,745
22.52500,746
22.53333,746
22.54167,746
22.55000,746
22.55833,747
22.56667,747
22.57500,747
22.58333,747
22.59167,747
22.60000,747
22.60833,747
22.61667,747
22.62500,748
22.63333,748
22.64167,749
22.65000,749
22.65833,749
22.66667,749
22.67500,749
22.68333,749
22.69167,749
22.70000,750
22.70833,750
22.71667,750
22.72500,750
22.73333,751
22.74167,751
22.75000,751
22.75833,752
22.76667,752
22.77500,752
22.78333,752
22.79167,752
22.80000,752
22.80833,752
22.81667,752
22.82500,752
22.83333,752
22.84167,752
22.85000,752
22.85833,752
22.86667,753
22.87500,753
22.88333,753
22.89167,753
22.90000,753
22.90833,753
22.91667,753
22.92500,754
22.93333,754
22.94167,754
22.95000,754
22.95833,754
22.96667,754
22.97500,753
22.98333,754
22.99167,754
23.00000,755
23.00833,755
23.01667,755
23.02500,755
23.03333,755
23.04167,755
23.05000,756
23.05833,756
23.06667,756
23.07500,756
23.08333,757
23.09167,757
23.10000,757
23.10833,757
23.11667,757
23.12500,757
23.13333,757
23.14167,757
23.15000,757
23.15833,757
23.16667,758
23.17500,758
23.18333,758
23.19167,759
23.20000,759
23.20833,759
23.21667,759
23.22500,759
23.23333,760
23.24167,760
23.25000,760
23.25833,760
23.26667,760
23.27500,760
23.28333,760
23.29167,760
23.30000,760
23.30833,761
23.31667,761
23.32500,761
23.33333,761
23.34167,761
23.35000,761
23.35833,761
23.36667,761
23.37500,762
23.38333,762
23.39167,762
23.40000,762
23.40833,763
23.41667,763
23.42500,763
23.43333,764
23.44167,764
23.45000,764
23.45833,764
23.46667,764
23.47500,764
23.48333,764
23.49167,765
23.50000,765
23.50833,765
23.51667,765
23.52500,765
23.53333,765
23.54167,765
23.55000,766
23.55833,766
23.56667,766
23.57500,766
23.58333,766
23.59167,767
23.60000,767
23.60833,767
23.61667,767
23.62500,768
23.63333,768
23.64167,768
23.65000,768
23.65833,769
23.66667,769
23.67500,769
23.68333,769
23.69167,769
23.70000,769
23.70833,770
23.71667,770
23.72500,770
23.73333,770
23.74167,770
23.75000,771
23.75833,771
23.76667,771
23.77500,771
23.78333,772
23.79167,772
23.80000,772
23.80833,772
23.81667,772
23.82500,773
23.83333,773
23.84167,773
23.85000,773
23.85833,774
23.86667,774
23.87500,775
23.88333,774
23.89167,775
23.90000,775
23.90833,775
23.91667,775
23.92500,776
23.93333,776
23.94167,776
23.95000,776
23.95833,776
23.96667,776
23.97500,776
23.98333,776
23.99167,777
24.00000,777
24.00833,777
24.01667,777
24.02500,777
24.03333,778
24.04167,779
24.05000,779
24.05833,779
24.06667,780
24.07500,780
24.08333,780
24.09167,780
24.10000,780
24.10833,780
24.11667,780
24.12500,780
24.13333,780
24.14167,781
24.15000,781
24.15833,781
24.16667,781
24.17500,781
24.18333,781
24.19167,781
24.20000,781
24.20833,782
24.21667,782
24.22500,782
24.23333,782
24.24167,783
24.25000,783
24.25833,783
24.26667,783
24.27500,783
24.28333,783
24.29167,783
24.30000,784
24.30833,784
24.31667,784
24.32500,784
24.33333,785
24.34167,786
24.35000,786
24.35833,786
24.36667,786
24.37500,786
24.38333,786
24.39167,786
24.40000,787
24.40833,787
24.41667,787
24.42500,787
24.43333,787
24.44167,788
24.45000,788
24.45833,788
24.46667,788
24.47500,788
24.48333,788
24.49167,789
24.50000,789
24.50833,790
24.51667,790
24.52500,790
24.53333,790
24.54167,790
24.55000,791
24.55833,791
24.56667,791
24.57500,791
24.58333,791
24.59167,790
24.60000,791
24.60833,791
24.61667,791
24.62500,791
24.63333,791
24.64167,791
24.65000,792
24.65833,792
24.66667,792
24.67500,792
24.68333,792
24.69167,792
24.70000,792
24.70833,792
24.71667,792
24.72500,793
24.73333,793
24.74167,793
24.75000,794
24.75833,794
24.76667,794
24.77500,795
24.78333,795
24.79167,795
24.80000,795
24.80833,795
24.81667,795
24.82500,795
24.83333,795
24.84167,795
24.85000,796
24.85833,796
24.86667,796
24.87500,796
24.88333,796
24.89167,796
24.90000,796
24.90833,797
24.91667,797
24.92500,797
24.93333,798
24.94167,798
24.95000,798
24.95833,798
24.96667,798
24.97500,799
24.98333,799
24.99167,799
25.00000,799
25.00833,799
25.01667,799
25.02500,799
25.03333,799
25.04167,799
25.05000,799
25.05833,799
25.06667,800
25.07500,800
25.08333,800
25.09167,800
25.10000,800
25.10833,800
25.11667,801
25.12500,801
25.13333,801
25.14167,801
25.15000,801
25.15833,801
25.16667,801
25.17500,801
25.18333,801
25.19167,802
25.20000,802
25.20833,802
25.21667,803
25.22500,803
25.23333,803
25.24167,803
25.25000,803
25.25833,803
25.26667,803
25.27500,803
25.28333,804
25.29167,804
25.30000,804
25.30833,804
25.31667,804
25.32500,804
25.33333,804
25.34167,805
25.35000,805
25.35833,805
25.36667,805
25.37500,805
25.38333,806
25.39167,806
25.40000,806
25.40833,806
25.41667,807
25.42500,807
25.43333,807
25.44167,807
25.45000,807
25.45833,807
25.46667,807
25.47500,807
25.48333,807
25.49167,807
25.50000,808
25.50833,808
25.51667,808
25.52500,808
25.53333,808
25.54167,808
25.55000,809
25.55833,809
25.56667,809
25.57500,809
25.58333,809
25.59167,810
25.60000,810
25.60833,810
25.61667,810
25.62500,810
25.63333,810
25.64167,810
25.65000,811
25.65833,811
25.66667,811
25.67500,812
25.68333,812
25.69167,812
25.70000,812
25.70833,813
25.71667,813
25.72500,813
25.73333,814
25.74167,814
25.75000,814
25.75833,814
25.76667,814
25.77500,814
25.78333,814
25.79167,814
25.80000,814
25.80833,814
25.81667,814
25.82500,815
25.83333,815
25.84167,815
25.85000,815
25.85833,814
25.86667,814
25.87500,814
25.88333,814
25.89167,815
25.90000,815
25.90833,815
25.91667,815
25.92500,815
25.93333,815
25.94167,815
25.95000,816
25.95833,816
25.96667,817
25.97500,817
25.98333,817
25.99167,818
26.00000,818
26.00833,818
26.01667,818
26.02500,818
26.03333,819
26.04167,819
26.05000,819
26.05833,819
26.06667,819
26.07500,819
26.08333,819
26.09167,819
26.10000,819
26.10833,820
26.11667,820
26.12500,820
26.13333,821
26.14167,821
26.15000,821
26.15833,821
26.16667,821
26.17500,822
26.18333,822
26.19167,822
26.20000,822
26.20833,823
26.21667,823
26.22500,823
26.23333,823
26.24167,823
26.25000,823
26.25833,823
26.26667,823
26.27500,823
26.28333,823
26.29167,823
26.30000,823
26.30833,824
26.31667,824
26.32500,824
26.33333,824
26.34167,824
26.35000,824
26.35833,824
26.36667,825
26.37500,825
26.38333,825
26.39167,825
26.40000,825
26.40833,825
26.41667,825
26.42500,826
26.43333,826
26.44167,826
26.45000,826
26.45833,826
26.46667,826
26.47500,826
26.48333,827
26.49167,827
26.50000,827
26.50833,828
26.51667,828
26.52500,828
26.53333,829
26.54167,829
26.55000,829
26.55833,829
26.56667,829
26.57500,829
26.58333,829
26.59167,830
26.60000,830
26.60833,830
26.61667,830
26.62500,830
26.63333,830
26.64167,830
26.65000,831
26.65833,831
26.66667,831
26.67500,831
26.68333,831
26.69167,831
26.70000,831
26.70833,831
26.71667,832
26.72500,832
26.73333,832
26.74167,832
26.75000,832
26.75833,832
26.76667,833
26.77500,833
26.78333,833
26.79167,833
26.80000,833
26.80833,833
26.81667,834
26.82500,834
26.83333,834
26.84167,834
26.85000,834
26.85833,834
26.86667,834
26.87500,834
26.88333,835
26.89167,835
26.90000,836
26.90833,836
26.91667,837
26.92500,837
26.93333,837
26.94167,837
26.95000,837
26.95833,838
26.96667,838
26.97500,838
26.98333,838
26.99167,838
27.00000,838
27.00833,838
27.01667,838
27.02500,838
27.03333,839
27.04167,839
27.05000,839
27.05833,839
27.06667,839
27.07500,839
27.08333,840
27.09167,839
27.10000,839
27.10833,840
27.11667,840
27.12500,841
27.13333,841
27.14167,841
27.15000,841
27.15833,841
27.16667,842
27.17500,842
27.18333,842
27.19167,842
27.20000,842
27.20833,842
27.21667,842
27.22500,842
27.23333,842
27.24167,843
27.25000,843
27.25833,843
27.26667,844
27.27500,844
27.28333,844
27.29167,844
27.30000,845
27.30833,845
27.31667,845
27.32500,845
27.33333,846
27.34167,846
27.35000,846
27.35833,846
27.36667,846
27.37500,846
27.38333,846
27.39167,846
27.40000,846
27.40833,847
27.41667,847
27.42500,847
27.43333,847
27.44167,847
27.45000,848
27.45833,848
27.46667,848
27.47500,848
27.48333,849
27.49167,849
27.50000,849
27.50833,849
27.51667,848
27.52500,848
27.53333,848
27.54167,848
27.55000,849
27.55833,849
27.56667,849
27.57500,849
27.58333,849
27.59167,849
27.60000,849
27.60833,849
27.61667,850
27.62500,850
27.63333,850
27.64167,850
27.65000,850
27.65833,849
27.66667,849
27.67500,849
27.68333,849
27.69167,849
27.70000,849
27.70833,849
27.71667,848
27.72500,848
27.73333,848
27.74167,848
27.75000,848
27.75833,848
27.76667,847
27.77500,847
27.78333,847
27.79167,847
27.80000,847
27.80833,846
27.81667,846
27.82500,845
27.83333,844
27.84167,843
27.85000,841
27.85833,840
27.86667,839
27.87500,838
27.88333,836
27.89167,835
27.90000,833
27.90833,831
27.91667,828
27.92500,825
27.93333,823
27.94167,820
27.95000,818
27.95833,815
27.96667,811
27.97500,808
27.98333,804
27.99167,799
28.00000,795
28.00833,790
28.01667,785
28.02500,780
28.03333,774
28.04167,768
28.05000,761
28.05833,755
28.06667,747
28.07500,739
28.08333,731
28.09167,723
28.10000,714
28.10833,705
28.11667,695
28.12500,685
28.13333,674
28.14167,663
28.15000,651
28.15833,639
28.16667,627
28.17500,614
28.18333,601
28.19167,587
28.20000,573
28.20833,558
28.21667,543
28.22500,528
28.23333,512
28.24167,496
28.25000,480
28.25833,464
28.26667,447
28.27500,430
28.28333,414
28.29167,397
28.30000,380
28.30833,362
28.31667,345
28.32500,327
28.33333,309
28.34167,292
28.35000,275
28.35833,258
28.36667,241
28.37500,225
28.38333,208
28.39167,192
28.40000,177
28.40833,162
28.41667,147
28.42500,132
28.43333,118
28.44167,105
28.45000,92
28.45833,81
28.46667,69
28.47500,58
28.48333,48
28.49167,38
28.50000,29
28.50833,21
28.51667,14
28.52500,7
28.53333,1
28.54167,-4
28.55000,-9
28.55833,-12
28.56667,-15
28.57500,-17
28.58333,-18
28.59167,-19
28.60000,-19
28.60833,-19
28.61667,-17
28.62500,-15
28.63333,-13
28.64167,-10
28.65000,-6
28.65833,-2
28.66667,3
28.67500,9
28.68333,14
28.69167,20
28.70000,27
28.70833,34
28.71667,41
28.72500,49
28.73333,57
28.74167,65
28.75000,74
28.75833,83
28.76667,91
28.77500,100
28.78333,109
28.79167,119
28.80000,128
28.80833,138
28.81667,147
28.82500,156
28.83333,165
28.84167,174
28.85000,183
28.85833,192
28.86667,201
28.87500,210
28.88333,219
28.89167,227
28.90000,236
28.90833,244
28.91667,253
28.92500,261
28.93333,269
28.94167,276
28.95000,284
28.95833,291
28.96667,298
28.97500,305
28.98333,312
28.99167,319
29.00000,325
29.00833,332
29.01667,338
29.02500,343
29.03333,349
29.04167,354
29.05000,359
29.05833,364
29.06667,370
29.07500,375
29.08333,380
29.09167,384
29.10000,389
29.10833,393
29.11667,398
29.12500,403
29.13333,407
29.14167,411
29.15000,415
29.15833,419
29.16667,422
29.17500,425
29.18333,429
29.19167,432
29.20000,435
29.20833,438
29.21667,441
29.22500,443
29.23333,446
29.24167,449
29.25000,451
29.25833,454
29.26667,457
29.27500,459
29.28333,462
29.29167,464
29.30000,467
29.30833,469
29.31667,471
29.32500,473
29.33333,476
29.34167,478
29.35000,480
29.35833,482
29.36667,484
29.37500,486
29.38333,488
29.39167,490
29.40000,491
29.40833,493
29.41667,495
29.42500,497
29.43333,499
29.44167,500
29.45000,502
29.45833,504
29.46667,505
29.47500,507
29.48333,508
29.49167,509
29.50000,511
29.50833,512
29.51667,513
29.52500,514
29.53333,515
29.54167,517
29.55000,518
29.55833,520
29.56667,521
29.57500,521
29.58333,522
29.59167,522
29.60000,523
29.60833,524
29.61667,525
29.62500,525
29.63333,526
29.64167,527
29.65000,527
29.65833,528
29.66667,528
29.67500,528
29.68333,527
29.69167,527
29.70000,527
29.70833,526
29.71667,525
29.72500,525
29.73333,523
29.74167,523
29.75000,522
29.75833,521
29.76667,520
29.77500,519
29.78333,517
29.79167,515
29.80000,514
29.80833,512
29.81667,510
29.82500,508
29.83333,505
29.84167,502
29.85000,499
29.85833,496
29.86667,494
29.87500,491
29.88333,487
29.89167,484
29.90000,481
29.90833,477
29.91667,473
29.92500,469
29.93333,465
29.94167,461
29.95000,457
29.95833,452
29.96667,448
29.97500,443
29.98333,438
29.99167,433
30.00000,427
30.00833,422
30.01667,417
30.02500,412
30.03333,406
30.04167,401
30.05000,396
30.05833,390
30.06667,385
30.07500,380
30.08333,374
30.09167,369
30.10000,364
30.10833,358
30.11667,353
30.12500,348
30.13333,343
30.14167,338
30.15000,333
30.15833,328
30.16667,323
30.17500,319
30.18333,315
30.19167,311
30.20000,307
30.20833,303
30.21667,300
30.22500,296
30.23333,293
30.24167,289
30.25000,287
30.25833,284
30.26667,282
30.27500,280
30.28333,278
30.29167,276
30.30000,275
30.30833,273
30.31667,272
30.32500,271
30.33333,270
30.34167,270
30.35000,270
30.35833,270
30.36667,270
30.37500,270
30.38333,270
30.39167,270
30.40000,271
30.40833,272
30.41667,273
30.42500,275
30.43333,277
30.44167,279
30.45000,281
30.45833,283
30.46667,286
30.47500,288
30.48333,290
30.49167,293
30.50000,296
30.50833,299
30.51667,301
30.52500,304
30.53333,307
30.54167,310
30.55000,313
30.55833,317
30.56667,320
30.57500,323
30.58333,327
30.59167,331
30.60000,334
30.60833,338
30.61667,341
30.62500,345
30.63333,348
30.64167,351
30.65000,355
30.65833,358
30.66667,361
30.67500,365
30.68333,368
30.69167,371
30.70000,374
30.70833,377
30.71667,379
30.72500,383
30.73333,386
30.74167,389
30.75000,392
30.75833,395
30.76667,397
30.77500,399
30.78333,402
30.79167,404
30.80000,407
30.80833,409
30.81667,412
30.82500,414
30.83333,416
30.84167,418
30.85000,420
30.85833,422
30.86667,424
30.87500,426
30.88333,428
30.89167,430
30.90000,431
30.90833,433
30.91667,435
30.92500,437
30.93333,439
30.94167,440
30.95000,442
30.95833,443
30.96667,444
30.97500,446
30.98333,447
30.99167,448
31.00000,450
31.00833,451
31.01667,452
31.02500,454
31.03333,455
31.04167,457
31.05000,458
31.05833,459
31.06667,460
31.07500,461
31.08333,462
31.09167,463
31.10000,464
31.10833,465
31.11667,466
31.12500,467
31.13333,468
31.14167,470
31.15000,471
31.15833,472
31.16667,473
31.17500,474
31.18333,475
31.19167,476
31.20000,477
31.20833,478
31.21667,479
31.22500,480
31.23333,481
31.24167,482
31.25000,482
31.25833,483
31.26667,484
31.27500,485
31.28333,487
31.29167,488
31.30000,489
31.30833,489
31.31667,491
31.32500,492
31.33333,493
31.34167,494
31.35000,495
31.35833,496
31.36667,498
31.37500,498
31.38333,499
31.39167,500
31.40000,501
31.40833,502
31.41667,503
31.42500,504
31.43333,504
31.44167,505
31.45000,506
31.45833,507
31.46667,509
31.47500,510
31.48333,510
31.49167,511
31.50000,512
31.50833,513
31.51667,514
31.52500,515
31.53333,516
31.54167,517
31.55000,518
31.55833,519
31.56667,520
31.57500,521
31.58333,522
31.59167,522
31.60000,523
31.60833,524
31.61667,525
31.62500,525
31.63333,526
31.64167,527
31.65000,528
31.65833,529
31.66667,530
31.67500,531
31.68333,532
31.69167,533
31.70000,534
31.70833,535
31.71667,536
31.72500,537
31.73333,538
31.74167,539
31.75000,540
31.75833,541
31.76667,542
31.77500,543
31.78333,544
31.79167,544
31.80000,545
31.80833,546
31.81667,546
31.82500,547
31.83333,548
31.84167,549
31.85000,550
31.85833,552
31.86667,552
31.87500,553
31.88333,554
31.89167,556
31.90000,556
31.90833,557
31.91667,558
31.92500,558
31.93333,559
31.94167,560
31.95000,562
31.95833,563
31.96667,565
31.97500,565
31.98333,566
31.99167,566
32.00000,567
32.00833,568
32.01667,569
32.02500,570
32.03333,571
32.04167,572
32.05000,573
32.05833,574
32.06667,575
32.07500,576
32.08333,577
32.09167,578
32.10000,579
32.10833,579
32.11667,580
32.12500,581
32.13333,582
32.14167,583
32.15000,584
32.15833,585
32.16667,587
32.17500,588
32.18333,588
32.19167,589
32.20000,590
32.20833,591
32.21667,592
32.22500,593
32.23333,594
32.24167,595
32.25000,596
32.25833,597
32.26667,597
32.27500,598
32.28333,599
32.29167,600
32.30000,601
32.30833,602
32.31667,603
32.32500,603
32.33333,604
32.34167,605
32.35000,606
32.35833,606
32.36667,607
32.37500,608
32.38333,610
32.39167,611
32.40000,611
32.40833,612
32.41667,614
32.42500,614
32.43333,615
32.44167,616
32.45000,617
32.45833,618
32.46667,618
32.47500,619
32.48333,619
32.49167,620
32.50000,622
32.50833,623
32.51667,624
32.52500,625
32.53333,627
32.54167,628
32.55000,629
32.55833,630
32.56667,631
32.57500,631
32.58333,632
32.59167,633
32.60000,634
32.60833,635
32.61667,636
32.62500,636
32.63333,637
32.64167,638
32.65000,639
32.65833,640
32.66667,641
32.67500,642
32.68333,643
32.69167,643
32.70000,644
32.70833,645
32.71667,645
32.72500,646
32.73333,647
32.74167,648
32.75000,649
32.75833,651
32.76667,652
32.77500,653
32.78333,654
32.79167,655
32.80000,656
32.80833,657
32.81667,658
32.82500,658
32.83333,659
32.84167,660
32.85000,661
32.85833,661
32.86667,662
32.87500,663
32.88333,664
32.89167,665
32.90000,666
32.90833,667
32.91667,668
32.92500,669
32.93333,670
32.94167,671
32.95000,672
32.95833,673
32.96667,674
32.97500,675
32.98333,676
32.99167,676
33.00000,677
33.00833,678
33.01667,679
33.02500,680
33.03333,680
33.04167,681
33.05000,682
33.05833,683
33.06667,684
33.07500,684
33.08333,685
33.09167,686
33.10000,687
33.10833,688
33.11667,689
33.12500,690
33.13333,691
33.14167,692
33.15000,693
33.15833,694
33.16667,695
33.17500,696
33.18333,697
33.19167,698
33.20000,699
33.20833,700
33.21667,701
33.22500,702
33.23333,702
33.24167,703
33.25000,704
33.25833,705
33.26667,706
33.27500,707
33.28333,707
33.29167,708
33.30000,710
33.30833,711
33.31667,712
33.32500,712
33.33333,713
33.34167,714
33.35000,715
33.35833,716
33.36667,717
33.37500,718
33.38333,719
33.39167,720
33.40000,721
33.40833,722
33.41667,722
33.42500,723
33.43333,724
33.44167,725
33.45000,726
33.45833,727
33.46667,728
33.47500,729
33.48333,730
33.49167,730
33.50000,731
33.50833,732
33.51667,733
33.52500,734
33.53333,735
33.54167,736
33.55000,736
33.55833,737
33.56667,738
33.57500,739
33.58333,740
33.59167,741
33.60000,742
33.60833,743
33.61667,744
33.62500,745
33.63333,745
33.64167,746
33.65000,747
33.65833,747
33.66667,748
33.67500,749
33.68333,750
33.69167,750
33.70000,751
33.70833,752
33.71667,753
33.72500,754
33.73333,755
33.74167,756
33.75000,756
33.75833,757
33.76667,758
33.77500,759
33.78333,759
33.79167,760
33.80000,761
33.80833,762
33.81667,763
33.82500,764
33.83333,765
33.84167,765
33.85000,766
33.85833,767
33.86667,767
33.87500,768
33.88333,769
33.89167,769
33.90000,770
33.90833,771
33.91667,772
33.92500,773
33.93333,773
33.94167,774
33.95000,775
33.95833,776
33.96667,777
33.97500,778
33.98333,778
33.99167,779
34.00000,780
34.00833,781
34.01667,782
34.02500,783
34.03333,783
34.04167,784
34.05000,784
34.05833,785
34.06667,785
34.07500,785
34.08333,786
34.09167,786
34.10000,787
34.10833,787
34.11667,788
34.12500,789
34.13333,790
34.14167,791
34.15000,792
34.15833,793
34.16667,794
34.17500,794
34.18333,795
34.19167,796
34.20000,797
34.20833,798
34.21667,798
34.22500,799
34.23333,800
34.24167,800
34.25000,801
34.25833,802
34.26667,803
34.27500,803
34.28333,804
34.29167,805
34.30000,806
34.30833,806
34.31667,807
34.32500,807
34.33333,808
34.34167,809
34.35000,809
34.35833,810
34.36667,811
34.37500,812
34.38333,812
34.39167,813
34.40000,813
34.40833,814
34.41667,815
34.42500,816
34.43333,817
34.44167,818
34.45000,818
34.45833,819
34.46667,820
34.47500,821
34.48333,822
34.49167,823
34.50000,823
34.50833,824
34.51667,824
34.52500,825
34.53333,826
34.54167,827
34.55000,828
34.55833,828
34.56667,828
34.57500,829
34.58333,829
34.59167,830
34.60000,830
34.60833,831
34.61667,831
34.62500,832
34.63333,832
34.64167,833
34.65000,833
34.65833,834
34.66667,835
34.67500,836
34.68333,837
34.69167,838
34.70000,838
34.70833,839
34.71667,839
34.72500,840
34.73333,840
34.74167,841
34.75000,841
34.75833,842
34.76667,842
34.77500,843
34.78333,844
34.79167,844
34.80000,845
34.80833,846
34.81667,846
34.82500,847
34.83333,848
34.84167,848
34.85000,849
34.85833,849
34.86667,850
34.87500,850
34.88333,851
34.89167,852
34.90000,852
34.90833,853
34.91667,854
34.92500,854
34.93333,855
34.94167,855
34.95000,856
34.95833,856
34.96667,857
34.97500,857
34.98333,858
34.99167,858
35.00000,858
35.00833,858
35.01667,859
35.02500,860
35.03333,860
35.04167,861
35.05000,861
35.05833,862
35.06667,863
35.07500,863
35.08333,864
35.09167,865
35.10000,865
35.10833,866
35.11667,866
35.12500,867
35.13333,867
35.14167,868
35.15000,869
35.15833,869
35.16667,870
35.17500,870
35.18333,871
35.19167,872
35.20000,872
35.20833,873
35.21667,873
35.22500,874
35.23333,875
35.24167,876
35.25000,876
35.25833,877
35.26667,877
35.27500,878
35.28333,879
35.29167,879
35.30000,880
35.30833,880
35.31667,881
35.32500,881
35.33333,882
35.34167,882
35.35000,882
35.35833,883
35.36667,884
35.37500,884
35.38333,885
35.39167,885
35.40000,886
35.40833,886
35.41667,887
35.42500,887
35.43333,888
35.44167,888
35.45000,888
35.45833,889
35.46667,889
35.47500,890
35.48333,891
35.49167,891
35.50000,892
35.50833,893
35.51667,893
35.52500,893
35.53333,894
35.54167,895
35.55000,895
35.55833,896
35.56667,897
35.57500,897
35.58333,897
35.59167,898
35.60000,898
35.60833,899
35.61667,899
35.62500,900
35.63333,900
35.64167,901
35.65000,901
35.65833,902
35.66667,902
35.67500,902
35.68333,903
35.69167,903
35.70000,904
35.70833,904
35.71667,904
35.72500,905
35.73333,905
35.74167,905
35.75000,906
35.75833,906
35.76667,907
35.77500,907
35.78333,908
35.79167,909
35.80000,909
35.80833,909
35.81667,909
35.82500,909
35.83333,910
35.84167,910
35.85000,911
35.85833,911
35.86667,912
35.87500,912
35.88333,913
35.89167,914
35.90000,914
35.90833,915
35.91667,915
35.92500,915
35.93333,916
35.94167,916
35.95000,917
35.95833,917
35.96667,918
35.97500,918
35.98333,919
35.99167,920
36.00000,920
36.00833,920
36.01667,921
36.02500,921
36.03333,921
36.04167,922
36.05000,923
36.05833,923
36.06667,924
36.07500,924
36.08333,924
36.09167,925
36.10000,925
36.10833,926
36.11667,926
36.12500,927
36.13333,927
36.14167,927
36.15000,928
36.15833,928
36.16667,928
36.17500,929
36.18333,929
36.19167,930
36.20000,930
36.20833,930
36.21667,931
36.22500,932
36.23333,932
36.24167,933
36.25000,933
36.25833,933
36.26667,934
36.27500,934
36.28333,934
36.29167,935
36.30000,935
36.30833,935
36.31667,936
36.32500,936
36.33333,937
36.34167,938
36.35000,939
36.35833,940
36.36667,940
36.37500,940
36.38333,941
36.39167,941
36.40000,942
36.40833,942
36.41667,942
36.42500,943
36.43333,943
36.44167,944
36.45000,944
36.45833,945
36.46667,945
36.47500,946
36.48333,946
36.49167,947
36.50000,948
36.50833,949
36.51667,949
36.52500,949
36.53333,949
36.54167,950
36.55000,950
36.55833,951
36.56667,951
36.57500,952
36.58333,953
36.59167,953
36.60000,954
36.60833,954
36.61667,955
36.62500,956
36.63333,956
36.64167,957
36.65000,958
36.65833,958
36.66667,959
36.67500,960
36.68333,960
36.69167,961
36.70000,962
36.70833,962
36.71667,963
36.72500,964
36.73333,965
36.74167,966
36.75000,967
36.75833,968
36.76667,969
36.77500,970
36.78333,971
36.79167,972
36.80000,973
36.80833,974
36.81667,975
36.82500,976
36.83333,977
36.84167,978
36.85000,979
36.85833,980
36.86667,981
36.87500,982
36.88333,984
36.89167,985
36.90000,987
36.90833,988
36.91667,990
36.92500,991
36.93333,992
36.94167,994
36.95000,995
36.95833,996
36.96667,998
36.97500,1000
36.98333,1002
36.99167,1003
37.00000,1005
37.00833,1006
37.01667,1008
37.02500,1009
37.03333,1010
37.04167,1012
37.05000,1013
37.05833,1014
37.06667,1016
37.07500,1017
37.08333,1019
37.09167,1020
37.10000,1022
37.10833,1023
37.11667,1024
37.12500,1026
37.13333,1027
37.14167,1028
37.15000,1030
37.15833,1031
37.16667,1032
37.17500,1034
37.18333,1035
37.19167,1036
37.20000,1037
37.20833,1038
37.21667,1039
37.22500,1040
37.23333,1041
37.24167,1041
37.25000,1041
37.25833,1042
37.26667,1042
37.27500,1043
37.28333,1043
37.29167,1044
37.30000,1044
37.30833,1045
37.31667,1045
37.32500,1046
37.33333,1046
37.34167,1046
37.35000,1046
37.35833,1047
37.36667,1047
37.37500,1047
37.38333,1047
37.39167,1047
37.40000,1047
37.40833,1047
37.41667,1047
37.42500,1047
37.43333,1047
37.44167,1046
37.45000,1046
37.45833,1045
37.46667,1044
37.47500,1044
37.48333,1043
37.49167,1042
37.50000,1042
37.50833,1041
37.51667,1040
37.52500,1040
37.53333,1040
37.54167,1039
37.55000,1039
37.55833,1038
37.56667,1037
37.57500,1036
37.58333,1035
37.59167,1034
37.60000,1033
37.60833,1032
37.61667,1031
37.62500,1030
37.63333,1029
37.64167,1028
37.65000,1027
37.65833,1026
37.66667,1025
37.67500,1024
37.68333,1023
37.69167,1022
37.70000,1021
37.70833,1020
37.71667,1019
37.72500,1018
37.73333,1017
37.74167,1016
37.75000,1015
37.75833,1013
37.76667,1012
37.77500,1012
37.78333,1011
37.79167,1010
37.80000,1009
37.80833,1008
37.81667,1008
37.82500,1007
37.83333,1006
37.84167,1005
37.85000,1004
37.85833,1003
37.86667,1002
37.87500,1002
37.88333,1001
37.89167,1000
37.90000,999
37.90833,999
37.91667,998
37.92500,997
37.93333,996
37.94167,996
37.95000,995
37.95833,994
37.96667,993
37.97500,993
37.98333,993
37.99167,992
38.00000,992
38.00833,991
38.01667,990
38.02500,990
38.03333,989
38.04167,989
38.05000,988
38.05833,987
38.06667,987
38.07500,987
38.08333,986
38.09167,986
38.10000,985
38.10833,985
38.11667,984
38.12500,984
38.13333,984
38.14167,984
38.15000,985
38.15833,984
38.16667,984
38.17500,984
38.18333,983
38.19167,983
38.20000,983
38.20833,983
38.21667,983
38.22500,983
38.23333,982
38.24167,982
38.25000,981
38.25833,981
38.26667,981
38.27500,981
38.28333,981
38.29167,981
38.30000,982
38.30833,982
38.31667,981
38.32500,981
38.33333,981
38.34167,981
38.35000,981
38.35833,981
38.36667,981
38.37500,981
38.38333,981
38.39167,981
38.40000,981
38.40833,982
38.41667,982
38.42500,981
38.43333,982
38.44167,982
38.45000,982
38.45833,982
38.46667,982
38.47500,983
38.48333,982
38.49167,982
38.50000,983
38.50833,983
38.51667,983
38.52500,983
38.53333,983
38.54167,983
38.55000,983
38.55833,983
38.56667,983
38.57500,983
38.58333,983
38.59167,983
38.60000,984
38.60833,983
38.61667,983
38.62500,984
38.63333,984
38.64167,984
38.65000,984
38.65833,985
38.66667,985
38.67500,985
38.68333,985
38.69167,985
38.70000,985
38.70833,985
38.71667,985
38.72500,985
38.73333,985
38.74167,985
38.75000,985
38.75833,985
38.76667,986
38.77500,986
38.78333,986
38.79167,986
38.80000,986
38.80833,986
38.81667,986
38.82500,986
38.83333,986
38.84167,986
38.85000,986
38.85833,986
38.86667,987
38.87500,987
38.88333,987
38.89167,987
38.90000,988
38.90833,988
38.91667,988
38.92500,988
38.93333,988
38.94167,988
38.95000,989
38.95833,989
38.96667,989
38.97500,989
38.98333,989
38.99167,989
39.00000,989
39.00833,989
39.01667,990
39.02500,990
39.03333,990
39.04167,989
39.05000,989
39.05833,990
39.06667,990
39.07500,990
39.08333,990
39.09167,990
39.10000,990
39.10833,991
39.11667,991
39.12500,991
39.13333,991
39.14167,991
39.15000,991
39.15833,991
39.16667,992
39.17500,992
39.18333,992
39.19167,992
39.20000,992
39.20833,991
39.21667,991
39.22500,992
39.23333,992
39.24167,992
39.25000,992
39.25833,993
39.26667,993
39.27500,993
39.28333,993
39.29167,992
39.30000,992
39.30833,992
39.31667,993
39.32500,993
39.33333,993
39.34167,994
39.35000,993
39.35833,993
39.36667,993
39.37500,993
39.38333,993
39.39167,993
39.40000,993
39.40833,993
39.41667,994
39.42500,994
39.43333,994
39.44167,995
39.45000,995
39.45833,995
39.46667,995
39.47500,995
39.48333,996
39.49167,996
39.50000,996
39.50833,996
39.51667,996
39.52500,996
39.53333,996
39.54167,997
39.55000,997
39.55833,997
39.56667,997
39.57500,997
39.58333,998
39.59167,998
39.60000,998
39.60833,998
39.61667,998
39.62500,998
39.63333,998
39.64167,998
39.65000,998
39.65833,999
39.66667,999
39.67500,999
39.68333,999
39.69167,999
39.70000,998
39.70833,999
39.71667,999
39.72500,999
39.73333,999
39.74167,999
39.75000,999
39.75833,999
39.76667,999
39.77500,999
39.78333,999
39.79167,998
39.80000,998
39.80833,998
39.81667,998
39.82500,998
39.83333,998
39.84167,998
39.85000,999
39.85833,999
39.86667,999
39.87500,999
39.88333,1000
39.89167,1000
39.90000,1001
39.90833,1001
39.91667,1001
39.92500,1001
39.93333,1002
39.94167,1002
39.95000,1001
39.95833,1001
39.96667,1001
39.97500,1001
39.98333,1001
39.99167,1000
40.00000,1001
40.00833,1001
40.01667,1001
40.02500,1001
40.03333,1001
40.04167,1001
40.05000,1001
40.05833,1001
40.06667,1001
40.07500,1001
40.08333,1001
40.09167,1001
40.10000,1001
40.10833,1001
40.11667,1001
40.12500,1001
40.13333,1001
40.14167,1002
40.15000,1002
40.15833,1002
40.16667,1002
40.17500,1002
40.18333,1002
40.19167,1003
40.20000,1003
40.20833,1003
40.21667,1003
40.22500,1003
40.23333,1004
40.24167,1004
40.25000,1003
40.25833,1003
40.26667,1003
40.27500,1003
40.28333,1004
40.29167,1004
40.30000,1004
40.30833,1005
40.31667,1005
40.32500,1004
40.33333,1004
40.34167,1004
40.35000,1005
40.35833,1005
40.36667,1005
40.37500,1005
40.38333,1004
40.39167,1004
40.40000,1004
40.40833,1004
40.41667,1004
40.42500,1004
40.43333,1005
40.44167,1005
40.45000,1005
40.45833,1005
40.46667,1005
40.47500,1005
40.48333,1005
40.49167,1005
40.50000,1005
40.50833,1005
40.51667,1006
40.52500,1006
40.53333,1006
40.54167,1006
40.55000,1006
40.55833,1006
40.56667,1006
40.57500,1006
40.58333,1006
40.59167,1005
40.60000,1006
40.60833,1006
40.61667,1006
40.62500,1007
40.63333,1007
40.64167,1007
40.65000,1008
40.65833,1008
40.66667,1007
40.67500,1007
40.68333,1007
40.69167,1007
40.70000,1007
40.70833,1007
40.71667,1007
40.72500,1007
40.73333,1007
40.74167,1007
40.75000,1007
40.75833,1007
40.76667,1007
40.77500,1007
40.78333,1007
40.79167,1007
40.80000,1007
40.80833,1008
40.81667,1008
40.82500,1008
40.83333,1008
40.84167,1008
40.85000,1008
40.85833,1009
40.86667,1009
40.87500,1009
40.88333,1009
40.89167,1009
40.90000,1009
40.90833,1009
40.91667,1009
40.92500,1009
40.93333,1009
40.94167,1009
40.95000,1010
40.95833,1010
40.96667,1010
40.97500,1010
40.98333,1010
40.99167,1010
41.00000,1010
41.00833,1010
41.01667,1010
41.02500,1010
41.03333,1010
41.04167,1010
41.05000,1010
41.05833,1010
41.06667,1010
41.07500,1010
41.08333,1010
41.09167,1010
41.10000,1010
41.10833,1010
41.11667,1010
41.12500,1011
41.13333,1011
41.14167,1011
41.15000,1011
41.15833,1011
41.16667,1011
41.17500,1011
41.18333,1011
41.19167,1011
41.20000,1012
41.20833,1012
41.21667,1012
41.22500,1012
41.23333,1012
41.24167,1012
41.25000,1012
41.25833,1012
41.26667,1012
41.27500,1012
41.28333,1013
41.29167,1013
41.30000,1013
41.30833,1013
41.31667,1013
41.32500,1013
41.33333,1013
41.34167,1013
41.35000,1013
41.35833,1013
41.36667,1013
41.37500,1013
41.38333,1013
41.39167,1013
41.40000,1013
41.40833,1013
41.41667,1014
41.42500,1014
41.43333,1015
41.44167,1015
41.45000,1015
41.45833,1015
41.46667,1015
41.47500,1015
41.48333,1015
41.49167,1015
41.50000,1015
41.50833,1015
41.51667,1015
41.52500,1015
41.53333,1014
41.54167,1014
41.55000,1014
41.55833,1014
41.56667,1015
41.57500,1015
41.58333,1015
41.59167,1015
41.60000,1015
41.60833,1016
41.61667,1016
41.62500,1016
41.63333,1016
41.64167,1016
41.65000,1016
41.65833,1016
41.66667,1017
41.67500,1017
41.68333,1016
41.69167,1016
41.70000,1017
41.70833,1017
41.71667,1017
41.72500,1017
41.73333,1017
41.74167,1017
41.75000,1018
41.75833,1018
41.76667,1018
41.77500,1019
41.78333,1019
41.79167,1019
41.80000,1019
41.80833,1019
41.81667,1019
41.82500,1018
41.83333,1018
41.84167,1019
41.85000,1019
41.85833,1018
41.86667,1018
41.87500,1018
41.88333,1018
41.89167,1018
41.90000,1018
41.90833,1018
41.91667,1018
41.92500,1018
41.93333,1018
41.94167,1018
41.95000,1018
41.95833,1018
41.96667,1018
41.97500,1018
41.98333,1018
41.99167,1019
42.00000,1019
42.00833,1019
42.01667,1018
42.02500,1018
42.03333,1018
42.04167,1019
42.05000,1019
42.05833,1019
42.06667,1019
42.07500,1019
42.08333,1018
42.09167,1018
42.10000,1019
42.10833,1019
42.11667,1019
42.12500,1019
42.13333,1020
42.14167,1020
42.15000,1020
42.15833,1021
42.16667,1021
42.17500,1021
42.18333,1021
42.19167,1020
42.20000,1020
42.20833,1020
42.21667,1019
42.22500,1019
42.23333,1019
42.24167,1019
42.25000,1019
42.25833,1019
42.26667,1019
42.27500,1019
42.28333,1020
42.29167,1020
42.30000,1020
42.30833,1020
42.31667,1021
42.32500,1021
42.33333,1021
42.34167,1021
42.35000,1021
42.35833,1021
42.36667,1021
42.37500,1021
42.38333,1021
42.39167,1021
42.40000,1021
42.40833,1021
42.41667,1022
42.42500,1022
42.43333,1022
42.44167,1022
42.45000,1022
42.45833,1021
42.46667,1021
42.47500,1021
42.48333,1021
42.49167,1022
42.50000,1022
42.50833,1022
42.51667,1023
42.52500,1023
42.53333,1023
42.54167,1023
42.55000,1023
42.55833,1023
42.56667,1023
42.57500,1023
42.58333,1023
42.59167,1023
42.60000,1023
42.60833,1023
42.61667,1023
42.62500,1023
42.63333,1023
42.64167,1023
42.65000,1023
42.65833,1023
42.66667,1023
42.67500,1023
42.68333,1023
42.69167,1024
42.70000,1024
42.70833,1024
42.71667,1024
42.72500,1024
42.73333,1024
42.74167,1024
42.75000,1024
42.75833,1023
42.76667,1023
42.77500,1023
42.78333,1023
42.79167,1024
42.80000,1024
42.80833,1024
42.81667,1024
42.82500,1025
42.83333,1025
42.84167,1024
42.85000,1024
42.85833,1024
42.86667,1024
42.87500,1024
42.88333,1024
42.89167,1024
42.90000,1025
42.90833,1025
42.91667,1025
42.92500,1025
42.93333,1025
42.94167,1024
42.95000,1025
42.95833,1025
42.96667,1025
42.97500,1025
42.98333,1025
42.99167,1025
43.00000,1025
43.00833,1025
43.01667,1025
43.02500,1026
43.03333,1026
43.04167,1026
43.05000,1026
43.05833,1026
43.06667,1026
43.07500,1026
43.08333,1027
43.09167,1027
43.10000,1027
43.10833,1027
43.11667,1027
43.12500,1027
43.13333,1027
43.14167,1027
43.15000,1027
43.15833,1027
43.16667,1026
43.17500,1026
43.18333,1026
43.19167,1026
43.20000,1026
43.20833,1026
43.21667,1027
43.22500,1027
43.23333,1027
43.24167,1027
43.25000,1027
43.25833,1027
43.26667,1027
43.27500,1027
43.28333,1027
43.29167,1027
43.30000,1027
43.30833,1027
43.31667,1027
43.32500,1027
43.33333,1027
43.34167,1027
43.35000,1027
43.35833,1028
43.36667,1028
43.37500,1028
43.38333,1028
43.39167,1028
43.40000,1028
43.40833,1028
43.41667,1028
43.42500,1028
43.43333,1028
43.44167,1028
43.45000,1029
43.45833,1029
43.46667,1028
43.47500,1029
43.48333,1028
43.49167,1028
43.50000,1029
43.50833,1029
43.51667,1029
43.52500,1029
43.53333,1029
43.54167,1030
43.55000,1030
43.55833,1030
43.56667,1030
43.57500,1030
43.58333,1030
43.59167,1030
43.60000,1029
43.60833,1029
43.61667,1029
43.62500,1029
43.63333,1029
43.64167,1029
43.65000,1029
43.65833,1029
43.66667,1029
43.67500,1029
43.68333,1029
43.69167,1029
43.70000,1029
43.70833,1029
43.71667,1029
43.72500,1030
43.73333,1030
43.74167,1030
43.75000,1030
43.75833,1030
43.76667,1030
43.77500,1030
43.78333,1030
43.79167,1030
43.80000,1030
43.80833,1030
43.81667,1030
43.82500,1030
43.83333,1030
43.84167,1031
43.85000,1031
43.85833,1032
43.86667,1032
43.87500,1032
43.88333,1031
43.89167,1031
43.90000,1031
43.90833,1031
43.91667,1031
43.92500,1031
43.93333,1030
43.94167,1030
43.95000,1030
43.95833,1030
43.96667,1030
43.97500,1030
43.98333,1031
43.99167,1031
44.00000,1031
44.00833,1031
44.01667,1031
44.02500,1031
44.03333,1031
44.04167,1031
44.05000,1031
44.05833,1031
44.06667,1031
44.07500,1031
44.08333,1031
44.09167,1030
44.10000,1030
44.10833,1031
44.11667,1031
44.12500,1031
44.13333,1032
44.14167,1032
44.15000,1032
44.15833,1032
44.16667,1032
44.17500,1032
44.18333,1032
44.19167,1032
44.20000,1032
44.20833,1032
44.21667,1032
44.22500,1032
44.23333,1032
44.24167,1033
44.25000,1033
44.25833,1033
44.26667,1033
44.27500,1033
44.28333,1033
44.29167,1033
44.30000,1033
44.30833,1033
44.31667,1033
44.32500,1033
44.33333,1033
44.34167,1033
44.35000,1034
44.35833,1034
44.36667,1034
44.37500,1034
44.38333,1034
44.39167,1034
44.40000,1034
44.40833,1034
44.41667,1034
44.42500,1034
44.43333,1034
44.44167,1034
44.45000,1034
44.45833,1034
44.46667,1034
44.47500,1034
44.48333,1034
44.49167,1033
44.50000,1033
44.50833,1034
44.51667,1034
44.52500,1034
44.53333,1034
44.54167,1034
44.55000,1034
44.55833,1035
44.56667,1035
44.57500,1035
44.58333,1035
44.59167,1036
44.60000,1036
44.60833,1036
44.61667,1036
44.62500,1036
44.63333,1036
44.64167,1036
44.65000,1036
44.65833,1036
44.66667,1036
44.67500,1036
44.68333,1036
44.69167,1036
44.70000,1036
44.70833,1036
44.71667,1036
44.72500,1036
44.73333,1036
44.74167,1036
44.75000,1036
44.75833,1036
44.76667,1036
44.77500,1036
44.78333,1036
44.79167,1036
44.80000,1036
44.80833,1037
44.81667,1037
44.82500,1037
44.83333,1037
44.84167,1037
44.85000,1037
44.85833,1037
44.86667,1037
44.87500,1037
44.88333,1037
44.89167,1038
44.90000,1038
44.90833,1039
44.91667,1039
44.92500,1039
44.93333,1039
44.94167,1038
44.95000,1038
44.95833,1038
44.96667,1039
44.97500,1039
44.98333,1039
44.99167,1039
45.00000,1038

