[Header]
Application Name,LabSolutions
Version,5.97 SP1
Data File Name,C:\Users\cremerlab\Desktop\batch_template_3182021_001_001.lcd
Output Date,3/18/2021
Output Time,12:13:56 PM

[File Information]
Type,Data File
Generated,3/18/2021 11:28:37 AM
Generated by,System Administrator
Modified,3/18/2021 12:13:56 PM
Modified by,System Administrator

[Sample Information]
Operator Name,System Administrator
Acquired,3/18/2021 11:28:55 AM
Sample Type,1:Standard
Level,1
Sample Name,2021-03-18_water001
Sample ID,001
ISTD Amount1,1
ISTD Amount2,1
ISTD Amount3,1
ISTD Amount4,1
ISTD Amount5,1
ISTD Amount6,1
ISTD Amount7,1
ISTD Amount8,1
ISTD Amount9,1
ISTD Amount10,1
ISTD Amount11,1
ISTD Amount12,1
ISTD Amount13,1
ISTD Amount14,1
ISTD Amount15,1
ISTD Amount16,1
ISTD Amount17,1
ISTD Amount18,1
ISTD Amount19,1
ISTD Amount20,1
ISTD Amount21,1
ISTD Amount22,1
ISTD Amount23,1
ISTD Amount24,1
ISTD Amount25,1
ISTD Amount26,1
ISTD Amount27,1
ISTD Amount28,1
ISTD Amount29,1
ISTD Amount30,1
ISTD Amount31,1
ISTD Amount32,1
Sample Amount,1
Dilution Factor,1
Vial#,1
Injection Volume,20

[Original Files]
Data File,C:\Users\cremerlab\Desktop\batch_template_3182021_001_001.lcd
Method File,C:\LabSolutions\Data\Project1\organicacidsetc2.lcm
Batch File,C:\Users\cremerlab\Desktop\batch_template.lcb
Report Format File,c:\LabSolutions\System\DEFAULT.lsr

[File Description]


[Configuration]
Instrument Name,HPLC-PC-Instrument1
Instrument #,1
Line #,1
# of Detectors,2
Detector ID,Detector A,Detector B
Detector Name,Detector A,Detector B
# of Channels,1,1

[LC Chromatogram(Detector B-Ch1)]
Interval(msec),500
# of Points,5401
Start Time(min),0.000
End Time(min),45.000
Intensity Units,mV
Intensity Multiplier,0.001
R.Time (min),Intensity
0.00000,-6
0.00833,-6
0.01667,-0
0.02500,2
0.03333,5
0.04167,8
0.05000,10
0.05833,10
0.06667,8
0.07500,6
0.08333,4
0.09167,3
0.10000,2
0.10833,2
0.11667,2
0.12500,1
0.13333,1
0.14167,2
0.15000,2
0.15833,2
0.16667,1
0.17500,0
0.18333,-0
0.19167,-1
0.20000,-2
0.20833,-4
0.21667,-6
0.22500,-7
0.23333,-8
0.24167,-9
0.25000,-9
0.25833,-8
0.26667,-7
0.27500,-6
0.28333,-6
0.29167,-6
0.30000,-7
0.30833,-8
0.31667,-9
0.32500,-10
0.33333,-11
0.34167,-12
0.35000,-13
0.35833,-14
0.36667,-15
0.37500,-15
0.38333,-15
0.39167,-16
0.40000,-17
0.40833,-17
0.41667,-18
0.42500,-18
0.43333,-18
0.44167,-19
0.45000,-19
0.45833,-19
0.46667,-19
0.47500,-20
0.48333,-20
0.49167,-20
0.50000,-20
0.50833,-20
0.51667,-21
0.52500,-21
0.53333,-21
0.54167,-21
0.55000,-21
0.55833,-20
0.56667,-19
0.57500,-18
0.58333,-16
0.59167,-13
0.60000,-11
0.60833,-9
0.61667,-7
0.62500,-5
0.63333,-5
0.64167,-6
0.65000,-8
0.65833,-11
0.66667,-15
0.67500,-20
0.68333,-25
0.69167,-31
0.70000,-36
0.70833,-42
0.71667,-47
0.72500,-51
0.73333,-55
0.74167,-58
0.75000,-60
0.75833,-61
0.76667,-62
0.77500,-62
0.78333,-62
0.79167,-62
0.80000,-62
0.80833,-61
0.81667,-61
0.82500,-60
0.83333,-59
0.84167,-58
0.85000,-57
0.85833,-56
0.86667,-55
0.87500,-55
0.88333,-54
0.89167,-53
0.90000,-53
0.90833,-53
0.91667,-53
0.92500,-53
0.93333,-53
0.94167,-54
0.95000,-54
0.95833,-55
0.96667,-55
0.97500,-55
0.98333,-56
0.99167,-57
1.00000,-57
1.00833,-58
1.01667,-59
1.02500,-60
1.03333,-62
1.04167,-63
1.05000,-64
1.05833,-65
1.06667,-66
1.07500,-67
1.08333,-69
1.09167,-70
1.10000,-72
1.10833,-73
1.11667,-75
1.12500,-77
1.13333,-79
1.14167,-81
1.15000,-83
1.15833,-85
1.16667,-87
1.17500,-89
1.18333,-91
1.19167,-94
1.20000,-96
1.20833,-98
1.21667,-100
1.22500,-102
1.23333,-105
1.24167,-107
1.25000,-110
1.25833,-112
1.26667,-115
1.27500,-118
1.28333,-120
1.29167,-123
1.30000,-126
1.30833,-128
1.31667,-131
1.32500,-134
1.33333,-137
1.34167,-139
1.35000,-142
1.35833,-145
1.36667,-148
1.37500,-152
1.38333,-155
1.39167,-158
1.40000,-162
1.40833,-165
1.41667,-168
1.42500,-171
1.43333,-174
1.44167,-178
1.45000,-181
1.45833,-185
1.46667,-188
1.47500,-192
1.48333,-196
1.49167,-199
1.50000,-203
1.50833,-206
1.51667,-210
1.52500,-214
1.53333,-217
1.54167,-221
1.55000,-224
1.55833,-228
1.56667,-231
1.57500,-235
1.58333,-238
1.59167,-242
1.60000,-245
1.60833,-249
1.61667,-252
1.62500,-256
1.63333,-260
1.64167,-263
1.65000,-267
1.65833,-271
1.66667,-275
1.67500,-279
1.68333,-283
1.69167,-286
1.70000,-290
1.70833,-294
1.71667,-297
1.72500,-301
1.73333,-304
1.74167,-308
1.75000,-311
1.75833,-315
1.76667,-319
1.77500,-322
1.78333,-326
1.79167,-329
1.80000,-333
1.80833,-337
1.81667,-340
1.82500,-344
1.83333,-347
1.84167,-351
1.85000,-355
1.85833,-358
1.86667,-362
1.87500,-365
1.88333,-369
1.89167,-373
1.90000,-376
1.90833,-380
1.91667,-384
1.92500,-388
1.93333,-392
1.94167,-395
1.95000,-399
1.95833,-402
1.96667,-406
1.97500,-409
1.98333,-413
1.99167,-416
2.00000,-420
2.00833,-423
2.01667,-427
2.02500,-432
2.03333,-436
2.04167,-440
2.05000,-444
2.05833,-448
2.06667,-452
2.07500,-456
2.08333,-460
2.09167,-465
2.10000,-469
2.10833,-473
2.11667,-477
2.12500,-481
2.13333,-485
2.14167,-490
2.15000,-494
2.15833,-499
2.16667,-503
2.17500,-508
2.18333,-512
2.19167,-516
2.20000,-520
2.20833,-524
2.21667,-528
2.22500,-532
2.23333,-537
2.24167,-541
2.25000,-545
2.25833,-550
2.26667,-554
2.27500,-559
2.28333,-564
2.29167,-569
2.30000,-575
2.30833,-580
2.31667,-585
2.32500,-589
2.33333,-594
2.34167,-598
2.35000,-603
2.35833,-608
2.36667,-613
2.37500,-618
2.38333,-623
2.39167,-627
2.40000,-632
2.40833,-637
2.41667,-642
2.42500,-647
2.43333,-652
2.44167,-657
2.45000,-662
2.45833,-667
2.46667,-672
2.47500,-677
2.48333,-682
2.49167,-687
2.50000,-692
2.50833,-697
2.51667,-702
2.52500,-707
2.53333,-712
2.54167,-717
2.55000,-722
2.55833,-727
2.56667,-732
2.57500,-737
2.58333,-742
2.59167,-746
2.60000,-751
2.60833,-757
2.61667,-762
2.62500,-767
2.63333,-772
2.64167,-777
2.65000,-782
2.65833,-787
2.66667,-792
2.67500,-797
2.68333,-802
2.69167,-807
2.70000,-812
2.70833,-817
2.71667,-822
2.72500,-827
2.73333,-832
2.74167,-837
2.75000,-841
2.75833,-846
2.76667,-851
2.77500,-856
2.78333,-861
2.79167,-866
2.80000,-870
2.80833,-875
2.81667,-880
2.82500,-885
2.83333,-890
2.84167,-895
2.85000,-900
2.85833,-905
2.86667,-910
2.87500,-915
2.88333,-920
2.89167,-924
2.90000,-929
2.90833,-934
2.91667,-939
2.92500,-944
2.93333,-949
2.94167,-954
2.95000,-959
2.95833,-964
2.96667,-968
2.97500,-973
2.98333,-978
2.99167,-982
3.00000,-987
3.00833,-992
3.01667,-997
3.02500,-1002
3.03333,-1007
3.04167,-1012
3.05000,-1016
3.05833,-1021
3.06667,-1026
3.07500,-1031
3.08333,-1036
3.09167,-1041
3.10000,-1045
3.10833,-1050
3.11667,-1055
3.12500,-1060
3.13333,-1065
3.14167,-1070
3.15000,-1074
3.15833,-1079
3.16667,-1084
3.17500,-1089
3.18333,-1094
3.19167,-1098
3.20000,-1103
3.20833,-1108
3.21667,-1113
3.22500,-1117
3.23333,-1122
3.24167,-1127
3.25000,-1131
3.25833,-1136
3.26667,-1141
3.27500,-1145
3.28333,-1150
3.29167,-1154
3.30000,-1159
3.30833,-1164
3.31667,-1168
3.32500,-1173
3.33333,-1177
3.34167,-1181
3.35000,-1186
3.35833,-1190
3.36667,-1195
3.37500,-1199
3.38333,-1203
3.39167,-1207
3.40000,-1211
3.40833,-1216
3.41667,-1221
3.42500,-1225
3.43333,-1230
3.44167,-1234
3.45000,-1238
3.45833,-1241
3.46667,-1246
3.47500,-1250
3.48333,-1254
3.49167,-1258
3.50000,-1262
3.50833,-1266
3.51667,-1270
3.52500,-1274
3.53333,-1278
3.54167,-1282
3.55000,-1286
3.55833,-1290
3.56667,-1294
3.57500,-1298
3.58333,-1301
3.59167,-1305
3.60000,-1309
3.60833,-1313
3.61667,-1316
3.62500,-1320
3.63333,-1324
3.64167,-1328
3.65000,-1332
3.65833,-1335
3.66667,-1338
3.67500,-1342
3.68333,-1345
3.69167,-1349
3.70000,-1353
3.70833,-1356
3.71667,-1359
3.72500,-1363
3.73333,-1366
3.74167,-1370
3.75000,-1373
3.75833,-1377
3.76667,-1380
3.77500,-1383
3.78333,-1386
3.79167,-1390
3.80000,-1393
3.80833,-1396
3.81667,-1400
3.82500,-1403
3.83333,-1407
3.84167,-1410
3.85000,-1414
3.85833,-1417
3.86667,-1421
3.87500,-1424
3.88333,-1427
3.89167,-1430
3.90000,-1433
3.90833,-1436
3.91667,-1439
3.92500,-1442
3.93333,-1445
3.94167,-1449
3.95000,-1452
3.95833,-1456
3.96667,-1459
3.97500,-1462
3.98333,-1465
3.99167,-1468
4.00000,-1471
4.00833,-1474
4.01667,-1477
4.02500,-1480
4.03333,-1483
4.04167,-1486
4.05000,-1489
4.05833,-1493
4.06667,-1495
4.07500,-1498
4.08333,-1501
4.09167,-1504
4.10000,-1508
4.10833,-1511
4.11667,-1515
4.12500,-1519
4.13333,-1522
4.14167,-1526
4.15000,-1530
4.15833,-1534
4.16667,-1539
4.17500,-1544
4.18333,-1548
4.19167,-1553
4.20000,-1558
4.20833,-1563
4.21667,-1569
4.22500,-1575
4.23333,-1581
4.24167,-1587
4.25000,-1594
4.25833,-1600
4.26667,-1606
4.27500,-1612
4.28333,-1618
4.29167,-1624
4.30000,-1630
4.30833,-1636
4.31667,-1641
4.32500,-1647
4.33333,-1653
4.34167,-1658
4.35000,-1663
4.35833,-1668
4.36667,-1673
4.37500,-1678
4.38333,-1682
4.39167,-1687
4.40000,-1691
4.40833,-1696
4.41667,-1699
4.42500,-1703
4.43333,-1706
4.44167,-1710
4.45000,-1713
4.45833,-1716
4.46667,-1720
4.47500,-1723
4.48333,-1726
4.49167,-1729
4.50000,-1733
4.50833,-1735
4.51667,-1738
4.52500,-1740
4.53333,-1743
4.54167,-1745
4.55000,-1748
4.55833,-1750
4.56667,-1752
4.57500,-1754
4.58333,-1757
4.59167,-1759
4.60000,-1761
4.60833,-1763
4.61667,-1766
4.62500,-1768
4.63333,-1770
4.64167,-1772
4.65000,-1774
4.65833,-1777
4.66667,-1779
4.67500,-1781
4.68333,-1783
4.69167,-1785
4.70000,-1787
4.70833,-1790
4.71667,-1792
4.72500,-1795
4.73333,-1797
4.74167,-1799
4.75000,-1802
4.75833,-1804
4.76667,-1807
4.77500,-1809
4.78333,-1811
4.79167,-1814
4.80000,-1816
4.80833,-1818
4.81667,-1820
4.82500,-1822
4.83333,-1824
4.84167,-1826
4.85000,-1828
4.85833,-1830
4.86667,-1832
4.87500,-1834
4.88333,-1837
4.89167,-1839
4.90000,-1841
4.90833,-1843
4.91667,-1844
4.92500,-1846
4.93333,-1849
4.94167,-1851
4.95000,-1853
4.95833,-1855
4.96667,-1857
4.97500,-1859
4.98333,-1862
4.99167,-1864
5.00000,-1865
5.00833,-1867
5.01667,-1869
5.02500,-1871
5.03333,-1873
5.04167,-1875
5.05000,-1877
5.05833,-1879
5.06667,-1881
5.07500,-1883
5.08333,-1885
5.09167,-1887
5.10000,-1888
5.10833,-1890
5.11667,-1892
5.12500,-1893
5.13333,-1895
5.14167,-1897
5.15000,-1898
5.15833,-1900
5.16667,-1902
5.17500,-1903
5.18333,-1905
5.19167,-1906
5.20000,-1908
5.20833,-1910
5.21667,-1911
5.22500,-1912
5.23333,-1914
5.24167,-1916
5.25000,-1917
5.25833,-1919
5.26667,-1920
5.27500,-1922
5.28333,-1923
5.29167,-1925
5.30000,-1926
5.30833,-1928
5.31667,-1930
5.32500,-1931
5.33333,-1933
5.34167,-1935
5.35000,-1936
5.35833,-1937
5.36667,-1938
5.37500,-1940
5.38333,-1941
5.39167,-1942
5.40000,-1944
5.40833,-1945
5.41667,-1946
5.42500,-1948
5.43333,-1949
5.44167,-1951
5.45000,-1953
5.45833,-1954
5.46667,-1955
5.47500,-1955
5.48333,-1956
5.49167,-1957
5.50000,-1958
5.50833,-1959
5.51667,-1961
5.52500,-1962
5.53333,-1963
5.54167,-1964
5.55000,-1964
5.55833,-1966
5.56667,-1967
5.57500,-1969
5.58333,-1970
5.59167,-1971
5.60000,-1972
5.60833,-1973
5.61667,-1974
5.62500,-1975
5.63333,-1976
5.64167,-1977
5.65000,-1978
5.65833,-1979
5.66667,-1981
5.67500,-1982
5.68333,-1983
5.69167,-1984
5.70000,-1986
5.70833,-1987
5.71667,-1988
5.72500,-1988
5.73333,-1989
5.74167,-1990
5.75000,-1992
5.75833,-1993
5.76667,-1994
5.77500,-1995
5.78333,-1997
5.79167,-1998
5.80000,-1999
5.80833,-2000
5.81667,-2001
5.82500,-2002
5.83333,-2003
5.84167,-2004
5.85000,-2005
5.85833,-2006
5.86667,-2007
5.87500,-2008
5.88333,-2009
5.89167,-2010
5.90000,-2011
5.90833,-2012
5.91667,-2013
5.92500,-2014
5.93333,-2015
5.94167,-2016
5.95000,-2016
5.95833,-2018
5.96667,-2019
5.97500,-2020
5.98333,-2021
5.99167,-2022
6.00000,-2023
6.00833,-2024
6.01667,-2026
6.02500,-2026
6.03333,-2027
6.04167,-2028
6.05000,-2029
6.05833,-2030
6.06667,-2031
6.07500,-2032
6.08333,-2033
6.09167,-2034
6.10000,-2035
6.10833,-2036
6.11667,-2037
6.12500,-2038
6.13333,-2038
6.14167,-2039
6.15000,-2040
6.15833,-2041
6.16667,-2042
6.17500,-2042
6.18333,-2043
6.19167,-2044
6.20000,-2045
6.20833,-2046
6.21667,-2047
6.22500,-2048
6.23333,-2049
6.24167,-2049
6.25000,-2050
6.25833,-2051
6.26667,-2052
6.27500,-2053
6.28333,-2054
6.29167,-2055
6.30000,-2056
6.30833,-2056
6.31667,-2058
6.32500,-2059
6.33333,-2060
6.34167,-2060
6.35000,-2061
6.35833,-2062
6.36667,-2063
6.37500,-2064
6.38333,-2065
6.39167,-2065
6.40000,-2066
6.40833,-2066
6.41667,-2067
6.42500,-2068
6.43333,-2069
6.44167,-2070
6.45000,-2071
6.45833,-2072
6.46667,-2073
6.47500,-2074
6.48333,-2075
6.49167,-2076
6.50000,-2077
6.50833,-2077
6.51667,-2078
6.52500,-2079
6.53333,-2079
6.54167,-2080
6.55000,-2081
6.55833,-2082
6.56667,-2083
6.57500,-2084
6.58333,-2085
6.59167,-2086
6.60000,-2087
6.60833,-2088
6.61667,-2089
6.62500,-2090
6.63333,-2090
6.64167,-2091
6.65000,-2091
6.65833,-2092
6.66667,-2093
6.67500,-2094
6.68333,-2095
6.69167,-2095
6.70000,-2096
6.70833,-2097
6.71667,-2098
6.72500,-2098
6.73333,-2099
6.74167,-2099
6.75000,-2100
6.75833,-2100
6.76667,-2101
6.77500,-2102
6.78333,-2103
6.79167,-2104
6.80000,-2105
6.80833,-2106
6.81667,-2106
6.82500,-2107
6.83333,-2107
6.84167,-2108
6.85000,-2109
6.85833,-2110
6.86667,-2110
6.87500,-2111
6.88333,-2112
6.89167,-2113
6.90000,-2114
6.90833,-2114
6.91667,-2115
6.92500,-2115
6.93333,-2116
6.94167,-2117
6.95000,-2118
6.95833,-2119
6.96667,-2120
6.97500,-2120
6.98333,-2121
6.99167,-2122
7.00000,-2123
7.00833,-2123
7.01667,-2124
7.02500,-2125
7.03333,-2126
7.04167,-2127
7.05000,-2127
7.05833,-2128
7.06667,-2129
7.07500,-2129
7.08333,-2130
7.09167,-2131
7.10000,-2131
7.10833,-2132
7.11667,-2132
7.12500,-2133
7.13333,-2134
7.14167,-2135
7.15000,-2136
7.15833,-2137
7.16667,-2138
7.17500,-2139
7.18333,-2139
7.19167,-2139
7.20000,-2140
7.20833,-2140
7.21667,-2141
7.22500,-2142
7.23333,-2143
7.24167,-2143
7.25000,-2144
7.25833,-2145
7.26667,-2146
7.27500,-2146
7.28333,-2147
7.29167,-2147
7.30000,-2148
7.30833,-2148
7.31667,-2149
7.32500,-2150
7.33333,-2150
7.34167,-2151
7.35000,-2152
7.35833,-2152
7.36667,-2153
7.37500,-2153
7.38333,-2154
7.39167,-2155
7.40000,-2155
7.40833,-2156
7.41667,-2156
7.42500,-2157
7.43333,-2157
7.44167,-2158
7.45000,-2159
7.45833,-2160
7.46667,-2160
7.47500,-2160
7.48333,-2161
7.49167,-2162
7.50000,-2162
7.50833,-2163
7.51667,-2163
7.52500,-2164
7.53333,-2165
7.54167,-2166
7.55000,-2166
7.55833,-2166
7.56667,-2167
7.57500,-2167
7.58333,-2168
7.59167,-2168
7.60000,-2168
7.60833,-2169
7.61667,-2169
7.62500,-2170
7.63333,-2170
7.64167,-2170
7.65000,-2171
7.65833,-2171
7.66667,-2172
7.67500,-2172
7.68333,-2173
7.69167,-2173
7.70000,-2174
7.70833,-2174
7.71667,-2175
7.72500,-2176
7.73333,-2177
7.74167,-2177
7.75000,-2177
7.75833,-2177
7.76667,-2177
7.77500,-2177
7.78333,-2177
7.79167,-2177
7.80000,-2177
7.80833,-2177
7.81667,-2177
7.82500,-2177
7.83333,-2176
7.84167,-2176
7.85000,-2176
7.85833,-2176
7.86667,-2176
7.87500,-2175
7.88333,-2175
7.89167,-2174
7.90000,-2174
7.90833,-2173
7.91667,-2172
7.92500,-2171
7.93333,-2170
7.94167,-2169
7.95000,-2168
7.95833,-2167
7.96667,-2165
7.97500,-2163
7.98333,-2161
7.99167,-2159
8.00000,-2157
8.00833,-2155
8.01667,-2152
8.02500,-2149
8.03333,-2146
8.04167,-2143
8.05000,-2140
8.05833,-2137
8.06667,-2133
8.07500,-2129
8.08333,-2125
8.09167,-2121
8.10000,-2116
8.10833,-2111
8.11667,-2106
8.12500,-2100
8.13333,-2094
8.14167,-2087
8.15000,-2081
8.15833,-2073
8.16667,-2066
8.17500,-2058
8.18333,-2049
8.19167,-2040
8.20000,-2030
8.20833,-2019
8.21667,-2009
8.22500,-1998
8.23333,-1986
8.24167,-1975
8.25000,-1962
8.25833,-1949
8.26667,-1935
8.27500,-1920
8.28333,-1905
8.29167,-1889
8.30000,-1872
8.30833,-1854
8.31667,-1836
8.32500,-1817
8.33333,-1797
8.34167,-1777
8.35000,-1755
8.35833,-1733
8.36667,-1710
8.37500,-1686
8.38333,-1661
8.39167,-1636
8.40000,-1610
8.40833,-1583
8.41667,-1555
8.42500,-1526
8.43333,-1497
8.44167,-1466
8.45000,-1435
8.45833,-1403
8.46667,-1371
8.47500,-1337
8.48333,-1303
8.49167,-1269
8.50000,-1233
8.50833,-1196
8.51667,-1159
8.52500,-1122
8.53333,-1083
8.54167,-1045
8.55000,-1005
8.55833,-965
8.56667,-925
8.57500,-885
8.58333,-844
8.59167,-803
8.60000,-761
8.60833,-720
8.61667,-678
8.62500,-636
8.63333,-594
8.64167,-552
8.65000,-510
8.65833,-468
8.66667,-426
8.67500,-385
8.68333,-344
8.69167,-304
8.70000,-263
8.70833,-224
8.71667,-185
8.72500,-146
8.73333,-109
8.74167,-72
8.75000,-36
8.75833,-1
8.76667,33
8.77500,66
8.78333,97
8.79167,128
8.80000,157
8.80833,186
8.81667,213
8.82500,239
8.83333,263
8.84167,285
8.85000,306
8.85833,325
8.86667,344
8.87500,360
8.88333,375
8.89167,388
8.90000,399
8.90833,408
8.91667,416
8.92500,422
8.93333,427
8.94167,429
8.95000,430
8.95833,429
8.96667,426
8.97500,422
8.98333,416
8.99167,409
9.00000,400
9.00833,389
9.01667,377
9.02500,362
9.03333,347
9.04167,329
9.05000,310
9.05833,290
9.06667,269
9.07500,246
9.08333,222
9.09167,196
9.10000,169
9.10833,141
9.11667,112
9.12500,81
9.13333,50
9.14167,19
9.15000,-14
9.15833,-48
9.16667,-82
9.17500,-117
9.18333,-153
9.19167,-189
9.20000,-226
9.20833,-263
9.21667,-301
9.22500,-338
9.23333,-377
9.24167,-415
9.25000,-454
9.25833,-493
9.26667,-533
9.27500,-572
9.28333,-611
9.29167,-650
9.30000,-689
9.30833,-727
9.31667,-765
9.32500,-804
9.33333,-842
9.34167,-880
9.35000,-917
9.35833,-955
9.36667,-991
9.37500,-1028
9.38333,-1064
9.39167,-1099
9.40000,-1134
9.40833,-1168
9.41667,-1201
9.42500,-1234
9.43333,-1267
9.44167,-1298
9.45000,-1330
9.45833,-1361
9.46667,-1391
9.47500,-1420
9.48333,-1449
9.49167,-1477
9.50000,-1504
9.50833,-1530
9.51667,-1556
9.52500,-1582
9.53333,-1607
9.54167,-1631
9.55000,-1654
9.55833,-1677
9.56667,-1699
9.57500,-1721
9.58333,-1742
9.59167,-1762
9.60000,-1781
9.60833,-1800
9.61667,-1818
9.62500,-1836
9.63333,-1854
9.64167,-1871
9.65000,-1887
9.65833,-1903
9.66667,-1918
9.67500,-1933
9.68333,-1947
9.69167,-1961
9.70000,-1974
9.70833,-1987
9.71667,-1999
9.72500,-2011
9.73333,-2022
9.74167,-2033
9.75000,-2043
9.75833,-2053
9.76667,-2063
9.77500,-2072
9.78333,-2081
9.79167,-2090
9.80000,-2098
9.80833,-2106
9.81667,-2114
9.82500,-2122
9.83333,-2129
9.84167,-2136
9.85000,-2143
9.85833,-2149
9.86667,-2155
9.87500,-2161
9.88333,-2167
9.89167,-2171
9.90000,-2176
9.90833,-2181
9.91667,-2186
9.92500,-2191
9.93333,-2196
9.94167,-2200
9.95000,-2204
9.95833,-2209
9.96667,-2213
9.97500,-2217
9.98333,-2221
9.99167,-2224
10.00000,-2228
10.00833,-2232
10.01667,-2235
10.02500,-2238
10.03333,-2241
10.04167,-2244
10.05000,-2247
10.05833,-2250
10.06667,-2252
10.07500,-2255
10.08333,-2258
10.09167,-2261
10.10000,-2264
10.10833,-2267
10.11667,-2269
10.12500,-2271
10.13333,-2274
10.14167,-2276
10.15000,-2279
10.15833,-2281
10.16667,-2283
10.17500,-2285
10.18333,-2287
10.19167,-2289
10.20000,-2291
10.20833,-2294
10.21667,-2296
10.22500,-2298
10.23333,-2299
10.24167,-2301
10.25000,-2302
10.25833,-2304
10.26667,-2305
10.27500,-2307
10.28333,-2308
10.29167,-2310
10.30000,-2311
10.30833,-2312
10.31667,-2313
10.32500,-2314
10.33333,-2315
10.34167,-2316
10.35000,-2316
10.35833,-2317
10.36667,-2317
10.37500,-2317
10.38333,-2317
10.39167,-2317
10.40000,-2317
10.40833,-2317
10.41667,-2317
10.42500,-2317
10.43333,-2317
10.44167,-2317
10.45000,-2317
10.45833,-2317
10.46667,-2317
10.47500,-2318
10.48333,-2318
10.49167,-2319
10.50000,-2319
10.50833,-2320
10.51667,-2321
10.52500,-2322
10.53333,-2323
10.54167,-2324
10.55000,-2326
10.55833,-2327
10.56667,-2328
10.57500,-2329
10.58333,-2331
10.59167,-2332
10.60000,-2334
10.60833,-2335
10.61667,-2337
10.62500,-2339
10.63333,-2341
10.64167,-2344
10.65000,-2347
10.65833,-2350
10.66667,-2355
10.67500,-2360
10.68333,-2368
10.69167,-2377
10.70000,-2389
10.70833,-2404
10.71667,-2422
10.72500,-2445
10.73333,-2473
10.74167,-2507
10.75000,-2548
10.75833,-2596
10.76667,-2651
10.77500,-2715
10.78333,-2788
10.79167,-2870
10.80000,-2961
10.80833,-3062
10.81667,-3172
10.82500,-3289
10.83333,-3413
10.84167,-3544
10.85000,-3679
10.85833,-3817
10.86667,-3956
10.87500,-4094
10.88333,-4229
10.89167,-4358
10.90000,-4480
10.90833,-4592
10.91667,-4694
10.92500,-4783
10.93333,-4858
10.94167,-4917
10.95000,-4962
10.95833,-4991
10.96667,-5004
10.97500,-5000
10.98333,-4981
10.99167,-4948
11.00000,-4900
11.00833,-4840
11.01667,-4769
11.02500,-4688
11.03333,-4599
11.04167,-4503
11.05000,-4401
11.05833,-4296
11.06667,-4189
11.07500,-4080
11.08333,-3972
11.09167,-3865
11.10000,-3760
11.10833,-3658
11.11667,-3560
11.12500,-3466
11.13333,-3376
11.14167,-3291
11.15000,-3212
11.15833,-3137
11.16667,-3068
11.17500,-3005
11.18333,-2946
11.19167,-2891
11.20000,-2842
11.20833,-2797
11.21667,-2757
11.22500,-2720
11.23333,-2686
11.24167,-2656
11.25000,-2629
11.25833,-2605
11.26667,-2583
11.27500,-2564
11.28333,-2546
11.29167,-2531
11.30000,-2518
11.30833,-2506
11.31667,-2495
11.32500,-2486
11.33333,-2478
11.34167,-2471
11.35000,-2465
11.35833,-2459
11.36667,-2455
11.37500,-2451
11.38333,-2447
11.39167,-2443
11.40000,-2440
11.40833,-2438
11.41667,-2435
11.42500,-2433
11.43333,-2431
11.44167,-2429
11.45000,-2428
11.45833,-2426
11.46667,-2425
11.47500,-2424
11.48333,-2423
11.49167,-2423
11.50000,-2422
11.50833,-2421
11.51667,-2421
11.52500,-2420
11.53333,-2420
11.54167,-2420
11.55000,-2420
11.55833,-2419
11.56667,-2419
11.57500,-2419
11.58333,-2419
11.59167,-2418
11.60000,-2418
11.60833,-2418
11.61667,-2419
11.62500,-2420
11.63333,-2420
11.64167,-2420
11.65000,-2420
11.65833,-2421
11.66667,-2421
11.67500,-2421
11.68333,-2422
11.69167,-2423
11.70000,-2424
11.70833,-2425
11.71667,-2425
11.72500,-2426
11.73333,-2427
11.74167,-2428
11.75000,-2428
11.75833,-2430
11.76667,-2431
11.77500,-2432
11.78333,-2434
11.79167,-2435
11.80000,-2437
11.80833,-2438
11.81667,-2439
11.82500,-2441
11.83333,-2442
11.84167,-2444
11.85000,-2445
11.85833,-2447
11.86667,-2448
11.87500,-2450
11.88333,-2452
11.89167,-2454
11.90000,-2455
11.90833,-2456
11.91667,-2458
11.92500,-2459
11.93333,-2460
11.94167,-2461
11.95000,-2463
11.95833,-2464
11.96667,-2465
11.97500,-2466
11.98333,-2467
11.99167,-2468
12.00000,-2469
12.00833,-2469
12.01667,-2470
12.02500,-2470
12.03333,-2470
12.04167,-2471
12.05000,-2471
12.05833,-2471
12.06667,-2471
12.07500,-2471
12.08333,-2471
12.09167,-2471
12.10000,-2470
12.10833,-2469
12.11667,-2469
12.12500,-2468
12.13333,-2467
12.14167,-2467
12.15000,-2467
12.15833,-2466
12.16667,-2466
12.17500,-2465
12.18333,-2465
12.19167,-2464
12.20000,-2464
12.20833,-2463
12.21667,-2462
12.22500,-2461
12.23333,-2460
12.24167,-2459
12.25000,-2458
12.25833,-2458
12.26667,-2457
12.27500,-2457
12.28333,-2456
12.29167,-2455
12.30000,-2455
12.30833,-2454
12.31667,-2454
12.32500,-2453
12.33333,-2453
12.34167,-2452
12.35000,-2452
12.35833,-2452
12.36667,-2452
12.37500,-2452
12.38333,-2452
12.39167,-2451
12.40000,-2451
12.40833,-2450
12.41667,-2450
12.42500,-2450
12.43333,-2449
12.44167,-2449
12.45000,-2449
12.45833,-2448
12.46667,-2448
12.47500,-2449
12.48333,-2449
12.49167,-2449
12.50000,-2449
12.50833,-2449
12.51667,-2449
12.52500,-2448
12.53333,-2449
12.54167,-2449
12.55000,-2449
12.55833,-2449
12.56667,-2449
12.57500,-2449
12.58333,-2449
12.59167,-2450
12.60000,-2450
12.60833,-2450
12.61667,-2450
12.62500,-2450
12.63333,-2450
12.64167,-2450
12.65000,-2450
12.65833,-2451
12.66667,-2451
12.67500,-2451
12.68333,-2451
12.69167,-2452
12.70000,-2452
12.70833,-2453
12.71667,-2453
12.72500,-2453
12.73333,-2454
12.74167,-2454
12.75000,-2454
12.75833,-2455
12.76667,-2455
12.77500,-2455
12.78333,-2455
12.79167,-2455
12.80000,-2456
12.80833,-2456
12.81667,-2456
12.82500,-2456
12.83333,-2456
12.84167,-2456
12.85000,-2457
12.85833,-2457
12.86667,-2457
12.87500,-2458
12.88333,-2458
12.89167,-2458
12.90000,-2459
12.90833,-2459
12.91667,-2460
12.92500,-2460
12.93333,-2461
12.94167,-2461
12.95000,-2461
12.95833,-2461
12.96667,-2461
12.97500,-2461
12.98333,-2461
12.99167,-2462
13.00000,-2462
13.00833,-2462
13.01667,-2462
13.02500,-2462
13.03333,-2462
13.04167,-2462
13.05000,-2462
13.05833,-2462
13.06667,-2462
13.07500,-2463
13.08333,-2463
13.09167,-2463
13.10000,-2464
13.10833,-2464
13.11667,-2465
13.12500,-2465
13.13333,-2465
13.14167,-2465
13.15000,-2465
13.15833,-2465
13.16667,-2465
13.17500,-2465
13.18333,-2465
13.19167,-2465
13.20000,-2466
13.20833,-2466
13.21667,-2467
13.22500,-2467
13.23333,-2467
13.24167,-2467
13.25000,-2467
13.25833,-2467
13.26667,-2468
13.27500,-2468
13.28333,-2468
13.29167,-2468
13.30000,-2468
13.30833,-2469
13.31667,-2469
13.32500,-2470
13.33333,-2470
13.34167,-2470
13.35000,-2470
13.35833,-2470
13.36667,-2470
13.37500,-2470
13.38333,-2471
13.39167,-2471
13.40000,-2471
13.40833,-2471
13.41667,-2472
13.42500,-2472
13.43333,-2472
13.44167,-2472
13.45000,-2472
13.45833,-2472
13.46667,-2473
13.47500,-2473
13.48333,-2473
13.49167,-2473
13.50000,-2473
13.50833,-2473
13.51667,-2474
13.52500,-2474
13.53333,-2474
13.54167,-2474
13.55000,-2475
13.55833,-2475
13.56667,-2475
13.57500,-2475
13.58333,-2476
13.59167,-2476
13.60000,-2476
13.60833,-2476
13.61667,-2477
13.62500,-2477
13.63333,-2477
13.64167,-2477
13.65000,-2477
13.65833,-2477
13.66667,-2478
13.67500,-2478
13.68333,-2478
13.69167,-2478
13.70000,-2478
13.70833,-2478
13.71667,-2479
13.72500,-2479
13.73333,-2479
13.74167,-2479
13.75000,-2479
13.75833,-2479
13.76667,-2480
13.77500,-2480
13.78333,-2481
13.79167,-2481
13.80000,-2482
13.80833,-2482
13.81667,-2482
13.82500,-2482
13.83333,-2482
13.84167,-2482
13.85000,-2483
13.85833,-2483
13.86667,-2483
13.87500,-2483
13.88333,-2483
13.89167,-2483
13.90000,-2484
13.90833,-2484
13.91667,-2484
13.92500,-2484
13.93333,-2485
13.94167,-2485
13.95000,-2485
13.95833,-2485
13.96667,-2486
13.97500,-2486
13.98333,-2486
13.99167,-2486
14.00000,-2486
14.00833,-2486
14.01667,-2487
14.02500,-2487
14.03333,-2487
14.04167,-2487
14.05000,-2488
14.05833,-2489
14.06667,-2489
14.07500,-2489
14.08333,-2489
14.09167,-2489
14.10000,-2489
14.10833,-2489
14.11667,-2489
14.12500,-2489
14.13333,-2489
14.14167,-2489
14.15000,-2489
14.15833,-2490
14.16667,-2490
14.17500,-2491
14.18333,-2491
14.19167,-2491
14.20000,-2491
14.20833,-2491
14.21667,-2491
14.22500,-2491
14.23333,-2491
14.24167,-2492
14.25000,-2492
14.25833,-2493
14.26667,-2493
14.27500,-2492
14.28333,-2492
14.29167,-2492
14.30000,-2491
14.30833,-2491
14.31667,-2490
14.32500,-2490
14.33333,-2490
14.34167,-2490
14.35000,-2490
14.35833,-2489
14.36667,-2489
14.37500,-2488
14.38333,-2487
14.39167,-2486
14.40000,-2485
14.40833,-2484
14.41667,-2483
14.42500,-2482
14.43333,-2481
14.44167,-2479
14.45000,-2477
14.45833,-2476
14.46667,-2474
14.47500,-2472
14.48333,-2470
14.49167,-2468
14.50000,-2466
14.50833,-2463
14.51667,-2461
14.52500,-2459
14.53333,-2457
14.54167,-2456
14.55000,-2454
14.55833,-2453
14.56667,-2451
14.57500,-2450
14.58333,-2449
14.59167,-2448
14.60000,-2448
14.60833,-2448
14.61667,-2448
14.62500,-2448
14.63333,-2448
14.64167,-2448
14.65000,-2449
14.65833,-2450
14.66667,-2451
14.67500,-2452
14.68333,-2454
14.69167,-2455
14.70000,-2456
14.70833,-2458
14.71667,-2459
14.72500,-2461
14.73333,-2463
14.74167,-2465
14.75000,-2467
14.75833,-2469
14.76667,-2471
14.77500,-2474
14.78333,-2476
14.79167,-2477
14.80000,-2479
14.80833,-2481
14.81667,-2482
14.82500,-2484
14.83333,-2487
14.84167,-2489
14.85000,-2490
14.85833,-2492
14.86667,-2493
14.87500,-2495
14.88333,-2496
14.89167,-2498
14.90000,-2499
14.90833,-2500
14.91667,-2501
14.92500,-2501
14.93333,-2502
14.94167,-2504
14.95000,-2505
14.95833,-2506
14.96667,-2507
14.97500,-2507
14.98333,-2508
14.99167,-2509
15.00000,-2509
15.00833,-2510
15.01667,-2510
15.02500,-2510
15.03333,-2511
15.04167,-2511
15.05000,-2512
15.05833,-2512
15.06667,-2513
15.07500,-2513
15.08333,-2514
15.09167,-2514
15.10000,-2514
15.10833,-2515
15.11667,-2516
15.12500,-2516
15.13333,-2517
15.14167,-2517
15.15000,-2518
15.15833,-2518
15.16667,-2518
15.17500,-2518
15.18333,-2518
15.19167,-2519
15.20000,-2519
15.20833,-2520
15.21667,-2520
15.22500,-2521
15.23333,-2521
15.24167,-2521
15.25000,-2522
15.25833,-2522
15.26667,-2522
15.27500,-2523
15.28333,-2523
15.29167,-2523
15.30000,-2522
15.30833,-2522
15.31667,-2523
15.32500,-2522
15.33333,-2522
15.34167,-2522
15.35000,-2522
15.35833,-2522
15.36667,-2522
15.37500,-2522
15.38333,-2522
15.39167,-2522
15.40000,-2522
15.40833,-2521
15.41667,-2521
15.42500,-2520
15.43333,-2520
15.44167,-2520
15.45000,-2520
15.45833,-2519
15.46667,-2519
15.47500,-2519
15.48333,-2519
15.49167,-2519
15.50000,-2519
15.50833,-2519
15.51667,-2518
15.52500,-2518
15.53333,-2517
15.54167,-2517
15.55000,-2517
15.55833,-2518
15.56667,-2518
15.57500,-2518
15.58333,-2519
15.59167,-2519
15.60000,-2519
15.60833,-2520
15.61667,-2520
15.62500,-2521
15.63333,-2521
15.64167,-2521
15.65000,-2522
15.65833,-2523
15.66667,-2523
15.67500,-2524
15.68333,-2525
15.69167,-2525
15.70000,-2526
15.70833,-2527
15.71667,-2527
15.72500,-2528
15.73333,-2529
15.74167,-2530
15.75000,-2530
15.75833,-2531
15.76667,-2531
15.77500,-2532
15.78333,-2532
15.79167,-2533
15.80000,-2533
15.80833,-2534
15.81667,-2535
15.82500,-2536
15.83333,-2536
15.84167,-2536
15.85000,-2537
15.85833,-2538
15.86667,-2538
15.87500,-2539
15.88333,-2539
15.89167,-2540
15.90000,-2541
15.90833,-2541
15.91667,-2541
15.92500,-2541
15.93333,-2542
15.94167,-2542
15.95000,-2542
15.95833,-2543
15.96667,-2543
15.97500,-2544
15.98333,-2544
15.99167,-2545
16.00000,-2545
16.00833,-2546
16.01667,-2546
16.02500,-2546
16.03333,-2546
16.04167,-2547
16.05000,-2547
16.05833,-2547
16.06667,-2547
16.07500,-2548
16.08333,-2548
16.09167,-2548
16.10000,-2549
16.10833,-2549
16.11667,-2549
16.12500,-2549
16.13333,-2549
16.14167,-2549
16.15000,-2550
16.15833,-2550
16.16667,-2550
16.17500,-2551
16.18333,-2551
16.19167,-2552
16.20000,-2552
16.20833,-2552
16.21667,-2552
16.22500,-2553
16.23333,-2553
16.24167,-2553
16.25000,-2553
16.25833,-2553
16.26667,-2553
16.27500,-2554
16.28333,-2554
16.29167,-2554
16.30000,-2554
16.30833,-2554
16.31667,-2555
16.32500,-2555
16.33333,-2555
16.34167,-2556
16.35000,-2556
16.35833,-2556
16.36667,-2556
16.37500,-2556
16.38333,-2556
16.39167,-2557
16.40000,-2557
16.40833,-2557
16.41667,-2558
16.42500,-2558
16.43333,-2558
16.44167,-2558
16.45000,-2558
16.45833,-2558
16.46667,-2558
16.47500,-2558
16.48333,-2558
16.49167,-2558
16.50000,-2559
16.50833,-2559
16.51667,-2560
16.52500,-2560
16.53333,-2560
16.54167,-2560
16.55000,-2560
16.55833,-2561
16.56667,-2561
16.57500,-2561
16.58333,-2561
16.59167,-2562
16.60000,-2562
16.60833,-2562
16.61667,-2562
16.62500,-2562
16.63333,-2562
16.64167,-2562
16.65000,-2563
16.65833,-2563
16.66667,-2563
16.67500,-2564
16.68333,-2564
16.69167,-2564
16.70000,-2564
16.70833,-2564
16.71667,-2564
16.72500,-2564
16.73333,-2564
16.74167,-2564
16.75000,-2564
16.75833,-2564
16.76667,-2564
16.77500,-2565
16.78333,-2565
16.79167,-2565
16.80000,-2565
16.80833,-2566
16.81667,-2566
16.82500,-2566
16.83333,-2567
16.84167,-2567
16.85000,-2567
16.85833,-2567
16.86667,-2567
16.87500,-2567
16.88333,-2567
16.89167,-2567
16.90000,-2568
16.90833,-2568
16.91667,-2568
16.92500,-2569
16.93333,-2569
16.94167,-2569
16.95000,-2569
16.95833,-2569
16.96667,-2570
16.97500,-2570
16.98333,-2569
16.99167,-2569
17.00000,-2569
17.00833,-2570
17.01667,-2570
17.02500,-2570
17.03333,-2570
17.04167,-2570
17.05000,-2571
17.05833,-2571
17.06667,-2571
17.07500,-2571
17.08333,-2571
17.09167,-2571
17.10000,-2572
17.10833,-2571
17.11667,-2571
17.12500,-2571
17.13333,-2571
17.14167,-2571
17.15000,-2572
17.15833,-2572
17.16667,-2572
17.17500,-2572
17.18333,-2572
17.19167,-2572
17.20000,-2573
17.20833,-2573
17.21667,-2573
17.22500,-2574
17.23333,-2574
17.24167,-2575
17.25000,-2575
17.25833,-2575
17.26667,-2575
17.27500,-2575
17.28333,-2576
17.29167,-2576
17.30000,-2576
17.30833,-2576
17.31667,-2577
17.32500,-2577
17.33333,-2577
17.34167,-2577
17.35000,-2577
17.35833,-2577
17.36667,-2577
17.37500,-2578
17.38333,-2578
17.39167,-2578
17.40000,-2578
17.40833,-2578
17.41667,-2578
17.42500,-2578
17.43333,-2578
17.44167,-2579
17.45000,-2579
17.45833,-2579
17.46667,-2579
17.47500,-2580
17.48333,-2580
17.49167,-2580
17.50000,-2581
17.50833,-2581
17.51667,-2581
17.52500,-2581
17.53333,-2581
17.54167,-2581
17.55000,-2581
17.55833,-2581
17.56667,-2581
17.57500,-2582
17.58333,-2582
17.59167,-2582
17.60000,-2582
17.60833,-2582
17.61667,-2582
17.62500,-2582
17.63333,-2583
17.64167,-2583
17.65000,-2583
17.65833,-2584
17.66667,-2584
17.67500,-2584
17.68333,-2584
17.69167,-2584
17.70000,-2584
17.70833,-2584
17.71667,-2584
17.72500,-2584
17.73333,-2585
17.74167,-2585
17.75000,-2585
17.75833,-2585
17.76667,-2585
17.77500,-2585
17.78333,-2586
17.79167,-2586
17.80000,-2586
17.80833,-2586
17.81667,-2587
17.82500,-2587
17.83333,-2587
17.84167,-2588
17.85000,-2588
17.85833,-2588
17.86667,-2588
17.87500,-2589
17.88333,-2589
17.89167,-2589
17.90000,-2589
17.90833,-2589
17.91667,-2589
17.92500,-2589
17.93333,-2589
17.94167,-2589
17.95000,-2590
17.95833,-2590
17.96667,-2590
17.97500,-2590
17.98333,-2590
17.99167,-2590
18.00000,-2590
18.00833,-2590
18.01667,-2590
18.02500,-2590
18.03333,-2590
18.04167,-2590
18.05000,-2590
18.05833,-2590
18.06667,-2590
18.07500,-2591
18.08333,-2591
18.09167,-2591
18.10000,-2591
18.10833,-2592
18.11667,-2592
18.12500,-2592
18.13333,-2592
18.14167,-2593
18.15000,-2593
18.15833,-2593
18.16667,-2593
18.17500,-2593
18.18333,-2593
18.19167,-2593
18.20000,-2593
18.20833,-2593
18.21667,-2593
18.22500,-2593
18.23333,-2593
18.24167,-2594
18.25000,-2594
18.25833,-2594
18.26667,-2594
18.27500,-2594
18.28333,-2594
18.29167,-2595
18.30000,-2595
18.30833,-2595
18.31667,-2595
18.32500,-2594
18.33333,-2595
18.34167,-2595
18.35000,-2595
18.35833,-2595
18.36667,-2595
18.37500,-2595
18.38333,-2596
18.39167,-2596
18.40000,-2596
18.40833,-2595
18.41667,-2595
18.42500,-2595
18.43333,-2595
18.44167,-2595
18.45000,-2595
18.45833,-2595
18.46667,-2596
18.47500,-2596
18.48333,-2596
18.49167,-2596
18.50000,-2596
18.50833,-2596
18.51667,-2596
18.52500,-2596
18.53333,-2596
18.54167,-2596
18.55000,-2597
18.55833,-2597
18.56667,-2597
18.57500,-2597
18.58333,-2597
18.59167,-2597
18.60000,-2597
18.60833,-2597
18.61667,-2597
18.62500,-2597
18.63333,-2597
18.64167,-2597
18.65000,-2598
18.65833,-2598
18.66667,-2598
18.67500,-2598
18.68333,-2597
18.69167,-2597
18.70000,-2598
18.70833,-2598
18.71667,-2598
18.72500,-2598
18.73333,-2598
18.74167,-2598
18.75000,-2598
18.75833,-2597
18.76667,-2597
18.77500,-2597
18.78333,-2597
18.79167,-2597
18.80000,-2597
18.80833,-2598
18.81667,-2597
18.82500,-2598
18.83333,-2598
18.84167,-2598
18.85000,-2598
18.85833,-2598
18.86667,-2598
18.87500,-2597
18.88333,-2597
18.89167,-2598
18.90000,-2598
18.90833,-2597
18.91667,-2597
18.92500,-2597
18.93333,-2598
18.94167,-2598
18.95000,-2597
18.95833,-2597
18.96667,-2598
18.97500,-2598
18.98333,-2598
18.99167,-2598
19.00000,-2598
19.00833,-2598
19.01667,-2598
19.02500,-2598
19.03333,-2597
19.04167,-2597
19.05000,-2598
19.05833,-2598
19.06667,-2599
19.07500,-2599
19.08333,-2599
19.09167,-2599
19.10000,-2599
19.10833,-2599
19.11667,-2599
19.12500,-2598
19.13333,-2598
19.14167,-2598
19.15000,-2598
19.15833,-2598
19.16667,-2599
19.17500,-2599
19.18333,-2599
19.19167,-2599
19.20000,-2599
19.20833,-2599
19.21667,-2599
19.22500,-2600
19.23333,-2600
19.24167,-2600
19.25000,-2600
19.25833,-2601
19.26667,-2601
19.27500,-2601
19.28333,-2600
19.29167,-2600
19.30000,-2600
19.30833,-2600
19.31667,-2600
19.32500,-2601
19.33333,-2601
19.34167,-2601
19.35000,-2601
19.35833,-2601
19.36667,-2601
19.37500,-2601
19.38333,-2601
19.39167,-2602
19.40000,-2602
19.40833,-2602
19.41667,-2602
19.42500,-2602
19.43333,-2603
19.44167,-2603
19.45000,-2603
19.45833,-2603
19.46667,-2603
19.47500,-2603
19.48333,-2603
19.49167,-2603
19.50000,-2603
19.50833,-2603
19.51667,-2603
19.52500,-2603
19.53333,-2603
19.54167,-2604
19.55000,-2604
19.55833,-2604
19.56667,-2604
19.57500,-2605
19.58333,-2605
19.59167,-2605
19.60000,-2604
19.60833,-2604
19.61667,-2604
19.62500,-2604
19.63333,-2604
19.64167,-2604
19.65000,-2604
19.65833,-2604
19.66667,-2604
19.67500,-2604
19.68333,-2605
19.69167,-2605
19.70000,-2605
19.70833,-2606
19.71667,-2605
19.72500,-2605
19.73333,-2605
19.74167,-2605
19.75000,-2605
19.75833,-2605
19.76667,-2605
19.77500,-2605
19.78333,-2605
19.79167,-2605
19.80000,-2605
19.80833,-2605
19.81667,-2605
19.82500,-2605
19.83333,-2605
19.84167,-2605
19.85000,-2605
19.85833,-2605
19.86667,-2605
19.87500,-2605
19.88333,-2605
19.89167,-2605
19.90000,-2605
19.90833,-2605
19.91667,-2605
19.92500,-2605
19.93333,-2605
19.94167,-2605
19.95000,-2605
19.95833,-2605
19.96667,-2605
19.97500,-2605
19.98333,-2605
19.99167,-2605
20.00000,-2605
20.00833,-2605
20.01667,-2604
20.02500,-2604
20.03333,-2604
20.04167,-2604
20.05000,-2604
20.05833,-2604
20.06667,-2604
20.07500,-2604
20.08333,-2604
20.09167,-2604
20.10000,-2604
20.10833,-2604
20.11667,-2604
20.12500,-2604
20.13333,-2605
20.14167,-2605
20.15000,-2605
20.15833,-2604
20.16667,-2604
20.17500,-2605
20.18333,-2605
20.19167,-2605
20.20000,-2605
20.20833,-2604
20.21667,-2604
20.22500,-2604
20.23333,-2604
20.24167,-2604
20.25000,-2604
20.25833,-2604
20.26667,-2604
20.27500,-2604
20.28333,-2603
20.29167,-2603
20.30000,-2604
20.30833,-2604
20.31667,-2604
20.32500,-2604
20.33333,-2604
20.34167,-2605
20.35000,-2605
20.35833,-2605
20.36667,-2605
20.37500,-2605
20.38333,-2605
20.39167,-2605
20.40000,-2604
20.40833,-2604
20.41667,-2604
20.42500,-2604
20.43333,-2604
20.44167,-2604
20.45000,-2604
20.45833,-2604
20.46667,-2604
20.47500,-2604
20.48333,-2604
20.49167,-2605
20.50000,-2605
20.50833,-2605
20.51667,-2605
20.52500,-2605
20.53333,-2605
20.54167,-2605
20.55000,-2605
20.55833,-2605
20.56667,-2605
20.57500,-2605
20.58333,-2605
20.59167,-2605
20.60000,-2606
20.60833,-2606
20.61667,-2605
20.62500,-2605
20.63333,-2606
20.64167,-2606
20.65000,-2606
20.65833,-2606
20.66667,-2606
20.67500,-2606
20.68333,-2606
20.69167,-2606
20.70000,-2606
20.70833,-2605
20.71667,-2606
20.72500,-2606
20.73333,-2606
20.74167,-2606
20.75000,-2606
20.75833,-2606
20.76667,-2606
20.77500,-2606
20.78333,-2606
20.79167,-2606
20.80000,-2606
20.80833,-2605
20.81667,-2605
20.82500,-2605
20.83333,-2605
20.84167,-2606
20.85000,-2606
20.85833,-2605
20.86667,-2605
20.87500,-2606
20.88333,-2606
20.89167,-2606
20.90000,-2606
20.90833,-2606
20.91667,-2606
20.92500,-2606
20.93333,-2606
20.94167,-2606
20.95000,-2606
20.95833,-2606
20.96667,-2606
20.97500,-2606
20.98333,-2605
20.99167,-2605
21.00000,-2605
21.00833,-2605
21.01667,-2604
21.02500,-2605
21.03333,-2605
21.04167,-2605
21.05000,-2605
21.05833,-2605
21.06667,-2605
21.07500,-2605
21.08333,-2605
21.09167,-2605
21.10000,-2605
21.10833,-2605
21.11667,-2605
21.12500,-2605
21.13333,-2605
21.14167,-2604
21.15000,-2604
21.15833,-2604
21.16667,-2604
21.17500,-2604
21.18333,-2604
21.19167,-2604
21.20000,-2604
21.20833,-2604
21.21667,-2604
21.22500,-2604
21.23333,-2604
21.24167,-2604
21.25000,-2604
21.25833,-2604
21.26667,-2604
21.27500,-2604
21.28333,-2604
21.29167,-2604
21.30000,-2603
21.30833,-2603
21.31667,-2602
21.32500,-2602
21.33333,-2602
21.34167,-2602
21.35000,-2602
21.35833,-2602
21.36667,-2602
21.37500,-2602
21.38333,-2602
21.39167,-2602
21.40000,-2602
21.40833,-2602
21.41667,-2602
21.42500,-2602
21.43333,-2602
21.44167,-2602
21.45000,-2602
21.45833,-2602
21.46667,-2602
21.47500,-2602
21.48333,-2602
21.49167,-2602
21.50000,-2601
21.50833,-2601
21.51667,-2601
21.52500,-2601
21.53333,-2601
21.54167,-2601
21.55000,-2601
21.55833,-2601
21.56667,-2601
21.57500,-2601
21.58333,-2601
21.59167,-2601
21.60000,-2601
21.60833,-2601
21.61667,-2601
21.62500,-2601
21.63333,-2601
21.64167,-2600
21.65000,-2600
21.65833,-2600
21.66667,-2600
21.67500,-2600
21.68333,-2599
21.69167,-2600
21.70000,-2600
21.70833,-2600
21.71667,-2600
21.72500,-2600
21.73333,-2600
21.74167,-2600
21.75000,-2600
21.75833,-2600
21.76667,-2600
21.77500,-2601
21.78333,-2601
21.79167,-2601
21.80000,-2600
21.80833,-2600
21.81667,-2601
21.82500,-2601
21.83333,-2601
21.84167,-2601
21.85000,-2601
21.85833,-2600
21.86667,-2600
21.87500,-2601
21.88333,-2601
21.89167,-2601
21.90000,-2600
21.90833,-2600
21.91667,-2600
21.92500,-2600
21.93333,-2600
21.94167,-2601
21.95000,-2600
21.95833,-2600
21.96667,-2601
21.97500,-2601
21.98333,-2600
21.99167,-2600
22.00000,-2600
22.00833,-2600
22.01667,-2600
22.02500,-2600
22.03333,-2600
22.04167,-2600
22.05000,-2600
22.05833,-2600
22.06667,-2600
22.07500,-2600
22.08333,-2600
22.09167,-2600
22.10000,-2600
22.10833,-2600
22.11667,-2600
22.12500,-2600
22.13333,-2600
22.14167,-2600
22.15000,-2600
22.15833,-2600
22.16667,-2600
22.17500,-2600
22.18333,-2600
22.19167,-2599
22.20000,-2599
22.20833,-2598
22.21667,-2598
22.22500,-2599
22.23333,-2599
22.24167,-2599
22.25000,-2599
22.25833,-2599
22.26667,-2599
22.27500,-2598
22.28333,-2598
22.29167,-2598
22.30000,-2598
22.30833,-2598
22.31667,-2598
22.32500,-2598
22.33333,-2598
22.34167,-2598
22.35000,-2598
22.35833,-2598
22.36667,-2598
22.37500,-2598
22.38333,-2598
22.39167,-2597
22.40000,-2597
22.40833,-2597
22.41667,-2596
22.42500,-2596
22.43333,-2597
22.44167,-2597
22.45000,-2597
22.45833,-2597
22.46667,-2597
22.47500,-2596
22.48333,-2596
22.49167,-2596
22.50000,-2596
22.50833,-2596
22.51667,-2596
22.52500,-2596
22.53333,-2595
22.54167,-2595
22.55000,-2595
22.55833,-2595
22.56667,-2595
22.57500,-2595
22.58333,-2595
22.59167,-2595
22.60000,-2595
22.60833,-2595
22.61667,-2595
22.62500,-2595
22.63333,-2595
22.64167,-2595
22.65000,-2595
22.65833,-2595
22.66667,-2595
22.67500,-2595
22.68333,-2595
22.69167,-2594
22.70000,-2594
22.70833,-2594
22.71667,-2594
22.72500,-2594
22.73333,-2593
22.74167,-2593
22.75000,-2593
22.75833,-2593
22.76667,-2593
22.77500,-2593
22.78333,-2593
22.79167,-2593
22.80000,-2592
22.80833,-2592
22.81667,-2592
22.82500,-2592
22.83333,-2592
22.84167,-2592
22.85000,-2592
22.85833,-2592
22.86667,-2592
22.87500,-2592
22.88333,-2592
22.89167,-2592
22.90000,-2592
22.90833,-2592
22.91667,-2592
22.92500,-2592
22.93333,-2592
22.94167,-2592
22.95000,-2592
22.95833,-2591
22.96667,-2591
22.97500,-2591
22.98333,-2591
22.99167,-2591
23.00000,-2591
23.00833,-2591
23.01667,-2591
23.02500,-2591
23.03333,-2591
23.04167,-2591
23.05000,-2591
23.05833,-2591
23.06667,-2591
23.07500,-2591
23.08333,-2591
23.09167,-2590
23.10000,-2590
23.10833,-2590
23.11667,-2590
23.12500,-2590
23.13333,-2590
23.14167,-2590
23.15000,-2589
23.15833,-2589
23.16667,-2589
23.17500,-2589
23.18333,-2589
23.19167,-2589
23.20000,-2589
23.20833,-2589
23.21667,-2590
23.22500,-2590
23.23333,-2590
23.24167,-2590
23.25000,-2590
23.25833,-2590
23.26667,-2590
23.27500,-2590
23.28333,-2590
23.29167,-2589
23.30000,-2589
23.30833,-2589
23.31667,-2589
23.32500,-2590
23.33333,-2589
23.34167,-2589
23.35000,-2589
23.35833,-2589
23.36667,-2589
23.37500,-2589
23.38333,-2589
23.39167,-2589
23.40000,-2589
23.40833,-2589
23.41667,-2589
23.42500,-2589
23.43333,-2589
23.44167,-2589
23.45000,-2589
23.45833,-2589
23.46667,-2589
23.47500,-2589
23.48333,-2589
23.49167,-2589
23.50000,-2589
23.50833,-2589
23.51667,-2589
23.52500,-2589
23.53333,-2589
23.54167,-2589
23.55000,-2589
23.55833,-2590
23.56667,-2590
23.57500,-2590
23.58333,-2590
23.59167,-2590
23.60000,-2590
23.60833,-2590
23.61667,-2590
23.62500,-2590
23.63333,-2590
23.64167,-2590
23.65000,-2590
23.65833,-2591
23.66667,-2590
23.67500,-2590
23.68333,-2590
23.69167,-2590
23.70000,-2590
23.70833,-2590
23.71667,-2590
23.72500,-2590
23.73333,-2591
23.74167,-2591
23.75000,-2592
23.75833,-2592
23.76667,-2592
23.77500,-2592
23.78333,-2592
23.79167,-2593
23.80000,-2593
23.80833,-2593
23.81667,-2593
23.82500,-2593
23.83333,-2593
23.84167,-2593
23.85000,-2593
23.85833,-2593
23.86667,-2594
23.87500,-2594
23.88333,-2594
23.89167,-2594
23.90000,-2595
23.90833,-2595
23.91667,-2595
23.92500,-2595
23.93333,-2595
23.94167,-2595
23.95000,-2595
23.95833,-2595
23.96667,-2595
23.97500,-2596
23.98333,-2596
23.99167,-2596
24.00000,-2596
24.00833,-2597
24.01667,-2597
24.02500,-2597
24.03333,-2597
24.04167,-2597
24.05000,-2597
24.05833,-2597
24.06667,-2597
24.07500,-2597
24.08333,-2598
24.09167,-2598
24.10000,-2598
24.10833,-2598
24.11667,-2598
24.12500,-2598
24.13333,-2598
24.14167,-2598
24.15000,-2598
24.15833,-2598
24.16667,-2599
24.17500,-2599
24.18333,-2599
24.19167,-2599
24.20000,-2599
24.20833,-2599
24.21667,-2599
24.22500,-2600
24.23333,-2600
24.24167,-2600
24.25000,-2600
24.25833,-2600
24.26667,-2600
24.27500,-2600
24.28333,-2600
24.29167,-2599
24.30000,-2599
24.30833,-2600
24.31667,-2600
24.32500,-2600
24.33333,-2600
24.34167,-2600
24.35000,-2600
24.35833,-2599
24.36667,-2600
24.37500,-2600
24.38333,-2600
24.39167,-2600
24.40000,-2600
24.40833,-2600
24.41667,-2600
24.42500,-2601
24.43333,-2601
24.44167,-2601
24.45000,-2601
24.45833,-2601
24.46667,-2601
24.47500,-2601
24.48333,-2601
24.49167,-2601
24.50000,-2601
24.50833,-2601
24.51667,-2601
24.52500,-2601
24.53333,-2602
24.54167,-2602
24.55000,-2602
24.55833,-2602
24.56667,-2602
24.57500,-2601
24.58333,-2601
24.59167,-2601
24.60000,-2601
24.60833,-2601
24.61667,-2601
24.62500,-2601
24.63333,-2601
24.64167,-2601
24.65000,-2601
24.65833,-2601
24.66667,-2601
24.67500,-2602
24.68333,-2602
24.69167,-2602
24.70000,-2602
24.70833,-2602
24.71667,-2602
24.72500,-2602
24.73333,-2602
24.74167,-2602
24.75000,-2602
24.75833,-2602
24.76667,-2602
24.77500,-2602
24.78333,-2602
24.79167,-2602
24.80000,-2602
24.80833,-2603
24.81667,-2602
24.82500,-2602
24.83333,-2602
24.84167,-2602
24.85000,-2602
24.85833,-2602
24.86667,-2602
24.87500,-2602
24.88333,-2602
24.89167,-2601
24.90000,-2601
24.90833,-2601
24.91667,-2601
24.92500,-2601
24.93333,-2602
24.94167,-2602
24.95000,-2602
24.95833,-2602
24.96667,-2601
24.97500,-2602
24.98333,-2602
24.99167,-2602
25.00000,-2601
25.00833,-2601
25.01667,-2601
25.02500,-2602
25.03333,-2602
25.04167,-2602
25.05000,-2602
25.05833,-2602
25.06667,-2602
25.07500,-2603
25.08333,-2603
25.09167,-2603
25.10000,-2603
25.10833,-2603
25.11667,-2603
25.12500,-2603
25.13333,-2603
25.14167,-2603
25.15000,-2603
25.15833,-2603
25.16667,-2603
25.17500,-2603
25.18333,-2603
25.19167,-2602
25.20000,-2602
25.20833,-2602
25.21667,-2602
25.22500,-2602
25.23333,-2602
25.24167,-2602
25.25000,-2603
25.25833,-2603
25.26667,-2603
25.27500,-2603
25.28333,-2603
25.29167,-2602
25.30000,-2602
25.30833,-2602
25.31667,-2603
25.32500,-2603
25.33333,-2603
25.34167,-2603
25.35000,-2603
25.35833,-2603
25.36667,-2603
25.37500,-2603
25.38333,-2603
25.39167,-2603
25.40000,-2603
25.40833,-2603
25.41667,-2603
25.42500,-2602
25.43333,-2602
25.44167,-2602
25.45000,-2602
25.45833,-2602
25.46667,-2602
25.47500,-2602
25.48333,-2602
25.49167,-2602
25.50000,-2602
25.50833,-2602
25.51667,-2602
25.52500,-2602
25.53333,-2602
25.54167,-2602
25.55000,-2602
25.55833,-2602
25.56667,-2601
25.57500,-2601
25.58333,-2601
25.59167,-2601
25.60000,-2601
25.60833,-2601
25.61667,-2601
25.62500,-2602
25.63333,-2602
25.64167,-2602
25.65000,-2602
25.65833,-2602
25.66667,-2602
25.67500,-2603
25.68333,-2602
25.69167,-2602
25.70000,-2602
25.70833,-2602
25.71667,-2603
25.72500,-2603
25.73333,-2603
25.74167,-2603
25.75000,-2603
25.75833,-2603
25.76667,-2604
25.77500,-2604
25.78333,-2604
25.79167,-2604
25.80000,-2603
25.80833,-2603
25.81667,-2603
25.82500,-2603
25.83333,-2603
25.84167,-2603
25.85000,-2603
25.85833,-2602
25.86667,-2602
25.87500,-2602
25.88333,-2602
25.89167,-2602
25.90000,-2602
25.90833,-2602
25.91667,-2602
25.92500,-2602
25.93333,-2602
25.94167,-2602
25.95000,-2602
25.95833,-2602
25.96667,-2602
25.97500,-2602
25.98333,-2603
25.99167,-2603
26.00000,-2603
26.00833,-2603
26.01667,-2602
26.02500,-2602
26.03333,-2602
26.04167,-2602
26.05000,-2602
26.05833,-2602
26.06667,-2602
26.07500,-2603
26.08333,-2603
26.09167,-2603
26.10000,-2603
26.10833,-2603
26.11667,-2603
26.12500,-2603
26.13333,-2603
26.14167,-2603
26.15000,-2603
26.15833,-2603
26.16667,-2603
26.17500,-2603
26.18333,-2603
26.19167,-2603
26.20000,-2603
26.20833,-2603
26.21667,-2603
26.22500,-2603
26.23333,-2603
26.24167,-2603
26.25000,-2603
26.25833,-2603
26.26667,-2603
26.27500,-2602
26.28333,-2603
26.29167,-2603
26.30000,-2603
26.30833,-2603
26.31667,-2602
26.32500,-2602
26.33333,-2602
26.34167,-2602
26.35000,-2602
26.35833,-2601
26.36667,-2601
26.37500,-2601
26.38333,-2601
26.39167,-2601
26.40000,-2601
26.40833,-2601
26.41667,-2601
26.42500,-2602
26.43333,-2602
26.44167,-2602
26.45000,-2602
26.45833,-2602
26.46667,-2602
26.47500,-2601
26.48333,-2601
26.49167,-2601
26.50000,-2601
26.50833,-2601
26.51667,-2601
26.52500,-2601
26.53333,-2600
26.54167,-2600
26.55000,-2600
26.55833,-2600
26.56667,-2600
26.57500,-2599
26.58333,-2599
26.59167,-2599
26.60000,-2599
26.60833,-2599
26.61667,-2599
26.62500,-2599
26.63333,-2600
26.64167,-2600
26.65000,-2599
26.65833,-2600
26.66667,-2600
26.67500,-2599
26.68333,-2599
26.69167,-2599
26.70000,-2599
26.70833,-2599
26.71667,-2599
26.72500,-2599
26.73333,-2599
26.74167,-2599
26.75000,-2599
26.75833,-2599
26.76667,-2599
26.77500,-2598
26.78333,-2598
26.79167,-2598
26.80000,-2598
26.80833,-2598
26.81667,-2598
26.82500,-2598
26.83333,-2598
26.84167,-2598
26.85000,-2599
26.85833,-2599
26.86667,-2598
26.87500,-2598
26.88333,-2598
26.89167,-2598
26.90000,-2597
26.90833,-2597
26.91667,-2597
26.92500,-2597
26.93333,-2597
26.94167,-2597
26.95000,-2597
26.95833,-2597
26.96667,-2597
26.97500,-2597
26.98333,-2597
26.99167,-2597
27.00000,-2597
27.00833,-2596
27.01667,-2596
27.02500,-2596
27.03333,-2597
27.04167,-2596
27.05000,-2596
27.05833,-2596
27.06667,-2596
27.07500,-2596
27.08333,-2596
27.09167,-2596
27.10000,-2596
27.10833,-2596
27.11667,-2596
27.12500,-2595
27.13333,-2595
27.14167,-2595
27.15000,-2595
27.15833,-2595
27.16667,-2595
27.17500,-2595
27.18333,-2595
27.19167,-2595
27.20000,-2595
27.20833,-2595
27.21667,-2595
27.22500,-2595
27.23333,-2595
27.24167,-2595
27.25000,-2595
27.25833,-2594
27.26667,-2594
27.27500,-2594
27.28333,-2594
27.29167,-2594
27.30000,-2593
27.30833,-2593
27.31667,-2593
27.32500,-2593
27.33333,-2593
27.34167,-2593
27.35000,-2593
27.35833,-2593
27.36667,-2593
27.37500,-2593
27.38333,-2593
27.39167,-2593
27.40000,-2593
27.40833,-2593
27.41667,-2593
27.42500,-2593
27.43333,-2593
27.44167,-2593
27.45000,-2593
27.45833,-2592
27.46667,-2592
27.47500,-2592
27.48333,-2592
27.49167,-2592
27.50000,-2592
27.50833,-2591
27.51667,-2591
27.52500,-2591
27.53333,-2591
27.54167,-2591
27.55000,-2591
27.55833,-2590
27.56667,-2590
27.57500,-2589
27.58333,-2589
27.59167,-2589
27.60000,-2589
27.60833,-2589
27.61667,-2589
27.62500,-2589
27.63333,-2589
27.64167,-2589
27.65000,-2589
27.65833,-2589
27.66667,-2589
27.67500,-2589
27.68333,-2589
27.69167,-2589
27.70000,-2589
27.70833,-2589
27.71667,-2589
27.72500,-2589
27.73333,-2589
27.74167,-2590
27.75000,-2590
27.75833,-2590
27.76667,-2591
27.77500,-2591
27.78333,-2591
27.79167,-2592
27.80000,-2592
27.80833,-2593
27.81667,-2594
27.82500,-2595
27.83333,-2596
27.84167,-2597
27.85000,-2599
27.85833,-2600
27.86667,-2602
27.87500,-2603
27.88333,-2605
27.89167,-2607
27.90000,-2609
27.90833,-2611
27.91667,-2613
27.92500,-2616
27.93333,-2618
27.94167,-2622
27.95000,-2625
27.95833,-2630
27.96667,-2634
27.97500,-2639
27.98333,-2644
27.99167,-2649
28.00000,-2655
28.00833,-2661
28.01667,-2667
28.02500,-2674
28.03333,-2682
28.04167,-2690
28.05000,-2698
28.05833,-2707
28.06667,-2717
28.07500,-2727
28.08333,-2738
28.09167,-2750
28.10000,-2762
28.10833,-2775
28.11667,-2788
28.12500,-2802
28.13333,-2817
28.14167,-2833
28.15000,-2849
28.15833,-2866
28.16667,-2884
28.17500,-2903
28.18333,-2922
28.19167,-2943
28.20000,-2963
28.20833,-2985
28.21667,-3007
28.22500,-3030
28.23333,-3053
28.24167,-3077
28.25000,-3102
28.25833,-3127
28.26667,-3153
28.27500,-3179
28.28333,-3206
28.29167,-3234
28.30000,-3262
28.30833,-3290
28.31667,-3319
28.32500,-3348
28.33333,-3377
28.34167,-3407
28.35000,-3436
28.35833,-3466
28.36667,-3496
28.37500,-3525
28.38333,-3555
28.39167,-3584
28.40000,-3613
28.40833,-3643
28.41667,-3672
28.42500,-3701
28.43333,-3729
28.44167,-3757
28.45000,-3784
28.45833,-3810
28.46667,-3836
28.47500,-3861
28.48333,-3885
28.49167,-3908
28.50000,-3931
28.50833,-3953
28.51667,-3974
28.52500,-3993
28.53333,-4012
28.54167,-4030
28.55000,-4047
28.55833,-4063
28.56667,-4077
28.57500,-4091
28.58333,-4104
28.59167,-4115
28.60000,-4126
28.60833,-4136
28.61667,-4145
28.62500,-4152
28.63333,-4158
28.64167,-4163
28.65000,-4167
28.65833,-4171
28.66667,-4174
28.67500,-4176
28.68333,-4177
28.69167,-4177
28.70000,-4176
28.70833,-4174
28.71667,-4172
28.72500,-4169
28.73333,-4166
28.74167,-4161
28.75000,-4156
28.75833,-4151
28.76667,-4145
28.77500,-4139
28.78333,-4132
28.79167,-4126
28.80000,-4118
28.80833,-4111
28.81667,-4103
28.82500,-4094
28.83333,-4086
28.84167,-4077
28.85000,-4068
28.85833,-4059
28.86667,-4050
28.87500,-4041
28.88333,-4032
28.89167,-4023
28.90000,-4014
28.90833,-4005
28.91667,-3996
28.92500,-3987
28.93333,-3978
28.94167,-3969
28.95000,-3961
28.95833,-3952
28.96667,-3944
28.97500,-3936
28.98333,-3927
28.99167,-3919
29.00000,-3911
29.00833,-3904
29.01667,-3896
29.02500,-3888
29.03333,-3881
29.04167,-3874
29.05000,-3867
29.05833,-3861
29.06667,-3854
29.07500,-3847
29.08333,-3841
29.09167,-3834
29.10000,-3828
29.10833,-3822
29.11667,-3817
29.12500,-3812
29.13333,-3806
29.14167,-3801
29.15000,-3795
29.15833,-3790
29.16667,-3784
29.17500,-3779
29.18333,-3773
29.19167,-3768
29.20000,-3764
29.20833,-3760
29.21667,-3755
29.22500,-3751
29.23333,-3747
29.24167,-3743
29.25000,-3738
29.25833,-3734
29.26667,-3730
29.27500,-3726
29.28333,-3722
29.29167,-3718
29.30000,-3714
29.30833,-3710
29.31667,-3707
29.32500,-3703
29.33333,-3700
29.34167,-3696
29.35000,-3692
29.35833,-3689
29.36667,-3686
29.37500,-3683
29.38333,-3680
29.39167,-3676
29.40000,-3673
29.40833,-3670
29.41667,-3667
29.42500,-3664
29.43333,-3661
29.44167,-3657
29.45000,-3654
29.45833,-3652
29.46667,-3649
29.47500,-3646
29.48333,-3643
29.49167,-3640
29.50000,-3638
29.50833,-3635
29.51667,-3633
29.52500,-3630
29.53333,-3627
29.54167,-3625
29.55000,-3622
29.55833,-3620
29.56667,-3617
29.57500,-3615
29.58333,-3613
29.59167,-3611
29.60000,-3609
29.60833,-3606
29.61667,-3604
29.62500,-3603
29.63333,-3601
29.64167,-3600
29.65000,-3599
29.65833,-3597
29.66667,-3596
29.67500,-3594
29.68333,-3594
29.69167,-3593
29.70000,-3592
29.70833,-3592
29.71667,-3591
29.72500,-3590
29.73333,-3590
29.74167,-3590
29.75000,-3590
29.75833,-3590
29.76667,-3590
29.77500,-3590
29.78333,-3591
29.79167,-3592
29.80000,-3593
29.80833,-3594
29.81667,-3595
29.82500,-3596
29.83333,-3598
29.84167,-3600
29.85000,-3602
29.85833,-3605
29.86667,-3607
29.87500,-3610
29.88333,-3613
29.89167,-3616
29.90000,-3619
29.90833,-3622
29.91667,-3626
29.92500,-3630
29.93333,-3634
29.94167,-3638
29.95000,-3642
29.95833,-3647
29.96667,-3652
29.97500,-3658
29.98333,-3663
29.99167,-3668
30.00000,-3673
30.00833,-3679
30.01667,-3685
30.02500,-3690
30.03333,-3696
30.04167,-3702
30.05000,-3707
30.05833,-3713
30.06667,-3719
30.07500,-3725
30.08333,-3731
30.09167,-3738
30.10000,-3743
30.10833,-3749
30.11667,-3755
30.12500,-3760
30.13333,-3766
30.14167,-3772
30.15000,-3778
30.15833,-3784
30.16667,-3789
30.17500,-3793
30.18333,-3798
30.19167,-3802
30.20000,-3806
30.20833,-3810
30.21667,-3813
30.22500,-3816
30.23333,-3819
30.24167,-3822
30.25000,-3824
30.25833,-3826
30.26667,-3828
30.27500,-3830
30.28333,-3831
30.29167,-3831
30.30000,-3831
30.30833,-3831
30.31667,-3830
30.32500,-3828
30.33333,-3827
30.34167,-3824
30.35000,-3821
30.35833,-3818
30.36667,-3815
30.37500,-3811
30.38333,-3806
30.39167,-3802
30.40000,-3796
30.40833,-3790
30.41667,-3784
30.42500,-3777
30.43333,-3770
30.44167,-3763
30.45000,-3755
30.45833,-3747
30.46667,-3739
30.47500,-3730
30.48333,-3721
30.49167,-3711
30.50000,-3701
30.50833,-3691
30.51667,-3680
30.52500,-3670
30.53333,-3659
30.54167,-3647
30.55000,-3636
30.55833,-3624
30.56667,-3612
30.57500,-3600
30.58333,-3587
30.59167,-3574
30.60000,-3562
30.60833,-3549
30.61667,-3535
30.62500,-3522
30.63333,-3508
30.64167,-3495
30.65000,-3481
30.65833,-3467
30.66667,-3454
30.67500,-3440
30.68333,-3426
30.69167,-3412
30.70000,-3397
30.70833,-3383
30.71667,-3369
30.72500,-3354
30.73333,-3340
30.74167,-3326
30.75000,-3312
30.75833,-3298
30.76667,-3284
30.77500,-3269
30.78333,-3255
30.79167,-3241
30.80000,-3226
30.80833,-3212
30.81667,-3198
30.82500,-3184
30.83333,-3169
30.84167,-3155
30.85000,-3141
30.85833,-3127
30.86667,-3113
30.87500,-3099
30.88333,-3085
30.89167,-3070
30.90000,-3056
30.90833,-3042
30.91667,-3028
30.92500,-3014
30.93333,-3000
30.94167,-2987
30.95000,-2973
30.95833,-2960
30.96667,-2947
30.97500,-2933
30.98333,-2920
30.99167,-2906
31.00000,-2893
31.00833,-2879
31.01667,-2866
31.02500,-2852
31.03333,-2839
31.04167,-2826
31.05000,-2813
31.05833,-2800
31.06667,-2787
31.07500,-2774
31.08333,-2761
31.09167,-2748
31.10000,-2735
31.10833,-2722
31.11667,-2710
31.12500,-2697
31.13333,-2685
31.14167,-2672
31.15000,-2659
31.15833,-2647
31.16667,-2635
31.17500,-2623
31.18333,-2611
31.19167,-2599
31.20000,-2587
31.20833,-2575
31.21667,-2564
31.22500,-2552
31.23333,-2540
31.24167,-2529
31.25000,-2517
31.25833,-2505
31.26667,-2494
31.27500,-2482
31.28333,-2471
31.29167,-2460
31.30000,-2449
31.30833,-2438
31.31667,-2427
31.32500,-2416
31.33333,-2406
31.34167,-2395
31.35000,-2384
31.35833,-2373
31.36667,-2363
31.37500,-2352
31.38333,-2342
31.39167,-2332
31.40000,-2321
31.40833,-2311
31.41667,-2301
31.42500,-2290
31.43333,-2280
31.44167,-2270
31.45000,-2260
31.45833,-2251
31.46667,-2242
31.47500,-2232
31.48333,-2223
31.49167,-2214
31.50000,-2204
31.50833,-2195
31.51667,-2186
31.52500,-2177
31.53333,-2168
31.54167,-2159
31.55000,-2150
31.55833,-2141
31.56667,-2132
31.57500,-2123
31.58333,-2115
31.59167,-2106
31.60000,-2098
31.60833,-2090
31.61667,-2081
31.62500,-2073
31.63333,-2065
31.64167,-2056
31.65000,-2048
31.65833,-2040
31.66667,-2032
31.67500,-2024
31.68333,-2016
31.69167,-2008
31.70000,-2000
31.70833,-1992
31.71667,-1984
31.72500,-1976
31.73333,-1968
31.74167,-1960
31.75000,-1953
31.75833,-1945
31.76667,-1937
31.77500,-1930
31.78333,-1922
31.79167,-1915
31.80000,-1908
31.80833,-1900
31.81667,-1892
31.82500,-1885
31.83333,-1878
31.84167,-1870
31.85000,-1863
31.85833,-1856
31.86667,-1848
31.87500,-1841
31.88333,-1834
31.89167,-1827
31.90000,-1819
31.90833,-1812
31.91667,-1805
31.92500,-1797
31.93333,-1790
31.94167,-1782
31.95000,-1775
31.95833,-1768
31.96667,-1761
31.97500,-1754
31.98333,-1747
31.99167,-1740
32.00000,-1733
32.00833,-1726
32.01667,-1718
32.02500,-1711
32.03333,-1704
32.04167,-1697
32.05000,-1690
32.05833,-1682
32.06667,-1675
32.07500,-1668
32.08333,-1660
32.09167,-1653
32.10000,-1646
32.10833,-1640
32.11667,-1633
32.12500,-1626
32.13333,-1619
32.14167,-1612
32.15000,-1606
32.15833,-1598
32.16667,-1591
32.17500,-1584
32.18333,-1576
32.19167,-1569
32.20000,-1562
32.20833,-1555
32.21667,-1548
32.22500,-1541
32.23333,-1534
32.24167,-1527
32.25000,-1520
32.25833,-1513
32.26667,-1506
32.27500,-1499
32.28333,-1493
32.29167,-1486
32.30000,-1479
32.30833,-1471
32.31667,-1464
32.32500,-1457
32.33333,-1451
32.34167,-1444
32.35000,-1437
32.35833,-1430
32.36667,-1423
32.37500,-1416
32.38333,-1409
32.39167,-1402
32.40000,-1395
32.40833,-1388
32.41667,-1381
32.42500,-1375
32.43333,-1368
32.44167,-1361
32.45000,-1354
32.45833,-1347
32.46667,-1340
32.47500,-1333
32.48333,-1326
32.49167,-1320
32.50000,-1313
32.50833,-1306
32.51667,-1299
32.52500,-1292
32.53333,-1286
32.54167,-1279
32.55000,-1272
32.55833,-1265
32.56667,-1258
32.57500,-1252
32.58333,-1245
32.59167,-1239
32.60000,-1232
32.60833,-1225
32.61667,-1219
32.62500,-1212
32.63333,-1206
32.64167,-1199
32.65000,-1193
32.65833,-1187
32.66667,-1180
32.67500,-1174
32.68333,-1167
32.69167,-1160
32.70000,-1154
32.70833,-1147
32.71667,-1141
32.72500,-1136
32.73333,-1129
32.74167,-1123
32.75000,-1117
32.75833,-1112
32.76667,-1106
32.77500,-1100
32.78333,-1094
32.79167,-1088
32.80000,-1082
32.80833,-1077
32.81667,-1071
32.82500,-1065
32.83333,-1059
32.84167,-1053
32.85000,-1047
32.85833,-1041
32.86667,-1036
32.87500,-1030
32.88333,-1024
32.89167,-1019
32.90000,-1013
32.90833,-1008
32.91667,-1002
32.92500,-997
32.93333,-991
32.94167,-986
32.95000,-981
32.95833,-975
32.96667,-970
32.97500,-965
32.98333,-960
32.99167,-955
33.00000,-950
33.00833,-945
33.01667,-940
33.02500,-935
33.03333,-929
33.04167,-924
33.05000,-919
33.05833,-915
33.06667,-910
33.07500,-905
33.08333,-901
33.09167,-896
33.10000,-891
33.10833,-886
33.11667,-882
33.12500,-878
33.13333,-873
33.14167,-869
33.15000,-864
33.15833,-860
33.16667,-855
33.17500,-851
33.18333,-847
33.19167,-843
33.20000,-838
33.20833,-834
33.21667,-830
33.22500,-825
33.23333,-821
33.24167,-817
33.25000,-813
33.25833,-809
33.26667,-806
33.27500,-802
33.28333,-798
33.29167,-794
33.30000,-790
33.30833,-786
33.31667,-782
33.32500,-778
33.33333,-775
33.34167,-771
33.35000,-768
33.35833,-764
33.36667,-761
33.37500,-757
33.38333,-754
33.39167,-751
33.40000,-747
33.40833,-743
33.41667,-740
33.42500,-736
33.43333,-733
33.44167,-730
33.45000,-726
33.45833,-723
33.46667,-719
33.47500,-716
33.48333,-713
33.49167,-710
33.50000,-707
33.50833,-703
33.51667,-700
33.52500,-697
33.53333,-694
33.54167,-691
33.55000,-688
33.55833,-685
33.56667,-682
33.57500,-679
33.58333,-676
33.59167,-673
33.60000,-670
33.60833,-667
33.61667,-665
33.62500,-662
33.63333,-659
33.64167,-656
33.65000,-654
33.65833,-651
33.66667,-648
33.67500,-645
33.68333,-642
33.69167,-638
33.70000,-636
33.70833,-633
33.71667,-630
33.72500,-628
33.73333,-625
33.74167,-622
33.75000,-620
33.75833,-617
33.76667,-614
33.77500,-611
33.78333,-608
33.79167,-606
33.80000,-603
33.80833,-601
33.81667,-598
33.82500,-595
33.83333,-593
33.84167,-591
33.85000,-588
33.85833,-585
33.86667,-582
33.87500,-580
33.88333,-577
33.89167,-575
33.90000,-572
33.90833,-570
33.91667,-568
33.92500,-565
33.93333,-563
33.94167,-561
33.95000,-559
33.95833,-557
33.96667,-554
33.97500,-551
33.98333,-548
33.99167,-546
34.00000,-543
34.00833,-541
34.01667,-539
34.02500,-536
34.03333,-534
34.04167,-532
34.05000,-530
34.05833,-527
34.06667,-525
34.07500,-522
34.08333,-520
34.09167,-517
34.10000,-515
34.10833,-513
34.11667,-511
34.12500,-508
34.13333,-506
34.14167,-503
34.15000,-501
34.15833,-499
34.16667,-497
34.17500,-495
34.18333,-492
34.19167,-490
34.20000,-488
34.20833,-486
34.21667,-483
34.22500,-481
34.23333,-478
34.24167,-476
34.25000,-474
34.25833,-471
34.26667,-469
34.27500,-467
34.28333,-465
34.29167,-463
34.30000,-461
34.30833,-458
34.31667,-456
34.32500,-454
34.33333,-452
34.34167,-450
34.35000,-448
34.35833,-445
34.36667,-443
34.37500,-441
34.38333,-439
34.39167,-437
34.40000,-435
34.40833,-433
34.41667,-431
34.42500,-428
34.43333,-426
34.44167,-424
34.45000,-422
34.45833,-420
34.46667,-418
34.47500,-416
34.48333,-414
34.49167,-412
34.50000,-410
34.50833,-407
34.51667,-405
34.52500,-403
34.53333,-401
34.54167,-399
34.55000,-397
34.55833,-395
34.56667,-393
34.57500,-391
34.58333,-389
34.59167,-387
34.60000,-385
34.60833,-383
34.61667,-381
34.62500,-379
34.63333,-377
34.64167,-375
34.65000,-374
34.65833,-372
34.66667,-369
34.67500,-367
34.68333,-365
34.69167,-363
34.70000,-362
34.70833,-360
34.71667,-358
34.72500,-356
34.73333,-354
34.74167,-352
34.75000,-349
34.75833,-347
34.76667,-345
34.77500,-343
34.78333,-341
34.79167,-340
34.80000,-338
34.80833,-336
34.81667,-334
34.82500,-331
34.83333,-329
34.84167,-327
34.85000,-325
34.85833,-323
34.86667,-322
34.87500,-320
34.88333,-319
34.89167,-317
34.90000,-315
34.90833,-313
34.91667,-311
34.92500,-309
34.93333,-307
34.94167,-305
34.95000,-303
34.95833,-302
34.96667,-300
34.97500,-298
34.98333,-296
34.99167,-294
35.00000,-292
35.00833,-291
35.01667,-289
35.02500,-287
35.03333,-285
35.04167,-284
35.05000,-282
35.05833,-280
35.06667,-279
35.07500,-277
35.08333,-275
35.09167,-273
35.10000,-271
35.10833,-270
35.11667,-268
35.12500,-267
35.13333,-265
35.14167,-263
35.15000,-261
35.15833,-260
35.16667,-258
35.17500,-256
35.18333,-254
35.19167,-252
35.20000,-250
35.20833,-249
35.21667,-247
35.22500,-245
35.23333,-244
35.24167,-242
35.25000,-241
35.25833,-239
35.26667,-238
35.27500,-236
35.28333,-234
35.29167,-233
35.30000,-231
35.30833,-229
35.31667,-228
35.32500,-226
35.33333,-224
35.34167,-222
35.35000,-220
35.35833,-218
35.36667,-216
35.37500,-215
35.38333,-213
35.39167,-211
35.40000,-210
35.40833,-207
35.41667,-205
35.42500,-204
35.43333,-202
35.44167,-201
35.45000,-199
35.45833,-198
35.46667,-197
35.47500,-195
35.48333,-194
35.49167,-192
35.50000,-191
35.50833,-189
35.51667,-187
35.52500,-185
35.53333,-183
35.54167,-182
35.55000,-180
35.55833,-178
35.56667,-177
35.57500,-175
35.58333,-173
35.59167,-172
35.60000,-170
35.60833,-169
35.61667,-167
35.62500,-166
35.63333,-164
35.64167,-163
35.65000,-161
35.65833,-159
35.66667,-158
35.67500,-156
35.68333,-154
35.69167,-152
35.70000,-151
35.70833,-150
35.71667,-148
35.72500,-147
35.73333,-145
35.74167,-143
35.75000,-142
35.75833,-140
35.76667,-139
35.77500,-137
35.78333,-136
35.79167,-135
35.80000,-133
35.80833,-131
35.81667,-130
35.82500,-128
35.83333,-126
35.84167,-125
35.85000,-123
35.85833,-121
35.86667,-120
35.87500,-118
35.88333,-117
35.89167,-116
35.90000,-114
35.90833,-112
35.91667,-111
35.92500,-109
35.93333,-108
35.94167,-107
35.95000,-106
35.95833,-104
35.96667,-103
35.97500,-101
35.98333,-100
35.99167,-98
36.00000,-97
36.00833,-95
36.01667,-94
36.02500,-93
36.03333,-91
36.04167,-89
36.05000,-88
36.05833,-86
36.06667,-85
36.07500,-84
36.08333,-82
36.09167,-80
36.10000,-79
36.10833,-77
36.11667,-76
36.12500,-74
36.13333,-72
36.14167,-70
36.15000,-69
36.15833,-68
36.16667,-66
36.17500,-65
36.18333,-63
36.19167,-62
36.20000,-60
36.20833,-59
36.21667,-58
36.22500,-56
36.23333,-55
36.24167,-53
36.25000,-51
36.25833,-50
36.26667,-48
36.27500,-46
36.28333,-45
36.29167,-43
36.30000,-42
36.30833,-40
36.31667,-39
36.32500,-37
36.33333,-36
36.34167,-35
36.35000,-33
36.35833,-32
36.36667,-30
36.37500,-29
36.38333,-28
36.39167,-26
36.40000,-24
36.40833,-22
36.41667,-21
36.42500,-19
36.43333,-17
36.44167,-15
36.45000,-14
36.45833,-12
36.46667,-11
36.47500,-10
36.48333,-8
36.49167,-7
36.50000,-5
36.50833,-4
36.51667,-2
36.52500,-0
36.53333,1
36.54167,3
36.55000,4
36.55833,6
36.56667,8
36.57500,9
36.58333,11
36.59167,13
36.60000,15
36.60833,17
36.61667,19
36.62500,21
36.63333,23
36.64167,25
36.65000,26
36.65833,28
36.66667,30
36.67500,32
36.68333,34
36.69167,36
36.70000,38
36.70833,41
36.71667,43
36.72500,45
36.73333,48
36.74167,50
36.75000,52
36.75833,55
36.76667,57
36.77500,60
36.78333,63
36.79167,65
36.80000,68
36.80833,70
36.81667,73
36.82500,75
36.83333,78
36.84167,81
36.85000,83
36.85833,86
36.86667,89
36.87500,91
36.88333,94
36.89167,97
36.90000,100
36.90833,103
36.91667,106
36.92500,109
36.93333,113
36.94167,116
36.95000,119
36.95833,122
36.96667,125
36.97500,129
36.98333,132
36.99167,136
37.00000,139
37.00833,143
37.01667,146
37.02500,149
37.03333,153
37.04167,156
37.05000,159
37.05833,163
37.06667,166
37.07500,169
37.08333,173
37.09167,176
37.10000,179
37.10833,182
37.11667,185
37.12500,188
37.13333,192
37.14167,195
37.15000,197
37.15833,200
37.16667,203
37.17500,206
37.18333,208
37.19167,211
37.20000,214
37.20833,216
37.21667,219
37.22500,222
37.23333,224
37.24167,226
37.25000,229
37.25833,231
37.26667,233
37.27500,235
37.28333,236
37.29167,238
37.30000,240
37.30833,242
37.31667,244
37.32500,245
37.33333,247
37.34167,249
37.35000,250
37.35833,251
37.36667,252
37.37500,253
37.38333,254
37.39167,254
37.40000,255
37.40833,256
37.41667,257
37.42500,257
37.43333,258
37.44167,258
37.45000,259
37.45833,259
37.46667,259
37.47500,259
37.48333,259
37.49167,259
37.50000,259
37.50833,259
37.51667,258
37.52500,258
37.53333,258
37.54167,257
37.55000,257
37.55833,256
37.56667,255
37.57500,255
37.58333,254
37.59167,253
37.60000,253
37.60833,252
37.61667,251
37.62500,250
37.63333,250
37.64167,249
37.65000,248
37.65833,247
37.66667,246
37.67500,245
37.68333,244
37.69167,243
37.70000,242
37.70833,241
37.71667,240
37.72500,240
37.73333,239
37.74167,237
37.75000,236
37.75833,236
37.76667,235
37.77500,234
37.78333,233
37.79167,232
37.80000,231
37.80833,230
37.81667,229
37.82500,228
37.83333,227
37.84167,226
37.85000,226
37.85833,225
37.86667,225
37.87500,224
37.88333,224
37.89167,223
37.90000,222
37.90833,221
37.91667,221
37.92500,220
37.93333,220
37.94167,220
37.95000,219
37.95833,219
37.96667,219
37.97500,218
37.98333,218
37.99167,218
38.00000,218
38.00833,217
38.01667,217
38.02500,217
38.03333,217
38.04167,217
38.05000,216
38.05833,216
38.06667,216
38.07500,216
38.08333,217
38.09167,217
38.10000,218
38.10833,218
38.11667,218
38.12500,218
38.13333,218
38.14167,218
38.15000,218
38.15833,218
38.16667,219
38.17500,220
38.18333,220
38.19167,220
38.20000,221
38.20833,221
38.21667,222
38.22500,222
38.23333,223
38.24167,223
38.25000,224
38.25833,224
38.26667,225
38.27500,225
38.28333,226
38.29167,226
38.30000,227
38.30833,227
38.31667,228
38.32500,228
38.33333,229
38.34167,229
38.35000,230
38.35833,231
38.36667,232
38.37500,233
38.38333,234
38.39167,234
38.40000,235
38.40833,236
38.41667,236
38.42500,237
38.43333,237
38.44167,238
38.45000,239
38.45833,239
38.46667,240
38.47500,241
38.48333,242
38.49167,243
38.50000,244
38.50833,244
38.51667,245
38.52500,245
38.53333,245
38.54167,245
38.55000,246
38.55833,247
38.56667,248
38.57500,250
38.58333,251
38.59167,252
38.60000,252
38.60833,253
38.61667,254
38.62500,254
38.63333,255
38.64167,256
38.65000,256
38.65833,257
38.66667,257
38.67500,258
38.68333,258
38.69167,259
38.70000,260
38.70833,260
38.71667,262
38.72500,263
38.73333,263
38.74167,264
38.75000,265
38.75833,266
38.76667,266
38.77500,267
38.78333,268
38.79167,269
38.80000,270
38.80833,270
38.81667,271
38.82500,272
38.83333,273
38.84167,274
38.85000,275
38.85833,276
38.86667,276
38.87500,277
38.88333,278
38.89167,279
38.90000,280
38.90833,280
38.91667,281
38.92500,282
38.93333,282
38.94167,283
38.95000,284
38.95833,285
38.96667,286
38.97500,286
38.98333,287
38.99167,287
39.00000,288
39.00833,289
39.01667,289
39.02500,290
39.03333,291
39.04167,292
39.05000,292
39.05833,293
39.06667,294
39.07500,294
39.08333,295
39.09167,295
39.10000,296
39.10833,297
39.11667,298
39.12500,299
39.13333,300
39.14167,301
39.15000,301
39.15833,302
39.16667,303
39.17500,304
39.18333,305
39.19167,306
39.20000,307
39.20833,307
39.21667,308
39.22500,309
39.23333,309
39.24167,310
39.25000,311
39.25833,312
39.26667,312
39.27500,313
39.28333,313
39.29167,314
39.30000,314
39.30833,315
39.31667,316
39.32500,316
39.33333,317
39.34167,318
39.35000,319
39.35833,320
39.36667,320
39.37500,321
39.38333,322
39.39167,323
39.40000,324
39.40833,324
39.41667,325
39.42500,325
39.43333,326
39.44167,327
39.45000,328
39.45833,329
39.46667,329
39.47500,330
39.48333,331
39.49167,332
39.50000,332
39.50833,333
39.51667,333
39.52500,334
39.53333,335
39.54167,336
39.55000,337
39.55833,338
39.56667,338
39.57500,339
39.58333,340
39.59167,341
39.60000,341
39.60833,342
39.61667,342
39.62500,343
39.63333,343
39.64167,344
39.65000,345
39.65833,345
39.66667,346
39.67500,347
39.68333,348
39.69167,348
39.70000,349
39.70833,350
39.71667,351
39.72500,351
39.73333,352
39.74167,352
39.75000,353
39.75833,354
39.76667,354
39.77500,355
39.78333,356
39.79167,356
39.80000,357
39.80833,358
39.81667,358
39.82500,359
39.83333,359
39.84167,360
39.85000,360
39.85833,361
39.86667,362
39.87500,363
39.88333,364
39.89167,365
39.90000,365
39.90833,366
39.91667,366
39.92500,366
39.93333,367
39.94167,368
39.95000,369
39.95833,370
39.96667,370
39.97500,370
39.98333,371
39.99167,372
40.00000,373
40.00833,374
40.01667,374
40.02500,375
40.03333,376
40.04167,376
40.05000,377
40.05833,377
40.06667,378
40.07500,378
40.08333,379
40.09167,380
40.10000,380
40.10833,381
40.11667,381
40.12500,382
40.13333,382
40.14167,383
40.15000,383
40.15833,384
40.16667,384
40.17500,385
40.18333,386
40.19167,386
40.20000,387
40.20833,387
40.21667,388
40.22500,388
40.23333,389
40.24167,389
40.25000,389
40.25833,390
40.26667,390
40.27500,390
40.28333,391
40.29167,392
40.30000,392
40.30833,393
40.31667,393
40.32500,394
40.33333,395
40.34167,395
40.35000,396
40.35833,396
40.36667,396
40.37500,397
40.38333,398
40.39167,398
40.40000,399
40.40833,400
40.41667,400
40.42500,401
40.43333,401
40.44167,402
40.45000,402
40.45833,402
40.46667,403
40.47500,403
40.48333,403
40.49167,403
40.50000,404
40.50833,405
40.51667,405
40.52500,406
40.53333,407
40.54167,408
40.55000,409
40.55833,409
40.56667,410
40.57500,410
40.58333,410
40.59167,410
40.60000,411
40.60833,411
40.61667,411
40.62500,412
40.63333,412
40.64167,413
40.65000,413
40.65833,414
40.66667,415
40.67500,415
40.68333,416
40.69167,417
40.70000,417
40.70833,418
40.71667,418
40.72500,419
40.73333,420
40.74167,420
40.75000,421
40.75833,421
40.76667,422
40.77500,422
40.78333,423
40.79167,423
40.80000,424
40.80833,424
40.81667,424
40.82500,424
40.83333,425
40.84167,425
40.85000,426
40.85833,427
40.86667,428
40.87500,428
40.88333,429
40.89167,429
40.90000,429
40.90833,430
40.91667,430
40.92500,431
40.93333,431
40.94167,432
40.95000,432
40.95833,433
40.96667,433
40.97500,434
40.98333,434
40.99167,435
41.00000,435
41.00833,436
41.01667,436
41.02500,436
41.03333,437
41.04167,437
41.05000,438
41.05833,438
41.06667,438
41.07500,439
41.08333,439
41.09167,440
41.10000,441
41.10833,441
41.11667,442
41.12500,442
41.13333,443
41.14167,444
41.15000,445
41.15833,445
41.16667,446
41.17500,447
41.18333,448
41.19167,449
41.20000,449
41.20833,450
41.21667,450
41.22500,451
41.23333,451
41.24167,451
41.25000,451
41.25833,452
41.26667,452
41.27500,453
41.28333,453
41.29167,454
41.30000,454
41.30833,454
41.31667,455
41.32500,455
41.33333,456
41.34167,457
41.35000,457
41.35833,457
41.36667,458
41.37500,458
41.38333,459
41.39167,460
41.40000,460
41.40833,460
41.41667,461
41.42500,461
41.43333,461
41.44167,462
41.45000,462
41.45833,463
41.46667,463
41.47500,464
41.48333,465
41.49167,465
41.50000,466
41.50833,466
41.51667,467
41.52500,468
41.53333,468
41.54167,469
41.55000,469
41.55833,469
41.56667,469
41.57500,470
41.58333,470
41.59167,470
41.60000,471
41.60833,471
41.61667,472
41.62500,473
41.63333,473
41.64167,473
41.65000,474
41.65833,474
41.66667,475
41.67500,475
41.68333,476
41.69167,476
41.70000,477
41.70833,478
41.71667,478
41.72500,478
41.73333,479
41.74167,479
41.75000,480
41.75833,480
41.76667,481
41.77500,481
41.78333,482
41.79167,482
41.80000,483
41.80833,483
41.81667,483
41.82500,484
41.83333,484
41.84167,484
41.85000,485
41.85833,485
41.86667,486
41.87500,486
41.88333,487
41.89167,487
41.90000,488
41.90833,488
41.91667,489
41.92500,490
41.93333,490
41.94167,491
41.95000,491
41.95833,492
41.96667,492
41.97500,493
41.98333,493
41.99167,494
42.00000,494
42.00833,495
42.01667,496
42.02500,496
42.03333,497
42.04167,497
42.05000,497
42.05833,498
42.06667,498
42.07500,499
42.08333,499
42.09167,500
42.10000,500
42.10833,500
42.11667,500
42.12500,500
42.13333,501
42.14167,501
42.15000,501
42.15833,502
42.16667,502
42.17500,503
42.18333,503
42.19167,503
42.20000,504
42.20833,505
42.21667,506
42.22500,506
42.23333,507
42.24167,507
42.25000,508
42.25833,509
42.26667,509
42.27500,510
42.28333,511
42.29167,511
42.30000,511
42.30833,512
42.31667,512
42.32500,512
42.33333,513
42.34167,514
42.35000,514
42.35833,515
42.36667,515
42.37500,515
42.38333,516
42.39167,517
42.40000,517
42.40833,518
42.41667,518
42.42500,518
42.43333,519
42.44167,519
42.45000,519
42.45833,519
42.46667,520
42.47500,520
42.48333,520
42.49167,521
42.50000,521
42.50833,522
42.51667,523
42.52500,524
42.53333,524
42.54167,525
42.55000,525
42.55833,526
42.56667,526
42.57500,526
42.58333,527
42.59167,527
42.60000,528
42.60833,528
42.61667,528
42.62500,528
42.63333,528
42.64167,528
42.65000,529
42.65833,530
42.66667,530
42.67500,531
42.68333,532
42.69167,532
42.70000,533
42.70833,533
42.71667,534
42.72500,534
42.73333,534
42.74167,534
42.75000,535
42.75833,535
42.76667,535
42.77500,536
42.78333,536
42.79167,537
42.80000,537
42.80833,538
42.81667,538
42.82500,539
42.83333,539
42.84167,540
42.85000,540
42.85833,541
42.86667,541
42.87500,542
42.88333,542
42.89167,543
42.90000,543
42.90833,544
42.91667,545
42.92500,545
42.93333,545
42.94167,546
42.95000,546
42.95833,547
42.96667,547
42.97500,547
42.98333,547
42.99167,548
43.00000,548
43.00833,548
43.01667,549
43.02500,549
43.03333,550
43.04167,551
43.05000,551
43.05833,552
43.06667,552
43.07500,553
43.08333,554
43.09167,555
43.10000,555
43.10833,556
43.11667,556
43.12500,556
43.13333,557
43.14167,557
43.15000,557
43.15833,557
43.16667,558
43.17500,559
43.18333,559
43.19167,560
43.20000,560
43.20833,560
43.21667,561
43.22500,561
43.23333,562
43.24167,562
43.25000,563
43.25833,563
43.26667,563
43.27500,564
43.28333,564
43.29167,565
43.30000,565
43.30833,566
43.31667,567
43.32500,567
43.33333,568
43.34167,568
43.35000,568
43.35833,569
43.36667,569
43.37500,570
43.38333,571
43.39167,571
43.40000,572
43.40833,572
43.41667,572
43.42500,572
43.43333,572
43.44167,573
43.45000,573
43.45833,573
43.46667,574
43.47500,575
43.48333,575
43.49167,575
43.50000,576
43.50833,576
43.51667,576
43.52500,577
43.53333,577
43.54167,577
43.55000,578
43.55833,578
43.56667,579
43.57500,579
43.58333,580
43.59167,580
43.60000,581
43.60833,581
43.61667,582
43.62500,582
43.63333,583
43.64167,583
43.65000,584
43.65833,584
43.66667,584
43.67500,585
43.68333,585
43.69167,586
43.70000,586
43.70833,586
43.71667,587
43.72500,587
43.73333,588
43.74167,588
43.75000,589
43.75833,589
43.76667,589
43.77500,590
43.78333,591
43.79167,591
43.80000,591
43.80833,592
43.81667,592
43.82500,593
43.83333,593
43.84167,594
43.85000,594
43.85833,595
43.86667,596
43.87500,596
43.88333,597
43.89167,598
43.90000,598
43.90833,598
43.91667,598
43.92500,598
43.93333,598
43.94167,599
43.95000,599
43.95833,599
43.96667,600
43.97500,600
43.98333,601
43.99167,601
44.00000,602
44.00833,602
44.01667,603
44.02500,603
44.03333,603
44.04167,604
44.05000,604
44.05833,605
44.06667,605
44.07500,606
44.08333,606
44.09167,607
44.10000,608
44.10833,608
44.11667,608
44.12500,608
44.13333,609
44.14167,609
44.15000,610
44.15833,610
44.16667,611
44.17500,612
44.18333,612
44.19167,612
44.20000,613
44.20833,613
44.21667,614
44.22500,614
44.23333,614
44.24167,615
44.25000,615
44.25833,615
44.26667,616
44.27500,616
44.28333,616
44.29167,617
44.30000,617
44.30833,618
44.31667,618
44.32500,619
44.33333,620
44.34167,620
44.35000,620
44.35833,621
44.36667,621
44.37500,622
44.38333,623
44.39167,623
44.40000,624
44.40833,624
44.41667,624
44.42500,625
44.43333,625
44.44167,625
44.45000,626
44.45833,626
44.46667,626
44.47500,627
44.48333,627
44.49167,628
44.50000,629
44.50833,629
44.51667,629
44.52500,630
44.53333,630
44.54167,631
44.55000,631
44.55833,631
44.56667,632
44.57500,632
44.58333,633
44.59167,633
44.60000,634
44.60833,634
44.61667,634
44.62500,634
44.63333,635
44.64167,635
44.65000,636
44.65833,636
44.66667,637
44.67500,637
44.68333,637
44.69167,638
44.70000,639
44.70833,639
44.71667,639
44.72500,640
44.73333,640
44.74167,640
44.75000,641
44.75833,641
44.76667,642
44.77500,642
44.78333,642
44.79167,643
44.80000,643
44.80833,644
44.81667,644
44.82500,645
44.83333,646
44.84167,646
44.85000,647
44.85833,648
44.86667,648
44.87500,648
44.88333,648
44.89167,648
44.90000,649
44.90833,649
44.91667,649
44.92500,650
44.93333,650
44.94167,651
44.95000,651
44.95833,652
44.96667,653
44.97500,653
44.98333,654
44.99167,654
45.00000,654

