[Header]
Application Name,LabSolutions
Version,5.97 SP1
Data File Name,C:\Users\cremerlab\Desktop\batch_template_3182021_001_007.lcd
Output Date,3/18/2021
Output Time,4:46:02 PM

[File Information]
Type,Data File
Generated,3/18/2021 4:00:42 PM
Generated by,System Administrator
Modified,3/18/2021 4:46:02 PM
Modified by,System Administrator

[Sample Information]
Operator Name,System Administrator
Acquired,3/18/2021 4:01:01 PM
Sample Type,1:Standard
Level,1
Sample Name,2021-03-18_NC_base_griffin001
Sample ID,001
ISTD Amount1,1
ISTD Amount2,1
ISTD Amount3,1
ISTD Amount4,1
ISTD Amount5,1
ISTD Amount6,1
ISTD Amount7,1
ISTD Amount8,1
ISTD Amount9,1
ISTD Amount10,1
ISTD Amount11,1
ISTD Amount12,1
ISTD Amount13,1
ISTD Amount14,1
ISTD Amount15,1
ISTD Amount16,1
ISTD Amount17,1
ISTD Amount18,1
ISTD Amount19,1
ISTD Amount20,1
ISTD Amount21,1
ISTD Amount22,1
ISTD Amount23,1
ISTD Amount24,1
ISTD Amount25,1
ISTD Amount26,1
ISTD Amount27,1
ISTD Amount28,1
ISTD Amount29,1
ISTD Amount30,1
ISTD Amount31,1
ISTD Amount32,1
Sample Amount,1
Dilution Factor,1
Vial#,19
Injection Volume,20

[Original Files]
Data File,C:\Users\cremerlab\Desktop\batch_template_3182021_001_007.lcd
Method File,C:\LabSolutions\Data\Project1\organicacidsetc2.lcm
Batch File,C:\Users\cremerlab\Desktop\batch_template.lcb
Report Format File,c:\LabSolutions\System\DEFAULT.lsr

[File Description]


[Configuration]
Instrument Name,HPLC-PC-Instrument1
Instrument #,1
Line #,1
# of Detectors,2
Detector ID,Detector A,Detector B
Detector Name,Detector A,Detector B
# of Channels,1,1

[LC Chromatogram(Detector B-Ch1)]
Interval(msec),500
# of Points,5401
Start Time(min),0.000
End Time(min),45.000
Intensity Units,mV
Intensity Multiplier,0.001
R.Time (min),Intensity
0.00000,-14
0.00833,-14
0.01667,-0
0.02500,-1
0.03333,-4
0.04167,-7
0.05000,-11
0.05833,-13
0.06667,-15
0.07500,-15
0.08333,-15
0.09167,-14
0.10000,-12
0.10833,-11
0.11667,-10
0.12500,-9
0.13333,-8
0.14167,-8
0.15000,-7
0.15833,-7
0.16667,-7
0.17500,-8
0.18333,-8
0.19167,-9
0.20000,-10
0.20833,-10
0.21667,-10
0.22500,-10
0.23333,-9
0.24167,-9
0.25000,-9
0.25833,-9
0.26667,-9
0.27500,-9
0.28333,-10
0.29167,-10
0.30000,-11
0.30833,-12
0.31667,-13
0.32500,-13
0.33333,-14
0.34167,-14
0.35000,-15
0.35833,-15
0.36667,-16
0.37500,-17
0.38333,-18
0.39167,-18
0.40000,-19
0.40833,-19
0.41667,-20
0.42500,-20
0.43333,-21
0.44167,-21
0.45000,-22
0.45833,-22
0.46667,-23
0.47500,-23
0.48333,-23
0.49167,-24
0.50000,-24
0.50833,-24
0.51667,-25
0.52500,-25
0.53333,-24
0.54167,-24
0.55000,-23
0.55833,-23
0.56667,-22
0.57500,-21
0.58333,-21
0.59167,-20
0.60000,-20
0.60833,-20
0.61667,-20
0.62500,-21
0.63333,-22
0.64167,-25
0.65000,-27
0.65833,-30
0.66667,-34
0.67500,-37
0.68333,-40
0.69167,-43
0.70000,-46
0.70833,-48
0.71667,-50
0.72500,-52
0.73333,-53
0.74167,-53
0.75000,-54
0.75833,-54
0.76667,-54
0.77500,-54
0.78333,-54
0.79167,-53
0.80000,-53
0.80833,-52
0.81667,-52
0.82500,-51
0.83333,-51
0.84167,-50
0.85000,-50
0.85833,-49
0.86667,-49
0.87500,-49
0.88333,-49
0.89167,-49
0.90000,-49
0.90833,-49
0.91667,-49
0.92500,-49
0.93333,-49
0.94167,-49
0.95000,-49
0.95833,-50
0.96667,-50
0.97500,-51
0.98333,-51
0.99167,-51
1.00000,-52
1.00833,-53
1.01667,-53
1.02500,-53
1.03333,-53
1.04167,-54
1.05000,-54
1.05833,-54
1.06667,-55
1.07500,-56
1.08333,-56
1.09167,-56
1.10000,-56
1.10833,-57
1.11667,-58
1.12500,-58
1.13333,-58
1.14167,-59
1.15000,-59
1.15833,-59
1.16667,-60
1.17500,-60
1.18333,-60
1.19167,-61
1.20000,-62
1.20833,-62
1.21667,-63
1.22500,-63
1.23333,-64
1.24167,-64
1.25000,-65
1.25833,-65
1.26667,-66
1.27500,-66
1.28333,-66
1.29167,-66
1.30000,-67
1.30833,-67
1.31667,-68
1.32500,-68
1.33333,-69
1.34167,-70
1.35000,-70
1.35833,-70
1.36667,-71
1.37500,-72
1.38333,-72
1.39167,-73
1.40000,-73
1.40833,-74
1.41667,-74
1.42500,-75
1.43333,-75
1.44167,-75
1.45000,-76
1.45833,-76
1.46667,-76
1.47500,-77
1.48333,-78
1.49167,-78
1.50000,-78
1.50833,-79
1.51667,-79
1.52500,-79
1.53333,-80
1.54167,-80
1.55000,-80
1.55833,-81
1.56667,-81
1.57500,-81
1.58333,-81
1.59167,-82
1.60000,-82
1.60833,-82
1.61667,-83
1.62500,-84
1.63333,-84
1.64167,-85
1.65000,-85
1.65833,-86
1.66667,-86
1.67500,-87
1.68333,-87
1.69167,-88
1.70000,-88
1.70833,-89
1.71667,-89
1.72500,-89
1.73333,-90
1.74167,-90
1.75000,-90
1.75833,-91
1.76667,-92
1.77500,-92
1.78333,-93
1.79167,-93
1.80000,-93
1.80833,-94
1.81667,-94
1.82500,-95
1.83333,-95
1.84167,-95
1.85000,-96
1.85833,-97
1.86667,-97
1.87500,-98
1.88333,-98
1.89167,-98
1.90000,-98
1.90833,-98
1.91667,-99
1.92500,-99
1.93333,-99
1.94167,-100
1.95000,-100
1.95833,-101
1.96667,-101
1.97500,-102
1.98333,-102
1.99167,-102
2.00000,-103
2.00833,-104
2.01667,-105
2.02500,-105
2.03333,-106
2.04167,-106
2.05000,-106
2.05833,-106
2.06667,-106
2.07500,-107
2.08333,-108
2.09167,-108
2.10000,-109
2.10833,-109
2.11667,-109
2.12500,-110
2.13333,-110
2.14167,-111
2.15000,-112
2.15833,-112
2.16667,-113
2.17500,-114
2.18333,-114
2.19167,-114
2.20000,-115
2.20833,-115
2.21667,-116
2.22500,-117
2.23333,-117
2.24167,-118
2.25000,-118
2.25833,-118
2.26667,-118
2.27500,-118
2.28333,-119
2.29167,-119
2.30000,-120
2.30833,-121
2.31667,-121
2.32500,-122
2.33333,-122
2.34167,-123
2.35000,-123
2.35833,-124
2.36667,-124
2.37500,-125
2.38333,-125
2.39167,-126
2.40000,-126
2.40833,-127
2.41667,-127
2.42500,-128
2.43333,-128
2.44167,-129
2.45000,-130
2.45833,-130
2.46667,-130
2.47500,-130
2.48333,-131
2.49167,-131
2.50000,-132
2.50833,-132
2.51667,-132
2.52500,-133
2.53333,-134
2.54167,-134
2.55000,-135
2.55833,-135
2.56667,-135
2.57500,-136
2.58333,-136
2.59167,-137
2.60000,-137
2.60833,-138
2.61667,-138
2.62500,-138
2.63333,-138
2.64167,-139
2.65000,-139
2.65833,-139
2.66667,-140
2.67500,-140
2.68333,-140
2.69167,-141
2.70000,-142
2.70833,-143
2.71667,-143
2.72500,-144
2.73333,-145
2.74167,-146
2.75000,-146
2.75833,-147
2.76667,-147
2.77500,-147
2.78333,-147
2.79167,-148
2.80000,-148
2.80833,-148
2.81667,-149
2.82500,-149
2.83333,-149
2.84167,-150
2.85000,-150
2.85833,-151
2.86667,-151
2.87500,-151
2.88333,-152
2.89167,-152
2.90000,-152
2.90833,-153
2.91667,-153
2.92500,-154
2.93333,-155
2.94167,-155
2.95000,-155
2.95833,-155
2.96667,-156
2.97500,-156
2.98333,-157
2.99167,-158
3.00000,-158
3.00833,-159
3.01667,-160
3.02500,-160
3.03333,-160
3.04167,-160
3.05000,-161
3.05833,-161
3.06667,-161
3.07500,-162
3.08333,-162
3.09167,-163
3.10000,-163
3.10833,-164
3.11667,-165
3.12500,-165
3.13333,-166
3.14167,-166
3.15000,-167
3.15833,-167
3.16667,-167
3.17500,-168
3.18333,-168
3.19167,-169
3.20000,-169
3.20833,-170
3.21667,-170
3.22500,-170
3.23333,-170
3.24167,-171
3.25000,-172
3.25833,-172
3.26667,-173
3.27500,-173
3.28333,-174
3.29167,-174
3.30000,-174
3.30833,-175
3.31667,-175
3.32500,-176
3.33333,-176
3.34167,-177
3.35000,-178
3.35833,-178
3.36667,-178
3.37500,-179
3.38333,-180
3.39167,-180
3.40000,-181
3.40833,-181
3.41667,-181
3.42500,-181
3.43333,-182
3.44167,-182
3.45000,-183
3.45833,-184
3.46667,-184
3.47500,-184
3.48333,-184
3.49167,-184
3.50000,-185
3.50833,-186
3.51667,-186
3.52500,-187
3.53333,-187
3.54167,-188
3.55000,-188
3.55833,-188
3.56667,-189
3.57500,-189
3.58333,-190
3.59167,-191
3.60000,-191
3.60833,-192
3.61667,-192
3.62500,-192
3.63333,-192
3.64167,-193
3.65000,-193
3.65833,-193
3.66667,-194
3.67500,-194
3.68333,-195
3.69167,-196
3.70000,-196
3.70833,-197
3.71667,-198
3.72500,-199
3.73333,-199
3.74167,-200
3.75000,-200
3.75833,-200
3.76667,-201
3.77500,-201
3.78333,-202
3.79167,-202
3.80000,-203
3.80833,-203
3.81667,-203
3.82500,-204
3.83333,-204
3.84167,-205
3.85000,-205
3.85833,-206
3.86667,-206
3.87500,-207
3.88333,-207
3.89167,-207
3.90000,-207
3.90833,-207
3.91667,-207
3.92500,-208
3.93333,-209
3.94167,-209
3.95000,-209
3.95833,-210
3.96667,-211
3.97500,-211
3.98333,-212
3.99167,-213
4.00000,-213
4.00833,-214
4.01667,-214
4.02500,-214
4.03333,-214
4.04167,-215
4.05000,-216
4.05833,-217
4.06667,-217
4.07500,-217
4.08333,-218
4.09167,-218
4.10000,-219
4.10833,-219
4.11667,-219
4.12500,-220
4.13333,-220
4.14167,-220
4.15000,-221
4.15833,-221
4.16667,-222
4.17500,-222
4.18333,-223
4.19167,-223
4.20000,-223
4.20833,-224
4.21667,-225
4.22500,-226
4.23333,-227
4.24167,-227
4.25000,-228
4.25833,-228
4.26667,-228
4.27500,-229
4.28333,-229
4.29167,-229
4.30000,-230
4.30833,-230
4.31667,-231
4.32500,-231
4.33333,-232
4.34167,-233
4.35000,-233
4.35833,-233
4.36667,-233
4.37500,-234
4.38333,-234
4.39167,-235
4.40000,-235
4.40833,-236
4.41667,-236
4.42500,-237
4.43333,-237
4.44167,-238
4.45000,-239
4.45833,-239
4.46667,-240
4.47500,-241
4.48333,-241
4.49167,-241
4.50000,-242
4.50833,-242
4.51667,-243
4.52500,-243
4.53333,-244
4.54167,-245
4.55000,-245
4.55833,-246
4.56667,-246
4.57500,-246
4.58333,-247
4.59167,-247
4.60000,-247
4.60833,-248
4.61667,-248
4.62500,-248
4.63333,-249
4.64167,-250
4.65000,-250
4.65833,-251
4.66667,-252
4.67500,-252
4.68333,-252
4.69167,-252
4.70000,-253
4.70833,-253
4.71667,-253
4.72500,-254
4.73333,-254
4.74167,-255
4.75000,-256
4.75833,-257
4.76667,-257
4.77500,-258
4.78333,-258
4.79167,-259
4.80000,-259
4.80833,-260
4.81667,-260
4.82500,-260
4.83333,-261
4.84167,-262
4.85000,-262
4.85833,-262
4.86667,-263
4.87500,-264
4.88333,-264
4.89167,-265
4.90000,-265
4.90833,-265
4.91667,-266
4.92500,-266
4.93333,-267
4.94167,-267
4.95000,-268
4.95833,-268
4.96667,-269
4.97500,-269
4.98333,-270
4.99167,-270
5.00000,-271
5.00833,-271
5.01667,-272
5.02500,-273
5.03333,-273
5.04167,-274
5.05000,-274
5.05833,-274
5.06667,-275
5.07500,-275
5.08333,-275
5.09167,-275
5.10000,-276
5.10833,-277
5.11667,-277
5.12500,-278
5.13333,-278
5.14167,-279
5.15000,-279
5.15833,-280
5.16667,-281
5.17500,-281
5.18333,-282
5.19167,-282
5.20000,-282
5.20833,-283
5.21667,-283
5.22500,-283
5.23333,-283
5.24167,-284
5.25000,-284
5.25833,-285
5.26667,-285
5.27500,-286
5.28333,-286
5.29167,-286
5.30000,-287
5.30833,-288
5.31667,-288
5.32500,-289
5.33333,-290
5.34167,-290
5.35000,-291
5.35833,-291
5.36667,-291
5.37500,-291
5.38333,-292
5.39167,-292
5.40000,-292
5.40833,-292
5.41667,-293
5.42500,-293
5.43333,-294
5.44167,-294
5.45000,-295
5.45833,-295
5.46667,-296
5.47500,-296
5.48333,-297
5.49167,-298
5.50000,-298
5.50833,-298
5.51667,-299
5.52500,-299
5.53333,-300
5.54167,-301
5.55000,-301
5.55833,-302
5.56667,-302
5.57500,-302
5.58333,-302
5.59167,-303
5.60000,-303
5.60833,-304
5.61667,-304
5.62500,-305
5.63333,-305
5.64167,-305
5.65000,-306
5.65833,-306
5.66667,-307
5.67500,-307
5.68333,-307
5.69167,-308
5.70000,-308
5.70833,-309
5.71667,-310
5.72500,-310
5.73333,-311
5.74167,-311
5.75000,-311
5.75833,-312
5.76667,-312
5.77500,-312
5.78333,-313
5.79167,-313
5.80000,-314
5.80833,-314
5.81667,-315
5.82500,-315
5.83333,-316
5.84167,-316
5.85000,-316
5.85833,-317
5.86667,-317
5.87500,-317
5.88333,-317
5.89167,-318
5.90000,-319
5.90833,-319
5.91667,-320
5.92500,-320
5.93333,-321
5.94167,-321
5.95000,-321
5.95833,-322
5.96667,-322
5.97500,-323
5.98333,-323
5.99167,-324
6.00000,-325
6.00833,-325
6.01667,-326
6.02500,-326
6.03333,-327
6.04167,-327
6.05000,-328
6.05833,-328
6.06667,-328
6.07500,-329
6.08333,-329
6.09167,-330
6.10000,-330
6.10833,-330
6.11667,-331
6.12500,-331
6.13333,-332
6.14167,-332
6.15000,-333
6.15833,-334
6.16667,-334
6.17500,-335
6.18333,-336
6.19167,-336
6.20000,-336
6.20833,-336
6.21667,-337
6.22500,-337
6.23333,-337
6.24167,-337
6.25000,-338
6.25833,-338
6.26667,-339
6.27500,-339
6.28333,-340
6.29167,-341
6.30000,-341
6.30833,-341
6.31667,-341
6.32500,-342
6.33333,-342
6.34167,-342
6.35000,-343
6.35833,-344
6.36667,-344
6.37500,-345
6.38333,-345
6.39167,-346
6.40000,-346
6.40833,-347
6.41667,-348
6.42500,-348
6.43333,-348
6.44167,-348
6.45000,-349
6.45833,-349
6.46667,-349
6.47500,-349
6.48333,-350
6.49167,-350
6.50000,-351
6.50833,-352
6.51667,-352
6.52500,-353
6.53333,-354
6.54167,-354
6.55000,-355
6.55833,-356
6.56667,-356
6.57500,-356
6.58333,-357
6.59167,-357
6.60000,-357
6.60833,-357
6.61667,-358
6.62500,-358
6.63333,-358
6.64167,-359
6.65000,-360
6.65833,-360
6.66667,-361
6.67500,-361
6.68333,-361
6.69167,-362
6.70000,-362
6.70833,-363
6.71667,-363
6.72500,-364
6.73333,-365
6.74167,-365
6.75000,-366
6.75833,-366
6.76667,-367
6.77500,-367
6.78333,-367
6.79167,-367
6.80000,-368
6.80833,-368
6.81667,-369
6.82500,-369
6.83333,-370
6.84167,-371
6.85000,-372
6.85833,-372
6.86667,-373
6.87500,-373
6.88333,-374
6.89167,-374
6.90000,-374
6.90833,-375
6.91667,-375
6.92500,-375
6.93333,-376
6.94167,-376
6.95000,-376
6.95833,-377
6.96667,-377
6.97500,-378
6.98333,-378
6.99167,-379
7.00000,-379
7.00833,-380
7.01667,-381
7.02500,-381
7.03333,-381
7.04167,-382
7.05000,-382
7.05833,-382
7.06667,-383
7.07500,-383
7.08333,-384
7.09167,-384
7.10000,-384
7.10833,-385
7.11667,-385
7.12500,-386
7.13333,-387
7.14167,-387
7.15000,-388
7.15833,-388
7.16667,-389
7.17500,-389
7.18333,-390
7.19167,-391
7.20000,-391
7.20833,-392
7.21667,-392
7.22500,-393
7.23333,-393
7.24167,-394
7.25000,-394
7.25833,-395
7.26667,-395
7.27500,-396
7.28333,-397
7.29167,-397
7.30000,-397
7.30833,-397
7.31667,-398
7.32500,-398
7.33333,-398
7.34167,-398
7.35000,-399
7.35833,-399
7.36667,-399
7.37500,-400
7.38333,-400
7.39167,-400
7.40000,-401
7.40833,-401
7.41667,-402
7.42500,-402
7.43333,-402
7.44167,-403
7.45000,-404
7.45833,-405
7.46667,-405
7.47500,-406
7.48333,-406
7.49167,-406
7.50000,-406
7.50833,-407
7.51667,-407
7.52500,-408
7.53333,-408
7.54167,-409
7.55000,-409
7.55833,-410
7.56667,-410
7.57500,-410
7.58333,-411
7.59167,-412
7.60000,-412
7.60833,-412
7.61667,-413
7.62500,-414
7.63333,-414
7.64167,-415
7.65000,-415
7.65833,-416
7.66667,-416
7.67500,-417
7.68333,-417
7.69167,-417
7.70000,-418
7.70833,-418
7.71667,-418
7.72500,-419
7.73333,-419
7.74167,-419
7.75000,-420
7.75833,-421
7.76667,-422
7.77500,-423
7.78333,-423
7.79167,-424
7.80000,-424
7.80833,-425
7.81667,-425
7.82500,-426
7.83333,-426
7.84167,-427
7.85000,-427
7.85833,-427
7.86667,-428
7.87500,-428
7.88333,-428
7.89167,-429
7.90000,-429
7.90833,-430
7.91667,-430
7.92500,-430
7.93333,-431
7.94167,-431
7.95000,-432
7.95833,-432
7.96667,-433
7.97500,-433
7.98333,-433
7.99167,-434
8.00000,-434
8.00833,-435
8.01667,-435
8.02500,-436
8.03333,-436
8.04167,-437
8.05000,-437
8.05833,-437
8.06667,-437
8.07500,-438
8.08333,-438
8.09167,-439
8.10000,-440
8.10833,-441
8.11667,-441
8.12500,-442
8.13333,-442
8.14167,-443
8.15000,-444
8.15833,-445
8.16667,-445
8.17500,-445
8.18333,-446
8.19167,-446
8.20000,-446
8.20833,-446
8.21667,-446
8.22500,-447
8.23333,-448
8.24167,-448
8.25000,-449
8.25833,-449
8.26667,-450
8.27500,-450
8.28333,-450
8.29167,-451
8.30000,-452
8.30833,-453
8.31667,-453
8.32500,-453
8.33333,-454
8.34167,-454
8.35000,-454
8.35833,-454
8.36667,-455
8.37500,-455
8.38333,-456
8.39167,-457
8.40000,-457
8.40833,-457
8.41667,-458
8.42500,-458
8.43333,-458
8.44167,-459
8.45000,-459
8.45833,-459
8.46667,-460
8.47500,-461
8.48333,-461
8.49167,-462
8.50000,-462
8.50833,-463
8.51667,-463
8.52500,-464
8.53333,-464
8.54167,-465
8.55000,-466
8.55833,-466
8.56667,-467
8.57500,-467
8.58333,-468
8.59167,-468
8.60000,-469
8.60833,-469
8.61667,-470
8.62500,-470
8.63333,-471
8.64167,-471
8.65000,-472
8.65833,-472
8.66667,-473
8.67500,-473
8.68333,-474
8.69167,-474
8.70000,-475
8.70833,-475
8.71667,-475
8.72500,-475
8.73333,-476
8.74167,-476
8.75000,-476
8.75833,-477
8.76667,-478
8.77500,-478
8.78333,-479
8.79167,-479
8.80000,-480
8.80833,-480
8.81667,-481
8.82500,-482
8.83333,-482
8.84167,-483
8.85000,-483
8.85833,-484
8.86667,-484
8.87500,-484
8.88333,-485
8.89167,-485
8.90000,-486
8.90833,-486
8.91667,-486
8.92500,-486
8.93333,-486
8.94167,-486
8.95000,-487
8.95833,-487
8.96667,-488
8.97500,-489
8.98333,-489
8.99167,-490
9.00000,-490
9.00833,-490
9.01667,-491
9.02500,-491
9.03333,-492
9.04167,-493
9.05000,-493
9.05833,-494
9.06667,-494
9.07500,-494
9.08333,-495
9.09167,-495
9.10000,-496
9.10833,-497
9.11667,-497
9.12500,-497
9.13333,-497
9.14167,-498
9.15000,-498
9.15833,-498
9.16667,-498
9.17500,-499
9.18333,-499
9.19167,-500
9.20000,-501
9.20833,-502
9.21667,-502
9.22500,-502
9.23333,-503
9.24167,-503
9.25000,-503
9.25833,-504
9.26667,-504
9.27500,-505
9.28333,-506
9.29167,-506
9.30000,-507
9.30833,-507
9.31667,-507
9.32500,-508
9.33333,-508
9.34167,-509
9.35000,-509
9.35833,-509
9.36667,-510
9.37500,-510
9.38333,-511
9.39167,-511
9.40000,-512
9.40833,-512
9.41667,-513
9.42500,-513
9.43333,-514
9.44167,-514
9.45000,-515
9.45833,-515
9.46667,-516
9.47500,-516
9.48333,-517
9.49167,-517
9.50000,-518
9.50833,-518
9.51667,-519
9.52500,-519
9.53333,-520
9.54167,-520
9.55000,-521
9.55833,-522
9.56667,-523
9.57500,-523
9.58333,-523
9.59167,-523
9.60000,-523
9.60833,-524
9.61667,-524
9.62500,-525
9.63333,-525
9.64167,-526
9.65000,-526
9.65833,-526
9.66667,-526
9.67500,-527
9.68333,-527
9.69167,-528
9.70000,-528
9.70833,-528
9.71667,-529
9.72500,-530
9.73333,-530
9.74167,-531
9.75000,-532
9.75833,-533
9.76667,-533
9.77500,-533
9.78333,-534
9.79167,-534
9.80000,-534
9.80833,-535
9.81667,-535
9.82500,-535
9.83333,-536
9.84167,-537
9.85000,-538
9.85833,-538
9.86667,-539
9.87500,-539
9.88333,-539
9.89167,-540
9.90000,-540
9.90833,-540
9.91667,-541
9.92500,-541
9.93333,-542
9.94167,-542
9.95000,-543
9.95833,-544
9.96667,-545
9.97500,-545
9.98333,-546
9.99167,-546
10.00000,-546
10.00833,-546
10.01667,-546
10.02500,-547
10.03333,-548
10.04167,-548
10.05000,-549
10.05833,-550
10.06667,-550
10.07500,-551
10.08333,-551
10.09167,-551
10.10000,-552
10.10833,-552
10.11667,-552
10.12500,-552
10.13333,-553
10.14167,-553
10.15000,-554
10.15833,-554
10.16667,-555
10.17500,-555
10.18333,-556
10.19167,-556
10.20000,-557
10.20833,-558
10.21667,-558
10.22500,-559
10.23333,-559
10.24167,-560
10.25000,-561
10.25833,-562
10.26667,-562
10.27500,-562
10.28333,-562
10.29167,-562
10.30000,-562
10.30833,-563
10.31667,-562
10.32500,-562
10.33333,-562
10.34167,-561
10.35000,-561
10.35833,-560
10.36667,-560
10.37500,-559
10.38333,-559
10.39167,-558
10.40000,-558
10.40833,-557
10.41667,-557
10.42500,-557
10.43333,-557
10.44167,-557
10.45000,-557
10.45833,-558
10.46667,-558
10.47500,-559
10.48333,-560
10.49167,-561
10.50000,-563
10.50833,-565
10.51667,-569
10.52500,-574
10.53333,-581
10.54167,-590
10.55000,-603
10.55833,-620
10.56667,-642
10.57500,-670
10.58333,-708
10.59167,-755
10.60000,-814
10.60833,-886
10.61667,-974
10.62500,-1078
10.63333,-1199
10.64167,-1338
10.65000,-1495
10.65833,-1668
10.66667,-1855
10.67500,-2053
10.68333,-2255
10.69167,-2457
10.70000,-2650
10.70833,-2825
10.71667,-2971
10.72500,-3078
10.73333,-3132
10.74167,-3122
10.75000,-3034
10.75833,-2854
10.76667,-2572
10.77500,-2173
10.78333,-1648
10.79167,-985
10.80000,-175
10.80833,790
10.81667,1915
10.82500,3206
10.83333,4664
10.84167,6292
10.85000,8089
10.85833,10051
10.86667,12176
10.87500,14455
10.88333,16881
10.89167,19442
10.90000,22126
10.90833,24915
10.91667,27792
10.92500,30733
10.93333,33712
10.94167,36699
10.95000,39660
10.95833,42556
10.96667,45346
10.97500,47984
10.98333,50424
10.99167,52616
11.00000,54516
11.00833,56078
11.01667,57265
11.02500,58044
11.03333,58396
11.04167,58308
11.05000,57783
11.05833,56835
11.06667,55487
11.07500,53776
11.08333,51745
11.09167,49444
11.10000,46927
11.10833,44250
11.11667,41466
11.12500,38627
11.13333,35782
11.14167,32972
11.15000,30231
11.15833,27590
11.16667,25071
11.17500,22690
11.18333,20458
11.19167,18382
11.20000,16465
11.20833,14704
11.21667,13097
11.22500,11636
11.23333,10314
11.24167,9123
11.25000,8053
11.25833,7095
11.26667,6240
11.27500,5479
11.28333,4803
11.29167,4203
11.30000,3672
11.30833,3202
11.31667,2788
11.32500,2423
11.33333,2102
11.34167,1819
11.35000,1569
11.35833,1350
11.36667,1157
11.37500,986
11.38333,836
11.39167,704
11.40000,587
11.40833,484
11.41667,393
11.42500,312
11.43333,240
11.44167,177
11.45000,120
11.45833,69
11.46667,23
11.47500,-18
11.48333,-55
11.49167,-88
11.50000,-119
11.50833,-146
11.51667,-171
11.52500,-194
11.53333,-215
11.54167,-235
11.55000,-253
11.55833,-270
11.56667,-285
11.57500,-300
11.58333,-313
11.59167,-325
11.60000,-337
11.60833,-347
11.61667,-357
11.62500,-367
11.63333,-376
11.64167,-385
11.65000,-393
11.65833,-401
11.66667,-409
11.67500,-416
11.68333,-422
11.69167,-428
11.70000,-434
11.70833,-440
11.71667,-445
11.72500,-450
11.73333,-456
11.74167,-461
11.75000,-466
11.75833,-470
11.76667,-475
11.77500,-479
11.78333,-483
11.79167,-488
11.80000,-492
11.80833,-496
11.81667,-499
11.82500,-502
11.83333,-505
11.84167,-508
11.85000,-511
11.85833,-515
11.86667,-517
11.87500,-520
11.88333,-522
11.89167,-525
11.90000,-528
11.90833,-530
11.91667,-533
11.92500,-535
11.93333,-537
11.94167,-539
11.95000,-541
11.95833,-544
11.96667,-545
11.97500,-547
11.98333,-549
11.99167,-551
12.00000,-553
12.00833,-554
12.01667,-555
12.02500,-557
12.03333,-558
12.04167,-559
12.05000,-561
12.05833,-562
12.06667,-563
12.07500,-564
12.08333,-565
12.09167,-566
12.10000,-567
12.10833,-568
12.11667,-568
12.12500,-569
12.13333,-570
12.14167,-570
12.15000,-571
12.15833,-572
12.16667,-573
12.17500,-573
12.18333,-574
12.19167,-574
12.20000,-575
12.20833,-576
12.21667,-576
12.22500,-577
12.23333,-577
12.24167,-577
12.25000,-578
12.25833,-579
12.26667,-580
12.27500,-580
12.28333,-581
12.29167,-581
12.30000,-581
12.30833,-582
12.31667,-583
12.32500,-583
12.33333,-583
12.34167,-584
12.35000,-584
12.35833,-584
12.36667,-585
12.37500,-585
12.38333,-585
12.39167,-586
12.40000,-586
12.40833,-587
12.41667,-587
12.42500,-587
12.43333,-588
12.44167,-589
12.45000,-590
12.45833,-590
12.46667,-591
12.47500,-592
12.48333,-592
12.49167,-593
12.50000,-593
12.50833,-594
12.51667,-595
12.52500,-596
12.53333,-597
12.54167,-597
12.55000,-598
12.55833,-599
12.56667,-600
12.57500,-601
12.58333,-602
12.59167,-603
12.60000,-604
12.60833,-605
12.61667,-606
12.62500,-607
12.63333,-607
12.64167,-608
12.65000,-610
12.65833,-610
12.66667,-611
12.67500,-612
12.68333,-613
12.69167,-613
12.70000,-614
12.70833,-616
12.71667,-616
12.72500,-617
12.73333,-618
12.74167,-619
12.75000,-621
12.75833,-621
12.76667,-622
12.77500,-623
12.78333,-624
12.79167,-625
12.80000,-625
12.80833,-626
12.81667,-627
12.82500,-629
12.83333,-630
12.84167,-631
12.85000,-632
12.85833,-633
12.86667,-634
12.87500,-635
12.88333,-635
12.89167,-636
12.90000,-637
12.90833,-638
12.91667,-639
12.92500,-640
12.93333,-641
12.94167,-642
12.95000,-643
12.95833,-643
12.96667,-644
12.97500,-645
12.98333,-646
12.99167,-647
13.00000,-648
13.00833,-649
13.01667,-649
13.02500,-650
13.03333,-651
13.04167,-652
13.05000,-652
13.05833,-653
13.06667,-654
13.07500,-655
13.08333,-656
13.09167,-657
13.10000,-658
13.10833,-659
13.11667,-659
13.12500,-660
13.13333,-661
13.14167,-662
13.15000,-662
13.15833,-663
13.16667,-664
13.17500,-665
13.18333,-665
13.19167,-666
13.20000,-667
13.20833,-667
13.21667,-669
13.22500,-670
13.23333,-671
13.24167,-672
13.25000,-672
13.25833,-673
13.26667,-674
13.27500,-675
13.28333,-676
13.29167,-676
13.30000,-677
13.30833,-678
13.31667,-679
13.32500,-680
13.33333,-681
13.34167,-682
13.35000,-682
13.35833,-683
13.36667,-683
13.37500,-684
13.38333,-685
13.39167,-685
13.40000,-686
13.40833,-687
13.41667,-687
13.42500,-688
13.43333,-688
13.44167,-689
13.45000,-690
13.45833,-690
13.46667,-691
13.47500,-692
13.48333,-692
13.49167,-693
13.50000,-694
13.50833,-695
13.51667,-696
13.52500,-697
13.53333,-697
13.54167,-698
13.55000,-698
13.55833,-698
13.56667,-699
13.57500,-699
13.58333,-700
13.59167,-701
13.60000,-701
13.60833,-702
13.61667,-702
13.62500,-703
13.63333,-703
13.64167,-704
13.65000,-705
13.65833,-705
13.66667,-705
13.67500,-705
13.68333,-705
13.69167,-705
13.70000,-705
13.70833,-706
13.71667,-706
13.72500,-706
13.73333,-707
13.74167,-707
13.75000,-707
13.75833,-707
13.76667,-707
13.77500,-707
13.78333,-707
13.79167,-707
13.80000,-707
13.80833,-707
13.81667,-707
13.82500,-707
13.83333,-707
13.84167,-708
13.85000,-708
13.85833,-708
13.86667,-708
13.87500,-708
13.88333,-708
13.89167,-707
13.90000,-707
13.90833,-707
13.91667,-706
13.92500,-706
13.93333,-706
13.94167,-705
13.95000,-705
13.95833,-705
13.96667,-704
13.97500,-704
13.98333,-704
13.99167,-703
14.00000,-703
14.00833,-702
14.01667,-702
14.02500,-702
14.03333,-701
14.04167,-701
14.05000,-701
14.05833,-700
14.06667,-700
14.07500,-699
14.08333,-698
14.09167,-696
14.10000,-695
14.10833,-694
14.11667,-693
14.12500,-691
14.13333,-690
14.14167,-688
14.15000,-685
14.15833,-683
14.16667,-679
14.17500,-675
14.18333,-670
14.19167,-664
14.20000,-657
14.20833,-648
14.21667,-638
14.22500,-625
14.23333,-610
14.24167,-591
14.25000,-569
14.25833,-543
14.26667,-511
14.27500,-474
14.28333,-429
14.29167,-376
14.30000,-313
14.30833,-239
14.31667,-153
14.32500,-54
14.33333,61
14.34167,194
14.35000,345
14.35833,516
14.36667,711
14.37500,929
14.38333,1174
14.39167,1447
14.40000,1749
14.40833,2082
14.41667,2447
14.42500,2846
14.43333,3280
14.44167,3750
14.45000,4256
14.45833,4800
14.46667,5382
14.47500,6002
14.48333,6660
14.49167,7357
14.50000,8093
14.50833,8867
14.51667,9679
14.52500,10530
14.53333,11418
14.54167,12342
14.55000,13304
14.55833,14301
14.56667,15334
14.57500,16401
14.58333,17502
14.59167,18637
14.60000,19804
14.60833,21004
14.61667,22234
14.62500,23496
14.63333,24787
14.64167,26109
14.65000,27459
14.65833,28838
14.66667,30245
14.67500,31680
14.68333,33142
14.69167,34630
14.70000,36144
14.70833,37685
14.71667,39251
14.72500,40843
14.73333,42459
14.74167,44101
14.75000,45766
14.75833,47456
14.76667,49170
14.77500,50908
14.78333,52668
14.79167,54452
14.80000,56260
14.80833,58090
14.81667,59942
14.82500,61816
14.83333,63713
14.84167,65631
14.85000,67570
14.85833,69530
14.86667,71510
14.87500,73510
14.88333,75529
14.89167,77567
14.90000,79622
14.90833,81694
14.91667,83782
14.92500,85884
14.93333,87998
14.94167,90121
14.95000,92251
14.95833,94383
14.96667,96512
14.97500,98630
14.98333,100726
14.99167,102785
15.00000,104787
15.00833,106705
15.01667,108506
15.02500,110149
15.03333,111584
15.04167,112758
15.05000,113609
15.05833,114077
15.06667,114101
15.07500,113627
15.08333,112612
15.09167,111023
15.10000,108846
15.10833,106086
15.11667,102767
15.12500,98932
15.13333,94641
15.14167,89969
15.15000,85000
15.15833,79825
15.16667,74533
15.17500,69215
15.18333,63950
15.19167,58811
15.20000,53859
15.20833,49142
15.21667,44697
15.22500,40548
15.23333,36708
15.24167,33180
15.25000,29960
15.25833,27040
15.26667,24403
15.27500,22031
15.28333,19905
15.29167,18003
15.30000,16305
15.30833,14791
15.31667,13440
15.32500,12235
15.33333,11159
15.34167,10197
15.35000,9335
15.35833,8562
15.36667,7866
15.37500,7239
15.38333,6671
15.39167,6157
15.40000,5689
15.40833,5262
15.41667,4871
15.42500,4513
15.43333,4183
15.44167,3880
15.45000,3599
15.45833,3339
15.46667,3097
15.47500,2873
15.48333,2663
15.49167,2468
15.50000,2286
15.50833,2115
15.51667,1955
15.52500,1805
15.53333,1665
15.54167,1533
15.55000,1410
15.55833,1293
15.56667,1184
15.57500,1082
15.58333,986
15.59167,896
15.60000,811
15.60833,731
15.61667,656
15.62500,585
15.63333,519
15.64167,457
15.65000,399
15.65833,344
15.66667,293
15.67500,245
15.68333,201
15.69167,159
15.70000,119
15.70833,83
15.71667,48
15.72500,15
15.73333,-15
15.74167,-43
15.75000,-70
15.75833,-95
15.76667,-118
15.77500,-140
15.78333,-160
15.79167,-179
15.80000,-197
15.80833,-214
15.81667,-230
15.82500,-245
15.83333,-259
15.84167,-272
15.85000,-284
15.85833,-296
15.86667,-307
15.87500,-317
15.88333,-327
15.89167,-337
15.90000,-346
15.90833,-354
15.91667,-362
15.92500,-370
15.93333,-377
15.94167,-384
15.95000,-391
15.95833,-397
15.96667,-403
15.97500,-409
15.98333,-414
15.99167,-420
16.00000,-424
16.00833,-429
16.01667,-435
16.02500,-440
16.03333,-444
16.04167,-449
16.05000,-453
16.05833,-458
16.06667,-462
16.07500,-466
16.08333,-470
16.09167,-474
16.10000,-478
16.10833,-482
16.11667,-486
16.12500,-490
16.13333,-493
16.14167,-497
16.15000,-500
16.15833,-504
16.16667,-507
16.17500,-511
16.18333,-514
16.19167,-518
16.20000,-521
16.20833,-524
16.21667,-528
16.22500,-531
16.23333,-535
16.24167,-539
16.25000,-542
16.25833,-545
16.26667,-549
16.27500,-552
16.28333,-555
16.29167,-559
16.30000,-562
16.30833,-566
16.31667,-569
16.32500,-572
16.33333,-575
16.34167,-578
16.35000,-581
16.35833,-584
16.36667,-587
16.37500,-590
16.38333,-593
16.39167,-596
16.40000,-600
16.40833,-603
16.41667,-606
16.42500,-609
16.43333,-612
16.44167,-615
16.45000,-618
16.45833,-621
16.46667,-624
16.47500,-627
16.48333,-630
16.49167,-633
16.50000,-636
16.50833,-639
16.51667,-642
16.52500,-645
16.53333,-648
16.54167,-650
16.55000,-653
16.55833,-655
16.56667,-658
16.57500,-660
16.58333,-662
16.59167,-665
16.60000,-668
16.60833,-670
16.61667,-673
16.62500,-675
16.63333,-677
16.64167,-679
16.65000,-681
16.65833,-684
16.66667,-686
16.67500,-689
16.68333,-691
16.69167,-694
16.70000,-696
16.70833,-698
16.71667,-700
16.72500,-702
16.73333,-704
16.74167,-706
16.75000,-708
16.75833,-710
16.76667,-712
16.77500,-714
16.78333,-716
16.79167,-718
16.80000,-720
16.80833,-722
16.81667,-724
16.82500,-725
16.83333,-727
16.84167,-729
16.85000,-731
16.85833,-733
16.86667,-735
16.87500,-737
16.88333,-739
16.89167,-741
16.90000,-743
16.90833,-744
16.91667,-746
16.92500,-748
16.93333,-749
16.94167,-751
16.95000,-752
16.95833,-754
16.96667,-756
16.97500,-757
16.98333,-759
16.99167,-761
17.00000,-763
17.00833,-765
17.01667,-766
17.02500,-768
17.03333,-770
17.04167,-771
17.05000,-772
17.05833,-774
17.06667,-775
17.07500,-777
17.08333,-778
17.09167,-780
17.10000,-781
17.10833,-783
17.11667,-784
17.12500,-786
17.13333,-787
17.14167,-788
17.15000,-790
17.15833,-791
17.16667,-793
17.17500,-794
17.18333,-796
17.19167,-797
17.20000,-799
17.20833,-801
17.21667,-802
17.22500,-804
17.23333,-805
17.24167,-806
17.25000,-808
17.25833,-809
17.26667,-810
17.27500,-812
17.28333,-813
17.29167,-815
17.30000,-816
17.30833,-818
17.31667,-819
17.32500,-820
17.33333,-822
17.34167,-823
17.35000,-825
17.35833,-826
17.36667,-827
17.37500,-829
17.38333,-830
17.39167,-831
17.40000,-833
17.40833,-834
17.41667,-836
17.42500,-837
17.43333,-839
17.44167,-840
17.45000,-841
17.45833,-842
17.46667,-843
17.47500,-845
17.48333,-846
17.49167,-847
17.50000,-848
17.50833,-850
17.51667,-851
17.52500,-852
17.53333,-854
17.54167,-855
17.55000,-856
17.55833,-858
17.56667,-859
17.57500,-860
17.58333,-862
17.59167,-863
17.60000,-864
17.60833,-866
17.61667,-867
17.62500,-869
17.63333,-870
17.64167,-871
17.65000,-872
17.65833,-873
17.66667,-874
17.67500,-875
17.68333,-876
17.69167,-878
17.70000,-880
17.70833,-881
17.71667,-882
17.72500,-883
17.73333,-885
17.74167,-886
17.75000,-888
17.75833,-889
17.76667,-890
17.77500,-890
17.78333,-891
17.79167,-892
17.80000,-893
17.80833,-895
17.81667,-896
17.82500,-897
17.83333,-899
17.84167,-900
17.85000,-901
17.85833,-902
17.86667,-903
17.87500,-904
17.88333,-905
17.89167,-906
17.90000,-908
17.90833,-909
17.91667,-910
17.92500,-911
17.93333,-912
17.94167,-913
17.95000,-914
17.95833,-915
17.96667,-916
17.97500,-917
17.98333,-918
17.99167,-919
18.00000,-920
18.00833,-920
18.01667,-921
18.02500,-922
18.03333,-924
18.04167,-924
18.05000,-925
18.05833,-926
18.06667,-927
18.07500,-929
18.08333,-929
18.09167,-930
18.10000,-931
18.10833,-932
18.11667,-933
18.12500,-934
18.13333,-935
18.14167,-936
18.15000,-937
18.15833,-938
18.16667,-939
18.17500,-940
18.18333,-941
18.19167,-941
18.20000,-942
18.20833,-943
18.21667,-944
18.22500,-945
18.23333,-946
18.24167,-947
18.25000,-948
18.25833,-949
18.26667,-950
18.27500,-951
18.28333,-952
18.29167,-953
18.30000,-953
18.30833,-954
18.31667,-955
18.32500,-956
18.33333,-958
18.34167,-958
18.35000,-959
18.35833,-960
18.36667,-961
18.37500,-962
18.38333,-962
18.39167,-963
18.40000,-964
18.40833,-965
18.41667,-966
18.42500,-967
18.43333,-968
18.44167,-969
18.45000,-970
18.45833,-971
18.46667,-972
18.47500,-972
18.48333,-973
18.49167,-973
18.50000,-974
18.50833,-975
18.51667,-976
18.52500,-977
18.53333,-978
18.54167,-979
18.55000,-980
18.55833,-981
18.56667,-982
18.57500,-983
18.58333,-984
18.59167,-984
18.60000,-985
18.60833,-986
18.61667,-986
18.62500,-987
18.63333,-987
18.64167,-988
18.65000,-989
18.65833,-990
18.66667,-990
18.67500,-991
18.68333,-992
18.69167,-992
18.70000,-993
18.70833,-993
18.71667,-993
18.72500,-993
18.73333,-993
18.74167,-992
18.75000,-991
18.75833,-991
18.76667,-991
18.77500,-991
18.78333,-992
18.79167,-992
18.80000,-992
18.80833,-993
18.81667,-994
18.82500,-995
18.83333,-996
18.84167,-996
18.85000,-996
18.85833,-997
18.86667,-997
18.87500,-998
18.88333,-998
18.89167,-999
18.90000,-1000
18.90833,-1001
18.91667,-1001
18.92500,-1002
18.93333,-1003
18.94167,-1004
18.95000,-1005
18.95833,-1006
18.96667,-1007
18.97500,-1008
18.98333,-1009
18.99167,-1010
19.00000,-1011
19.00833,-1012
19.01667,-1013
19.02500,-1015
19.03333,-1016
19.04167,-1017
19.05000,-1018
19.05833,-1019
19.06667,-1020
19.07500,-1022
19.08333,-1023
19.09167,-1024
19.10000,-1025
19.10833,-1027
19.11667,-1028
19.12500,-1030
19.13333,-1031
19.14167,-1032
19.15000,-1033
19.15833,-1034
19.16667,-1035
19.17500,-1037
19.18333,-1038
19.19167,-1039
19.20000,-1040
19.20833,-1040
19.21667,-1041
19.22500,-1042
19.23333,-1043
19.24167,-1044
19.25000,-1044
19.25833,-1045
19.26667,-1047
19.27500,-1048
19.28333,-1049
19.29167,-1049
19.30000,-1050
19.30833,-1051
19.31667,-1052
19.32500,-1054
19.33333,-1055
19.34167,-1056
19.35000,-1057
19.35833,-1058
19.36667,-1059
19.37500,-1059
19.38333,-1060
19.39167,-1061
19.40000,-1062
19.40833,-1063
19.41667,-1064
19.42500,-1064
19.43333,-1065
19.44167,-1066
19.45000,-1066
19.45833,-1067
19.46667,-1068
19.47500,-1069
19.48333,-1070
19.49167,-1070
19.50000,-1071
19.50833,-1071
19.51667,-1072
19.52500,-1073
19.53333,-1074
19.54167,-1075
19.55000,-1076
19.55833,-1076
19.56667,-1077
19.57500,-1077
19.58333,-1078
19.59167,-1079
19.60000,-1079
19.60833,-1080
19.61667,-1080
19.62500,-1081
19.63333,-1082
19.64167,-1082
19.65000,-1083
19.65833,-1083
19.66667,-1084
19.67500,-1085
19.68333,-1086
19.69167,-1086
19.70000,-1087
19.70833,-1088
19.71667,-1089
19.72500,-1090
19.73333,-1090
19.74167,-1091
19.75000,-1092
19.75833,-1093
19.76667,-1093
19.77500,-1094
19.78333,-1095
19.79167,-1095
19.80000,-1096
19.80833,-1097
19.81667,-1098
19.82500,-1099
19.83333,-1099
19.84167,-1100
19.85000,-1100
19.85833,-1101
19.86667,-1103
19.87500,-1103
19.88333,-1104
19.89167,-1105
19.90000,-1105
19.90833,-1105
19.91667,-1106
19.92500,-1106
19.93333,-1107
19.94167,-1107
19.95000,-1108
19.95833,-1109
19.96667,-1109
19.97500,-1110
19.98333,-1111
19.99167,-1112
20.00000,-1113
20.00833,-1113
20.01667,-1114
20.02500,-1115
20.03333,-1115
20.04167,-1115
20.05000,-1116
20.05833,-1117
20.06667,-1117
20.07500,-1118
20.08333,-1119
20.09167,-1120
20.10000,-1120
20.10833,-1121
20.11667,-1121
20.12500,-1121
20.13333,-1122
20.14167,-1123
20.15000,-1123
20.15833,-1124
20.16667,-1124
20.17500,-1125
20.18333,-1125
20.19167,-1126
20.20000,-1127
20.20833,-1127
20.21667,-1128
20.22500,-1128
20.23333,-1129
20.24167,-1130
20.25000,-1130
20.25833,-1131
20.26667,-1132
20.27500,-1132
20.28333,-1133
20.29167,-1134
20.30000,-1135
20.30833,-1136
20.31667,-1137
20.32500,-1137
20.33333,-1137
20.34167,-1138
20.35000,-1138
20.35833,-1139
20.36667,-1139
20.37500,-1140
20.38333,-1140
20.39167,-1140
20.40000,-1140
20.40833,-1141
20.41667,-1141
20.42500,-1142
20.43333,-1143
20.44167,-1143
20.45000,-1144
20.45833,-1145
20.46667,-1146
20.47500,-1147
20.48333,-1148
20.49167,-1148
20.50000,-1148
20.50833,-1148
20.51667,-1149
20.52500,-1149
20.53333,-1150
20.54167,-1151
20.55000,-1152
20.55833,-1152
20.56667,-1153
20.57500,-1153
20.58333,-1154
20.59167,-1154
20.60000,-1155
20.60833,-1155
20.61667,-1156
20.62500,-1157
20.63333,-1158
20.64167,-1158
20.65000,-1159
20.65833,-1159
20.66667,-1160
20.67500,-1161
20.68333,-1161
20.69167,-1162
20.70000,-1163
20.70833,-1163
20.71667,-1164
20.72500,-1165
20.73333,-1165
20.74167,-1166
20.75000,-1166
20.75833,-1167
20.76667,-1168
20.77500,-1168
20.78333,-1169
20.79167,-1169
20.80000,-1170
20.80833,-1171
20.81667,-1171
20.82500,-1172
20.83333,-1172
20.84167,-1173
20.85000,-1174
20.85833,-1174
20.86667,-1175
20.87500,-1176
20.88333,-1176
20.89167,-1177
20.90000,-1177
20.90833,-1178
20.91667,-1178
20.92500,-1179
20.93333,-1180
20.94167,-1180
20.95000,-1181
20.95833,-1182
20.96667,-1182
20.97500,-1183
20.98333,-1183
20.99167,-1184
21.00000,-1184
21.00833,-1185
21.01667,-1185
21.02500,-1186
21.03333,-1187
21.04167,-1187
21.05000,-1188
21.05833,-1189
21.06667,-1190
21.07500,-1190
21.08333,-1191
21.09167,-1191
21.10000,-1192
21.10833,-1192
21.11667,-1193
21.12500,-1194
21.13333,-1194
21.14167,-1195
21.15000,-1195
21.15833,-1196
21.16667,-1197
21.17500,-1197
21.18333,-1198
21.19167,-1199
21.20000,-1199
21.20833,-1200
21.21667,-1200
21.22500,-1201
21.23333,-1201
21.24167,-1201
21.25000,-1202
21.25833,-1203
21.26667,-1204
21.27500,-1204
21.28333,-1205
21.29167,-1206
21.30000,-1207
21.30833,-1207
21.31667,-1208
21.32500,-1208
21.33333,-1209
21.34167,-1209
21.35000,-1210
21.35833,-1211
21.36667,-1212
21.37500,-1212
21.38333,-1212
21.39167,-1213
21.40000,-1214
21.40833,-1215
21.41667,-1215
21.42500,-1216
21.43333,-1216
21.44167,-1217
21.45000,-1218
21.45833,-1219
21.46667,-1219
21.47500,-1220
21.48333,-1220
21.49167,-1221
21.50000,-1221
21.50833,-1222
21.51667,-1222
21.52500,-1223
21.53333,-1223
21.54167,-1224
21.55000,-1224
21.55833,-1225
21.56667,-1225
21.57500,-1226
21.58333,-1226
21.59167,-1227
21.60000,-1227
21.60833,-1227
21.61667,-1228
21.62500,-1229
21.63333,-1229
21.64167,-1230
21.65000,-1231
21.65833,-1231
21.66667,-1232
21.67500,-1232
21.68333,-1232
21.69167,-1233
21.70000,-1233
21.70833,-1232
21.71667,-1231
21.72500,-1230
21.73333,-1229
21.74167,-1229
21.75000,-1229
21.75833,-1229
21.76667,-1230
21.77500,-1230
21.78333,-1230
21.79167,-1231
21.80000,-1231
21.80833,-1232
21.81667,-1232
21.82500,-1233
21.83333,-1234
21.84167,-1234
21.85000,-1235
21.85833,-1235
21.86667,-1235
21.87500,-1235
21.88333,-1236
21.89167,-1237
21.90000,-1237
21.90833,-1238
21.91667,-1239
21.92500,-1240
21.93333,-1240
21.94167,-1241
21.95000,-1241
21.95833,-1242
21.96667,-1242
21.97500,-1243
21.98333,-1243
21.99167,-1244
22.00000,-1244
22.00833,-1244
22.01667,-1244
22.02500,-1245
22.03333,-1245
22.04167,-1246
22.05000,-1247
22.05833,-1247
22.06667,-1247
22.07500,-1247
22.08333,-1247
22.09167,-1248
22.10000,-1249
22.10833,-1250
22.11667,-1251
22.12500,-1252
22.13333,-1252
22.14167,-1253
22.15000,-1253
22.15833,-1254
22.16667,-1255
22.17500,-1256
22.18333,-1256
22.19167,-1257
22.20000,-1258
22.20833,-1259
22.21667,-1260
22.22500,-1260
22.23333,-1261
22.24167,-1261
22.25000,-1262
22.25833,-1262
22.26667,-1262
22.27500,-1263
22.28333,-1263
22.29167,-1264
22.30000,-1264
22.30833,-1265
22.31667,-1265
22.32500,-1266
22.33333,-1267
22.34167,-1267
22.35000,-1268
22.35833,-1268
22.36667,-1269
22.37500,-1269
22.38333,-1270
22.39167,-1270
22.40000,-1271
22.40833,-1273
22.41667,-1275
22.42500,-1277
22.43333,-1279
22.44167,-1280
22.45000,-1282
22.45833,-1283
22.46667,-1283
22.47500,-1284
22.48333,-1285
22.49167,-1286
22.50000,-1287
22.50833,-1288
22.51667,-1288
22.52500,-1289
22.53333,-1289
22.54167,-1289
22.55000,-1290
22.55833,-1290
22.56667,-1291
22.57500,-1292
22.58333,-1292
22.59167,-1293
22.60000,-1293
22.60833,-1294
22.61667,-1294
22.62500,-1295
22.63333,-1296
22.64167,-1297
22.65000,-1297
22.65833,-1298
22.66667,-1299
22.67500,-1299
22.68333,-1300
22.69167,-1300
22.70000,-1301
22.70833,-1301
22.71667,-1302
22.72500,-1302
22.73333,-1302
22.74167,-1303
22.75000,-1303
22.75833,-1304
22.76667,-1305
22.77500,-1305
22.78333,-1306
22.79167,-1307
22.80000,-1307
22.80833,-1308
22.81667,-1308
22.82500,-1309
22.83333,-1309
22.84167,-1309
22.85000,-1310
22.85833,-1311
22.86667,-1311
22.87500,-1312
22.88333,-1313
22.89167,-1314
22.90000,-1314
22.90833,-1315
22.91667,-1315
22.92500,-1316
22.93333,-1317
22.94167,-1317
22.95000,-1317
22.95833,-1318
22.96667,-1319
22.97500,-1320
22.98333,-1321
22.99167,-1321
23.00000,-1322
23.00833,-1322
23.01667,-1322
23.02500,-1323
23.03333,-1323
23.04167,-1324
23.05000,-1325
23.05833,-1325
23.06667,-1326
23.07500,-1326
23.08333,-1327
23.09167,-1327
23.10000,-1328
23.10833,-1329
23.11667,-1329
23.12500,-1329
23.13333,-1330
23.14167,-1330
23.15000,-1330
23.15833,-1331
23.16667,-1332
23.17500,-1333
23.18333,-1333
23.19167,-1334
23.20000,-1335
23.20833,-1336
23.21667,-1337
23.22500,-1338
23.23333,-1339
23.24167,-1339
23.25000,-1340
23.25833,-1341
23.26667,-1341
23.27500,-1342
23.28333,-1343
23.29167,-1343
23.30000,-1344
23.30833,-1344
23.31667,-1345
23.32500,-1345
23.33333,-1345
23.34167,-1346
23.35000,-1346
23.35833,-1347
23.36667,-1348
23.37500,-1348
23.38333,-1349
23.39167,-1350
23.40000,-1351
23.40833,-1351
23.41667,-1352
23.42500,-1352
23.43333,-1353
23.44167,-1353
23.45000,-1354
23.45833,-1354
23.46667,-1355
23.47500,-1355
23.48333,-1355
23.49167,-1356
23.50000,-1356
23.50833,-1357
23.51667,-1358
23.52500,-1359
23.53333,-1359
23.54167,-1359
23.55000,-1360
23.55833,-1361
23.56667,-1361
23.57500,-1362
23.58333,-1363
23.59167,-1363
23.60000,-1364
23.60833,-1365
23.61667,-1366
23.62500,-1366
23.63333,-1367
23.64167,-1367
23.65000,-1368
23.65833,-1368
23.66667,-1369
23.67500,-1369
23.68333,-1369
23.69167,-1370
23.70000,-1371
23.70833,-1372
23.71667,-1372
23.72500,-1373
23.73333,-1373
23.74167,-1374
23.75000,-1374
23.75833,-1375
23.76667,-1376
23.77500,-1376
23.78333,-1377
23.79167,-1377
23.80000,-1378
23.80833,-1379
23.81667,-1379
23.82500,-1380
23.83333,-1380
23.84167,-1380
23.85000,-1381
23.85833,-1381
23.86667,-1382
23.87500,-1382
23.88333,-1383
23.89167,-1383
23.90000,-1384
23.90833,-1384
23.91667,-1384
23.92500,-1385
23.93333,-1386
23.94167,-1386
23.95000,-1388
23.95833,-1388
23.96667,-1388
23.97500,-1389
23.98333,-1389
23.99167,-1389
24.00000,-1390
24.00833,-1391
24.01667,-1391
24.02500,-1392
24.03333,-1393
24.04167,-1394
24.05000,-1394
24.05833,-1394
24.06667,-1395
24.07500,-1396
24.08333,-1396
24.09167,-1397
24.10000,-1397
24.10833,-1397
24.11667,-1398
24.12500,-1398
24.13333,-1399
24.14167,-1400
24.15000,-1400
24.15833,-1401
24.16667,-1401
24.17500,-1402
24.18333,-1403
24.19167,-1403
24.20000,-1404
24.20833,-1404
24.21667,-1405
24.22500,-1405
24.23333,-1406
24.24167,-1407
24.25000,-1407
24.25833,-1408
24.26667,-1408
24.27500,-1409
24.28333,-1410
24.29167,-1411
24.30000,-1411
24.30833,-1412
24.31667,-1413
24.32500,-1413
24.33333,-1414
24.34167,-1414
24.35000,-1415
24.35833,-1415
24.36667,-1415
24.37500,-1416
24.38333,-1416
24.39167,-1417
24.40000,-1417
24.40833,-1418
24.41667,-1418
24.42500,-1419
24.43333,-1420
24.44167,-1420
24.45000,-1421
24.45833,-1421
24.46667,-1421
24.47500,-1422
24.48333,-1422
24.49167,-1422
24.50000,-1422
24.50833,-1423
24.51667,-1424
24.52500,-1425
24.53333,-1425
24.54167,-1426
24.55000,-1427
24.55833,-1427
24.56667,-1427
24.57500,-1428
24.58333,-1428
24.59167,-1429
24.60000,-1429
24.60833,-1430
24.61667,-1431
24.62500,-1432
24.63333,-1432
24.64167,-1433
24.65000,-1433
24.65833,-1434
24.66667,-1434
24.67500,-1434
24.68333,-1435
24.69167,-1436
24.70000,-1436
24.70833,-1437
24.71667,-1438
24.72500,-1438
24.73333,-1439
24.74167,-1439
24.75000,-1440
24.75833,-1440
24.76667,-1441
24.77500,-1441
24.78333,-1442
24.79167,-1443
24.80000,-1444
24.80833,-1444
24.81667,-1445
24.82500,-1445
24.83333,-1446
24.84167,-1446
24.85000,-1447
24.85833,-1447
24.86667,-1448
24.87500,-1448
24.88333,-1449
24.89167,-1449
24.90000,-1450
24.90833,-1451
24.91667,-1451
24.92500,-1452
24.93333,-1452
24.94167,-1452
24.95000,-1453
24.95833,-1454
24.96667,-1455
24.97500,-1455
24.98333,-1456
24.99167,-1456
25.00000,-1456
25.00833,-1457
25.01667,-1457
25.02500,-1458
25.03333,-1458
25.04167,-1458
25.05000,-1459
25.05833,-1460
25.06667,-1460
25.07500,-1461
25.08333,-1462
25.09167,-1463
25.10000,-1464
25.10833,-1464
25.11667,-1464
25.12500,-1465
25.13333,-1466
25.14167,-1466
25.15000,-1467
25.15833,-1467
25.16667,-1467
25.17500,-1467
25.18333,-1468
25.19167,-1468
25.20000,-1469
25.20833,-1469
25.21667,-1470
25.22500,-1470
25.23333,-1471
25.24167,-1472
25.25000,-1472
25.25833,-1473
25.26667,-1474
25.27500,-1475
25.28333,-1475
25.29167,-1476
25.30000,-1477
25.30833,-1477
25.31667,-1478
25.32500,-1478
25.33333,-1478
25.34167,-1479
25.35000,-1479
25.35833,-1480
25.36667,-1481
25.37500,-1481
25.38333,-1482
25.39167,-1482
25.40000,-1483
25.40833,-1484
25.41667,-1485
25.42500,-1486
25.43333,-1486
25.44167,-1486
25.45000,-1487
25.45833,-1487
25.46667,-1487
25.47500,-1488
25.48333,-1488
25.49167,-1489
25.50000,-1490
25.50833,-1491
25.51667,-1491
25.52500,-1492
25.53333,-1492
25.54167,-1493
25.55000,-1494
25.55833,-1494
25.56667,-1495
25.57500,-1496
25.58333,-1496
25.59167,-1496
25.60000,-1497
25.60833,-1497
25.61667,-1497
25.62500,-1498
25.63333,-1498
25.64167,-1498
25.65000,-1499
25.65833,-1499
25.66667,-1499
25.67500,-1500
25.68333,-1501
25.69167,-1502
25.70000,-1503
25.70833,-1503
25.71667,-1504
25.72500,-1505
25.73333,-1505
25.74167,-1505
25.75000,-1506
25.75833,-1506
25.76667,-1507
25.77500,-1507
25.78333,-1508
25.79167,-1508
25.80000,-1509
25.80833,-1509
25.81667,-1510
25.82500,-1511
25.83333,-1512
25.84167,-1512
25.85000,-1513
25.85833,-1513
25.86667,-1513
25.87500,-1514
25.88333,-1515
25.89167,-1515
25.90000,-1516
25.90833,-1516
25.91667,-1517
25.92500,-1517
25.93333,-1518
25.94167,-1518
25.95000,-1519
25.95833,-1519
25.96667,-1520
25.97500,-1521
25.98333,-1521
25.99167,-1522
26.00000,-1522
26.00833,-1523
26.01667,-1523
26.02500,-1524
26.03333,-1524
26.04167,-1525
26.05000,-1525
26.05833,-1526
26.06667,-1526
26.07500,-1527
26.08333,-1528
26.09167,-1528
26.10000,-1529
26.10833,-1529
26.11667,-1530
26.12500,-1531
26.13333,-1531
26.14167,-1531
26.15000,-1532
26.15833,-1532
26.16667,-1533
26.17500,-1533
26.18333,-1534
26.19167,-1534
26.20000,-1535
26.20833,-1536
26.21667,-1536
26.22500,-1537
26.23333,-1537
26.24167,-1538
26.25000,-1538
26.25833,-1539
26.26667,-1540
26.27500,-1540
26.28333,-1541
26.29167,-1541
26.30000,-1542
26.30833,-1542
26.31667,-1542
26.32500,-1542
26.33333,-1542
26.34167,-1543
26.35000,-1544
26.35833,-1544
26.36667,-1545
26.37500,-1546
26.38333,-1546
26.39167,-1547
26.40000,-1548
26.40833,-1549
26.41667,-1549
26.42500,-1550
26.43333,-1551
26.44167,-1551
26.45000,-1551
26.45833,-1552
26.46667,-1553
26.47500,-1553
26.48333,-1554
26.49167,-1554
26.50000,-1555
26.50833,-1555
26.51667,-1555
26.52500,-1556
26.53333,-1557
26.54167,-1557
26.55000,-1558
26.55833,-1558
26.56667,-1558
26.57500,-1559
26.58333,-1559
26.59167,-1560
26.60000,-1560
26.60833,-1561
26.61667,-1562
26.62500,-1563
26.63333,-1563
26.64167,-1564
26.65000,-1564
26.65833,-1565
26.66667,-1565
26.67500,-1566
26.68333,-1566
26.69167,-1567
26.70000,-1567
26.70833,-1568
26.71667,-1568
26.72500,-1569
26.73333,-1569
26.74167,-1570
26.75000,-1570
26.75833,-1571
26.76667,-1571
26.77500,-1572
26.78333,-1572
26.79167,-1573
26.80000,-1574
26.80833,-1574
26.81667,-1575
26.82500,-1575
26.83333,-1576
26.84167,-1576
26.85000,-1576
26.85833,-1577
26.86667,-1577
26.87500,-1578
26.88333,-1578
26.89167,-1579
26.90000,-1579
26.90833,-1580
26.91667,-1581
26.92500,-1581
26.93333,-1582
26.94167,-1583
26.95000,-1583
26.95833,-1584
26.96667,-1585
26.97500,-1585
26.98333,-1585
26.99167,-1586
27.00000,-1586
27.00833,-1587
27.01667,-1588
27.02500,-1589
27.03333,-1589
27.04167,-1590
27.05000,-1591
27.05833,-1591
27.06667,-1592
27.07500,-1593
27.08333,-1593
27.09167,-1593
27.10000,-1594
27.10833,-1594
27.11667,-1595
27.12500,-1595
27.13333,-1596
27.14167,-1597
27.15000,-1597
27.15833,-1598
27.16667,-1599
27.17500,-1599
27.18333,-1600
27.19167,-1600
27.20000,-1600
27.20833,-1601
27.21667,-1601
27.22500,-1602
27.23333,-1603
27.24167,-1604
27.25000,-1604
27.25833,-1604
27.26667,-1605
27.27500,-1605
27.28333,-1605
27.29167,-1606
27.30000,-1606
27.30833,-1607
27.31667,-1608
27.32500,-1608
27.33333,-1609
27.34167,-1610
27.35000,-1610
27.35833,-1611
27.36667,-1611
27.37500,-1612
27.38333,-1613
27.39167,-1613
27.40000,-1614
27.40833,-1615
27.41667,-1615
27.42500,-1616
27.43333,-1616
27.44167,-1617
27.45000,-1617
27.45833,-1618
27.46667,-1619
27.47500,-1620
27.48333,-1620
27.49167,-1621
27.50000,-1622
27.50833,-1622
27.51667,-1622
27.52500,-1623
27.53333,-1623
27.54167,-1624
27.55000,-1625
27.55833,-1625
27.56667,-1626
27.57500,-1626
27.58333,-1627
27.59167,-1628
27.60000,-1628
27.60833,-1629
27.61667,-1630
27.62500,-1630
27.63333,-1631
27.64167,-1632
27.65000,-1633
27.65833,-1633
27.66667,-1634
27.67500,-1634
27.68333,-1635
27.69167,-1636
27.70000,-1637
27.70833,-1638
27.71667,-1638
27.72500,-1639
27.73333,-1639
27.74167,-1640
27.75000,-1641
27.75833,-1642
27.76667,-1643
27.77500,-1644
27.78333,-1646
27.79167,-1647
27.80000,-1648
27.80833,-1649
27.81667,-1651
27.82500,-1652
27.83333,-1654
27.84167,-1656
27.85000,-1658
27.85833,-1659
27.86667,-1661
27.87500,-1663
27.88333,-1665
27.89167,-1668
27.90000,-1670
27.90833,-1673
27.91667,-1675
27.92500,-1678
27.93333,-1682
27.94167,-1685
27.95000,-1689
27.95833,-1693
27.96667,-1697
27.97500,-1701
27.98333,-1706
27.99167,-1711
28.00000,-1716
28.00833,-1721
28.01667,-1727
28.02500,-1733
28.03333,-1739
28.04167,-1745
28.05000,-1752
28.05833,-1759
28.06667,-1767
28.07500,-1775
28.08333,-1783
28.09167,-1792
28.10000,-1801
28.10833,-1811
28.11667,-1821
28.12500,-1831
28.13333,-1842
28.14167,-1853
28.15000,-1864
28.15833,-1877
28.16667,-1889
28.17500,-1902
28.18333,-1915
28.19167,-1928
28.20000,-1941
28.20833,-1955
28.21667,-1970
28.22500,-1984
28.23333,-1999
28.24167,-2014
28.25000,-2029
28.25833,-2045
28.26667,-2060
28.27500,-2076
28.28333,-2091
28.29167,-2107
28.30000,-2123
28.30833,-2139
28.31667,-2155
28.32500,-2171
28.33333,-2186
28.34167,-2201
28.35000,-2216
28.35833,-2232
28.36667,-2246
28.37500,-2261
28.38333,-2275
28.39167,-2289
28.40000,-2302
28.40833,-2314
28.41667,-2326
28.42500,-2338
28.43333,-2349
28.44167,-2359
28.45000,-2369
28.45833,-2379
28.46667,-2388
28.47500,-2396
28.48333,-2404
28.49167,-2411
28.50000,-2417
28.50833,-2423
28.51667,-2427
28.52500,-2431
28.53333,-2434
28.54167,-2436
28.55000,-2438
28.55833,-2439
28.56667,-2439
28.57500,-2439
28.58333,-2438
28.59167,-2437
28.60000,-2436
28.60833,-2433
28.61667,-2430
28.62500,-2426
28.63333,-2422
28.64167,-2417
28.65000,-2412
28.65833,-2407
28.66667,-2401
28.67500,-2394
28.68333,-2387
28.69167,-2380
28.70000,-2373
28.70833,-2366
28.71667,-2358
28.72500,-2350
28.73333,-2342
28.74167,-2334
28.75000,-2326
28.75833,-2317
28.76667,-2308
28.77500,-2300
28.78333,-2291
28.79167,-2283
28.80000,-2275
28.80833,-2266
28.81667,-2258
28.82500,-2250
28.83333,-2241
28.84167,-2233
28.85000,-2225
28.85833,-2217
28.86667,-2209
28.87500,-2201
28.88333,-2194
28.89167,-2187
28.90000,-2180
28.90833,-2173
28.91667,-2167
28.92500,-2161
28.93333,-2154
28.94167,-2149
28.95000,-2143
28.95833,-2138
28.96667,-2132
28.97500,-2127
28.98333,-2122
28.99167,-2118
29.00000,-2114
29.00833,-2109
29.01667,-2105
29.02500,-2102
29.03333,-2098
29.04167,-2095
29.05000,-2092
29.05833,-2089
29.06667,-2086
29.07500,-2083
29.08333,-2080
29.09167,-2077
29.10000,-2075
29.10833,-2073
29.11667,-2071
29.12500,-2069
29.13333,-2067
29.14167,-2065
29.15000,-2064
29.15833,-2062
29.16667,-2061
29.17500,-2060
29.18333,-2059
29.19167,-2058
29.20000,-2057
29.20833,-2056
29.21667,-2055
29.22500,-2055
29.23333,-2054
29.24167,-2054
29.25000,-2053
29.25833,-2052
29.26667,-2052
29.27500,-2051
29.28333,-2051
29.29167,-2051
29.30000,-2051
29.30833,-2050
29.31667,-2050
29.32500,-2050
29.33333,-2050
29.34167,-2050
29.35000,-2050
29.35833,-2050
29.36667,-2050
29.37500,-2051
29.38333,-2051
29.39167,-2051
29.40000,-2052
29.40833,-2052
29.41667,-2052
29.42500,-2053
29.43333,-2053
29.44167,-2053
29.45000,-2053
29.45833,-2054
29.46667,-2054
29.47500,-2055
29.48333,-2056
29.49167,-2056
29.50000,-2057
29.50833,-2058
29.51667,-2058
29.52500,-2059
29.53333,-2060
29.54167,-2061
29.55000,-2062
29.55833,-2063
29.56667,-2064
29.57500,-2065
29.58333,-2066
29.59167,-2067
29.60000,-2068
29.60833,-2069
29.61667,-2071
29.62500,-2073
29.63333,-2074
29.64167,-2075
29.65000,-2077
29.65833,-2078
29.66667,-2081
29.67500,-2083
29.68333,-2085
29.69167,-2087
29.70000,-2089
29.70833,-2091
29.71667,-2093
29.72500,-2096
29.73333,-2098
29.74167,-2100
29.75000,-2103
29.75833,-2106
29.76667,-2109
29.77500,-2111
29.78333,-2114
29.79167,-2117
29.80000,-2120
29.80833,-2124
29.81667,-2127
29.82500,-2131
29.83333,-2135
29.84167,-2140
29.85000,-2144
29.85833,-2149
29.86667,-2153
29.87500,-2157
29.88333,-2162
29.89167,-2166
29.90000,-2171
29.90833,-2175
29.91667,-2180
29.92500,-2185
29.93333,-2190
29.94167,-2195
29.95000,-2200
29.95833,-2205
29.96667,-2211
29.97500,-2217
29.98333,-2223
29.99167,-2228
30.00000,-2234
30.00833,-2239
30.01667,-2245
30.02500,-2251
30.03333,-2256
30.04167,-2262
30.05000,-2268
30.05833,-2273
30.06667,-2279
30.07500,-2285
30.08333,-2290
30.09167,-2296
30.10000,-2301
30.10833,-2306
30.11667,-2311
30.12500,-2316
30.13333,-2321
30.14167,-2326
30.15000,-2331
30.15833,-2336
30.16667,-2340
30.17500,-2345
30.18333,-2349
30.19167,-2353
30.20000,-2356
30.20833,-2360
30.21667,-2364
30.22500,-2367
30.23333,-2370
30.24167,-2373
30.25000,-2375
30.25833,-2378
30.26667,-2380
30.27500,-2382
30.28333,-2384
30.29167,-2385
30.30000,-2387
30.30833,-2388
30.31667,-2389
30.32500,-2390
30.33333,-2390
30.34167,-2390
30.35000,-2390
30.35833,-2389
30.36667,-2389
30.37500,-2389
30.38333,-2389
30.39167,-2388
30.40000,-2387
30.40833,-2386
30.41667,-2384
30.42500,-2383
30.43333,-2381
30.44167,-2379
30.45000,-2378
30.45833,-2376
30.46667,-2374
30.47500,-2372
30.48333,-2369
30.49167,-2367
30.50000,-2364
30.50833,-2362
30.51667,-2359
30.52500,-2356
30.53333,-2353
30.54167,-2351
30.55000,-2348
30.55833,-2345
30.56667,-2342
30.57500,-2339
30.58333,-2337
30.59167,-2334
30.60000,-2331
30.60833,-2329
30.61667,-2326
30.62500,-2323
30.63333,-2320
30.64167,-2318
30.65000,-2316
30.65833,-2313
30.66667,-2310
30.67500,-2308
30.68333,-2306
30.69167,-2303
30.70000,-2301
30.70833,-2298
30.71667,-2296
30.72500,-2294
30.73333,-2292
30.74167,-2290
30.75000,-2288
30.75833,-2286
30.76667,-2284
30.77500,-2282
30.78333,-2280
30.79167,-2279
30.80000,-2277
30.80833,-2276
30.81667,-2274
30.82500,-2272
30.83333,-2270
30.84167,-2269
30.85000,-2268
30.85833,-2267
30.86667,-2266
30.87500,-2265
30.88333,-2264
30.89167,-2263
30.90000,-2262
30.90833,-2261
30.91667,-2260
30.92500,-2259
30.93333,-2258
30.94167,-2258
30.95000,-2257
30.95833,-2256
30.96667,-2255
30.97500,-2254
30.98333,-2254
30.99167,-2253
31.00000,-2252
31.00833,-2252
31.01667,-2251
31.02500,-2250
31.03333,-2249
31.04167,-2249
31.05000,-2248
31.05833,-2248
31.06667,-2248
31.07500,-2248
31.08333,-2247
31.09167,-2247
31.10000,-2246
31.10833,-2246
31.11667,-2246
31.12500,-2245
31.13333,-2245
31.14167,-2245
31.15000,-2244
31.15833,-2244
31.16667,-2244
31.17500,-2244
31.18333,-2244
31.19167,-2244
31.20000,-2243
31.20833,-2243
31.21667,-2243
31.22500,-2243
31.23333,-2242
31.24167,-2242
31.25000,-2241
31.25833,-2241
31.26667,-2241
31.27500,-2241
31.28333,-2241
31.29167,-2241
31.30000,-2241
31.30833,-2240
31.31667,-2240
31.32500,-2240
31.33333,-2239
31.34167,-2239
31.35000,-2239
31.35833,-2238
31.36667,-2238
31.37500,-2238
31.38333,-2238
31.39167,-2238
31.40000,-2238
31.40833,-2238
31.41667,-2238
31.42500,-2237
31.43333,-2237
31.44167,-2237
31.45000,-2237
31.45833,-2237
31.46667,-2237
31.47500,-2237
31.48333,-2236
31.49167,-2236
31.50000,-2236
31.50833,-2236
31.51667,-2236
31.52500,-2237
31.53333,-2237
31.54167,-2237
31.55000,-2237
31.55833,-2237
31.56667,-2237
31.57500,-2237
31.58333,-2237
31.59167,-2237
31.60000,-2237
31.60833,-2237
31.61667,-2237
31.62500,-2237
31.63333,-2237
31.64167,-2236
31.65000,-2236
31.65833,-2236
31.66667,-2235
31.67500,-2235
31.68333,-2235
31.69167,-2235
31.70000,-2235
31.70833,-2236
31.71667,-2235
31.72500,-2235
31.73333,-2235
31.74167,-2235
31.75000,-2235
31.75833,-2235
31.76667,-2235
31.77500,-2235
31.78333,-2236
31.79167,-2236
31.80000,-2236
31.80833,-2236
31.81667,-2237
31.82500,-2236
31.83333,-2236
31.84167,-2236
31.85000,-2236
31.85833,-2236
31.86667,-2235
31.87500,-2235
31.88333,-2235
31.89167,-2235
31.90000,-2235
31.90833,-2235
31.91667,-2235
31.92500,-2235
31.93333,-2235
31.94167,-2235
31.95000,-2235
31.95833,-2235
31.96667,-2235
31.97500,-2235
31.98333,-2235
31.99167,-2235
32.00000,-2235
32.00833,-2236
32.01667,-2235
32.02500,-2235
32.03333,-2235
32.04167,-2235
32.05000,-2235
32.05833,-2235
32.06667,-2235
32.07500,-2235
32.08333,-2235
32.09167,-2235
32.10000,-2236
32.10833,-2235
32.11667,-2235
32.12500,-2235
32.13333,-2235
32.14167,-2235
32.15000,-2234
32.15833,-2234
32.16667,-2233
32.17500,-2233
32.18333,-2233
32.19167,-2233
32.20000,-2233
32.20833,-2233
32.21667,-2233
32.22500,-2233
32.23333,-2233
32.24167,-2233
32.25000,-2233
32.25833,-2233
32.26667,-2233
32.27500,-2232
32.28333,-2232
32.29167,-2232
32.30000,-2232
32.30833,-2232
32.31667,-2232
32.32500,-2232
32.33333,-2231
32.34167,-2231
32.35000,-2231
32.35833,-2230
32.36667,-2230
32.37500,-2230
32.38333,-2230
32.39167,-2230
32.40000,-2230
32.40833,-2230
32.41667,-2229
32.42500,-2229
32.43333,-2229
32.44167,-2229
32.45000,-2229
32.45833,-2229
32.46667,-2229
32.47500,-2229
32.48333,-2229
32.49167,-2229
32.50000,-2229
32.50833,-2229
32.51667,-2229
32.52500,-2229
32.53333,-2229
32.54167,-2229
32.55000,-2228
32.55833,-2228
32.56667,-2228
32.57500,-2228
32.58333,-2227
32.59167,-2227
32.60000,-2228
32.60833,-2228
32.61667,-2227
32.62500,-2227
32.63333,-2227
32.64167,-2227
32.65000,-2227
32.65833,-2227
32.66667,-2227
32.67500,-2226
32.68333,-2226
32.69167,-2226
32.70000,-2225
32.70833,-2225
32.71667,-2225
32.72500,-2224
32.73333,-2224
32.74167,-2223
32.75000,-2223
32.75833,-2223
32.76667,-2222
32.77500,-2222
32.78333,-2222
32.79167,-2222
32.80000,-2222
32.80833,-2222
32.81667,-2222
32.82500,-2222
32.83333,-2222
32.84167,-2221
32.85000,-2221
32.85833,-2221
32.86667,-2221
32.87500,-2221
32.88333,-2221
32.89167,-2221
32.90000,-2220
32.90833,-2220
32.91667,-2220
32.92500,-2220
32.93333,-2220
32.94167,-2220
32.95000,-2220
32.95833,-2219
32.96667,-2219
32.97500,-2219
32.98333,-2219
32.99167,-2218
33.00000,-2218
33.00833,-2218
33.01667,-2218
33.02500,-2218
33.03333,-2217
33.04167,-2217
33.05000,-2217
33.05833,-2217
33.06667,-2217
33.07500,-2217
33.08333,-2216
33.09167,-2216
33.10000,-2216
33.10833,-2216
33.11667,-2216
33.12500,-2216
33.13333,-2215
33.14167,-2215
33.15000,-2215
33.15833,-2215
33.16667,-2215
33.17500,-2215
33.18333,-2215
33.19167,-2214
33.20000,-2214
33.20833,-2214
33.21667,-2213
33.22500,-2213
33.23333,-2213
33.24167,-2212
33.25000,-2212
33.25833,-2212
33.26667,-2212
33.27500,-2212
33.28333,-2212
33.29167,-2211
33.30000,-2211
33.30833,-2211
33.31667,-2211
33.32500,-2211
33.33333,-2211
33.34167,-2211
33.35000,-2210
33.35833,-2210
33.36667,-2210
33.37500,-2209
33.38333,-2209
33.39167,-2209
33.40000,-2209
33.40833,-2209
33.41667,-2209
33.42500,-2209
33.43333,-2209
33.44167,-2209
33.45000,-2208
33.45833,-2208
33.46667,-2208
33.47500,-2208
33.48333,-2208
33.49167,-2208
33.50000,-2208
33.50833,-2207
33.51667,-2207
33.52500,-2207
33.53333,-2207
33.54167,-2207
33.55000,-2207
33.55833,-2207
33.56667,-2207
33.57500,-2207
33.58333,-2207
33.59167,-2207
33.60000,-2207
33.60833,-2206
33.61667,-2206
33.62500,-2206
33.63333,-2206
33.64167,-2206
33.65000,-2206
33.65833,-2205
33.66667,-2205
33.67500,-2205
33.68333,-2206
33.69167,-2206
33.70000,-2206
33.70833,-2205
33.71667,-2205
33.72500,-2205
33.73333,-2204
33.74167,-2204
33.75000,-2204
33.75833,-2203
33.76667,-2204
33.77500,-2204
33.78333,-2204
33.79167,-2204
33.80000,-2204
33.80833,-2203
33.81667,-2203
33.82500,-2203
33.83333,-2203
33.84167,-2203
33.85000,-2203
33.85833,-2203
33.86667,-2203
33.87500,-2203
33.88333,-2202
33.89167,-2202
33.90000,-2202
33.90833,-2202
33.91667,-2202
33.92500,-2202
33.93333,-2202
33.94167,-2202
33.95000,-2201
33.95833,-2201
33.96667,-2201
33.97500,-2201
33.98333,-2201
33.99167,-2201
34.00000,-2202
34.00833,-2202
34.01667,-2202
34.02500,-2202
34.03333,-2202
34.04167,-2202
34.05000,-2201
34.05833,-2201
34.06667,-2201
34.07500,-2201
34.08333,-2201
34.09167,-2200
34.10000,-2200
34.10833,-2200
34.11667,-2200
34.12500,-2200
34.13333,-2200
34.14167,-2200
34.15000,-2200
34.15833,-2200
34.16667,-2200
34.17500,-2200
34.18333,-2200
34.19167,-2200
34.20000,-2200
34.20833,-2200
34.21667,-2200
34.22500,-2200
34.23333,-2200
34.24167,-2200
34.25000,-2200
34.25833,-2199
34.26667,-2199
34.27500,-2199
34.28333,-2198
34.29167,-2199
34.30000,-2199
34.30833,-2199
34.31667,-2199
34.32500,-2199
34.33333,-2199
34.34167,-2199
34.35000,-2199
34.35833,-2199
34.36667,-2199
34.37500,-2199
34.38333,-2198
34.39167,-2198
34.40000,-2198
34.40833,-2198
34.41667,-2199
34.42500,-2199
34.43333,-2199
34.44167,-2200
34.45000,-2200
34.45833,-2199
34.46667,-2199
34.47500,-2199
34.48333,-2199
34.49167,-2199
34.50000,-2199
34.50833,-2199
34.51667,-2199
34.52500,-2200
34.53333,-2200
34.54167,-2200
34.55000,-2200
34.55833,-2200
34.56667,-2200
34.57500,-2200
34.58333,-2200
34.59167,-2200
34.60000,-2200
34.60833,-2200
34.61667,-2200
34.62500,-2200
34.63333,-2200
34.64167,-2200
34.65000,-2200
34.65833,-2200
34.66667,-2200
34.67500,-2200
34.68333,-2200
34.69167,-2200
34.70000,-2200
34.70833,-2200
34.71667,-2201
34.72500,-2201
34.73333,-2201
34.74167,-2201
34.75000,-2201
34.75833,-2200
34.76667,-2200
34.77500,-2200
34.78333,-2200
34.79167,-2200
34.80000,-2200
34.80833,-2200
34.81667,-2201
34.82500,-2201
34.83333,-2201
34.84167,-2201
34.85000,-2201
34.85833,-2201
34.86667,-2201
34.87500,-2201
34.88333,-2201
34.89167,-2201
34.90000,-2201
34.90833,-2201
34.91667,-2201
34.92500,-2201
34.93333,-2201
34.94167,-2201
34.95000,-2201
34.95833,-2202
34.96667,-2202
34.97500,-2202
34.98333,-2202
34.99167,-2203
35.00000,-2203
35.00833,-2203
35.01667,-2204
35.02500,-2204
35.03333,-2204
35.04167,-2204
35.05000,-2203
35.05833,-2204
35.06667,-2204
35.07500,-2204
35.08333,-2205
35.09167,-2205
35.10000,-2205
35.10833,-2205
35.11667,-2205
35.12500,-2205
35.13333,-2205
35.14167,-2205
35.15000,-2206
35.15833,-2206
35.16667,-2206
35.17500,-2206
35.18333,-2206
35.19167,-2207
35.20000,-2207
35.20833,-2208
35.21667,-2208
35.22500,-2208
35.23333,-2208
35.24167,-2208
35.25000,-2208
35.25833,-2209
35.26667,-2209
35.27500,-2210
35.28333,-2210
35.29167,-2210
35.30000,-2211
35.30833,-2211
35.31667,-2211
35.32500,-2212
35.33333,-2212
35.34167,-2213
35.35000,-2214
35.35833,-2214
35.36667,-2215
35.37500,-2215
35.38333,-2216
35.39167,-2216
35.40000,-2216
35.40833,-2216
35.41667,-2217
35.42500,-2217
35.43333,-2217
35.44167,-2218
35.45000,-2218
35.45833,-2218
35.46667,-2219
35.47500,-2219
35.48333,-2220
35.49167,-2220
35.50000,-2221
35.50833,-2221
35.51667,-2222
35.52500,-2222
35.53333,-2223
35.54167,-2223
35.55000,-2223
35.55833,-2224
35.56667,-2224
35.57500,-2225
35.58333,-2225
35.59167,-2226
35.60000,-2226
35.60833,-2227
35.61667,-2227
35.62500,-2228
35.63333,-2228
35.64167,-2229
35.65000,-2230
35.65833,-2230
35.66667,-2230
35.67500,-2230
35.68333,-2231
35.69167,-2231
35.70000,-2231
35.70833,-2232
35.71667,-2233
35.72500,-2233
35.73333,-2234
35.74167,-2234
35.75000,-2235
35.75833,-2235
35.76667,-2235
35.77500,-2236
35.78333,-2237
35.79167,-2237
35.80000,-2237
35.80833,-2238
35.81667,-2238
35.82500,-2239
35.83333,-2239
35.84167,-2240
35.85000,-2241
35.85833,-2241
35.86667,-2242
35.87500,-2242
35.88333,-2242
35.89167,-2243
35.90000,-2243
35.90833,-2244
35.91667,-2244
35.92500,-2245
35.93333,-2245
35.94167,-2245
35.95000,-2246
35.95833,-2246
35.96667,-2247
35.97500,-2247
35.98333,-2248
35.99167,-2248
36.00000,-2249
36.00833,-2249
36.01667,-2250
36.02500,-2251
36.03333,-2251
36.04167,-2251
36.05000,-2252
36.05833,-2252
36.06667,-2253
36.07500,-2254
36.08333,-2254
36.09167,-2254
36.10000,-2255
36.10833,-2255
36.11667,-2255
36.12500,-2256
36.13333,-2256
36.14167,-2257
36.15000,-2257
36.15833,-2258
36.16667,-2259
36.17500,-2259
36.18333,-2260
36.19167,-2260
36.20000,-2261
36.20833,-2261
36.21667,-2262
36.22500,-2262
36.23333,-2262
36.24167,-2262
36.25000,-2262
36.25833,-2262
36.26667,-2263
36.27500,-2264
36.28333,-2265
36.29167,-2265
36.30000,-2266
36.30833,-2267
36.31667,-2267
36.32500,-2268
36.33333,-2268
36.34167,-2269
36.35000,-2269
36.35833,-2270
36.36667,-2270
36.37500,-2271
36.38333,-2271
36.39167,-2272
36.40000,-2273
36.40833,-2273
36.41667,-2274
36.42500,-2274
36.43333,-2275
36.44167,-2275
36.45000,-2275
36.45833,-2275
36.46667,-2275
36.47500,-2276
36.48333,-2276
36.49167,-2277
36.50000,-2277
36.50833,-2278
36.51667,-2278
36.52500,-2279
36.53333,-2280
36.54167,-2280
36.55000,-2281
36.55833,-2281
36.56667,-2281
36.57500,-2282
36.58333,-2282
36.59167,-2282
36.60000,-2282
36.60833,-2283
36.61667,-2284
36.62500,-2284
36.63333,-2285
36.64167,-2285
36.65000,-2285
36.65833,-2285
36.66667,-2285
36.67500,-2285
36.68333,-2286
36.69167,-2286
36.70000,-2286
36.70833,-2286
36.71667,-2286
36.72500,-2286
36.73333,-2286
36.74167,-2286
36.75000,-2286
36.75833,-2287
36.76667,-2287
36.77500,-2287
36.78333,-2287
36.79167,-2287
36.80000,-2287
36.80833,-2287
36.81667,-2287
36.82500,-2286
36.83333,-2286
36.84167,-2286
36.85000,-2286
36.85833,-2286
36.86667,-2286
36.87500,-2286
36.88333,-2285
36.89167,-2285
36.90000,-2285
36.90833,-2285
36.91667,-2284
36.92500,-2284
36.93333,-2283
36.94167,-2283
36.95000,-2283
36.95833,-2282
36.96667,-2282
36.97500,-2282
36.98333,-2282
36.99167,-2281
37.00000,-2281
37.00833,-2281
37.01667,-2281
37.02500,-2280
37.03333,-2280
37.04167,-2280
37.05000,-2280
37.05833,-2279
37.06667,-2279
37.07500,-2279
37.08333,-2279
37.09167,-2279
37.10000,-2278
37.10833,-2278
37.11667,-2277
37.12500,-2277
37.13333,-2276
37.14167,-2276
37.15000,-2276
37.15833,-2275
37.16667,-2275
37.17500,-2275
37.18333,-2275
37.19167,-2276
37.20000,-2276
37.20833,-2276
37.21667,-2276
37.22500,-2276
37.23333,-2276
37.24167,-2276
37.25000,-2277
37.25833,-2277
37.26667,-2277
37.27500,-2278
37.28333,-2278
37.29167,-2278
37.30000,-2278
37.30833,-2278
37.31667,-2279
37.32500,-2279
37.33333,-2280
37.34167,-2281
37.35000,-2282
37.35833,-2282
37.36667,-2283
37.37500,-2284
37.38333,-2285
37.39167,-2285
37.40000,-2286
37.40833,-2287
37.41667,-2288
37.42500,-2289
37.43333,-2290
37.44167,-2291
37.45000,-2292
37.45833,-2293
37.46667,-2294
37.47500,-2295
37.48333,-2296
37.49167,-2297
37.50000,-2298
37.50833,-2300
37.51667,-2301
37.52500,-2302
37.53333,-2304
37.54167,-2305
37.55000,-2306
37.55833,-2307
37.56667,-2308
37.57500,-2310
37.58333,-2311
37.59167,-2312
37.60000,-2313
37.60833,-2315
37.61667,-2316
37.62500,-2317
37.63333,-2319
37.64167,-2321
37.65000,-2322
37.65833,-2324
37.66667,-2325
37.67500,-2326
37.68333,-2327
37.69167,-2329
37.70000,-2330
37.70833,-2331
37.71667,-2333
37.72500,-2334
37.73333,-2335
37.74167,-2337
37.75000,-2338
37.75833,-2340
37.76667,-2341
37.77500,-2343
37.78333,-2345
37.79167,-2346
37.80000,-2347
37.80833,-2349
37.81667,-2350
37.82500,-2352
37.83333,-2353
37.84167,-2354
37.85000,-2355
37.85833,-2356
37.86667,-2357
37.87500,-2358
37.88333,-2359
37.89167,-2360
37.90000,-2362
37.90833,-2363
37.91667,-2364
37.92500,-2366
37.93333,-2367
37.94167,-2368
37.95000,-2369
37.95833,-2371
37.96667,-2372
37.97500,-2372
37.98333,-2373
37.99167,-2374
38.00000,-2375
38.00833,-2377
38.01667,-2378
38.02500,-2379
38.03333,-2380
38.04167,-2381
38.05000,-2382
38.05833,-2382
38.06667,-2383
38.07500,-2384
38.08333,-2385
38.09167,-2386
38.10000,-2387
38.10833,-2388
38.11667,-2388
38.12500,-2389
38.13333,-2390
38.14167,-2390
38.15000,-2391
38.15833,-2392
38.16667,-2393
38.17500,-2393
38.18333,-2394
38.19167,-2395
38.20000,-2396
38.20833,-2397
38.21667,-2398
38.22500,-2399
38.23333,-2400
38.24167,-2400
38.25000,-2401
38.25833,-2401
38.26667,-2402
38.27500,-2402
38.28333,-2403
38.29167,-2403
38.30000,-2404
38.30833,-2404
38.31667,-2405
38.32500,-2406
38.33333,-2407
38.34167,-2407
38.35000,-2408
38.35833,-2409
38.36667,-2410
38.37500,-2410
38.38333,-2411
38.39167,-2412
38.40000,-2412
38.40833,-2413
38.41667,-2413
38.42500,-2414
38.43333,-2414
38.44167,-2414
38.45000,-2414
38.45833,-2415
38.46667,-2415
38.47500,-2416
38.48333,-2417
38.49167,-2418
38.50000,-2418
38.50833,-2419
38.51667,-2419
38.52500,-2420
38.53333,-2421
38.54167,-2422
38.55000,-2422
38.55833,-2423
38.56667,-2424
38.57500,-2424
38.58333,-2425
38.59167,-2426
38.60000,-2426
38.60833,-2427
38.61667,-2428
38.62500,-2428
38.63333,-2428
38.64167,-2429
38.65000,-2429
38.65833,-2430
38.66667,-2431
38.67500,-2432
38.68333,-2432
38.69167,-2432
38.70000,-2433
38.70833,-2433
38.71667,-2433
38.72500,-2433
38.73333,-2434
38.74167,-2435
38.75000,-2436
38.75833,-2436
38.76667,-2437
38.77500,-2437
38.78333,-2438
38.79167,-2439
38.80000,-2440
38.80833,-2441
38.81667,-2441
38.82500,-2442
38.83333,-2442
38.84167,-2443
38.85000,-2443
38.85833,-2443
38.86667,-2444
38.87500,-2445
38.88333,-2445
38.89167,-2446
38.90000,-2447
38.90833,-2447
38.91667,-2448
38.92500,-2449
38.93333,-2449
38.94167,-2450
38.95000,-2450
38.95833,-2451
38.96667,-2451
38.97500,-2451
38.98333,-2452
38.99167,-2452
39.00000,-2453
39.00833,-2454
39.01667,-2455
39.02500,-2456
39.03333,-2456
39.04167,-2457
39.05000,-2457
39.05833,-2457
39.06667,-2458
39.07500,-2458
39.08333,-2459
39.09167,-2459
39.10000,-2460
39.10833,-2460
39.11667,-2461
39.12500,-2462
39.13333,-2462
39.14167,-2463
39.15000,-2464
39.15833,-2465
39.16667,-2465
39.17500,-2466
39.18333,-2466
39.19167,-2466
39.20000,-2466
39.20833,-2467
39.21667,-2468
39.22500,-2469
39.23333,-2470
39.24167,-2471
39.25000,-2472
39.25833,-2472
39.26667,-2473
39.27500,-2473
39.28333,-2473
39.29167,-2474
39.30000,-2474
39.30833,-2475
39.31667,-2475
39.32500,-2476
39.33333,-2477
39.34167,-2477
39.35000,-2478
39.35833,-2478
39.36667,-2479
39.37500,-2479
39.38333,-2480
39.39167,-2481
39.40000,-2481
39.40833,-2482
39.41667,-2483
39.42500,-2483
39.43333,-2483
39.44167,-2484
39.45000,-2485
39.45833,-2485
39.46667,-2486
39.47500,-2486
39.48333,-2486
39.49167,-2486
39.50000,-2487
39.50833,-2487
39.51667,-2488
39.52500,-2489
39.53333,-2490
39.54167,-2490
39.55000,-2491
39.55833,-2491
39.56667,-2492
39.57500,-2492
39.58333,-2492
39.59167,-2493
39.60000,-2493
39.60833,-2494
39.61667,-2494
39.62500,-2495
39.63333,-2495
39.64167,-2495
39.65000,-2496
39.65833,-2496
39.66667,-2497
39.67500,-2498
39.68333,-2499
39.69167,-2500
39.70000,-2500
39.70833,-2501
39.71667,-2501
39.72500,-2501
39.73333,-2502
39.74167,-2503
39.75000,-2503
39.75833,-2504
39.76667,-2504
39.77500,-2505
39.78333,-2506
39.79167,-2506
39.80000,-2507
39.80833,-2507
39.81667,-2507
39.82500,-2507
39.83333,-2507
39.84167,-2508
39.85000,-2508
39.85833,-2509
39.86667,-2510
39.87500,-2511
39.88333,-2511
39.89167,-2512
39.90000,-2512
39.90833,-2513
39.91667,-2513
39.92500,-2514
39.93333,-2514
39.94167,-2515
39.95000,-2515
39.95833,-2516
39.96667,-2516
39.97500,-2517
39.98333,-2517
39.99167,-2518
40.00000,-2519
40.00833,-2519
40.01667,-2520
40.02500,-2521
40.03333,-2521
40.04167,-2522
40.05000,-2522
40.05833,-2523
40.06667,-2523
40.07500,-2523
40.08333,-2523
40.09167,-2523
40.10000,-2524
40.10833,-2525
40.11667,-2526
40.12500,-2527
40.13333,-2528
40.14167,-2529
40.15000,-2529
40.15833,-2530
40.16667,-2530
40.17500,-2531
40.18333,-2531
40.19167,-2532
40.20000,-2532
40.20833,-2532
40.21667,-2532
40.22500,-2533
40.23333,-2533
40.24167,-2534
40.25000,-2535
40.25833,-2536
40.26667,-2536
40.27500,-2537
40.28333,-2538
40.29167,-2538
40.30000,-2538
40.30833,-2539
40.31667,-2539
40.32500,-2540
40.33333,-2540
40.34167,-2541
40.35000,-2541
40.35833,-2542
40.36667,-2543
40.37500,-2543
40.38333,-2543
40.39167,-2543
40.40000,-2544
40.40833,-2544
40.41667,-2545
40.42500,-2546
40.43333,-2546
40.44167,-2547
40.45000,-2547
40.45833,-2548
40.46667,-2548
40.47500,-2548
40.48333,-2549
40.49167,-2549
40.50000,-2550
40.50833,-2551
40.51667,-2551
40.52500,-2552
40.53333,-2552
40.54167,-2553
40.55000,-2554
40.55833,-2554
40.56667,-2555
40.57500,-2555
40.58333,-2555
40.59167,-2556
40.60000,-2556
40.60833,-2557
40.61667,-2557
40.62500,-2558
40.63333,-2558
40.64167,-2559
40.65000,-2559
40.65833,-2560
40.66667,-2560
40.67500,-2561
40.68333,-2561
40.69167,-2562
40.70000,-2562
40.70833,-2563
40.71667,-2563
40.72500,-2563
40.73333,-2564
40.74167,-2565
40.75000,-2565
40.75833,-2566
40.76667,-2566
40.77500,-2567
40.78333,-2567
40.79167,-2568
40.80000,-2569
40.80833,-2569
40.81667,-2570
40.82500,-2570
40.83333,-2571
40.84167,-2571
40.85000,-2571
40.85833,-2572
40.86667,-2573
40.87500,-2573
40.88333,-2574
40.89167,-2574
40.90000,-2575
40.90833,-2576
40.91667,-2576
40.92500,-2577
40.93333,-2577
40.94167,-2577
40.95000,-2578
40.95833,-2578
40.96667,-2579
40.97500,-2579
40.98333,-2580
40.99167,-2580
41.00000,-2580
41.00833,-2581
41.01667,-2582
41.02500,-2583
41.03333,-2583
41.04167,-2584
41.05000,-2584
41.05833,-2584
41.06667,-2584
41.07500,-2585
41.08333,-2585
41.09167,-2586
41.10000,-2587
41.10833,-2587
41.11667,-2588
41.12500,-2588
41.13333,-2589
41.14167,-2589
41.15000,-2590
41.15833,-2591
41.16667,-2591
41.17500,-2592
41.18333,-2592
41.19167,-2593
41.20000,-2593
41.20833,-2593
41.21667,-2594
41.22500,-2594
41.23333,-2594
41.24167,-2595
41.25000,-2595
41.25833,-2596
41.26667,-2597
41.27500,-2598
41.28333,-2598
41.29167,-2599
41.30000,-2599
41.30833,-2600
41.31667,-2600
41.32500,-2600
41.33333,-2601
41.34167,-2601
41.35000,-2601
41.35833,-2601
41.36667,-2602
41.37500,-2602
41.38333,-2603
41.39167,-2604
41.40000,-2604
41.40833,-2605
41.41667,-2605
41.42500,-2606
41.43333,-2606
41.44167,-2607
41.45000,-2607
41.45833,-2608
41.46667,-2608
41.47500,-2608
41.48333,-2609
41.49167,-2610
41.50000,-2610
41.50833,-2611
41.51667,-2611
41.52500,-2611
41.53333,-2612
41.54167,-2612
41.55000,-2613
41.55833,-2613
41.56667,-2614
41.57500,-2614
41.58333,-2615
41.59167,-2615
41.60000,-2616
41.60833,-2616
41.61667,-2617
41.62500,-2618
41.63333,-2618
41.64167,-2619
41.65000,-2619
41.65833,-2619
41.66667,-2619
41.67500,-2620
41.68333,-2620
41.69167,-2620
41.70000,-2620
41.70833,-2621
41.71667,-2622
41.72500,-2622
41.73333,-2623
41.74167,-2623
41.75000,-2623
41.75833,-2623
41.76667,-2623
41.77500,-2624
41.78333,-2624
41.79167,-2625
41.80000,-2625
41.80833,-2626
41.81667,-2626
41.82500,-2626
41.83333,-2626
41.84167,-2627
41.85000,-2627
41.85833,-2628
41.86667,-2628
41.87500,-2629
41.88333,-2629
41.89167,-2630
41.90000,-2630
41.90833,-2631
41.91667,-2631
41.92500,-2631
41.93333,-2632
41.94167,-2632
41.95000,-2633
41.95833,-2633
41.96667,-2633
41.97500,-2633
41.98333,-2633
41.99167,-2634
42.00000,-2634
42.00833,-2634
42.01667,-2635
42.02500,-2635
42.03333,-2635
42.04167,-2636
42.05000,-2636
42.05833,-2636
42.06667,-2637
42.07500,-2637
42.08333,-2637
42.09167,-2638
42.10000,-2638
42.10833,-2638
42.11667,-2639
42.12500,-2639
42.13333,-2640
42.14167,-2640
42.15000,-2640
42.15833,-2640
42.16667,-2640
42.17500,-2640
42.18333,-2641
42.19167,-2641
42.20000,-2641
42.20833,-2641
42.21667,-2642
42.22500,-2642
42.23333,-2643
42.24167,-2643
42.25000,-2644
42.25833,-2644
42.26667,-2645
42.27500,-2645
42.28333,-2646
42.29167,-2646
42.30000,-2646
42.30833,-2646
42.31667,-2646
42.32500,-2646
42.33333,-2646
42.34167,-2647
42.35000,-2647
42.35833,-2647
42.36667,-2647
42.37500,-2647
42.38333,-2648
42.39167,-2648
42.40000,-2648
42.40833,-2648
42.41667,-2649
42.42500,-2649
42.43333,-2650
42.44167,-2650
42.45000,-2651
42.45833,-2651
42.46667,-2651
42.47500,-2652
42.48333,-2652
42.49167,-2652
42.50000,-2652
42.50833,-2652
42.51667,-2652
42.52500,-2653
42.53333,-2653
42.54167,-2653
42.55000,-2653
42.55833,-2653
42.56667,-2654
42.57500,-2654
42.58333,-2654
42.59167,-2654
42.60000,-2654
42.60833,-2654
42.61667,-2655
42.62500,-2655
42.63333,-2655
42.64167,-2656
42.65000,-2656
42.65833,-2656
42.66667,-2656
42.67500,-2656
42.68333,-2656
42.69167,-2656
42.70000,-2656
42.70833,-2657
42.71667,-2657
42.72500,-2657
42.73333,-2658
42.74167,-2658
42.75000,-2658
42.75833,-2658
42.76667,-2658
42.77500,-2658
42.78333,-2658
42.79167,-2659
42.80000,-2659
42.80833,-2659
42.81667,-2659
42.82500,-2659
42.83333,-2659
42.84167,-2659
42.85000,-2659
42.85833,-2660
42.86667,-2660
42.87500,-2660
42.88333,-2661
42.89167,-2661
42.90000,-2661
42.90833,-2662
42.91667,-2662
42.92500,-2662
42.93333,-2662
42.94167,-2662
42.95000,-2662
42.95833,-2662
42.96667,-2662
42.97500,-2663
42.98333,-2663
42.99167,-2663
43.00000,-2663
43.00833,-2663
43.01667,-2663
43.02500,-2663
43.03333,-2664
43.04167,-2664
43.05000,-2664
43.05833,-2664
43.06667,-2664
43.07500,-2664
43.08333,-2664
43.09167,-2665
43.10000,-2665
43.10833,-2665
43.11667,-2664
43.12500,-2664
43.13333,-2664
43.14167,-2664
43.15000,-2664
43.15833,-2664
43.16667,-2665
43.17500,-2666
43.18333,-2666
43.19167,-2666
43.20000,-2667
43.20833,-2667
43.21667,-2668
43.22500,-2668
43.23333,-2667
43.24167,-2667
43.25000,-2667
43.25833,-2667
43.26667,-2667
43.27500,-2667
43.28333,-2668
43.29167,-2668
43.30000,-2668
43.30833,-2668
43.31667,-2669
43.32500,-2669
43.33333,-2670
43.34167,-2670
43.35000,-2670
43.35833,-2670
43.36667,-2670
43.37500,-2671
43.38333,-2671
43.39167,-2671
43.40000,-2671
43.40833,-2671
43.41667,-2671
43.42500,-2671
43.43333,-2672
43.44167,-2672
43.45000,-2672
43.45833,-2672
43.46667,-2672
43.47500,-2672
43.48333,-2672
43.49167,-2672
43.50000,-2672
43.50833,-2672
43.51667,-2672
43.52500,-2672
43.53333,-2673
43.54167,-2673
43.55000,-2673
43.55833,-2673
43.56667,-2673
43.57500,-2672
43.58333,-2672
43.59167,-2673
43.60000,-2673
43.60833,-2673
43.61667,-2673
43.62500,-2673
43.63333,-2673
43.64167,-2673
43.65000,-2673
43.65833,-2674
43.66667,-2674
43.67500,-2674
43.68333,-2674
43.69167,-2675
43.70000,-2675
43.70833,-2675
43.71667,-2675
43.72500,-2675
43.73333,-2675
43.74167,-2675
43.75000,-2675
43.75833,-2676
43.76667,-2676
43.77500,-2676
43.78333,-2676
43.79167,-2676
43.80000,-2677
43.80833,-2677
43.81667,-2677
43.82500,-2678
43.83333,-2678
43.84167,-2678
43.85000,-2678
43.85833,-2678
43.86667,-2677
43.87500,-2677
43.88333,-2678
43.89167,-2678
43.90000,-2678
43.90833,-2679
43.91667,-2679
43.92500,-2679
43.93333,-2679
43.94167,-2679
43.95000,-2679
43.95833,-2679
43.96667,-2679
43.97500,-2679
43.98333,-2680
43.99167,-2680
44.00000,-2679
44.00833,-2679
44.01667,-2679
44.02500,-2679
44.03333,-2679
44.04167,-2679
44.05000,-2680
44.05833,-2680
44.06667,-2680
44.07500,-2680
44.08333,-2681
44.09167,-2681
44.10000,-2681
44.10833,-2682
44.11667,-2682
44.12500,-2682
44.13333,-2682
44.14167,-2682
44.15000,-2682
44.15833,-2682
44.16667,-2683
44.17500,-2683
44.18333,-2683
44.19167,-2683
44.20000,-2684
44.20833,-2684
44.21667,-2684
44.22500,-2684
44.23333,-2685
44.24167,-2684
44.25000,-2684
44.25833,-2685
44.26667,-2685
44.27500,-2685
44.28333,-2686
44.29167,-2686
44.30000,-2686
44.30833,-2686
44.31667,-2686
44.32500,-2686
44.33333,-2686
44.34167,-2686
44.35000,-2686
44.35833,-2687
44.36667,-2687
44.37500,-2687
44.38333,-2688
44.39167,-2688
44.40000,-2688
44.40833,-2689
44.41667,-2689
44.42500,-2689
44.43333,-2690
44.44167,-2690
44.45000,-2690
44.45833,-2690
44.46667,-2690
44.47500,-2690
44.48333,-2691
44.49167,-2691
44.50000,-2692
44.50833,-2692
44.51667,-2693
44.52500,-2693
44.53333,-2693
44.54167,-2693
44.55000,-2693
44.55833,-2693
44.56667,-2693
44.57500,-2693
44.58333,-2693
44.59167,-2693
44.60000,-2693
44.60833,-2694
44.61667,-2694
44.62500,-2695
44.63333,-2695
44.64167,-2696
44.65000,-2696
44.65833,-2697
44.66667,-2697
44.67500,-2697
44.68333,-2697
44.69167,-2697
44.70000,-2698
44.70833,-2698
44.71667,-2698
44.72500,-2698
44.73333,-2698
44.74167,-2698
44.75000,-2698
44.75833,-2698
44.76667,-2698
44.77500,-2698
44.78333,-2699
44.79167,-2699
44.80000,-2699
44.80833,-2699
44.81667,-2699
44.82500,-2700
44.83333,-2700
44.84167,-2700
44.85000,-2701
44.85833,-2701
44.86667,-2702
44.87500,-2703
44.88333,-2703
44.89167,-2704
44.90000,-2704
44.90833,-2704
44.91667,-2705
44.92500,-2705
44.93333,-2705
44.94167,-2705
44.95000,-2706
44.95833,-2706
44.96667,-2706
44.97500,-2707
44.98333,-2707
44.99167,-2708
45.00000,-2708

