[Header]
Application Name,LabSolutions
Version,5.97 SP1
Data File Name,C:\Users\cremerlab\Desktop\batch_template_3182021_001_009.lcd
Output Date,3/18/2021
Output Time,6:16:42 PM

[File Information]
Type,Data File
Generated,3/18/2021 5:31:23 PM
Generated by,System Administrator
Modified,3/18/2021 6:16:42 PM
Modified by,System Administrator

[Sample Information]
Operator Name,System Administrator
Acquired,3/18/2021 5:31:41 PM
Sample Type,1:Standard
Level,1
Sample Name,2021-03-18_thiamine001
Sample ID,001
ISTD Amount1,1
ISTD Amount2,1
ISTD Amount3,1
ISTD Amount4,1
ISTD Amount5,1
ISTD Amount6,1
ISTD Amount7,1
ISTD Amount8,1
ISTD Amount9,1
ISTD Amount10,1
ISTD Amount11,1
ISTD Amount12,1
ISTD Amount13,1
ISTD Amount14,1
ISTD Amount15,1
ISTD Amount16,1
ISTD Amount17,1
ISTD Amount18,1
ISTD Amount19,1
ISTD Amount20,1
ISTD Amount21,1
ISTD Amount22,1
ISTD Amount23,1
ISTD Amount24,1
ISTD Amount25,1
ISTD Amount26,1
ISTD Amount27,1
ISTD Amount28,1
ISTD Amount29,1
ISTD Amount30,1
ISTD Amount31,1
ISTD Amount32,1
Sample Amount,1
Dilution Factor,1
Vial#,21
Injection Volume,20

[Original Files]
Data File,C:\Users\cremerlab\Desktop\batch_template_3182021_001_009.lcd
Method File,C:\LabSolutions\Data\Project1\organicacidsetc2.lcm
Batch File,C:\Users\cremerlab\Desktop\batch_template.lcb
Report Format File,c:\LabSolutions\System\DEFAULT.lsr

[File Description]


[Configuration]
Instrument Name,HPLC-PC-Instrument1
Instrument #,1
Line #,1
# of Detectors,2
Detector ID,Detector A,Detector B
Detector Name,Detector A,Detector B
# of Channels,1,1

[LC Chromatogram(Detector B-Ch1)]
Interval(msec),500
# of Points,5401
Start Time(min),0.000
End Time(min),45.000
Intensity Units,mV
Intensity Multiplier,0.001
R.Time (min),Intensity
0.00000,-27
0.00833,-27
0.01667,-14
0.02500,-1
0.03333,-4
0.04167,-8
0.05000,-11
0.05833,-14
0.06667,-15
0.07500,-16
0.08333,-16
0.09167,-16
0.10000,-15
0.10833,-15
0.11667,-14
0.12500,-14
0.13333,-13
0.14167,-13
0.15000,-13
0.15833,-14
0.16667,-15
0.17500,-15
0.18333,-16
0.19167,-17
0.20000,-18
0.20833,-18
0.21667,-19
0.22500,-19
0.23333,-20
0.24167,-20
0.25000,-20
0.25833,-20
0.26667,-20
0.27500,-21
0.28333,-22
0.29167,-23
0.30000,-24
0.30833,-25
0.31667,-26
0.32500,-27
0.33333,-28
0.34167,-29
0.35000,-30
0.35833,-31
0.36667,-33
0.37500,-34
0.38333,-35
0.39167,-35
0.40000,-36
0.40833,-37
0.41667,-38
0.42500,-38
0.43333,-39
0.44167,-40
0.45000,-40
0.45833,-41
0.46667,-41
0.47500,-42
0.48333,-43
0.49167,-44
0.50000,-45
0.50833,-46
0.51667,-47
0.52500,-48
0.53333,-48
0.54167,-48
0.55000,-47
0.55833,-46
0.56667,-46
0.57500,-46
0.58333,-46
0.59167,-46
0.60000,-46
0.60833,-47
0.61667,-47
0.62500,-49
0.63333,-51
0.64167,-54
0.65000,-57
0.65833,-60
0.66667,-63
0.67500,-66
0.68333,-69
0.69167,-72
0.70000,-75
0.70833,-77
0.71667,-79
0.72500,-80
0.73333,-82
0.74167,-83
0.75000,-84
0.75833,-84
0.76667,-85
0.77500,-85
0.78333,-85
0.79167,-86
0.80000,-86
0.80833,-86
0.81667,-86
0.82500,-86
0.83333,-87
0.84167,-87
0.85000,-87
0.85833,-86
0.86667,-87
0.87500,-87
0.88333,-87
0.89167,-88
0.90000,-88
0.90833,-89
0.91667,-90
0.92500,-91
0.93333,-92
0.94167,-92
0.95000,-93
0.95833,-93
0.96667,-94
0.97500,-94
0.98333,-95
0.99167,-96
1.00000,-97
1.00833,-97
1.01667,-98
1.02500,-99
1.03333,-100
1.04167,-100
1.05000,-101
1.05833,-102
1.06667,-103
1.07500,-104
1.08333,-104
1.09167,-105
1.10000,-106
1.10833,-107
1.11667,-108
1.12500,-108
1.13333,-109
1.14167,-110
1.15000,-111
1.15833,-112
1.16667,-113
1.17500,-114
1.18333,-115
1.19167,-115
1.20000,-116
1.20833,-116
1.21667,-117
1.22500,-118
1.23333,-119
1.24167,-119
1.25000,-120
1.25833,-121
1.26667,-122
1.27500,-123
1.28333,-124
1.29167,-124
1.30000,-125
1.30833,-126
1.31667,-127
1.32500,-128
1.33333,-129
1.34167,-130
1.35000,-131
1.35833,-132
1.36667,-133
1.37500,-134
1.38333,-135
1.39167,-135
1.40000,-136
1.40833,-137
1.41667,-138
1.42500,-139
1.43333,-140
1.44167,-140
1.45000,-141
1.45833,-142
1.46667,-142
1.47500,-143
1.48333,-144
1.49167,-144
1.50000,-145
1.50833,-146
1.51667,-146
1.52500,-147
1.53333,-148
1.54167,-149
1.55000,-150
1.55833,-151
1.56667,-151
1.57500,-152
1.58333,-153
1.59167,-154
1.60000,-155
1.60833,-156
1.61667,-157
1.62500,-158
1.63333,-159
1.64167,-160
1.65000,-160
1.65833,-161
1.66667,-161
1.67500,-163
1.68333,-163
1.69167,-164
1.70000,-165
1.70833,-165
1.71667,-166
1.72500,-167
1.73333,-168
1.74167,-169
1.75000,-170
1.75833,-170
1.76667,-171
1.77500,-172
1.78333,-173
1.79167,-174
1.80000,-174
1.80833,-175
1.81667,-176
1.82500,-177
1.83333,-177
1.84167,-178
1.85000,-179
1.85833,-180
1.86667,-181
1.87500,-181
1.88333,-182
1.89167,-183
1.90000,-184
1.90833,-185
1.91667,-186
1.92500,-187
1.93333,-187
1.94167,-188
1.95000,-189
1.95833,-189
1.96667,-190
1.97500,-191
1.98333,-192
1.99167,-193
2.00000,-193
2.00833,-194
2.01667,-195
2.02500,-195
2.03333,-196
2.04167,-197
2.05000,-198
2.05833,-199
2.06667,-199
2.07500,-200
2.08333,-201
2.09167,-202
2.10000,-203
2.10833,-204
2.11667,-205
2.12500,-206
2.13333,-206
2.14167,-207
2.15000,-208
2.15833,-209
2.16667,-209
2.17500,-210
2.18333,-211
2.19167,-212
2.20000,-212
2.20833,-213
2.21667,-214
2.22500,-215
2.23333,-215
2.24167,-216
2.25000,-217
2.25833,-218
2.26667,-218
2.27500,-219
2.28333,-219
2.29167,-220
2.30000,-221
2.30833,-222
2.31667,-223
2.32500,-224
2.33333,-225
2.34167,-226
2.35000,-226
2.35833,-227
2.36667,-227
2.37500,-228
2.38333,-228
2.39167,-229
2.40000,-230
2.40833,-231
2.41667,-232
2.42500,-233
2.43333,-234
2.44167,-235
2.45000,-236
2.45833,-236
2.46667,-237
2.47500,-237
2.48333,-238
2.49167,-239
2.50000,-240
2.50833,-240
2.51667,-241
2.52500,-242
2.53333,-242
2.54167,-243
2.55000,-244
2.55833,-245
2.56667,-245
2.57500,-246
2.58333,-247
2.59167,-248
2.60000,-249
2.60833,-250
2.61667,-251
2.62500,-252
2.63333,-252
2.64167,-253
2.65000,-254
2.65833,-254
2.66667,-255
2.67500,-256
2.68333,-257
2.69167,-258
2.70000,-259
2.70833,-260
2.71667,-261
2.72500,-261
2.73333,-262
2.74167,-263
2.75000,-264
2.75833,-265
2.76667,-265
2.77500,-266
2.78333,-267
2.79167,-267
2.80000,-268
2.80833,-269
2.81667,-270
2.82500,-270
2.83333,-271
2.84167,-272
2.85000,-273
2.85833,-274
2.86667,-275
2.87500,-276
2.88333,-277
2.89167,-277
2.90000,-278
2.90833,-279
2.91667,-280
2.92500,-281
2.93333,-282
2.94167,-283
2.95000,-283
2.95833,-284
2.96667,-285
2.97500,-286
2.98333,-287
2.99167,-288
3.00000,-289
3.00833,-290
3.01667,-290
3.02500,-291
3.03333,-292
3.04167,-293
3.05000,-294
3.05833,-295
3.06667,-296
3.07500,-296
3.08333,-297
3.09167,-298
3.10000,-299
3.10833,-299
3.11667,-300
3.12500,-301
3.13333,-302
3.14167,-303
3.15000,-304
3.15833,-305
3.16667,-305
3.17500,-306
3.18333,-306
3.19167,-307
3.20000,-307
3.20833,-308
3.21667,-309
3.22500,-310
3.23333,-311
3.24167,-312
3.25000,-313
3.25833,-314
3.26667,-315
3.27500,-316
3.28333,-317
3.29167,-318
3.30000,-319
3.30833,-320
3.31667,-320
3.32500,-321
3.33333,-322
3.34167,-323
3.35000,-324
3.35833,-324
3.36667,-325
3.37500,-326
3.38333,-327
3.39167,-328
3.40000,-329
3.40833,-330
3.41667,-330
3.42500,-331
3.43333,-332
3.44167,-332
3.45000,-333
3.45833,-334
3.46667,-335
3.47500,-336
3.48333,-337
3.49167,-338
3.50000,-338
3.50833,-339
3.51667,-340
3.52500,-341
3.53333,-341
3.54167,-342
3.55000,-344
3.55833,-345
3.56667,-346
3.57500,-346
3.58333,-347
3.59167,-348
3.60000,-349
3.60833,-350
3.61667,-350
3.62500,-351
3.63333,-352
3.64167,-353
3.65000,-353
3.65833,-354
3.66667,-355
3.67500,-356
3.68333,-357
3.69167,-357
3.70000,-358
3.70833,-359
3.71667,-360
3.72500,-361
3.73333,-362
3.74167,-363
3.75000,-364
3.75833,-365
3.76667,-366
3.77500,-367
3.78333,-367
3.79167,-368
3.80000,-369
3.80833,-370
3.81667,-371
3.82500,-372
3.83333,-373
3.84167,-373
3.85000,-374
3.85833,-375
3.86667,-375
3.87500,-376
3.88333,-377
3.89167,-378
3.90000,-378
3.90833,-379
3.91667,-380
3.92500,-381
3.93333,-382
3.94167,-383
3.95000,-383
3.95833,-384
3.96667,-385
3.97500,-386
3.98333,-387
3.99167,-387
4.00000,-388
4.00833,-388
4.01667,-389
4.02500,-390
4.03333,-391
4.04167,-392
4.05000,-393
4.05833,-393
4.06667,-394
4.07500,-395
4.08333,-395
4.09167,-396
4.10000,-397
4.10833,-398
4.11667,-398
4.12500,-399
4.13333,-400
4.14167,-401
4.15000,-402
4.15833,-403
4.16667,-404
4.17500,-405
4.18333,-405
4.19167,-406
4.20000,-407
4.20833,-408
4.21667,-409
4.22500,-410
4.23333,-411
4.24167,-412
4.25000,-412
4.25833,-413
4.26667,-413
4.27500,-414
4.28333,-415
4.29167,-416
4.30000,-416
4.30833,-417
4.31667,-418
4.32500,-419
4.33333,-419
4.34167,-420
4.35000,-420
4.35833,-421
4.36667,-422
4.37500,-423
4.38333,-423
4.39167,-424
4.40000,-425
4.40833,-425
4.41667,-426
4.42500,-427
4.43333,-428
4.44167,-429
4.45000,-430
4.45833,-431
4.46667,-431
4.47500,-432
4.48333,-433
4.49167,-435
4.50000,-436
4.50833,-436
4.51667,-437
4.52500,-438
4.53333,-438
4.54167,-439
4.55000,-440
4.55833,-441
4.56667,-441
4.57500,-442
4.58333,-443
4.59167,-444
4.60000,-445
4.60833,-446
4.61667,-447
4.62500,-447
4.63333,-447
4.64167,-448
4.65000,-449
4.65833,-450
4.66667,-451
4.67500,-452
4.68333,-453
4.69167,-453
4.70000,-454
4.70833,-455
4.71667,-455
4.72500,-456
4.73333,-457
4.74167,-457
4.75000,-458
4.75833,-458
4.76667,-459
4.77500,-460
4.78333,-461
4.79167,-462
4.80000,-463
4.80833,-464
4.81667,-465
4.82500,-466
4.83333,-467
4.84167,-467
4.85000,-468
4.85833,-469
4.86667,-470
4.87500,-471
4.88333,-472
4.89167,-472
4.90000,-473
4.90833,-474
4.91667,-475
4.92500,-476
4.93333,-477
4.94167,-477
4.95000,-478
4.95833,-479
4.96667,-480
4.97500,-480
4.98333,-481
4.99167,-482
5.00000,-482
5.00833,-483
5.01667,-484
5.02500,-485
5.03333,-485
5.04167,-486
5.05000,-487
5.05833,-488
5.06667,-489
5.07500,-490
5.08333,-491
5.09167,-491
5.10000,-492
5.10833,-493
5.11667,-494
5.12500,-494
5.13333,-495
5.14167,-496
5.15000,-497
5.15833,-498
5.16667,-498
5.17500,-499
5.18333,-500
5.19167,-500
5.20000,-501
5.20833,-502
5.21667,-503
5.22500,-504
5.23333,-504
5.24167,-505
5.25000,-506
5.25833,-507
5.26667,-507
5.27500,-508
5.28333,-509
5.29167,-510
5.30000,-511
5.30833,-512
5.31667,-512
5.32500,-513
5.33333,-513
5.34167,-514
5.35000,-515
5.35833,-515
5.36667,-516
5.37500,-517
5.38333,-518
5.39167,-518
5.40000,-519
5.40833,-521
5.41667,-522
5.42500,-522
5.43333,-523
5.44167,-524
5.45000,-525
5.45833,-525
5.46667,-525
5.47500,-526
5.48333,-527
5.49167,-527
5.50000,-528
5.50833,-529
5.51667,-530
5.52500,-531
5.53333,-532
5.54167,-533
5.55000,-533
5.55833,-534
5.56667,-534
5.57500,-535
5.58333,-535
5.59167,-536
5.60000,-537
5.60833,-538
5.61667,-539
5.62500,-540
5.63333,-541
5.64167,-541
5.65000,-542
5.65833,-543
5.66667,-544
5.67500,-545
5.68333,-545
5.69167,-546
5.70000,-547
5.70833,-548
5.71667,-548
5.72500,-549
5.73333,-550
5.74167,-551
5.75000,-552
5.75833,-552
5.76667,-553
5.77500,-554
5.78333,-555
5.79167,-556
5.80000,-557
5.80833,-558
5.81667,-559
5.82500,-559
5.83333,-560
5.84167,-561
5.85000,-562
5.85833,-563
5.86667,-564
5.87500,-564
5.88333,-565
5.89167,-566
5.90000,-567
5.90833,-568
5.91667,-569
5.92500,-570
5.93333,-571
5.94167,-572
5.95000,-573
5.95833,-573
5.96667,-574
5.97500,-575
5.98333,-576
5.99167,-577
6.00000,-578
6.00833,-579
6.01667,-580
6.02500,-581
6.03333,-582
6.04167,-583
6.05000,-584
6.05833,-585
6.06667,-585
6.07500,-586
6.08333,-587
6.09167,-587
6.10000,-588
6.10833,-589
6.11667,-590
6.12500,-591
6.13333,-592
6.14167,-593
6.15000,-594
6.15833,-595
6.16667,-596
6.17500,-597
6.18333,-598
6.19167,-598
6.20000,-599
6.20833,-600
6.21667,-601
6.22500,-602
6.23333,-603
6.24167,-604
6.25000,-604
6.25833,-605
6.26667,-606
6.27500,-607
6.28333,-608
6.29167,-609
6.30000,-610
6.30833,-610
6.31667,-611
6.32500,-612
6.33333,-613
6.34167,-614
6.35000,-615
6.35833,-616
6.36667,-617
6.37500,-618
6.38333,-619
6.39167,-619
6.40000,-620
6.40833,-621
6.41667,-622
6.42500,-623
6.43333,-624
6.44167,-625
6.45000,-626
6.45833,-627
6.46667,-628
6.47500,-628
6.48333,-629
6.49167,-630
6.50000,-631
6.50833,-632
6.51667,-632
6.52500,-633
6.53333,-634
6.54167,-634
6.55000,-635
6.55833,-636
6.56667,-636
6.57500,-637
6.58333,-639
6.59167,-640
6.60000,-640
6.60833,-641
6.61667,-642
6.62500,-643
6.63333,-643
6.64167,-644
6.65000,-645
6.65833,-646
6.66667,-647
6.67500,-647
6.68333,-648
6.69167,-649
6.70000,-650
6.70833,-650
6.71667,-651
6.72500,-652
6.73333,-653
6.74167,-654
6.75000,-655
6.75833,-655
6.76667,-656
6.77500,-657
6.78333,-658
6.79167,-658
6.80000,-659
6.80833,-660
6.81667,-661
6.82500,-661
6.83333,-662
6.84167,-663
6.85000,-663
6.85833,-664
6.86667,-665
6.87500,-666
6.88333,-667
6.89167,-668
6.90000,-669
6.90833,-670
6.91667,-671
6.92500,-671
6.93333,-672
6.94167,-673
6.95000,-674
6.95833,-675
6.96667,-675
6.97500,-676
6.98333,-677
6.99167,-678
7.00000,-678
7.00833,-679
7.01667,-680
7.02500,-681
7.03333,-682
7.04167,-682
7.05000,-683
7.05833,-684
7.06667,-685
7.07500,-685
7.08333,-686
7.09167,-687
7.10000,-688
7.10833,-688
7.11667,-689
7.12500,-690
7.13333,-691
7.14167,-691
7.15000,-692
7.15833,-693
7.16667,-694
7.17500,-695
7.18333,-695
7.19167,-696
7.20000,-697
7.20833,-698
7.21667,-699
7.22500,-700
7.23333,-701
7.24167,-702
7.25000,-703
7.25833,-704
7.26667,-704
7.27500,-705
7.28333,-706
7.29167,-706
7.30000,-707
7.30833,-708
7.31667,-709
7.32500,-709
7.33333,-710
7.34167,-711
7.35000,-712
7.35833,-712
7.36667,-712
7.37500,-713
7.38333,-714
7.39167,-715
7.40000,-716
7.40833,-717
7.41667,-718
7.42500,-718
7.43333,-719
7.44167,-719
7.45000,-720
7.45833,-721
7.46667,-721
7.47500,-722
7.48333,-723
7.49167,-724
7.50000,-725
7.50833,-726
7.51667,-727
7.52500,-728
7.53333,-729
7.54167,-730
7.55000,-730
7.55833,-731
7.56667,-732
7.57500,-733
7.58333,-733
7.59167,-734
7.60000,-735
7.60833,-736
7.61667,-737
7.62500,-737
7.63333,-738
7.64167,-739
7.65000,-739
7.65833,-740
7.66667,-741
7.67500,-741
7.68333,-742
7.69167,-743
7.70000,-744
7.70833,-745
7.71667,-746
7.72500,-747
7.73333,-747
7.74167,-749
7.75000,-750
7.75833,-750
7.76667,-751
7.77500,-752
7.78333,-753
7.79167,-754
7.80000,-754
7.80833,-755
7.81667,-756
7.82500,-756
7.83333,-757
7.84167,-757
7.85000,-758
7.85833,-759
7.86667,-760
7.87500,-761
7.88333,-762
7.89167,-762
7.90000,-763
7.90833,-764
7.91667,-764
7.92500,-765
7.93333,-766
7.94167,-767
7.95000,-768
7.95833,-769
7.96667,-770
7.97500,-771
7.98333,-772
7.99167,-773
8.00000,-773
8.00833,-774
8.01667,-774
8.02500,-775
8.03333,-775
8.04167,-776
8.05000,-777
8.05833,-778
8.06667,-779
8.07500,-780
8.08333,-781
8.09167,-782
8.10000,-782
8.10833,-783
8.11667,-784
8.12500,-785
8.13333,-785
8.14167,-786
8.15000,-787
8.15833,-788
8.16667,-789
8.17500,-790
8.18333,-791
8.19167,-792
8.20000,-793
8.20833,-793
8.21667,-794
8.22500,-795
8.23333,-795
8.24167,-796
8.25000,-796
8.25833,-797
8.26667,-797
8.27500,-798
8.28333,-799
8.29167,-800
8.30000,-801
8.30833,-802
8.31667,-803
8.32500,-804
8.33333,-805
8.34167,-806
8.35000,-807
8.35833,-808
8.36667,-809
8.37500,-810
8.38333,-811
8.39167,-811
8.40000,-812
8.40833,-812
8.41667,-813
8.42500,-814
8.43333,-815
8.44167,-816
8.45000,-817
8.45833,-817
8.46667,-818
8.47500,-819
8.48333,-819
8.49167,-820
8.50000,-821
8.50833,-822
8.51667,-823
8.52500,-823
8.53333,-824
8.54167,-825
8.55000,-826
8.55833,-826
8.56667,-827
8.57500,-828
8.58333,-829
8.59167,-829
8.60000,-829
8.60833,-830
8.61667,-831
8.62500,-832
8.63333,-833
8.64167,-834
8.65000,-835
8.65833,-836
8.66667,-836
8.67500,-837
8.68333,-838
8.69167,-839
8.70000,-840
8.70833,-840
8.71667,-841
8.72500,-842
8.73333,-843
8.74167,-844
8.75000,-846
8.75833,-846
8.76667,-847
8.77500,-847
8.78333,-848
8.79167,-849
8.80000,-850
8.80833,-851
8.81667,-852
8.82500,-853
8.83333,-854
8.84167,-854
8.85000,-855
8.85833,-855
8.86667,-856
8.87500,-857
8.88333,-857
8.89167,-858
8.90000,-859
8.90833,-860
8.91667,-860
8.92500,-861
8.93333,-862
8.94167,-863
8.95000,-864
8.95833,-864
8.96667,-865
8.97500,-866
8.98333,-867
8.99167,-867
9.00000,-868
9.00833,-869
9.01667,-869
9.02500,-870
9.03333,-870
9.04167,-871
9.05000,-872
9.05833,-873
9.06667,-874
9.07500,-875
9.08333,-876
9.09167,-877
9.10000,-877
9.10833,-878
9.11667,-879
9.12500,-880
9.13333,-881
9.14167,-881
9.15000,-882
9.15833,-883
9.16667,-883
9.17500,-884
9.18333,-885
9.19167,-886
9.20000,-886
9.20833,-887
9.21667,-888
9.22500,-888
9.23333,-889
9.24167,-890
9.25000,-891
9.25833,-891
9.26667,-892
9.27500,-893
9.28333,-894
9.29167,-895
9.30000,-896
9.30833,-897
9.31667,-898
9.32500,-899
9.33333,-900
9.34167,-900
9.35000,-901
9.35833,-901
9.36667,-902
9.37500,-903
9.38333,-904
9.39167,-904
9.40000,-905
9.40833,-906
9.41667,-907
9.42500,-908
9.43333,-909
9.44167,-909
9.45000,-910
9.45833,-911
9.46667,-912
9.47500,-913
9.48333,-914
9.49167,-914
9.50000,-915
9.50833,-916
9.51667,-917
9.52500,-918
9.53333,-918
9.54167,-919
9.55000,-920
9.55833,-921
9.56667,-922
9.57500,-923
9.58333,-924
9.59167,-925
9.60000,-926
9.60833,-926
9.61667,-927
9.62500,-927
9.63333,-928
9.64167,-928
9.65000,-929
9.65833,-930
9.66667,-931
9.67500,-933
9.68333,-934
9.69167,-935
9.70000,-936
9.70833,-936
9.71667,-937
9.72500,-937
9.73333,-938
9.74167,-939
9.75000,-940
9.75833,-941
9.76667,-942
9.77500,-943
9.78333,-944
9.79167,-944
9.80000,-945
9.80833,-946
9.81667,-946
9.82500,-947
9.83333,-948
9.84167,-948
9.85000,-949
9.85833,-950
9.86667,-951
9.87500,-952
9.88333,-953
9.89167,-954
9.90000,-955
9.90833,-956
9.91667,-957
9.92500,-957
9.93333,-958
9.94167,-958
9.95000,-959
9.95833,-960
9.96667,-961
9.97500,-961
9.98333,-962
9.99167,-963
10.00000,-964
10.00833,-965
10.01667,-965
10.02500,-966
10.03333,-967
10.04167,-968
10.05000,-969
10.05833,-969
10.06667,-970
10.07500,-971
10.08333,-972
10.09167,-973
10.10000,-974
10.10833,-975
10.11667,-975
10.12500,-976
10.13333,-977
10.14167,-978
10.15000,-979
10.15833,-980
10.16667,-981
10.17500,-982
10.18333,-983
10.19167,-983
10.20000,-984
10.20833,-985
10.21667,-986
10.22500,-986
10.23333,-987
10.24167,-988
10.25000,-989
10.25833,-990
10.26667,-990
10.27500,-990
10.28333,-991
10.29167,-991
10.30000,-991
10.30833,-991
10.31667,-991
10.32500,-991
10.33333,-991
10.34167,-991
10.35000,-990
10.35833,-990
10.36667,-990
10.37500,-989
10.38333,-989
10.39167,-989
10.40000,-988
10.40833,-988
10.41667,-988
10.42500,-987
10.43333,-986
10.44167,-986
10.45000,-985
10.45833,-984
10.46667,-983
10.47500,-982
10.48333,-981
10.49167,-979
10.50000,-977
10.50833,-974
10.51667,-970
10.52500,-966
10.53333,-960
10.54167,-953
10.55000,-943
10.55833,-932
10.56667,-917
10.57500,-898
10.58333,-872
10.59167,-840
10.60000,-798
10.60833,-744
10.61667,-675
10.62500,-587
10.63333,-476
10.64167,-335
10.65000,-159
10.65833,59
10.66667,327
10.67500,653
10.68333,1046
10.69167,1515
10.70000,2070
10.70833,2721
10.71667,3480
10.72500,4354
10.73333,5355
10.74167,6490
10.75000,7768
10.75833,9197
10.76667,10781
10.77500,12525
10.78333,14434
10.79167,16508
10.80000,18746
10.80833,21149
10.81667,23712
10.82500,26430
10.83333,29296
10.84167,32301
10.85000,35435
10.85833,38684
10.86667,42032
10.87500,45463
10.88333,48956
10.89167,52488
10.90000,56035
10.90833,59567
10.91667,63053
10.92500,66458
10.93333,69743
10.94167,72866
10.95000,75782
10.95833,78445
10.96667,80806
10.97500,82819
10.98333,84437
10.99167,85618
11.00000,86326
11.00833,86534
11.01667,86222
11.02500,85385
11.03333,84029
11.04167,82171
11.05000,79843
11.05833,77088
11.06667,73959
11.07500,70514
11.08333,66820
11.09167,62943
11.10000,58950
11.10833,54905
11.11667,50869
11.12500,46895
11.13333,43028
11.14167,39306
11.15000,35760
11.15833,32410
11.16667,29271
11.17500,26350
11.18333,23651
11.19167,21170
11.20000,18902
11.20833,16839
11.21667,14968
11.22500,13279
11.23333,11757
11.24167,10390
11.25000,9166
11.25833,8071
11.26667,7093
11.27500,6222
11.28333,5446
11.29167,4756
11.30000,4143
11.30833,3599
11.31667,3116
11.32500,2687
11.33333,2308
11.34167,1971
11.35000,1673
11.35833,1409
11.36667,1175
11.37500,968
11.38333,784
11.39167,621
11.40000,476
11.40833,347
11.41667,232
11.42500,129
11.43333,38
11.44167,-44
11.45000,-118
11.45833,-185
11.46667,-244
11.47500,-298
11.48333,-347
11.49167,-392
11.50000,-433
11.50833,-470
11.51667,-505
11.52500,-536
11.53333,-565
11.54167,-592
11.55000,-617
11.55833,-641
11.56667,-663
11.57500,-683
11.58333,-702
11.59167,-720
11.60000,-738
11.60833,-754
11.61667,-770
11.62500,-784
11.63333,-798
11.64167,-811
11.65000,-824
11.65833,-836
11.66667,-847
11.67500,-858
11.68333,-869
11.69167,-880
11.70000,-890
11.70833,-900
11.71667,-909
11.72500,-918
11.73333,-926
11.74167,-934
11.75000,-941
11.75833,-949
11.76667,-956
11.77500,-963
11.78333,-971
11.79167,-977
11.80000,-983
11.80833,-989
11.81667,-995
11.82500,-1000
11.83333,-1006
11.84167,-1011
11.85000,-1016
11.85833,-1021
11.86667,-1025
11.87500,-1030
11.88333,-1034
11.89167,-1039
11.90000,-1042
11.90833,-1046
11.91667,-1050
11.92500,-1053
11.93333,-1057
11.94167,-1060
11.95000,-1064
11.95833,-1067
11.96667,-1069
11.97500,-1072
11.98333,-1075
11.99167,-1077
12.00000,-1079
12.00833,-1081
12.01667,-1083
12.02500,-1085
12.03333,-1087
12.04167,-1090
12.05000,-1092
12.05833,-1094
12.06667,-1096
12.07500,-1098
12.08333,-1099
12.09167,-1101
12.10000,-1102
12.10833,-1103
12.11667,-1104
12.12500,-1106
12.13333,-1107
12.14167,-1109
12.15000,-1110
12.15833,-1111
12.16667,-1113
12.17500,-1114
12.18333,-1115
12.19167,-1117
12.20000,-1118
12.20833,-1119
12.21667,-1121
12.22500,-1122
12.23333,-1123
12.24167,-1125
12.25000,-1126
12.25833,-1127
12.26667,-1129
12.27500,-1131
12.28333,-1132
12.29167,-1133
12.30000,-1134
12.30833,-1135
12.31667,-1137
12.32500,-1138
12.33333,-1140
12.34167,-1142
12.35000,-1143
12.35833,-1145
12.36667,-1146
12.37500,-1148
12.38333,-1149
12.39167,-1150
12.40000,-1151
12.40833,-1152
12.41667,-1153
12.42500,-1154
12.43333,-1155
12.44167,-1156
12.45000,-1157
12.45833,-1158
12.46667,-1159
12.47500,-1159
12.48333,-1160
12.49167,-1160
12.50000,-1161
12.50833,-1162
12.51667,-1163
12.52500,-1164
12.53333,-1164
12.54167,-1165
12.55000,-1166
12.55833,-1167
12.56667,-1168
12.57500,-1168
12.58333,-1169
12.59167,-1170
12.60000,-1170
12.60833,-1171
12.61667,-1171
12.62500,-1172
12.63333,-1172
12.64167,-1173
12.65000,-1173
12.65833,-1174
12.66667,-1174
12.67500,-1174
12.68333,-1174
12.69167,-1174
12.70000,-1173
12.70833,-1173
12.71667,-1172
12.72500,-1171
12.73333,-1170
12.74167,-1168
12.75000,-1167
12.75833,-1165
12.76667,-1162
12.77500,-1160
12.78333,-1157
12.79167,-1153
12.80000,-1150
12.80833,-1145
12.81667,-1141
12.82500,-1136
12.83333,-1132
12.84167,-1127
12.85000,-1121
12.85833,-1115
12.86667,-1109
12.87500,-1102
12.88333,-1095
12.89167,-1089
12.90000,-1081
12.90833,-1074
12.91667,-1067
12.92500,-1059
12.93333,-1052
12.94167,-1044
12.95000,-1037
12.95833,-1029
12.96667,-1021
12.97500,-1014
12.98333,-1007
12.99167,-1000
13.00000,-994
13.00833,-988
13.01667,-982
13.02500,-976
13.03333,-971
13.04167,-966
13.05000,-961
13.05833,-957
13.06667,-954
13.07500,-951
13.08333,-948
13.09167,-946
13.10000,-944
13.10833,-944
13.11667,-944
13.12500,-944
13.13333,-944
13.14167,-945
13.15000,-948
13.15833,-951
13.16667,-955
13.17500,-959
13.18333,-963
13.19167,-968
13.20000,-975
13.20833,-981
13.21667,-988
13.22500,-996
13.23333,-1004
13.24167,-1013
13.25000,-1023
13.25833,-1033
13.26667,-1043
13.27500,-1053
13.28333,-1064
13.29167,-1076
13.30000,-1088
13.30833,-1099
13.31667,-1111
13.32500,-1124
13.33333,-1136
13.34167,-1148
13.35000,-1160
13.35833,-1173
13.36667,-1184
13.37500,-1196
13.38333,-1209
13.39167,-1221
13.40000,-1233
13.40833,-1244
13.41667,-1256
13.42500,-1266
13.43333,-1277
13.44167,-1287
13.45000,-1297
13.45833,-1306
13.46667,-1315
13.47500,-1324
13.48333,-1332
13.49167,-1340
13.50000,-1347
13.50833,-1354
13.51667,-1360
13.52500,-1367
13.53333,-1372
13.54167,-1378
13.55000,-1382
13.55833,-1387
13.56667,-1391
13.57500,-1394
13.58333,-1397
13.59167,-1399
13.60000,-1401
13.60833,-1403
13.61667,-1405
13.62500,-1406
13.63333,-1406
13.64167,-1407
13.65000,-1407
13.65833,-1408
13.66667,-1408
13.67500,-1408
13.68333,-1407
13.69167,-1407
13.70000,-1406
13.70833,-1405
13.71667,-1404
13.72500,-1403
13.73333,-1401
13.74167,-1399
13.75000,-1398
13.75833,-1396
13.76667,-1394
13.77500,-1393
13.78333,-1391
13.79167,-1390
13.80000,-1388
13.80833,-1386
13.81667,-1384
13.82500,-1382
13.83333,-1380
13.84167,-1378
13.85000,-1376
13.85833,-1374
13.86667,-1372
13.87500,-1370
13.88333,-1368
13.89167,-1366
13.90000,-1365
13.90833,-1362
13.91667,-1361
13.92500,-1359
13.93333,-1357
13.94167,-1355
13.95000,-1352
13.95833,-1350
13.96667,-1347
13.97500,-1345
13.98333,-1342
13.99167,-1339
14.00000,-1337
14.00833,-1334
14.01667,-1330
14.02500,-1327
14.03333,-1322
14.04167,-1317
14.05000,-1312
14.05833,-1306
14.06667,-1299
14.07500,-1291
14.08333,-1281
14.09167,-1270
14.10000,-1258
14.10833,-1242
14.11667,-1225
14.12500,-1203
14.13333,-1178
14.14167,-1149
14.15000,-1113
14.15833,-1071
14.16667,-1022
14.17500,-962
14.18333,-892
14.19167,-810
14.20000,-713
14.20833,-598
14.21667,-465
14.22500,-310
14.23333,-130
14.24167,78
14.25000,316
14.25833,590
14.26667,901
14.27500,1255
14.28333,1653
14.29167,2101
14.30000,2601
14.30833,3157
14.31667,3771
14.32500,4448
14.33333,5188
14.34167,5995
14.35000,6870
14.35833,7812
14.36667,8824
14.37500,9904
14.38333,11053
14.39167,12266
14.40000,13543
14.40833,14881
14.41667,16276
14.42500,17724
14.43333,19220
14.44167,20759
14.45000,22335
14.45833,23943
14.46667,25576
14.47500,27229
14.48333,28895
14.49167,30569
14.50000,32244
14.50833,33914
14.51667,35575
14.52500,37221
14.53333,38848
14.54167,40450
14.55000,42026
14.55833,43571
14.56667,45083
14.57500,46561
14.58333,48003
14.59167,49409
14.60000,50778
14.60833,52112
14.61667,53411
14.62500,54676
14.63333,55910
14.64167,57114
14.65000,58292
14.65833,59447
14.66667,60581
14.67500,61700
14.68333,62806
14.69167,63904
14.70000,64997
14.70833,66089
14.71667,67185
14.72500,68289
14.73333,69404
14.74167,70534
14.75000,71684
14.75833,72856
14.76667,74053
14.77500,75281
14.78333,76540
14.79167,77834
14.80000,79166
14.80833,80539
14.81667,81955
14.82500,83415
14.83333,84921
14.84167,86476
14.85000,88081
14.85833,89736
14.86667,91444
14.87500,93205
14.88333,95020
14.89167,96890
14.90000,98815
14.90833,100796
14.91667,102833
14.92500,104926
14.93333,107077
14.94167,109284
14.95000,111547
14.95833,113868
14.96667,116246
14.97500,118682
14.98333,121175
14.99167,123726
15.00000,126334
15.00833,128999
15.01667,131720
15.02500,134499
15.03333,137336
15.04167,140229
15.05000,143180
15.05833,146188
15.06667,149253
15.07500,152376
15.08333,155556
15.09167,158794
15.10000,162090
15.10833,165443
15.11667,168853
15.12500,172322
15.13333,175848
15.14167,179432
15.15000,183074
15.15833,186772
15.16667,190527
15.17500,194336
15.18333,198198
15.19167,202106
15.20000,206055
15.20833,210034
15.21667,214028
15.22500,218014
15.23333,221966
15.24167,225849
15.25000,229617
15.25833,233218
15.26667,236590
15.27500,239667
15.28333,242373
15.29167,244632
15.30000,246361
15.30833,247480
15.31667,247910
15.32500,247575
15.33333,246409
15.34167,244354
15.35000,241364
15.35833,237412
15.36667,232487
15.37500,226596
15.38333,219773
15.39167,212072
15.40000,203570
15.40833,194368
15.41667,184585
15.42500,174353
15.43333,163814
15.44167,153117
15.45000,142406
15.45833,131821
15.46667,121488
15.47500,111520
15.48333,102009
15.49167,93027
15.50000,84627
15.50833,76840
15.51667,69682
15.52500,63150
15.53333,57230
15.54167,51897
15.55000,47117
15.55833,42853
15.56667,39064
15.57500,35706
15.58333,32740
15.59167,30123
15.60000,27817
15.60833,25787
15.61667,24000
15.62500,22427
15.63333,21041
15.64167,19820
15.65000,18741
15.65833,17787
15.66667,16941
15.67500,16190
15.68333,15522
15.69167,14925
15.70000,14391
15.70833,13912
15.71667,13482
15.72500,13093
15.73333,12742
15.74167,12424
15.75000,12134
15.75833,11870
15.76667,11628
15.77500,11407
15.78333,11203
15.79167,11015
15.80000,10842
15.80833,10681
15.81667,10532
15.82500,10393
15.83333,10262
15.84167,10141
15.85000,10026
15.85833,9919
15.86667,9818
15.87500,9722
15.88333,9631
15.89167,9545
15.90000,9463
15.90833,9385
15.91667,9310
15.92500,9239
15.93333,9171
15.94167,9105
15.95000,9041
15.95833,8980
15.96667,8921
15.97500,8864
15.98333,8809
15.99167,8755
16.00000,8703
16.00833,8653
16.01667,8603
16.02500,8554
16.03333,8506
16.04167,8459
16.05000,8412
16.05833,8366
16.06667,8321
16.07500,8277
16.08333,8233
16.09167,8189
16.10000,8146
16.10833,8103
16.11667,8061
16.12500,8018
16.13333,7975
16.14167,7933
16.15000,7890
16.15833,7848
16.16667,7805
16.17500,7763
16.18333,7720
16.19167,7676
16.20000,7633
16.20833,7589
16.21667,7545
16.22500,7501
16.23333,7456
16.24167,7411
16.25000,7366
16.25833,7319
16.26667,7273
16.27500,7226
16.28333,7179
16.29167,7131
16.30000,7083
16.30833,7035
16.31667,6986
16.32500,6937
16.33333,6887
16.34167,6836
16.35000,6785
16.35833,6734
16.36667,6682
16.37500,6630
16.38333,6577
16.39167,6524
16.40000,6470
16.40833,6416
16.41667,6362
16.42500,6307
16.43333,6251
16.44167,6195
16.45000,6138
16.45833,6081
16.46667,6024
16.47500,5967
16.48333,5909
16.49167,5851
16.50000,5792
16.50833,5733
16.51667,5673
16.52500,5614
16.53333,5554
16.54167,5494
16.55000,5433
16.55833,5372
16.56667,5312
16.57500,5251
16.58333,5190
16.59167,5128
16.60000,5067
16.60833,5005
16.61667,4943
16.62500,4881
16.63333,4819
16.64167,4756
16.65000,4694
16.65833,4631
16.66667,4569
16.67500,4506
16.68333,4444
16.69167,4381
16.70000,4318
16.70833,4255
16.71667,4193
16.72500,4130
16.73333,4068
16.74167,4005
16.75000,3943
16.75833,3880
16.76667,3818
16.77500,3756
16.78333,3694
16.79167,3633
16.80000,3571
16.80833,3510
16.81667,3449
16.82500,3388
16.83333,3326
16.84167,3266
16.85000,3205
16.85833,3145
16.86667,3085
16.87500,3026
16.88333,2966
16.89167,2907
16.90000,2848
16.90833,2789
16.91667,2731
16.92500,2673
16.93333,2615
16.94167,2557
16.95000,2500
16.95833,2442
16.96667,2385
16.97500,2329
16.98333,2273
16.99167,2217
17.00000,2162
17.00833,2106
17.01667,2051
17.02500,1996
17.03333,1941
17.04167,1886
17.05000,1831
17.05833,1777
17.06667,1723
17.07500,1670
17.08333,1617
17.09167,1564
17.10000,1511
17.10833,1459
17.11667,1407
17.12500,1355
17.13333,1304
17.14167,1253
17.15000,1202
17.15833,1151
17.16667,1101
17.17500,1052
17.18333,1002
17.19167,953
17.20000,904
17.20833,855
17.21667,807
17.22500,760
17.23333,712
17.24167,665
17.25000,619
17.25833,572
17.26667,526
17.27500,481
17.28333,436
17.29167,391
17.30000,346
17.30833,302
17.31667,259
17.32500,216
17.33333,173
17.34167,131
17.35000,89
17.35833,48
17.36667,7
17.37500,-33
17.38333,-72
17.39167,-111
17.40000,-149
17.40833,-186
17.41667,-223
17.42500,-260
17.43333,-296
17.44167,-331
17.45000,-366
17.45833,-399
17.46667,-432
17.47500,-464
17.48333,-496
17.49167,-526
17.50000,-557
17.50833,-586
17.51667,-616
17.52500,-644
17.53333,-672
17.54167,-699
17.55000,-725
17.55833,-750
17.56667,-775
17.57500,-799
17.58333,-822
17.59167,-845
17.60000,-867
17.60833,-887
17.61667,-908
17.62500,-928
17.63333,-947
17.64167,-966
17.65000,-984
17.65833,-1001
17.66667,-1017
17.67500,-1033
17.68333,-1048
17.69167,-1062
17.70000,-1076
17.70833,-1089
17.71667,-1102
17.72500,-1114
17.73333,-1126
17.74167,-1137
17.75000,-1148
17.75833,-1159
17.76667,-1169
17.77500,-1179
17.78333,-1188
17.79167,-1197
17.80000,-1205
17.80833,-1213
17.81667,-1221
17.82500,-1228
17.83333,-1235
17.84167,-1242
17.85000,-1249
17.85833,-1255
17.86667,-1262
17.87500,-1268
17.88333,-1274
17.89167,-1279
17.90000,-1285
17.90833,-1290
17.91667,-1295
17.92500,-1299
17.93333,-1304
17.94167,-1309
17.95000,-1313
17.95833,-1318
17.96667,-1322
17.97500,-1326
17.98333,-1330
17.99167,-1334
18.00000,-1338
18.00833,-1342
18.01667,-1346
18.02500,-1349
18.03333,-1353
18.04167,-1356
18.05000,-1360
18.05833,-1363
18.06667,-1366
18.07500,-1370
18.08333,-1373
18.09167,-1376
18.10000,-1380
18.10833,-1383
18.11667,-1387
18.12500,-1390
18.13333,-1392
18.14167,-1395
18.15000,-1398
18.15833,-1401
18.16667,-1405
18.17500,-1407
18.18333,-1410
18.19167,-1412
18.20000,-1414
18.20833,-1417
18.21667,-1419
18.22500,-1422
18.23333,-1424
18.24167,-1427
18.25000,-1429
18.25833,-1432
18.26667,-1434
18.27500,-1437
18.28333,-1440
18.29167,-1442
18.30000,-1444
18.30833,-1446
18.31667,-1448
18.32500,-1450
18.33333,-1452
18.34167,-1454
18.35000,-1456
18.35833,-1458
18.36667,-1460
18.37500,-1463
18.38333,-1465
18.39167,-1467
18.40000,-1470
18.40833,-1472
18.41667,-1474
18.42500,-1476
18.43333,-1478
18.44167,-1480
18.45000,-1482
18.45833,-1484
18.46667,-1486
18.47500,-1489
18.48333,-1491
18.49167,-1493
18.50000,-1495
18.50833,-1498
18.51667,-1500
18.52500,-1503
18.53333,-1505
18.54167,-1508
18.55000,-1511
18.55833,-1513
18.56667,-1516
18.57500,-1518
18.58333,-1520
18.59167,-1522
18.60000,-1525
18.60833,-1527
18.61667,-1530
18.62500,-1532
18.63333,-1534
18.64167,-1536
18.65000,-1538
18.65833,-1540
18.66667,-1542
18.67500,-1544
18.68333,-1546
18.69167,-1548
18.70000,-1550
18.70833,-1552
18.71667,-1554
18.72500,-1556
18.73333,-1557
18.74167,-1558
18.75000,-1560
18.75833,-1561
18.76667,-1562
18.77500,-1563
18.78333,-1564
18.79167,-1565
18.80000,-1567
18.80833,-1568
18.81667,-1569
18.82500,-1570
18.83333,-1571
18.84167,-1572
18.85000,-1573
18.85833,-1574
18.86667,-1576
18.87500,-1577
18.88333,-1579
18.89167,-1581
18.90000,-1582
18.90833,-1584
18.91667,-1585
18.92500,-1587
18.93333,-1589
18.94167,-1590
18.95000,-1592
18.95833,-1594
18.96667,-1596
18.97500,-1598
18.98333,-1601
18.99167,-1603
19.00000,-1605
19.00833,-1608
19.01667,-1610
19.02500,-1612
19.03333,-1615
19.04167,-1618
19.05000,-1620
19.05833,-1623
19.06667,-1626
19.07500,-1628
19.08333,-1631
19.09167,-1633
19.10000,-1636
19.10833,-1639
19.11667,-1642
19.12500,-1645
19.13333,-1647
19.14167,-1650
19.15000,-1653
19.15833,-1656
19.16667,-1658
19.17500,-1660
19.18333,-1663
19.19167,-1666
19.20000,-1668
19.20833,-1671
19.21667,-1673
19.22500,-1676
19.23333,-1678
19.24167,-1680
19.25000,-1682
19.25833,-1684
19.26667,-1686
19.27500,-1688
19.28333,-1690
19.29167,-1692
19.30000,-1694
19.30833,-1696
19.31667,-1698
19.32500,-1699
19.33333,-1701
19.34167,-1703
19.35000,-1705
19.35833,-1707
19.36667,-1709
19.37500,-1711
19.38333,-1713
19.39167,-1714
19.40000,-1716
19.40833,-1718
19.41667,-1719
19.42500,-1721
19.43333,-1722
19.44167,-1724
19.45000,-1725
19.45833,-1727
19.46667,-1729
19.47500,-1731
19.48333,-1733
19.49167,-1734
19.50000,-1736
19.50833,-1737
19.51667,-1739
19.52500,-1740
19.53333,-1741
19.54167,-1743
19.55000,-1745
19.55833,-1746
19.56667,-1748
19.57500,-1750
19.58333,-1751
19.59167,-1753
19.60000,-1755
19.60833,-1757
19.61667,-1758
19.62500,-1760
19.63333,-1761
19.64167,-1763
19.65000,-1764
19.65833,-1765
19.66667,-1767
19.67500,-1768
19.68333,-1770
19.69167,-1771
19.70000,-1772
19.70833,-1774
19.71667,-1775
19.72500,-1777
19.73333,-1778
19.74167,-1779
19.75000,-1781
19.75833,-1782
19.76667,-1783
19.77500,-1785
19.78333,-1786
19.79167,-1787
19.80000,-1789
19.80833,-1790
19.81667,-1791
19.82500,-1793
19.83333,-1794
19.84167,-1796
19.85000,-1798
19.85833,-1799
19.86667,-1801
19.87500,-1802
19.88333,-1803
19.89167,-1805
19.90000,-1806
19.90833,-1807
19.91667,-1809
19.92500,-1810
19.93333,-1811
19.94167,-1813
19.95000,-1814
19.95833,-1815
19.96667,-1816
19.97500,-1818
19.98333,-1819
19.99167,-1820
20.00000,-1821
20.00833,-1823
20.01667,-1824
20.02500,-1826
20.03333,-1827
20.04167,-1828
20.05000,-1830
20.05833,-1832
20.06667,-1833
20.07500,-1834
20.08333,-1836
20.09167,-1837
20.10000,-1838
20.10833,-1839
20.11667,-1841
20.12500,-1842
20.13333,-1844
20.14167,-1845
20.15000,-1846
20.15833,-1848
20.16667,-1849
20.17500,-1851
20.18333,-1852
20.19167,-1853
20.20000,-1855
20.20833,-1856
20.21667,-1857
20.22500,-1858
20.23333,-1859
20.24167,-1861
20.25000,-1862
20.25833,-1863
20.26667,-1864
20.27500,-1865
20.28333,-1867
20.29167,-1868
20.30000,-1869
20.30833,-1870
20.31667,-1871
20.32500,-1872
20.33333,-1874
20.34167,-1875
20.35000,-1876
20.35833,-1877
20.36667,-1879
20.37500,-1880
20.38333,-1881
20.39167,-1882
20.40000,-1883
20.40833,-1885
20.41667,-1886
20.42500,-1887
20.43333,-1888
20.44167,-1889
20.45000,-1890
20.45833,-1892
20.46667,-1893
20.47500,-1894
20.48333,-1895
20.49167,-1896
20.50000,-1898
20.50833,-1899
20.51667,-1900
20.52500,-1902
20.53333,-1903
20.54167,-1904
20.55000,-1905
20.55833,-1905
20.56667,-1907
20.57500,-1908
20.58333,-1909
20.59167,-1910
20.60000,-1911
20.60833,-1912
20.61667,-1913
20.62500,-1914
20.63333,-1915
20.64167,-1916
20.65000,-1917
20.65833,-1919
20.66667,-1920
20.67500,-1921
20.68333,-1922
20.69167,-1923
20.70000,-1924
20.70833,-1925
20.71667,-1926
20.72500,-1927
20.73333,-1928
20.74167,-1930
20.75000,-1931
20.75833,-1932
20.76667,-1933
20.77500,-1934
20.78333,-1935
20.79167,-1936
20.80000,-1937
20.80833,-1938
20.81667,-1939
20.82500,-1940
20.83333,-1941
20.84167,-1942
20.85000,-1943
20.85833,-1944
20.86667,-1945
20.87500,-1946
20.88333,-1947
20.89167,-1949
20.90000,-1950
20.90833,-1951
20.91667,-1952
20.92500,-1953
20.93333,-1954
20.94167,-1955
20.95000,-1957
20.95833,-1958
20.96667,-1959
20.97500,-1960
20.98333,-1961
20.99167,-1961
21.00000,-1962
21.00833,-1963
21.01667,-1964
21.02500,-1965
21.03333,-1966
21.04167,-1967
21.05000,-1969
21.05833,-1970
21.06667,-1971
21.07500,-1972
21.08333,-1972
21.09167,-1973
21.10000,-1974
21.10833,-1975
21.11667,-1976
21.12500,-1977
21.13333,-1979
21.14167,-1980
21.15000,-1981
21.15833,-1981
21.16667,-1982
21.17500,-1983
21.18333,-1984
21.19167,-1986
21.20000,-1987
21.20833,-1987
21.21667,-1988
21.22500,-1989
21.23333,-1990
21.24167,-1991
21.25000,-1992
21.25833,-1993
21.26667,-1994
21.27500,-1995
21.28333,-1996
21.29167,-1997
21.30000,-1998
21.30833,-1999
21.31667,-2000
21.32500,-2000
21.33333,-2001
21.34167,-2002
21.35000,-2004
21.35833,-2004
21.36667,-2005
21.37500,-2006
21.38333,-2007
21.39167,-2008
21.40000,-2009
21.40833,-2010
21.41667,-2012
21.42500,-2013
21.43333,-2014
21.44167,-2015
21.45000,-2016
21.45833,-2017
21.46667,-2018
21.47500,-2018
21.48333,-2020
21.49167,-2021
21.50000,-2021
21.50833,-2022
21.51667,-2023
21.52500,-2024
21.53333,-2024
21.54167,-2025
21.55000,-2027
21.55833,-2028
21.56667,-2029
21.57500,-2030
21.58333,-2031
21.59167,-2032
21.60000,-2033
21.60833,-2034
21.61667,-2035
21.62500,-2036
21.63333,-2037
21.64167,-2038
21.65000,-2039
21.65833,-2039
21.66667,-2040
21.67500,-2041
21.68333,-2041
21.69167,-2042
21.70000,-2043
21.70833,-2044
21.71667,-2045
21.72500,-2046
21.73333,-2047
21.74167,-2048
21.75000,-2049
21.75833,-2050
21.76667,-2051
21.77500,-2052
21.78333,-2052
21.79167,-2053
21.80000,-2054
21.80833,-2055
21.81667,-2056
21.82500,-2057
21.83333,-2058
21.84167,-2059
21.85000,-2060
21.85833,-2061
21.86667,-2062
21.87500,-2062
21.88333,-2063
21.89167,-2063
21.90000,-2064
21.90833,-2065
21.91667,-2066
21.92500,-2067
21.93333,-2068
21.94167,-2069
21.95000,-2070
21.95833,-2070
21.96667,-2071
21.97500,-2071
21.98333,-2072
21.99167,-2073
22.00000,-2074
22.00833,-2075
22.01667,-2076
22.02500,-2077
22.03333,-2078
22.04167,-2079
22.05000,-2080
22.05833,-2080
22.06667,-2081
22.07500,-2082
22.08333,-2082
22.09167,-2083
22.10000,-2084
22.10833,-2085
22.11667,-2086
22.12500,-2087
22.13333,-2088
22.14167,-2089
22.15000,-2090
22.15833,-2091
22.16667,-2092
22.17500,-2092
22.18333,-2093
22.19167,-2094
22.20000,-2095
22.20833,-2096
22.21667,-2097
22.22500,-2098
22.23333,-2099
22.24167,-2101
22.25000,-2101
22.25833,-2102
22.26667,-2103
22.27500,-2104
22.28333,-2104
22.29167,-2105
22.30000,-2106
22.30833,-2108
22.31667,-2109
22.32500,-2110
22.33333,-2111
22.34167,-2112
22.35000,-2113
22.35833,-2114
22.36667,-2115
22.37500,-2115
22.38333,-2116
22.39167,-2118
22.40000,-2119
22.40833,-2120
22.41667,-2121
22.42500,-2122
22.43333,-2123
22.44167,-2124
22.45000,-2125
22.45833,-2125
22.46667,-2126
22.47500,-2127
22.48333,-2128
22.49167,-2129
22.50000,-2129
22.50833,-2130
22.51667,-2131
22.52500,-2132
22.53333,-2133
22.54167,-2135
22.55000,-2136
22.55833,-2136
22.56667,-2137
22.57500,-2138
22.58333,-2139
22.59167,-2140
22.60000,-2141
22.60833,-2142
22.61667,-2143
22.62500,-2144
22.63333,-2145
22.64167,-2146
22.65000,-2147
22.65833,-2148
22.66667,-2149
22.67500,-2150
22.68333,-2150
22.69167,-2151
22.70000,-2152
22.70833,-2153
22.71667,-2154
22.72500,-2155
22.73333,-2156
22.74167,-2157
22.75000,-2158
22.75833,-2158
22.76667,-2159
22.77500,-2160
22.78333,-2161
22.79167,-2162
22.80000,-2163
22.80833,-2164
22.81667,-2165
22.82500,-2166
22.83333,-2167
22.84167,-2168
22.85000,-2169
22.85833,-2170
22.86667,-2171
22.87500,-2172
22.88333,-2172
22.89167,-2173
22.90000,-2173
22.90833,-2174
22.91667,-2175
22.92500,-2177
22.93333,-2178
22.94167,-2178
22.95000,-2179
22.95833,-2180
22.96667,-2181
22.97500,-2181
22.98333,-2182
22.99167,-2183
23.00000,-2185
23.00833,-2186
23.01667,-2187
23.02500,-2188
23.03333,-2189
23.04167,-2189
23.05000,-2190
23.05833,-2191
23.06667,-2191
23.07500,-2192
23.08333,-2193
23.09167,-2194
23.10000,-2195
23.10833,-2196
23.11667,-2197
23.12500,-2197
23.13333,-2198
23.14167,-2199
23.15000,-2200
23.15833,-2201
23.16667,-2203
23.17500,-2203
23.18333,-2204
23.19167,-2205
23.20000,-2206
23.20833,-2207
23.21667,-2207
23.22500,-2208
23.23333,-2209
23.24167,-2209
23.25000,-2210
23.25833,-2211
23.26667,-2212
23.27500,-2213
23.28333,-2214
23.29167,-2215
23.30000,-2216
23.30833,-2217
23.31667,-2218
23.32500,-2219
23.33333,-2220
23.34167,-2221
23.35000,-2221
23.35833,-2222
23.36667,-2223
23.37500,-2224
23.38333,-2225
23.39167,-2226
23.40000,-2227
23.40833,-2228
23.41667,-2229
23.42500,-2230
23.43333,-2231
23.44167,-2231
23.45000,-2232
23.45833,-2233
23.46667,-2234
23.47500,-2235
23.48333,-2236
23.49167,-2237
23.50000,-2238
23.50833,-2239
23.51667,-2240
23.52500,-2240
23.53333,-2241
23.54167,-2241
23.55000,-2242
23.55833,-2243
23.56667,-2244
23.57500,-2245
23.58333,-2246
23.59167,-2247
23.60000,-2248
23.60833,-2248
23.61667,-2249
23.62500,-2251
23.63333,-2252
23.64167,-2253
23.65000,-2254
23.65833,-2255
23.66667,-2256
23.67500,-2257
23.68333,-2257
23.69167,-2258
23.70000,-2259
23.70833,-2260
23.71667,-2261
23.72500,-2262
23.73333,-2262
23.74167,-2262
23.75000,-2263
23.75833,-2264
23.76667,-2265
23.77500,-2265
23.78333,-2266
23.79167,-2266
23.80000,-2267
23.80833,-2268
23.81667,-2269
23.82500,-2270
23.83333,-2271
23.84167,-2272
23.85000,-2272
23.85833,-2273
23.86667,-2274
23.87500,-2275
23.88333,-2276
23.89167,-2277
23.90000,-2279
23.90833,-2280
23.91667,-2281
23.92500,-2282
23.93333,-2282
23.94167,-2283
23.95000,-2284
23.95833,-2285
23.96667,-2286
23.97500,-2287
23.98333,-2288
23.99167,-2289
24.00000,-2289
24.00833,-2290
24.01667,-2291
24.02500,-2291
24.03333,-2292
24.04167,-2292
24.05000,-2293
24.05833,-2294
24.06667,-2296
24.07500,-2297
24.08333,-2298
24.09167,-2298
24.10000,-2299
24.10833,-2300
24.11667,-2300
24.12500,-2301
24.13333,-2302
24.14167,-2303
24.15000,-2304
24.15833,-2305
24.16667,-2306
24.17500,-2306
24.18333,-2307
24.19167,-2308
24.20000,-2308
24.20833,-2309
24.21667,-2310
24.22500,-2310
24.23333,-2311
24.24167,-2312
24.25000,-2313
24.25833,-2313
24.26667,-2314
24.27500,-2315
24.28333,-2316
24.29167,-2317
24.30000,-2318
24.30833,-2319
24.31667,-2320
24.32500,-2321
24.33333,-2322
24.34167,-2323
24.35000,-2324
24.35833,-2324
24.36667,-2325
24.37500,-2326
24.38333,-2326
24.39167,-2327
24.40000,-2328
24.40833,-2329
24.41667,-2331
24.42500,-2332
24.43333,-2333
24.44167,-2334
24.45000,-2334
24.45833,-2335
24.46667,-2335
24.47500,-2336
24.48333,-2337
24.49167,-2337
24.50000,-2338
24.50833,-2339
24.51667,-2340
24.52500,-2341
24.53333,-2341
24.54167,-2342
24.55000,-2343
24.55833,-2344
24.56667,-2345
24.57500,-2346
24.58333,-2347
24.59167,-2348
24.60000,-2349
24.60833,-2349
24.61667,-2350
24.62500,-2351
24.63333,-2351
24.64167,-2352
24.65000,-2353
24.65833,-2354
24.66667,-2355
24.67500,-2355
24.68333,-2356
24.69167,-2357
24.70000,-2358
24.70833,-2359
24.71667,-2360
24.72500,-2361
24.73333,-2361
24.74167,-2362
24.75000,-2363
24.75833,-2363
24.76667,-2364
24.77500,-2365
24.78333,-2366
24.79167,-2367
24.80000,-2368
24.80833,-2369
24.81667,-2370
24.82500,-2370
24.83333,-2371
24.84167,-2372
24.85000,-2373
24.85833,-2374
24.86667,-2375
24.87500,-2376
24.88333,-2376
24.89167,-2377
24.90000,-2377
24.90833,-2378
24.91667,-2378
24.92500,-2379
24.93333,-2380
24.94167,-2380
24.95000,-2381
24.95833,-2382
24.96667,-2383
24.97500,-2384
24.98333,-2385
24.99167,-2386
25.00000,-2387
25.00833,-2388
25.01667,-2389
25.02500,-2390
25.03333,-2390
25.04167,-2391
25.05000,-2392
25.05833,-2392
25.06667,-2393
25.07500,-2394
25.08333,-2394
25.09167,-2395
25.10000,-2396
25.10833,-2397
25.11667,-2397
25.12500,-2399
25.13333,-2400
25.14167,-2401
25.15000,-2402
25.15833,-2402
25.16667,-2403
25.17500,-2403
25.18333,-2404
25.19167,-2405
25.20000,-2406
25.20833,-2407
25.21667,-2408
25.22500,-2409
25.23333,-2410
25.24167,-2411
25.25000,-2411
25.25833,-2412
25.26667,-2413
25.27500,-2414
25.28333,-2415
25.29167,-2415
25.30000,-2416
25.30833,-2416
25.31667,-2417
25.32500,-2418
25.33333,-2419
25.34167,-2419
25.35000,-2420
25.35833,-2421
25.36667,-2422
25.37500,-2423
25.38333,-2424
25.39167,-2425
25.40000,-2426
25.40833,-2426
25.41667,-2427
25.42500,-2427
25.43333,-2428
25.44167,-2429
25.45000,-2429
25.45833,-2430
25.46667,-2431
25.47500,-2432
25.48333,-2433
25.49167,-2433
25.50000,-2434
25.50833,-2435
25.51667,-2436
25.52500,-2436
25.53333,-2437
25.54167,-2437
25.55000,-2438
25.55833,-2439
25.56667,-2440
25.57500,-2441
25.58333,-2441
25.59167,-2442
25.60000,-2443
25.60833,-2444
25.61667,-2445
25.62500,-2446
25.63333,-2447
25.64167,-2448
25.65000,-2448
25.65833,-2449
25.66667,-2449
25.67500,-2450
25.68333,-2451
25.69167,-2451
25.70000,-2452
25.70833,-2453
25.71667,-2453
25.72500,-2454
25.73333,-2455
25.74167,-2455
25.75000,-2456
25.75833,-2457
25.76667,-2458
25.77500,-2459
25.78333,-2459
25.79167,-2460
25.80000,-2460
25.80833,-2461
25.81667,-2462
25.82500,-2463
25.83333,-2464
25.84167,-2465
25.85000,-2465
25.85833,-2465
25.86667,-2466
25.87500,-2467
25.88333,-2467
25.89167,-2468
25.90000,-2469
25.90833,-2470
25.91667,-2471
25.92500,-2471
25.93333,-2472
25.94167,-2472
25.95000,-2473
25.95833,-2474
25.96667,-2475
25.97500,-2476
25.98333,-2477
25.99167,-2478
26.00000,-2479
26.00833,-2479
26.01667,-2480
26.02500,-2480
26.03333,-2481
26.04167,-2482
26.05000,-2482
26.05833,-2483
26.06667,-2484
26.07500,-2484
26.08333,-2485
26.09167,-2486
26.10000,-2486
26.10833,-2487
26.11667,-2488
26.12500,-2489
26.13333,-2490
26.14167,-2490
26.15000,-2491
26.15833,-2491
26.16667,-2492
26.17500,-2493
26.18333,-2494
26.19167,-2495
26.20000,-2496
26.20833,-2496
26.21667,-2496
26.22500,-2497
26.23333,-2498
26.24167,-2498
26.25000,-2498
26.25833,-2499
26.26667,-2500
26.27500,-2501
26.28333,-2501
26.29167,-2502
26.30000,-2503
26.30833,-2504
26.31667,-2505
26.32500,-2506
26.33333,-2506
26.34167,-2506
26.35000,-2507
26.35833,-2507
26.36667,-2508
26.37500,-2509
26.38333,-2509
26.39167,-2510
26.40000,-2511
26.40833,-2512
26.41667,-2513
26.42500,-2514
26.43333,-2514
26.44167,-2515
26.45000,-2516
26.45833,-2516
26.46667,-2517
26.47500,-2517
26.48333,-2518
26.49167,-2519
26.50000,-2519
26.50833,-2520
26.51667,-2520
26.52500,-2521
26.53333,-2522
26.54167,-2523
26.55000,-2524
26.55833,-2525
26.56667,-2526
26.57500,-2527
26.58333,-2527
26.59167,-2528
26.60000,-2529
26.60833,-2529
26.61667,-2529
26.62500,-2530
26.63333,-2531
26.64167,-2531
26.65000,-2532
26.65833,-2533
26.66667,-2533
26.67500,-2534
26.68333,-2535
26.69167,-2536
26.70000,-2537
26.70833,-2538
26.71667,-2539
26.72500,-2539
26.73333,-2540
26.74167,-2540
26.75000,-2540
26.75833,-2541
26.76667,-2542
26.77500,-2543
26.78333,-2544
26.79167,-2544
26.80000,-2545
26.80833,-2546
26.81667,-2546
26.82500,-2547
26.83333,-2547
26.84167,-2548
26.85000,-2549
26.85833,-2550
26.86667,-2550
26.87500,-2551
26.88333,-2551
26.89167,-2552
26.90000,-2553
26.90833,-2554
26.91667,-2555
26.92500,-2556
26.93333,-2557
26.94167,-2558
26.95000,-2558
26.95833,-2559
26.96667,-2559
26.97500,-2559
26.98333,-2560
26.99167,-2560
27.00000,-2561
27.00833,-2561
27.01667,-2562
27.02500,-2563
27.03333,-2564
27.04167,-2565
27.05000,-2565
27.05833,-2566
27.06667,-2568
27.07500,-2569
27.08333,-2570
27.09167,-2571
27.10000,-2571
27.10833,-2572
27.11667,-2572
27.12500,-2573
27.13333,-2573
27.14167,-2573
27.15000,-2574
27.15833,-2574
27.16667,-2575
27.17500,-2576
27.18333,-2577
27.19167,-2578
27.20000,-2579
27.20833,-2579
27.21667,-2580
27.22500,-2581
27.23333,-2582
27.24167,-2583
27.25000,-2583
27.25833,-2584
27.26667,-2585
27.27500,-2586
27.28333,-2587
27.29167,-2587
27.30000,-2588
27.30833,-2589
27.31667,-2589
27.32500,-2590
27.33333,-2591
27.34167,-2592
27.35000,-2593
27.35833,-2593
27.36667,-2594
27.37500,-2595
27.38333,-2596
27.39167,-2596
27.40000,-2597
27.40833,-2597
27.41667,-2598
27.42500,-2599
27.43333,-2600
27.44167,-2601
27.45000,-2602
27.45833,-2603
27.46667,-2604
27.47500,-2605
27.48333,-2606
27.49167,-2606
27.50000,-2607
27.50833,-2608
27.51667,-2608
27.52500,-2609
27.53333,-2609
27.54167,-2611
27.55000,-2611
27.55833,-2612
27.56667,-2613
27.57500,-2614
27.58333,-2614
27.59167,-2615
27.60000,-2616
27.60833,-2616
27.61667,-2618
27.62500,-2619
27.63333,-2620
27.64167,-2620
27.65000,-2621
27.65833,-2622
27.66667,-2622
27.67500,-2623
27.68333,-2624
27.69167,-2625
27.70000,-2626
27.70833,-2628
27.71667,-2629
27.72500,-2630
27.73333,-2631
27.74167,-2632
27.75000,-2633
27.75833,-2634
27.76667,-2635
27.77500,-2636
27.78333,-2637
27.79167,-2639
27.80000,-2640
27.80833,-2641
27.81667,-2643
27.82500,-2645
27.83333,-2647
27.84167,-2649
27.85000,-2651
27.85833,-2653
27.86667,-2655
27.87500,-2656
27.88333,-2659
27.89167,-2661
27.90000,-2664
27.90833,-2667
27.91667,-2669
27.92500,-2672
27.93333,-2675
27.94167,-2679
27.95000,-2682
27.95833,-2686
27.96667,-2690
27.97500,-2694
27.98333,-2699
27.99167,-2704
28.00000,-2709
28.00833,-2714
28.01667,-2719
28.02500,-2725
28.03333,-2732
28.04167,-2738
28.05000,-2745
28.05833,-2753
28.06667,-2761
28.07500,-2768
28.08333,-2776
28.09167,-2785
28.10000,-2794
28.10833,-2804
28.11667,-2813
28.12500,-2823
28.13333,-2834
28.14167,-2844
28.15000,-2855
28.15833,-2867
28.16667,-2878
28.17500,-2891
28.18333,-2903
28.19167,-2916
28.20000,-2930
28.20833,-2943
28.21667,-2957
28.22500,-2971
28.23333,-2985
28.24167,-2999
28.25000,-3014
28.25833,-3029
28.26667,-3043
28.27500,-3058
28.28333,-3073
28.29167,-3088
28.30000,-3104
28.30833,-3119
28.31667,-3134
28.32500,-3149
28.33333,-3163
28.34167,-3178
28.35000,-3192
28.35833,-3207
28.36667,-3221
28.37500,-3234
28.38333,-3248
28.39167,-3261
28.40000,-3274
28.40833,-3286
28.41667,-3298
28.42500,-3309
28.43333,-3320
28.44167,-3330
28.45000,-3340
28.45833,-3349
28.46667,-3358
28.47500,-3366
28.48333,-3373
28.49167,-3380
28.50000,-3386
28.50833,-3391
28.51667,-3396
28.52500,-3400
28.53333,-3403
28.54167,-3406
28.55000,-3408
28.55833,-3410
28.56667,-3410
28.57500,-3410
28.58333,-3410
28.59167,-3409
28.60000,-3407
28.60833,-3405
28.61667,-3402
28.62500,-3399
28.63333,-3395
28.64167,-3391
28.65000,-3387
28.65833,-3382
28.66667,-3377
28.67500,-3371
28.68333,-3365
28.69167,-3359
28.70000,-3352
28.70833,-3346
28.71667,-3339
28.72500,-3332
28.73333,-3324
28.74167,-3317
28.75000,-3309
28.75833,-3302
28.76667,-3294
28.77500,-3286
28.78333,-3279
28.79167,-3271
28.80000,-3263
28.80833,-3256
28.81667,-3248
28.82500,-3241
28.83333,-3234
28.84167,-3227
28.85000,-3220
28.85833,-3213
28.86667,-3206
28.87500,-3200
28.88333,-3194
28.89167,-3188
28.90000,-3182
28.90833,-3176
28.91667,-3171
28.92500,-3165
28.93333,-3160
28.94167,-3156
28.95000,-3151
28.95833,-3147
28.96667,-3143
28.97500,-3139
28.98333,-3135
28.99167,-3132
29.00000,-3128
29.00833,-3124
29.01667,-3121
29.02500,-3118
29.03333,-3115
29.04167,-3113
29.05000,-3110
29.05833,-3108
29.06667,-3106
29.07500,-3104
29.08333,-3103
29.09167,-3101
29.10000,-3099
29.10833,-3097
29.11667,-3096
29.12500,-3095
29.13333,-3094
29.14167,-3093
29.15000,-3092
29.15833,-3092
29.16667,-3091
29.17500,-3090
29.18333,-3089
29.19167,-3089
29.20000,-3088
29.20833,-3088
29.21667,-3088
29.22500,-3087
29.23333,-3087
29.24167,-3087
29.25000,-3087
29.25833,-3088
29.26667,-3088
29.27500,-3089
29.28333,-3089
29.29167,-3089
29.30000,-3089
29.30833,-3089
29.31667,-3089
29.32500,-3089
29.33333,-3089
29.34167,-3090
29.35000,-3090
29.35833,-3091
29.36667,-3092
29.37500,-3092
29.38333,-3092
29.39167,-3093
29.40000,-3094
29.40833,-3094
29.41667,-3095
29.42500,-3096
29.43333,-3097
29.44167,-3097
29.45000,-3098
29.45833,-3099
29.46667,-3099
29.47500,-3100
29.48333,-3100
29.49167,-3101
29.50000,-3101
29.50833,-3102
29.51667,-3103
29.52500,-3103
29.53333,-3104
29.54167,-3105
29.55000,-3106
29.55833,-3107
29.56667,-3107
29.57500,-3108
29.58333,-3109
29.59167,-3110
29.60000,-3111
29.60833,-3112
29.61667,-3114
29.62500,-3115
29.63333,-3116
29.64167,-3117
29.65000,-3119
29.65833,-3120
29.66667,-3121
29.67500,-3122
29.68333,-3123
29.69167,-3124
29.70000,-3126
29.70833,-3128
29.71667,-3130
29.72500,-3132
29.73333,-3134
29.74167,-3135
29.75000,-3137
29.75833,-3139
29.76667,-3140
29.77500,-3142
29.78333,-3144
29.79167,-3147
29.80000,-3150
29.80833,-3152
29.81667,-3155
29.82500,-3157
29.83333,-3160
29.84167,-3163
29.85000,-3166
29.85833,-3168
29.86667,-3172
29.87500,-3175
29.88333,-3177
29.89167,-3180
29.90000,-3183
29.90833,-3187
29.91667,-3190
29.92500,-3194
29.93333,-3197
29.94167,-3201
29.95000,-3205
29.95833,-3208
29.96667,-3212
29.97500,-3216
29.98333,-3219
29.99167,-3223
30.00000,-3227
30.00833,-3231
30.01667,-3235
30.02500,-3238
30.03333,-3242
30.04167,-3246
30.05000,-3250
30.05833,-3254
30.06667,-3258
30.07500,-3262
30.08333,-3265
30.09167,-3269
30.10000,-3272
30.10833,-3276
30.11667,-3279
30.12500,-3283
30.13333,-3286
30.14167,-3290
30.15000,-3293
30.15833,-3296
30.16667,-3299
30.17500,-3301
30.18333,-3304
30.19167,-3306
30.20000,-3309
30.20833,-3311
30.21667,-3313
30.22500,-3316
30.23333,-3318
30.24167,-3319
30.25000,-3321
30.25833,-3323
30.26667,-3324
30.27500,-3326
30.28333,-3327
30.29167,-3328
30.30000,-3329
30.30833,-3330
30.31667,-3331
30.32500,-3331
30.33333,-3331
30.34167,-3331
30.35000,-3331
30.35833,-3331
30.36667,-3331
30.37500,-3331
30.38333,-3330
30.39167,-3330
30.40000,-3329
30.40833,-3328
30.41667,-3327
30.42500,-3326
30.43333,-3325
30.44167,-3323
30.45000,-3322
30.45833,-3321
30.46667,-3320
30.47500,-3318
30.48333,-3316
30.49167,-3315
30.50000,-3314
30.50833,-3312
30.51667,-3311
30.52500,-3309
30.53333,-3307
30.54167,-3305
30.55000,-3304
30.55833,-3302
30.56667,-3300
30.57500,-3298
30.58333,-3297
30.59167,-3295
30.60000,-3293
30.60833,-3292
30.61667,-3290
30.62500,-3289
30.63333,-3287
30.64167,-3286
30.65000,-3284
30.65833,-3283
30.66667,-3281
30.67500,-3280
30.68333,-3279
30.69167,-3277
30.70000,-3276
30.70833,-3275
30.71667,-3273
30.72500,-3272
30.73333,-3271
30.74167,-3269
30.75000,-3268
30.75833,-3266
30.76667,-3265
30.77500,-3264
30.78333,-3263
30.79167,-3262
30.80000,-3262
30.80833,-3261
30.81667,-3260
30.82500,-3260
30.83333,-3259
30.84167,-3258
30.85000,-3258
30.85833,-3257
30.86667,-3257
30.87500,-3256
30.88333,-3256
30.89167,-3255
30.90000,-3255
30.90833,-3255
30.91667,-3254
30.92500,-3254
30.93333,-3254
30.94167,-3253
30.95000,-3252
30.95833,-3252
30.96667,-3251
30.97500,-3251
30.98333,-3250
30.99167,-3250
31.00000,-3250
31.00833,-3250
31.01667,-3250
31.02500,-3250
31.03333,-3250
31.04167,-3250
31.05000,-3250
31.05833,-3250
31.06667,-3250
31.07500,-3250
31.08333,-3250
31.09167,-3250
31.10000,-3250
31.10833,-3250
31.11667,-3249
31.12500,-3249
31.13333,-3249
31.14167,-3248
31.15000,-3249
31.15833,-3249
31.16667,-3249
31.17500,-3249
31.18333,-3249
31.19167,-3248
31.20000,-3248
31.20833,-3248
31.21667,-3248
31.22500,-3248
31.23333,-3248
31.24167,-3248
31.25000,-3248
31.25833,-3247
31.26667,-3247
31.27500,-3248
31.28333,-3248
31.29167,-3248
31.30000,-3248
31.30833,-3248
31.31667,-3247
31.32500,-3247
31.33333,-3247
31.34167,-3247
31.35000,-3246
31.35833,-3246
31.36667,-3246
31.37500,-3246
31.38333,-3246
31.39167,-3246
31.40000,-3246
31.40833,-3246
31.41667,-3246
31.42500,-3246
31.43333,-3246
31.44167,-3246
31.45000,-3246
31.45833,-3246
31.46667,-3246
31.47500,-3246
31.48333,-3246
31.49167,-3246
31.50000,-3246
31.50833,-3245
31.51667,-3245
31.52500,-3245
31.53333,-3245
31.54167,-3245
31.55000,-3245
31.55833,-3245
31.56667,-3246
31.57500,-3245
31.58333,-3245
31.59167,-3245
31.60000,-3245
31.60833,-3245
31.61667,-3245
31.62500,-3245
31.63333,-3245
31.64167,-3245
31.65000,-3245
31.65833,-3245
31.66667,-3245
31.67500,-3245
31.68333,-3245
31.69167,-3244
31.70000,-3245
31.70833,-3245
31.71667,-3245
31.72500,-3245
31.73333,-3245
31.74167,-3245
31.75000,-3245
31.75833,-3245
31.76667,-3245
31.77500,-3244
31.78333,-3244
31.79167,-3244
31.80000,-3244
31.80833,-3244
31.81667,-3244
31.82500,-3244
31.83333,-3244
31.84167,-3244
31.85000,-3244
31.85833,-3244
31.86667,-3244
31.87500,-3243
31.88333,-3244
31.89167,-3244
31.90000,-3244
31.90833,-3244
31.91667,-3244
31.92500,-3244
31.93333,-3244
31.94167,-3245
31.95000,-3244
31.95833,-3244
31.96667,-3244
31.97500,-3244
31.98333,-3244
31.99167,-3244
32.00000,-3245
32.00833,-3245
32.01667,-3245
32.02500,-3245
32.03333,-3245
32.04167,-3245
32.05000,-3245
32.05833,-3245
32.06667,-3244
32.07500,-3244
32.08333,-3244
32.09167,-3243
32.10000,-3243
32.10833,-3243
32.11667,-3243
32.12500,-3243
32.13333,-3243
32.14167,-3243
32.15000,-3243
32.15833,-3243
32.16667,-3243
32.17500,-3244
32.18333,-3244
32.19167,-3244
32.20000,-3244
32.20833,-3244
32.21667,-3244
32.22500,-3244
32.23333,-3245
32.24167,-3244
32.25000,-3244
32.25833,-3244
32.26667,-3244
32.27500,-3245
32.28333,-3245
32.29167,-3245
32.30000,-3245
32.30833,-3245
32.31667,-3245
32.32500,-3245
32.33333,-3245
32.34167,-3245
32.35000,-3245
32.35833,-3245
32.36667,-3246
32.37500,-3246
32.38333,-3246
32.39167,-3246
32.40000,-3246
32.40833,-3246
32.41667,-3246
32.42500,-3246
32.43333,-3247
32.44167,-3247
32.45000,-3247
32.45833,-3247
32.46667,-3246
32.47500,-3246
32.48333,-3247
32.49167,-3247
32.50000,-3248
32.50833,-3248
32.51667,-3248
32.52500,-3249
32.53333,-3249
32.54167,-3249
32.55000,-3249
32.55833,-3249
32.56667,-3250
32.57500,-3250
32.58333,-3250
32.59167,-3250
32.60000,-3250
32.60833,-3250
32.61667,-3250
32.62500,-3250
32.63333,-3250
32.64167,-3250
32.65000,-3251
32.65833,-3251
32.66667,-3251
32.67500,-3251
32.68333,-3252
32.69167,-3252
32.70000,-3252
32.70833,-3253
32.71667,-3252
32.72500,-3253
32.73333,-3253
32.74167,-3253
32.75000,-3253
32.75833,-3253
32.76667,-3253
32.77500,-3254
32.78333,-3254
32.79167,-3254
32.80000,-3254
32.80833,-3255
32.81667,-3255
32.82500,-3255
32.83333,-3255
32.84167,-3256
32.85000,-3256
32.85833,-3256
32.86667,-3256
32.87500,-3257
32.88333,-3257
32.89167,-3258
32.90000,-3258
32.90833,-3259
32.91667,-3259
32.92500,-3259
32.93333,-3259
32.94167,-3260
32.95000,-3261
32.95833,-3261
32.96667,-3261
32.97500,-3261
32.98333,-3261
32.99167,-3262
33.00000,-3262
33.00833,-3262
33.01667,-3262
33.02500,-3263
33.03333,-3263
33.04167,-3263
33.05000,-3264
33.05833,-3264
33.06667,-3264
33.07500,-3265
33.08333,-3265
33.09167,-3265
33.10000,-3265
33.10833,-3266
33.11667,-3266
33.12500,-3266
33.13333,-3266
33.14167,-3266
33.15000,-3267
33.15833,-3267
33.16667,-3267
33.17500,-3268
33.18333,-3268
33.19167,-3269
33.20000,-3270
33.20833,-3270
33.21667,-3270
33.22500,-3271
33.23333,-3271
33.24167,-3272
33.25000,-3272
33.25833,-3272
33.26667,-3273
33.27500,-3273
33.28333,-3273
33.29167,-3274
33.30000,-3274
33.30833,-3275
33.31667,-3275
33.32500,-3275
33.33333,-3275
33.34167,-3275
33.35000,-3276
33.35833,-3276
33.36667,-3277
33.37500,-3277
33.38333,-3278
33.39167,-3278
33.40000,-3278
33.40833,-3278
33.41667,-3278
33.42500,-3278
33.43333,-3278
33.44167,-3279
33.45000,-3279
33.45833,-3280
33.46667,-3280
33.47500,-3280
33.48333,-3281
33.49167,-3281
33.50000,-3281
33.50833,-3282
33.51667,-3282
33.52500,-3283
33.53333,-3283
33.54167,-3283
33.55000,-3284
33.55833,-3284
33.56667,-3284
33.57500,-3285
33.58333,-3285
33.59167,-3286
33.60000,-3286
33.60833,-3286
33.61667,-3287
33.62500,-3288
33.63333,-3288
33.64167,-3289
33.65000,-3289
33.65833,-3290
33.66667,-3290
33.67500,-3290
33.68333,-3291
33.69167,-3291
33.70000,-3292
33.70833,-3292
33.71667,-3293
33.72500,-3293
33.73333,-3293
33.74167,-3294
33.75000,-3294
33.75833,-3294
33.76667,-3294
33.77500,-3295
33.78333,-3296
33.79167,-3297
33.80000,-3297
33.80833,-3297
33.81667,-3297
33.82500,-3298
33.83333,-3298
33.84167,-3299
33.85000,-3300
33.85833,-3300
33.86667,-3300
33.87500,-3301
33.88333,-3301
33.89167,-3301
33.90000,-3302
33.90833,-3302
33.91667,-3302
33.92500,-3303
33.93333,-3303
33.94167,-3303
33.95000,-3304
33.95833,-3304
33.96667,-3304
33.97500,-3304
33.98333,-3305
33.99167,-3305
34.00000,-3306
34.00833,-3306
34.01667,-3307
34.02500,-3307
34.03333,-3308
34.04167,-3308
34.05000,-3308
34.05833,-3309
34.06667,-3310
34.07500,-3310
34.08333,-3310
34.09167,-3310
34.10000,-3311
34.10833,-3311
34.11667,-3312
34.12500,-3313
34.13333,-3313
34.14167,-3313
34.15000,-3314
34.15833,-3314
34.16667,-3313
34.17500,-3313
34.18333,-3314
34.19167,-3314
34.20000,-3314
34.20833,-3315
34.21667,-3315
34.22500,-3316
34.23333,-3317
34.24167,-3318
34.25000,-3318
34.25833,-3318
34.26667,-3319
34.27500,-3319
34.28333,-3319
34.29167,-3319
34.30000,-3320
34.30833,-3320
34.31667,-3320
34.32500,-3321
34.33333,-3321
34.34167,-3322
34.35000,-3322
34.35833,-3323
34.36667,-3323
34.37500,-3324
34.38333,-3324
34.39167,-3324
34.40000,-3324
34.40833,-3325
34.41667,-3325
34.42500,-3325
34.43333,-3326
34.44167,-3326
34.45000,-3327
34.45833,-3327
34.46667,-3328
34.47500,-3329
34.48333,-3329
34.49167,-3330
34.50000,-3330
34.50833,-3331
34.51667,-3331
34.52500,-3332
34.53333,-3333
34.54167,-3333
34.55000,-3333
34.55833,-3333
34.56667,-3334
34.57500,-3334
34.58333,-3335
34.59167,-3335
34.60000,-3335
34.60833,-3336
34.61667,-3336
34.62500,-3337
34.63333,-3338
34.64167,-3338
34.65000,-3338
34.65833,-3339
34.66667,-3339
34.67500,-3340
34.68333,-3340
34.69167,-3341
34.70000,-3341
34.70833,-3342
34.71667,-3342
34.72500,-3343
34.73333,-3344
34.74167,-3344
34.75000,-3345
34.75833,-3345
34.76667,-3346
34.77500,-3346
34.78333,-3347
34.79167,-3347
34.80000,-3348
34.80833,-3348
34.81667,-3349
34.82500,-3349
34.83333,-3350
34.84167,-3350
34.85000,-3350
34.85833,-3351
34.86667,-3351
34.87500,-3352
34.88333,-3353
34.89167,-3354
34.90000,-3355
34.90833,-3355
34.91667,-3355
34.92500,-3356
34.93333,-3356
34.94167,-3356
34.95000,-3357
34.95833,-3358
34.96667,-3358
34.97500,-3359
34.98333,-3359
34.99167,-3360
35.00000,-3360
35.00833,-3361
35.01667,-3361
35.02500,-3362
35.03333,-3363
35.04167,-3363
35.05000,-3364
35.05833,-3365
35.06667,-3365
35.07500,-3365
35.08333,-3366
35.09167,-3366
35.10000,-3367
35.10833,-3368
35.11667,-3368
35.12500,-3369
35.13333,-3370
35.14167,-3370
35.15000,-3371
35.15833,-3371
35.16667,-3372
35.17500,-3372
35.18333,-3373
35.19167,-3373
35.20000,-3374
35.20833,-3375
35.21667,-3375
35.22500,-3376
35.23333,-3377
35.24167,-3377
35.25000,-3378
35.25833,-3379
35.26667,-3380
35.27500,-3381
35.28333,-3382
35.29167,-3382
35.30000,-3383
35.30833,-3383
35.31667,-3384
35.32500,-3384
35.33333,-3385
35.34167,-3386
35.35000,-3387
35.35833,-3388
35.36667,-3388
35.37500,-3389
35.38333,-3389
35.39167,-3390
35.40000,-3390
35.40833,-3391
35.41667,-3392
35.42500,-3392
35.43333,-3393
35.44167,-3394
35.45000,-3395
35.45833,-3395
35.46667,-3396
35.47500,-3397
35.48333,-3398
35.49167,-3398
35.50000,-3399
35.50833,-3399
35.51667,-3400
35.52500,-3400
35.53333,-3401
35.54167,-3401
35.55000,-3401
35.55833,-3402
35.56667,-3402
35.57500,-3403
35.58333,-3404
35.59167,-3405
35.60000,-3405
35.60833,-3406
35.61667,-3407
35.62500,-3408
35.63333,-3409
35.64167,-3409
35.65000,-3410
35.65833,-3411
35.66667,-3411
35.67500,-3412
35.68333,-3413
35.69167,-3413
35.70000,-3414
35.70833,-3415
35.71667,-3416
35.72500,-3416
35.73333,-3417
35.74167,-3417
35.75000,-3418
35.75833,-3419
35.76667,-3420
35.77500,-3421
35.78333,-3421
35.79167,-3422
35.80000,-3423
35.80833,-3424
35.81667,-3424
35.82500,-3425
35.83333,-3425
35.84167,-3426
35.85000,-3427
35.85833,-3428
35.86667,-3429
35.87500,-3429
35.88333,-3430
35.89167,-3430
35.90000,-3431
35.90833,-3432
35.91667,-3433
35.92500,-3434
35.93333,-3434
35.94167,-3435
35.95000,-3435
35.95833,-3436
35.96667,-3437
35.97500,-3438
35.98333,-3439
35.99167,-3440
36.00000,-3440
36.00833,-3441
36.01667,-3442
36.02500,-3442
36.03333,-3443
36.04167,-3444
36.05000,-3445
36.05833,-3446
36.06667,-3447
36.07500,-3447
36.08333,-3448
36.09167,-3449
36.10000,-3449
36.10833,-3450
36.11667,-3451
36.12500,-3452
36.13333,-3453
36.14167,-3454
36.15000,-3454
36.15833,-3455
36.16667,-3456
36.17500,-3456
36.18333,-3457
36.19167,-3457
36.20000,-3458
36.20833,-3459
36.21667,-3459
36.22500,-3460
36.23333,-3460
36.24167,-3461
36.25000,-3462
36.25833,-3463
36.26667,-3464
36.27500,-3465
36.28333,-3466
36.29167,-3466
36.30000,-3467
36.30833,-3467
36.31667,-3468
36.32500,-3469
36.33333,-3470
36.34167,-3471
36.35000,-3471
36.35833,-3472
36.36667,-3473
36.37500,-3473
36.38333,-3474
36.39167,-3475
36.40000,-3475
36.40833,-3476
36.41667,-3476
36.42500,-3478
36.43333,-3479
36.44167,-3480
36.45000,-3480
36.45833,-3481
36.46667,-3482
36.47500,-3482
36.48333,-3483
36.49167,-3484
36.50000,-3484
36.50833,-3485
36.51667,-3485
36.52500,-3486
36.53333,-3487
36.54167,-3488
36.55000,-3489
36.55833,-3489
36.56667,-3490
36.57500,-3491
36.58333,-3491
36.59167,-3492
36.60000,-3492
36.60833,-3493
36.61667,-3494
36.62500,-3494
36.63333,-3495
36.64167,-3495
36.65000,-3496
36.65833,-3496
36.66667,-3496
36.67500,-3497
36.68333,-3497
36.69167,-3498
36.70000,-3498
36.70833,-3499
36.71667,-3499
36.72500,-3500
36.73333,-3500
36.74167,-3501
36.75000,-3501
36.75833,-3501
36.76667,-3501
36.77500,-3501
36.78333,-3502
36.79167,-3502
36.80000,-3502
36.80833,-3502
36.81667,-3503
36.82500,-3503
36.83333,-3503
36.84167,-3503
36.85000,-3503
36.85833,-3504
36.86667,-3504
36.87500,-3504
36.88333,-3504
36.89167,-3505
36.90000,-3505
36.90833,-3505
36.91667,-3505
36.92500,-3505
36.93333,-3505
36.94167,-3505
36.95000,-3505
36.95833,-3505
36.96667,-3506
36.97500,-3506
36.98333,-3507
36.99167,-3506
37.00000,-3506
37.00833,-3506
37.01667,-3506
37.02500,-3506
37.03333,-3506
37.04167,-3506
37.05000,-3506
37.05833,-3506
37.06667,-3506
37.07500,-3506
37.08333,-3506
37.09167,-3506
37.10000,-3506
37.10833,-3506
37.11667,-3507
37.12500,-3507
37.13333,-3507
37.14167,-3508
37.15000,-3508
37.15833,-3508
37.16667,-3508
37.17500,-3508
37.18333,-3508
37.19167,-3509
37.20000,-3509
37.20833,-3509
37.21667,-3510
37.22500,-3510
37.23333,-3511
37.24167,-3511
37.25000,-3512
37.25833,-3512
37.26667,-3513
37.27500,-3513
37.28333,-3514
37.29167,-3515
37.30000,-3516
37.30833,-3516
37.31667,-3517
37.32500,-3517
37.33333,-3518
37.34167,-3519
37.35000,-3520
37.35833,-3521
37.36667,-3522
37.37500,-3523
37.38333,-3524
37.39167,-3526
37.40000,-3527
37.40833,-3528
37.41667,-3529
37.42500,-3530
37.43333,-3531
37.44167,-3532
37.45000,-3534
37.45833,-3535
37.46667,-3536
37.47500,-3537
37.48333,-3538
37.49167,-3539
37.50000,-3540
37.50833,-3542
37.51667,-3543
37.52500,-3545
37.53333,-3546
37.54167,-3548
37.55000,-3549
37.55833,-3551
37.56667,-3552
37.57500,-3553
37.58333,-3555
37.59167,-3556
37.60000,-3558
37.60833,-3559
37.61667,-3561
37.62500,-3562
37.63333,-3564
37.64167,-3565
37.65000,-3567
37.65833,-3569
37.66667,-3571
37.67500,-3572
37.68333,-3573
37.69167,-3574
37.70000,-3576
37.70833,-3577
37.71667,-3579
37.72500,-3580
37.73333,-3581
37.74167,-3583
37.75000,-3584
37.75833,-3586
37.76667,-3588
37.77500,-3589
37.78333,-3591
37.79167,-3592
37.80000,-3594
37.80833,-3595
37.81667,-3596
37.82500,-3597
37.83333,-3599
37.84167,-3600
37.85000,-3602
37.85833,-3603
37.86667,-3604
37.87500,-3605
37.88333,-3606
37.89167,-3608
37.90000,-3608
37.90833,-3609
37.91667,-3611
37.92500,-3612
37.93333,-3613
37.94167,-3614
37.95000,-3615
37.95833,-3617
37.96667,-3618
37.97500,-3619
37.98333,-3621
37.99167,-3622
38.00000,-3623
38.00833,-3624
38.01667,-3625
38.02500,-3626
38.03333,-3627
38.04167,-3628
38.05000,-3630
38.05833,-3631
38.06667,-3632
38.07500,-3633
38.08333,-3635
38.09167,-3636
38.10000,-3637
38.10833,-3638
38.11667,-3638
38.12500,-3639
38.13333,-3640
38.14167,-3640
38.15000,-3641
38.15833,-3642
38.16667,-3642
38.17500,-3643
38.18333,-3644
38.19167,-3645
38.20000,-3646
38.20833,-3647
38.21667,-3648
38.22500,-3649
38.23333,-3650
38.24167,-3652
38.25000,-3653
38.25833,-3653
38.26667,-3654
38.27500,-3655
38.28333,-3656
38.29167,-3657
38.30000,-3658
38.30833,-3659
38.31667,-3660
38.32500,-3661
38.33333,-3661
38.34167,-3662
38.35000,-3663
38.35833,-3663
38.36667,-3664
38.37500,-3665
38.38333,-3666
38.39167,-3666
38.40000,-3667
38.40833,-3667
38.41667,-3668
38.42500,-3669
38.43333,-3670
38.44167,-3671
38.45000,-3672
38.45833,-3673
38.46667,-3674
38.47500,-3675
38.48333,-3675
38.49167,-3676
38.50000,-3677
38.50833,-3677
38.51667,-3678
38.52500,-3679
38.53333,-3680
38.54167,-3681
38.55000,-3682
38.55833,-3682
38.56667,-3683
38.57500,-3684
38.58333,-3684
38.59167,-3685
38.60000,-3686
38.60833,-3687
38.61667,-3688
38.62500,-3689
38.63333,-3689
38.64167,-3690
38.65000,-3691
38.65833,-3692
38.66667,-3693
38.67500,-3693
38.68333,-3694
38.69167,-3695
38.70000,-3696
38.70833,-3697
38.71667,-3698
38.72500,-3699
38.73333,-3700
38.74167,-3700
38.75000,-3701
38.75833,-3702
38.76667,-3702
38.77500,-3703
38.78333,-3704
38.79167,-3705
38.80000,-3705
38.80833,-3706
38.81667,-3706
38.82500,-3707
38.83333,-3708
38.84167,-3708
38.85000,-3709
38.85833,-3710
38.86667,-3711
38.87500,-3712
38.88333,-3713
38.89167,-3714
38.90000,-3714
38.90833,-3715
38.91667,-3716
38.92500,-3717
38.93333,-3718
38.94167,-3719
38.95000,-3719
38.95833,-3720
38.96667,-3721
38.97500,-3722
38.98333,-3723
38.99167,-3723
39.00000,-3724
39.00833,-3725
39.01667,-3725
39.02500,-3726
39.03333,-3727
39.04167,-3728
39.05000,-3729
39.05833,-3730
39.06667,-3731
39.07500,-3732
39.08333,-3732
39.09167,-3733
39.10000,-3733
39.10833,-3734
39.11667,-3734
39.12500,-3735
39.13333,-3736
39.14167,-3737
39.15000,-3737
39.15833,-3738
39.16667,-3739
39.17500,-3740
39.18333,-3741
39.19167,-3742
39.20000,-3743
39.20833,-3744
39.21667,-3745
39.22500,-3745
39.23333,-3746
39.24167,-3746
39.25000,-3747
39.25833,-3748
39.26667,-3748
39.27500,-3749
39.28333,-3750
39.29167,-3751
39.30000,-3752
39.30833,-3752
39.31667,-3753
39.32500,-3754
39.33333,-3755
39.34167,-3756
39.35000,-3757
39.35833,-3757
39.36667,-3758
39.37500,-3759
39.38333,-3760
39.39167,-3760
39.40000,-3761
39.40833,-3762
39.41667,-3762
39.42500,-3763
39.43333,-3764
39.44167,-3765
39.45000,-3766
39.45833,-3767
39.46667,-3767
39.47500,-3768
39.48333,-3769
39.49167,-3769
39.50000,-3770
39.50833,-3771
39.51667,-3772
39.52500,-3772
39.53333,-3773
39.54167,-3774
39.55000,-3775
39.55833,-3776
39.56667,-3776
39.57500,-3777
39.58333,-3778
39.59167,-3779
39.60000,-3780
39.60833,-3780
39.61667,-3781
39.62500,-3781
39.63333,-3782
39.64167,-3783
39.65000,-3785
39.65833,-3786
39.66667,-3787
39.67500,-3787
39.68333,-3788
39.69167,-3788
39.70000,-3789
39.70833,-3790
39.71667,-3791
39.72500,-3791
39.73333,-3792
39.74167,-3793
39.75000,-3794
39.75833,-3795
39.76667,-3796
39.77500,-3797
39.78333,-3798
39.79167,-3798
39.80000,-3799
39.80833,-3799
39.81667,-3800
39.82500,-3801
39.83333,-3801
39.84167,-3802
39.85000,-3803
39.85833,-3804
39.86667,-3805
39.87500,-3806
39.88333,-3806
39.89167,-3807
39.90000,-3808
39.90833,-3808
39.91667,-3809
39.92500,-3810
39.93333,-3811
39.94167,-3812
39.95000,-3812
39.95833,-3813
39.96667,-3814
39.97500,-3815
39.98333,-3816
39.99167,-3817
40.00000,-3818
40.00833,-3818
40.01667,-3819
40.02500,-3820
40.03333,-3820
40.04167,-3821
40.05000,-3822
40.05833,-3823
40.06667,-3824
40.07500,-3825
40.08333,-3826
40.09167,-3826
40.10000,-3827
40.10833,-3828
40.11667,-3829
40.12500,-3830
40.13333,-3831
40.14167,-3832
40.15000,-3833
40.15833,-3833
40.16667,-3834
40.17500,-3834
40.18333,-3835
40.19167,-3836
40.20000,-3837
40.20833,-3837
40.21667,-3838
40.22500,-3839
40.23333,-3840
40.24167,-3841
40.25000,-3842
40.25833,-3843
40.26667,-3843
40.27500,-3844
40.28333,-3845
40.29167,-3846
40.30000,-3847
40.30833,-3847
40.31667,-3848
40.32500,-3849
40.33333,-3850
40.34167,-3851
40.35000,-3851
40.35833,-3852
40.36667,-3852
40.37500,-3853
40.38333,-3854
40.39167,-3855
40.40000,-3856
40.40833,-3857
40.41667,-3858
40.42500,-3858
40.43333,-3858
40.44167,-3859
40.45000,-3860
40.45833,-3861
40.46667,-3862
40.47500,-3862
40.48333,-3863
40.49167,-3864
40.50000,-3865
40.50833,-3865
40.51667,-3866
40.52500,-3867
40.53333,-3868
40.54167,-3869
40.55000,-3870
40.55833,-3871
40.56667,-3871
40.57500,-3872
40.58333,-3873
40.59167,-3874
40.60000,-3875
40.60833,-3876
40.61667,-3877
40.62500,-3878
40.63333,-3878
40.64167,-3879
40.65000,-3880
40.65833,-3881
40.66667,-3881
40.67500,-3882
40.68333,-3882
40.69167,-3883
40.70000,-3884
40.70833,-3885
40.71667,-3886
40.72500,-3887
40.73333,-3887
40.74167,-3888
40.75000,-3888
40.75833,-3889
40.76667,-3890
40.77500,-3890
40.78333,-3891
40.79167,-3892
40.80000,-3893
40.80833,-3894
40.81667,-3895
40.82500,-3895
40.83333,-3896
40.84167,-3896
40.85000,-3897
40.85833,-3898
40.86667,-3899
40.87500,-3900
40.88333,-3901
40.89167,-3902
40.90000,-3903
40.90833,-3903
40.91667,-3903
40.92500,-3904
40.93333,-3905
40.94167,-3905
40.95000,-3906
40.95833,-3907
40.96667,-3908
40.97500,-3909
40.98333,-3910
40.99167,-3911
41.00000,-3912
41.00833,-3912
41.01667,-3913
41.02500,-3913
41.03333,-3914
41.04167,-3915
41.05000,-3916
41.05833,-3917
41.06667,-3917
41.07500,-3918
41.08333,-3919
41.09167,-3919
41.10000,-3920
41.10833,-3921
41.11667,-3921
41.12500,-3922
41.13333,-3923
41.14167,-3924
41.15000,-3925
41.15833,-3926
41.16667,-3926
41.17500,-3927
41.18333,-3928
41.19167,-3929
41.20000,-3930
41.20833,-3930
41.21667,-3931
41.22500,-3933
41.23333,-3934
41.24167,-3935
41.25000,-3935
41.25833,-3936
41.26667,-3937
41.27500,-3937
41.28333,-3938
41.29167,-3939
41.30000,-3940
41.30833,-3941
41.31667,-3942
41.32500,-3943
41.33333,-3943
41.34167,-3944
41.35000,-3944
41.35833,-3945
41.36667,-3945
41.37500,-3945
41.38333,-3946
41.39167,-3947
41.40000,-3948
41.40833,-3949
41.41667,-3950
41.42500,-3951
41.43333,-3952
41.44167,-3953
41.45000,-3953
41.45833,-3954
41.46667,-3955
41.47500,-3956
41.48333,-3956
41.49167,-3957
41.50000,-3957
41.50833,-3958
41.51667,-3959
41.52500,-3961
41.53333,-3962
41.54167,-3962
41.55000,-3962
41.55833,-3963
41.56667,-3964
41.57500,-3964
41.58333,-3965
41.59167,-3966
41.60000,-3968
41.60833,-3969
41.61667,-3970
41.62500,-3970
41.63333,-3971
41.64167,-3971
41.65000,-3971
41.65833,-3972
41.66667,-3973
41.67500,-3974
41.68333,-3975
41.69167,-3976
41.70000,-3977
41.70833,-3978
41.71667,-3979
41.72500,-3980
41.73333,-3981
41.74167,-3982
41.75000,-3982
41.75833,-3983
41.76667,-3984
41.77500,-3984
41.78333,-3985
41.79167,-3986
41.80000,-3987
41.80833,-3988
41.81667,-3989
41.82500,-3990
41.83333,-3990
41.84167,-3991
41.85000,-3992
41.85833,-3993
41.86667,-3994
41.87500,-3994
41.88333,-3995
41.89167,-3996
41.90000,-3997
41.90833,-3998
41.91667,-3998
41.92500,-3999
41.93333,-4000
41.94167,-4000
41.95000,-4001
41.95833,-4002
41.96667,-4003
41.97500,-4003
41.98333,-4005
41.99167,-4006
42.00000,-4007
42.00833,-4007
42.01667,-4008
42.02500,-4008
42.03333,-4009
42.04167,-4009
42.05000,-4010
42.05833,-4011
42.06667,-4012
42.07500,-4013
42.08333,-4014
42.09167,-4015
42.10000,-4016
42.10833,-4016
42.11667,-4017
42.12500,-4017
42.13333,-4018
42.14167,-4019
42.15000,-4020
42.15833,-4021
42.16667,-4022
42.17500,-4023
42.18333,-4024
42.19167,-4024
42.20000,-4025
42.20833,-4026
42.21667,-4027
42.22500,-4028
42.23333,-4029
42.24167,-4029
42.25000,-4030
42.25833,-4031
42.26667,-4031
42.27500,-4032
42.28333,-4033
42.29167,-4034
42.30000,-4035
42.30833,-4035
42.31667,-4036
42.32500,-4036
42.33333,-4037
42.34167,-4038
42.35000,-4038
42.35833,-4039
42.36667,-4040
42.37500,-4041
42.38333,-4041
42.39167,-4042
42.40000,-4043
42.40833,-4044
42.41667,-4045
42.42500,-4046
42.43333,-4047
42.44167,-4048
42.45000,-4048
42.45833,-4049
42.46667,-4050
42.47500,-4051
42.48333,-4052
42.49167,-4053
42.50000,-4054
42.50833,-4055
42.51667,-4056
42.52500,-4056
42.53333,-4057
42.54167,-4057
42.55000,-4058
42.55833,-4059
42.56667,-4060
42.57500,-4061
42.58333,-4062
42.59167,-4063
42.60000,-4063
42.60833,-4064
42.61667,-4065
42.62500,-4066
42.63333,-4066
42.64167,-4067
42.65000,-4068
42.65833,-4069
42.66667,-4070
42.67500,-4070
42.68333,-4071
42.69167,-4071
42.70000,-4072
42.70833,-4073
42.71667,-4074
42.72500,-4074
42.73333,-4075
42.74167,-4076
42.75000,-4077
42.75833,-4077
42.76667,-4078
42.77500,-4079
42.78333,-4080
42.79167,-4081
42.80000,-4082
42.80833,-4083
42.81667,-4084
42.82500,-4085
42.83333,-4086
42.84167,-4087
42.85000,-4087
42.85833,-4088
42.86667,-4089
42.87500,-4090
42.88333,-4091
42.89167,-4092
42.90000,-4093
42.90833,-4094
42.91667,-4095
42.92500,-4095
42.93333,-4096
42.94167,-4096
42.95000,-4097
42.95833,-4098
42.96667,-4099
42.97500,-4100
42.98333,-4101
42.99167,-4102
43.00000,-4103
43.00833,-4104
43.01667,-4105
43.02500,-4105
43.03333,-4106
43.04167,-4107
43.05000,-4107
43.05833,-4108
43.06667,-4109
43.07500,-4110
43.08333,-4110
43.09167,-4111
43.10000,-4112
43.10833,-4112
43.11667,-4113
43.12500,-4115
43.13333,-4116
43.14167,-4116
43.15000,-4117
43.15833,-4118
43.16667,-4119
43.17500,-4119
43.18333,-4120
43.19167,-4121
43.20000,-4122
43.20833,-4123
43.21667,-4123
43.22500,-4124
43.23333,-4124
43.24167,-4125
43.25000,-4126
43.25833,-4127
43.26667,-4128
43.27500,-4129
43.28333,-4130
43.29167,-4131
43.30000,-4132
43.30833,-4132
43.31667,-4133
43.32500,-4133
43.33333,-4134
43.34167,-4135
43.35000,-4136
43.35833,-4137
43.36667,-4138
43.37500,-4139
43.38333,-4140
43.39167,-4141
43.40000,-4142
43.40833,-4142
43.41667,-4143
43.42500,-4144
43.43333,-4144
43.44167,-4145
43.45000,-4145
43.45833,-4146
43.46667,-4147
43.47500,-4148
43.48333,-4149
43.49167,-4150
43.50000,-4150
43.50833,-4151
43.51667,-4153
43.52500,-4154
43.53333,-4154
43.54167,-4155
43.55000,-4156
43.55833,-4157
43.56667,-4158
43.57500,-4158
43.58333,-4159
43.59167,-4160
43.60000,-4161
43.60833,-4161
43.61667,-4162
43.62500,-4163
43.63333,-4164
43.64167,-4165
43.65000,-4166
43.65833,-4167
43.66667,-4168
43.67500,-4169
43.68333,-4169
43.69167,-4170
43.70000,-4171
43.70833,-4171
43.71667,-4172
43.72500,-4173
43.73333,-4174
43.74167,-4175
43.75000,-4175
43.75833,-4176
43.76667,-4176
43.77500,-4177
43.78333,-4178
43.79167,-4179
43.80000,-4180
43.80833,-4181
43.81667,-4182
43.82500,-4182
43.83333,-4183
43.84167,-4184
43.85000,-4185
43.85833,-4186
43.86667,-4187
43.87500,-4188
43.88333,-4188
43.89167,-4189
43.90000,-4190
43.90833,-4191
43.91667,-4192
43.92500,-4193
43.93333,-4193
43.94167,-4194
43.95000,-4195
43.95833,-4196
43.96667,-4196
43.97500,-4197
43.98333,-4198
43.99167,-4198
44.00000,-4199
44.00833,-4200
44.01667,-4200
44.02500,-4201
44.03333,-4202
44.04167,-4203
44.05000,-4203
44.05833,-4204
44.06667,-4205
44.07500,-4206
44.08333,-4207
44.09167,-4207
44.10000,-4208
44.10833,-4209
44.11667,-4210
44.12500,-4211
44.13333,-4212
44.14167,-4213
44.15000,-4214
44.15833,-4214
44.16667,-4215
44.17500,-4215
44.18333,-4216
44.19167,-4216
44.20000,-4217
44.20833,-4218
44.21667,-4219
44.22500,-4220
44.23333,-4221
44.24167,-4222
44.25000,-4223
44.25833,-4224
44.26667,-4224
44.27500,-4225
44.28333,-4226
44.29167,-4226
44.30000,-4227
44.30833,-4227
44.31667,-4227
44.32500,-4228
44.33333,-4229
44.34167,-4230
44.35000,-4231
44.35833,-4232
44.36667,-4233
44.37500,-4234
44.38333,-4235
44.39167,-4236
44.40000,-4237
44.40833,-4238
44.41667,-4238
44.42500,-4239
44.43333,-4239
44.44167,-4240
44.45000,-4241
44.45833,-4241
44.46667,-4242
44.47500,-4242
44.48333,-4243
44.49167,-4244
44.50000,-4245
44.50833,-4246
44.51667,-4247
44.52500,-4248
44.53333,-4248
44.54167,-4249
44.55000,-4250
44.55833,-4251
44.56667,-4252
44.57500,-4252
44.58333,-4253
44.59167,-4254
44.60000,-4254
44.60833,-4255
44.61667,-4255
44.62500,-4256
44.63333,-4256
44.64167,-4257
44.65000,-4258
44.65833,-4259
44.66667,-4260
44.67500,-4261
44.68333,-4262
44.69167,-4263
44.70000,-4263
44.70833,-4264
44.71667,-4265
44.72500,-4265
44.73333,-4266
44.74167,-4267
44.75000,-4267
44.75833,-4268
44.76667,-4268
44.77500,-4269
44.78333,-4270
44.79167,-4271
44.80000,-4272
44.80833,-4273
44.81667,-4273
44.82500,-4274
44.83333,-4275
44.84167,-4276
44.85000,-4276
44.85833,-4277
44.86667,-4278
44.87500,-4278
44.88333,-4279
44.89167,-4279
44.90000,-4280
44.90833,-4281
44.91667,-4282
44.92500,-4282
44.93333,-4283
44.94167,-4285
44.95000,-4285
44.95833,-4286
44.96667,-4287
44.97500,-4288
44.98333,-4289
44.99167,-4289
45.00000,-4290

