[Header]
Application Name,LabSolutions
Version,5.97 SP1
Data File Name,C:\Users\cremerlab\Desktop\griffin\2021-03-31_NC_glucose_glycerol_acetate_calibration\calibration_batch_422021_005_005.lcd
Output Date,4/2/2021
Output Time,11:04:11 PM

[File Information]
Type,Data File
Generated,4/2/2021 10:23:52 PM
Generated by,System Administrator
Modified,4/2/2021 11:04:11 PM
Modified by,System Administrator

[Sample Information]
Operator Name,System Administrator
Acquired,4/2/2021 10:24:10 PM
Sample Type,1:Standard
Level,5
Sample Name,2021-04-02_NC_glucose_glycerol_acetate_calibration_15mM
Sample ID,005
ISTD Amount1,1
ISTD Amount2,1
ISTD Amount3,1
ISTD Amount4,1
ISTD Amount5,1
ISTD Amount6,1
ISTD Amount7,1
ISTD Amount8,1
ISTD Amount9,1
ISTD Amount10,1
ISTD Amount11,1
ISTD Amount12,1
ISTD Amount13,1
ISTD Amount14,1
ISTD Amount15,1
ISTD Amount16,1
ISTD Amount17,1
ISTD Amount18,1
ISTD Amount19,1
ISTD Amount20,1
ISTD Amount21,1
ISTD Amount22,1
ISTD Amount23,1
ISTD Amount24,1
ISTD Amount25,1
ISTD Amount26,1
ISTD Amount27,1
ISTD Amount28,1
ISTD Amount29,1
ISTD Amount30,1
ISTD Amount31,1
ISTD Amount32,1
Sample Amount,1
Dilution Factor,1
Vial#,5
Injection Volume,20

[Original Files]
Data File,C:\Users\cremerlab\Desktop\griffin\2021-03-31_NC_glucose_glycerol_acetate_calibration\calibration_batch_422021_005_005.lcd
Method File,C:\LabSolutions\Data\Project1\organicacidsetc2.lcm
Batch File,C:\Users\cremerlab\Desktop\griffin\2021-03-31_NC_glucose_glycerol_acetate_calibration\calibration_batch.lcb
Report Format File,c:\LabSolutions\System\DEFAULT.lsr

[File Description]


[Configuration]
Instrument Name,HPLC-PC-Instrument1
Instrument #,1
Line #,1
# of Detectors,2
Detector ID,Detector A,Detector B
Detector Name,Detector A,Detector B
# of Channels,1,1

[Peak Table(Detector A)]
# of Peaks,0

[Peak Table(Detector B)]
# of Peaks,5
Peak#,R.Time,I.Time,F.Time,Area,Height,A/H,Conc.,Mark,ID#,Name,k',Plate #,Plate Ht.,Tailing,Resolution,Sep.Factor,Area Ratio,Height Ratio,Conc. %,Norm Conc.
1,11.040,10.775,11.992,623955,35316,17.668,0.000,   ,,,0.000,10126,14.814,1.566,0.000,0.000,0,0,0.000,0.000
2,14.956,14.117,15.275,1601007,66817,23.961,0.000,   ,,,0.355,8292,18.091,0.000,7.147,0.000,0,0,0.000,0.000
3,15.650,15.275,18.417,1944522,79626,24.421,0.000, V ,,,0.418,9724,15.426,0.000,1.075,1.177,0,0,0.000,0.000
4,22.074,21.333,23.475,567048,20916,27.111,0.000,   ,,,0.999,15375,9.756,1.092,9.538,2.393,0,0,0.000,0.000
5,25.057,24.292,26.258,292339,9923,29.461,0.000,   ,,,1.270,16641,9.014,1.069,4.008,1.270,0,0,0.000,0.000

[LC Chromatogram(Detector B-Ch1)]
Interval(msec),500
# of Points,4801
Start Time(min),0.000
End Time(min),40.000
Intensity Units,mV
Intensity Multiplier,0.001
R.Time (min),Intensity
0.00000,-1
0.00833,-1
0.01667,0
0.02500,0
0.03333,0
0.04167,1
0.05000,1
0.05833,1
0.06667,1
0.07500,1
0.08333,1
0.09167,1
0.10000,1
0.10833,1
0.11667,0
0.12500,0
0.13333,0
0.14167,0
0.15000,0
0.15833,0
0.16667,0
0.17500,0
0.18333,0
0.19167,0
0.20000,0
0.20833,0
0.21667,0
0.22500,1
0.23333,1
0.24167,1
0.25000,1
0.25833,1
0.26667,1
0.27500,1
0.28333,1
0.29167,1
0.30000,1
0.30833,2
0.31667,2
0.32500,1
0.33333,1
0.34167,1
0.35000,1
0.35833,1
0.36667,1
0.37500,1
0.38333,1
0.39167,1
0.40000,1
0.40833,1
0.41667,1
0.42500,1
0.43333,1
0.44167,1
0.45000,1
0.45833,1
0.46667,1
0.47500,1
0.48333,1
0.49167,1
0.50000,1
0.50833,1
0.51667,1
0.52500,1
0.53333,1
0.54167,1
0.55000,1
0.55833,1
0.56667,1
0.57500,1
0.58333,2
0.59167,2
0.60000,2
0.60833,2
0.61667,1
0.62500,1
0.63333,1
0.64167,0
0.65000,0
0.65833,-0
0.66667,-0
0.67500,-1
0.68333,-1
0.69167,-1
0.70000,-1
0.70833,-2
0.71667,-2
0.72500,-1
0.73333,-1
0.74167,-1
0.75000,-0
0.75833,-0
0.76667,-0
0.77500,0
0.78333,0
0.79167,0
0.80000,0
0.80833,0
0.81667,1
0.82500,1
0.83333,0
0.84167,0
0.85000,-0
0.85833,-1
0.86667,-1
0.87500,-1
0.88333,-1
0.89167,-1
0.90000,-0
0.90833,-0
0.91667,-0
0.92500,-0
0.93333,-0
0.94167,-0
0.95000,-0
0.95833,-0
0.96667,-0
0.97500,0
0.98333,0
0.99167,0
1.00000,0
1.00833,0
1.01667,-0
1.02500,-0
1.03333,-0
1.04167,-0
1.05000,0
1.05833,0
1.06667,0
1.07500,0
1.08333,0
1.09167,0
1.10000,0
1.10833,1
1.11667,1
1.12500,0
1.13333,0
1.14167,0
1.15000,1
1.15833,1
1.16667,1
1.17500,1
1.18333,1
1.19167,1
1.20000,1
1.20833,1
1.21667,1
1.22500,1
1.23333,1
1.24167,0
1.25000,0
1.25833,0
1.26667,0
1.27500,1
1.28333,1
1.29167,1
1.30000,0
1.30833,0
1.31667,0
1.32500,-0
1.33333,-0
1.34167,-0
1.35000,-1
1.35833,-1
1.36667,-0
1.37500,-0
1.38333,-0
1.39167,-0
1.40000,-0
1.40833,-0
1.41667,-0
1.42500,-1
1.43333,-1
1.44167,-0
1.45000,-1
1.45833,-0
1.46667,-0
1.47500,-0
1.48333,0
1.49167,0
1.50000,0
1.50833,0
1.51667,0
1.52500,0
1.53333,-0
1.54167,-1
1.55000,-1
1.55833,-1
1.56667,-1
1.57500,-1
1.58333,-1
1.59167,-1
1.60000,-1
1.60833,-1
1.61667,-1
1.62500,-1
1.63333,-1
1.64167,-1
1.65000,-1
1.65833,-1
1.66667,-1
1.67500,-1
1.68333,-1
1.69167,-1
1.70000,-1
1.70833,-1
1.71667,-1
1.72500,-1
1.73333,-0
1.74167,-0
1.75000,-0
1.75833,-0
1.76667,-1
1.77500,-1
1.78333,-1
1.79167,-1
1.80000,-0
1.80833,-0
1.81667,0
1.82500,0
1.83333,0
1.84167,0
1.85000,0
1.85833,-0
1.86667,-1
1.87500,-1
1.88333,-1
1.89167,-1
1.90000,-1
1.90833,-1
1.91667,-1
1.92500,-2
1.93333,-1
1.94167,-1
1.95000,-1
1.95833,-1
1.96667,-2
1.97500,-2
1.98333,-1
1.99167,-1
2.00000,-1
2.00833,-1
2.01667,-1
2.02500,-1
2.03333,-1
2.04167,-1
2.05000,-1
2.05833,-1
2.06667,-1
2.07500,-1
2.08333,-1
2.09167,-1
2.10000,-1
2.10833,-1
2.11667,-1
2.12500,-1
2.13333,-1
2.14167,-1
2.15000,-2
2.15833,-2
2.16667,-2
2.17500,-2
2.18333,-2
2.19167,-2
2.20000,-2
2.20833,-2
2.21667,-2
2.22500,-2
2.23333,-2
2.24167,-2
2.25000,-2
2.25833,-2
2.26667,-1
2.27500,-1
2.28333,-1
2.29167,-1
2.30000,-1
2.30833,-2
2.31667,-2
2.32500,-1
2.33333,-1
2.34167,-1
2.35000,-1
2.35833,-1
2.36667,-1
2.37500,-1
2.38333,-1
2.39167,-1
2.40000,-1
2.40833,-1
2.41667,-1
2.42500,-1
2.43333,-1
2.44167,-1
2.45000,-1
2.45833,-1
2.46667,-1
2.47500,-1
2.48333,-1
2.49167,-1
2.50000,-1
2.50833,-1
2.51667,-1
2.52500,-1
2.53333,-1
2.54167,-1
2.55000,-1
2.55833,-1
2.56667,-1
2.57500,-1
2.58333,-1
2.59167,-1
2.60000,-1
2.60833,-1
2.61667,-1
2.62500,-1
2.63333,-1
2.64167,-1
2.65000,-1
2.65833,-1
2.66667,-1
2.67500,-1
2.68333,-1
2.69167,-1
2.70000,-1
2.70833,-1
2.71667,-1
2.72500,-2
2.73333,-2
2.74167,-1
2.75000,-1
2.75833,-1
2.76667,-1
2.77500,-1
2.78333,-1
2.79167,-1
2.80000,-1
2.80833,-1
2.81667,-1
2.82500,-1
2.83333,-1
2.84167,-2
2.85000,-2
2.85833,-2
2.86667,-2
2.87500,-2
2.88333,-2
2.89167,-2
2.90000,-2
2.90833,-2
2.91667,-2
2.92500,-2
2.93333,-2
2.94167,-2
2.95000,-3
2.95833,-3
2.96667,-2
2.97500,-2
2.98333,-2
2.99167,-2
3.00000,-2
3.00833,-2
3.01667,-2
3.02500,-2
3.03333,-3
3.04167,-3
3.05000,-3
3.05833,-3
3.06667,-3
3.07500,-3
3.08333,-2
3.09167,-2
3.10000,-2
3.10833,-2
3.11667,-2
3.12500,-2
3.13333,-2
3.14167,-2
3.15000,-2
3.15833,-1
3.16667,-1
3.17500,-2
3.18333,-2
3.19167,-2
3.20000,-2
3.20833,-2
3.21667,-2
3.22500,-2
3.23333,-2
3.24167,-2
3.25000,-2
3.25833,-3
3.26667,-3
3.27500,-3
3.28333,-3
3.29167,-3
3.30000,-3
3.30833,-3
3.31667,-3
3.32500,-3
3.33333,-3
3.34167,-3
3.35000,-3
3.35833,-3
3.36667,-3
3.37500,-3
3.38333,-3
3.39167,-2
3.40000,-2
3.40833,-3
3.41667,-3
3.42500,-3
3.43333,-3
3.44167,-2
3.45000,-2
3.45833,-3
3.46667,-3
3.47500,-3
3.48333,-3
3.49167,-3
3.50000,-4
3.50833,-4
3.51667,-4
3.52500,-4
3.53333,-3
3.54167,-3
3.55000,-3
3.55833,-3
3.56667,-3
3.57500,-3
3.58333,-3
3.59167,-4
3.60000,-3
3.60833,-3
3.61667,-3
3.62500,-2
3.63333,-2
3.64167,-2
3.65000,-2
3.65833,-3
3.66667,-3
3.67500,-3
3.68333,-3
3.69167,-2
3.70000,-2
3.70833,-2
3.71667,-2
3.72500,-2
3.73333,-2
3.74167,-2
3.75000,-3
3.75833,-3
3.76667,-3
3.77500,-3
3.78333,-3
3.79167,-3
3.80000,-3
3.80833,-4
3.81667,-4
3.82500,-3
3.83333,-3
3.84167,-3
3.85000,-3
3.85833,-3
3.86667,-3
3.87500,-3
3.88333,-3
3.89167,-4
3.90000,-4
3.90833,-4
3.91667,-4
3.92500,-4
3.93333,-4
3.94167,-4
3.95000,-4
3.95833,-4
3.96667,-3
3.97500,-3
3.98333,-3
3.99167,-3
4.00000,-3
4.00833,-3
4.01667,-3
4.02500,-3
4.03333,-3
4.04167,-3
4.05000,-3
4.05833,-3
4.06667,-3
4.07500,-3
4.08333,-3
4.09167,-3
4.10000,-3
4.10833,-2
4.11667,-2
4.12500,-2
4.13333,-2
4.14167,-3
4.15000,-3
4.15833,-3
4.16667,-3
4.17500,-3
4.18333,-4
4.19167,-4
4.20000,-4
4.20833,-4
4.21667,-4
4.22500,-3
4.23333,-3
4.24167,-3
4.25000,-4
4.25833,-4
4.26667,-3
4.27500,-3
4.28333,-3
4.29167,-3
4.30000,-3
4.30833,-4
4.31667,-4
4.32500,-4
4.33333,-4
4.34167,-4
4.35000,-3
4.35833,-3
4.36667,-4
4.37500,-4
4.38333,-3
4.39167,-3
4.40000,-3
4.40833,-3
4.41667,-2
4.42500,-3
4.43333,-3
4.44167,-3
4.45000,-3
4.45833,-3
4.46667,-3
4.47500,-3
4.48333,-3
4.49167,-3
4.50000,-3
4.50833,-3
4.51667,-3
4.52500,-3
4.53333,-3
4.54167,-3
4.55000,-3
4.55833,-3
4.56667,-2
4.57500,-2
4.58333,-2
4.59167,-3
4.60000,-3
4.60833,-4
4.61667,-4
4.62500,-4
4.63333,-4
4.64167,-4
4.65000,-4
4.65833,-3
4.66667,-3
4.67500,-3
4.68333,-3
4.69167,-3
4.70000,-3
4.70833,-3
4.71667,-4
4.72500,-4
4.73333,-4
4.74167,-4
4.75000,-4
4.75833,-4
4.76667,-4
4.77500,-3
4.78333,-3
4.79167,-3
4.80000,-3
4.80833,-3
4.81667,-2
4.82500,-2
4.83333,-2
4.84167,-3
4.85000,-3
4.85833,-3
4.86667,-3
4.87500,-3
4.88333,-3
4.89167,-3
4.90000,-3
4.90833,-3
4.91667,-3
4.92500,-3
4.93333,-3
4.94167,-3
4.95000,-3
4.95833,-3
4.96667,-3
4.97500,-3
4.98333,-3
4.99167,-3
5.00000,-3
5.00833,-3
5.01667,-3
5.02500,-3
5.03333,-3
5.04167,-3
5.05000,-3
5.05833,-3
5.06667,-3
5.07500,-2
5.08333,-2
5.09167,-2
5.10000,-2
5.10833,-2
5.11667,-2
5.12500,-2
5.13333,-2
5.14167,-2
5.15000,-2
5.15833,-2
5.16667,-2
5.17500,-2
5.18333,-2
5.19167,-3
5.20000,-3
5.20833,-3
5.21667,-3
5.22500,-3
5.23333,-3
5.24167,-3
5.25000,-3
5.25833,-3
5.26667,-3
5.27500,-3
5.28333,-3
5.29167,-3
5.30000,-3
5.30833,-3
5.31667,-2
5.32500,-2
5.33333,-2
5.34167,-3
5.35000,-3
5.35833,-3
5.36667,-3
5.37500,-3
5.38333,-3
5.39167,-3
5.40000,-3
5.40833,-2
5.41667,-2
5.42500,-2
5.43333,-2
5.44167,-2
5.45000,-2
5.45833,-2
5.46667,-2
5.47500,-3
5.48333,-3
5.49167,-3
5.50000,-2
5.50833,-2
5.51667,-2
5.52500,-2
5.53333,-2
5.54167,-2
5.55000,-2
5.55833,-2
5.56667,-2
5.57500,-2
5.58333,-2
5.59167,-2
5.60000,-2
5.60833,-2
5.61667,-2
5.62500,-2
5.63333,-2
5.64167,-2
5.65000,-2
5.65833,-2
5.66667,-2
5.67500,-2
5.68333,-3
5.69167,-3
5.70000,-3
5.70833,-3
5.71667,-3
5.72500,-3
5.73333,-3
5.74167,-3
5.75000,-3
5.75833,-3
5.76667,-3
5.77500,-3
5.78333,-3
5.79167,-2
5.80000,-2
5.80833,-3
5.81667,-3
5.82500,-3
5.83333,-2
5.84167,-2
5.85000,-2
5.85833,-2
5.86667,-2
5.87500,-2
5.88333,-2
5.89167,-2
5.90000,-2
5.90833,-2
5.91667,-3
5.92500,-3
5.93333,-3
5.94167,-3
5.95000,-4
5.95833,-4
5.96667,-4
5.97500,-4
5.98333,-4
5.99167,-4
6.00000,-4
6.00833,-4
6.01667,-4
6.02500,-3
6.03333,-3
6.04167,-3
6.05000,-3
6.05833,-3
6.06667,-3
6.07500,-3
6.08333,-3
6.09167,-3
6.10000,-3
6.10833,-3
6.11667,-3
6.12500,-3
6.13333,-3
6.14167,-3
6.15000,-3
6.15833,-3
6.16667,-3
6.17500,-3
6.18333,-3
6.19167,-3
6.20000,-3
6.20833,-3
6.21667,-3
6.22500,-3
6.23333,-4
6.24167,-4
6.25000,-4
6.25833,-4
6.26667,-4
6.27500,-4
6.28333,-3
6.29167,-3
6.30000,-4
6.30833,-4
6.31667,-4
6.32500,-3
6.33333,-3
6.34167,-3
6.35000,-3
6.35833,-3
6.36667,-3
6.37500,-4
6.38333,-4
6.39167,-4
6.40000,-4
6.40833,-4
6.41667,-4
6.42500,-4
6.43333,-4
6.44167,-4
6.45000,-4
6.45833,-4
6.46667,-4
6.47500,-4
6.48333,-4
6.49167,-4
6.50000,-4
6.50833,-4
6.51667,-4
6.52500,-4
6.53333,-4
6.54167,-4
6.55000,-4
6.55833,-4
6.56667,-4
6.57500,-4
6.58333,-3
6.59167,-4
6.60000,-4
6.60833,-4
6.61667,-4
6.62500,-4
6.63333,-4
6.64167,-4
6.65000,-4
6.65833,-4
6.66667,-5
6.67500,-5
6.68333,-5
6.69167,-4
6.70000,-4
6.70833,-4
6.71667,-4
6.72500,-4
6.73333,-5
6.74167,-5
6.75000,-5
6.75833,-5
6.76667,-5
6.77500,-5
6.78333,-5
6.79167,-5
6.80000,-5
6.80833,-5
6.81667,-5
6.82500,-5
6.83333,-5
6.84167,-5
6.85000,-5
6.85833,-5
6.86667,-5
6.87500,-4
6.88333,-4
6.89167,-4
6.90000,-4
6.90833,-4
6.91667,-4
6.92500,-5
6.93333,-5
6.94167,-5
6.95000,-4
6.95833,-4
6.96667,-4
6.97500,-4
6.98333,-4
6.99167,-4
7.00000,-3
7.00833,-3
7.01667,-3
7.02500,-3
7.03333,-3
7.04167,-3
7.05000,-3
7.05833,-3
7.06667,-4
7.07500,-3
7.08333,-3
7.09167,-3
7.10000,-3
7.10833,-3
7.11667,-3
7.12500,-3
7.13333,-3
7.14167,-3
7.15000,-4
7.15833,-4
7.16667,-4
7.17500,-4
7.18333,-4
7.19167,-4
7.20000,-4
7.20833,-4
7.21667,-4
7.22500,-4
7.23333,-4
7.24167,-4
7.25000,-4
7.25833,-4
7.26667,-4
7.27500,-4
7.28333,-4
7.29167,-4
7.30000,-4
7.30833,-4
7.31667,-4
7.32500,-4
7.33333,-4
7.34167,-4
7.35000,-4
7.35833,-4
7.36667,-4
7.37500,-4
7.38333,-4
7.39167,-4
7.40000,-4
7.40833,-4
7.41667,-4
7.42500,-3
7.43333,-3
7.44167,-3
7.45000,-4
7.45833,-4
7.46667,-4
7.47500,-3
7.48333,-4
7.49167,-4
7.50000,-4
7.50833,-4
7.51667,-4
7.52500,-4
7.53333,-4
7.54167,-4
7.55000,-3
7.55833,-3
7.56667,-4
7.57500,-4
7.58333,-4
7.59167,-4
7.60000,-4
7.60833,-5
7.61667,-4
7.62500,-4
7.63333,-4
7.64167,-4
7.65000,-5
7.65833,-5
7.66667,-5
7.67500,-4
7.68333,-4
7.69167,-4
7.70000,-4
7.70833,-4
7.71667,-4
7.72500,-4
7.73333,-4
7.74167,-4
7.75000,-4
7.75833,-4
7.76667,-4
7.77500,-4
7.78333,-4
7.79167,-4
7.80000,-4
7.80833,-4
7.81667,-4
7.82500,-5
7.83333,-5
7.84167,-5
7.85000,-5
7.85833,-5
7.86667,-5
7.87500,-5
7.88333,-5
7.89167,-5
7.90000,-5
7.90833,-5
7.91667,-5
7.92500,-5
7.93333,-5
7.94167,-5
7.95000,-5
7.95833,-5
7.96667,-5
7.97500,-5
7.98333,-5
7.99167,-5
8.00000,-4
8.00833,-4
8.01667,-4
8.02500,-4
8.03333,-4
8.04167,-4
8.05000,-4
8.05833,-4
8.06667,-4
8.07500,-4
8.08333,-4
8.09167,-4
8.10000,-4
8.10833,-4
8.11667,-4
8.12500,-4
8.13333,-4
8.14167,-4
8.15000,-4
8.15833,-4
8.16667,-4
8.17500,-4
8.18333,-4
8.19167,-4
8.20000,-4
8.20833,-4
8.21667,-4
8.22500,-4
8.23333,-4
8.24167,-5
8.25000,-5
8.25833,-4
8.26667,-4
8.27500,-4
8.28333,-4
8.29167,-4
8.30000,-4
8.30833,-4
8.31667,-5
8.32500,-5
8.33333,-5
8.34167,-5
8.35000,-4
8.35833,-4
8.36667,-4
8.37500,-4
8.38333,-4
8.39167,-4
8.40000,-4
8.40833,-4
8.41667,-4
8.42500,-4
8.43333,-4
8.44167,-4
8.45000,-4
8.45833,-4
8.46667,-4
8.47500,-4
8.48333,-4
8.49167,-4
8.50000,-4
8.50833,-5
8.51667,-4
8.52500,-4
8.53333,-5
8.54167,-5
8.55000,-5
8.55833,-4
8.56667,-4
8.57500,-4
8.58333,-4
8.59167,-4
8.60000,-4
8.60833,-4
8.61667,-4
8.62500,-3
8.63333,-4
8.64167,-4
8.65000,-4
8.65833,-4
8.66667,-4
8.67500,-4
8.68333,-4
8.69167,-4
8.70000,-4
8.70833,-4
8.71667,-4
8.72500,-4
8.73333,-4
8.74167,-5
8.75000,-5
8.75833,-5
8.76667,-4
8.77500,-4
8.78333,-4
8.79167,-4
8.80000,-4
8.80833,-4
8.81667,-4
8.82500,-4
8.83333,-4
8.84167,-4
8.85000,-4
8.85833,-4
8.86667,-4
8.87500,-4
8.88333,-4
8.89167,-3
8.90000,-3
8.90833,-3
8.91667,-3
8.92500,-4
8.93333,-4
8.94167,-4
8.95000,-4
8.95833,-4
8.96667,-4
8.97500,-4
8.98333,-4
8.99167,-4
9.00000,-4
9.00833,-4
9.01667,-4
9.02500,-3
9.03333,-4
9.04167,-4
9.05000,-4
9.05833,-3
9.06667,-4
9.07500,-4
9.08333,-3
9.09167,-3
9.10000,-3
9.10833,-3
9.11667,-3
9.12500,-4
9.13333,-4
9.14167,-4
9.15000,-4
9.15833,-4
9.16667,-4
9.17500,-4
9.18333,-4
9.19167,-3
9.20000,-3
9.20833,-3
9.21667,-3
9.22500,-3
9.23333,-3
9.24167,-4
9.25000,-4
9.25833,-4
9.26667,-4
9.27500,-4
9.28333,-4
9.29167,-4
9.30000,-3
9.30833,-4
9.31667,-4
9.32500,-4
9.33333,-5
9.34167,-5
9.35000,-5
9.35833,-4
9.36667,-4
9.37500,-4
9.38333,-4
9.39167,-5
9.40000,-5
9.40833,-4
9.41667,-4
9.42500,-4
9.43333,-4
9.44167,-5
9.45000,-5
9.45833,-5
9.46667,-5
9.47500,-5
9.48333,-5
9.49167,-5
9.50000,-5
9.50833,-5
9.51667,-5
9.52500,-5
9.53333,-4
9.54167,-4
9.55000,-4
9.55833,-4
9.56667,-3
9.57500,-3
9.58333,-3
9.59167,-3
9.60000,-3
9.60833,-3
9.61667,-3
9.62500,-3
9.63333,-3
9.64167,-3
9.65000,-3
9.65833,-3
9.66667,-3
9.67500,-4
9.68333,-4
9.69167,-4
9.70000,-3
9.70833,-3
9.71667,-3
9.72500,-3
9.73333,-3
9.74167,-3
9.75000,-3
9.75833,-3
9.76667,-3
9.77500,-3
9.78333,-3
9.79167,-3
9.80000,-3
9.80833,-3
9.81667,-3
9.82500,-3
9.83333,-4
9.84167,-3
9.85000,-3
9.85833,-3
9.86667,-3
9.87500,-3
9.88333,-3
9.89167,-3
9.90000,-3
9.90833,-3
9.91667,-3
9.92500,-3
9.93333,-4
9.94167,-4
9.95000,-4
9.95833,-4
9.96667,-4
9.97500,-3
9.98333,-3
9.99167,-3
10.00000,-3
10.00833,-3
10.01667,-3
10.02500,-4
10.03333,-4
10.04167,-4
10.05000,-4
10.05833,-4
10.06667,-3
10.07500,-3
10.08333,-3
10.09167,-3
10.10000,-2
10.10833,-3
10.11667,-3
10.12500,-3
10.13333,-3
10.14167,-3
10.15000,-3
10.15833,-3
10.16667,-3
10.17500,-3
10.18333,-3
10.19167,-3
10.20000,-2
10.20833,-2
10.21667,-2
10.22500,-2
10.23333,-2
10.24167,-2
10.25000,-2
10.25833,-2
10.26667,-1
10.27500,-1
10.28333,-1
10.29167,-2
10.30000,-2
10.30833,-2
10.31667,-2
10.32500,-2
10.33333,-2
10.34167,-2
10.35000,-1
10.35833,-1
10.36667,-1
10.37500,-1
10.38333,-1
10.39167,-0
10.40000,-0
10.40833,-0
10.41667,0
10.42500,0
10.43333,0
10.44167,0
10.45000,0
10.45833,0
10.46667,0
10.47500,0
10.48333,0
10.49167,-0
10.50000,-1
10.50833,-3
10.51667,-6
10.52500,-9
10.53333,-15
10.54167,-22
10.55000,-32
10.55833,-46
10.56667,-65
10.57500,-90
10.58333,-123
10.59167,-164
10.60000,-215
10.60833,-279
10.61667,-358
10.62500,-453
10.63333,-566
10.64167,-699
10.65000,-852
10.65833,-1025
10.66667,-1220
10.67500,-1433
10.68333,-1664
10.69167,-1910
10.70000,-2165
10.70833,-2425
10.71667,-2682
10.72500,-2928
10.73333,-3156
10.74167,-3354
10.75000,-3512
10.75833,-3621
10.76667,-3668
10.77500,-3644
10.78333,-3538
10.79167,-3340
10.80000,-3041
10.80833,-2634
10.81667,-2110
10.82500,-1466
10.83333,-696
10.84167,201
10.85000,1226
10.85833,2377
10.86667,3652
10.87500,5043
10.88333,6545
10.89167,8146
10.90000,9836
10.90833,11600
10.91667,13422
10.92500,15282
10.93333,17161
10.94167,19035
10.95000,20881
10.95833,22672
10.96667,24384
10.97500,25990
10.98333,27464
10.99167,28783
11.00000,29925
11.00833,30873
11.01667,31610
11.02500,32128
11.03333,32420
11.04167,32484
11.05000,32327
11.05833,31957
11.06667,31387
11.07500,30635
11.08333,29720
11.09167,28664
11.10000,27490
11.10833,26222
11.11667,24884
11.12500,23499
11.13333,22086
11.14167,20667
11.15000,19258
11.15833,17873
11.16667,16526
11.17500,15227
11.18333,13984
11.19167,12803
11.20000,11689
11.20833,10643
11.21667,9666
11.22500,8760
11.23333,7923
11.24167,7152
11.25000,6445
11.25833,5800
11.26667,5213
11.27500,4681
11.28333,4200
11.29167,3766
11.30000,3375
11.30833,3024
11.31667,2710
11.32500,2430
11.33333,2179
11.34167,1956
11.35000,1757
11.35833,1580
11.36667,1424
11.37500,1285
11.38333,1163
11.39167,1054
11.40000,957
11.40833,872
11.41667,796
11.42500,729
11.43333,670
11.44167,617
11.45000,570
11.45833,528
11.46667,490
11.47500,457
11.48333,427
11.49167,400
11.50000,377
11.50833,355
11.51667,335
11.52500,317
11.53333,300
11.54167,286
11.55000,272
11.55833,260
11.56667,249
11.57500,238
11.58333,228
11.59167,219
11.60000,211
11.60833,203
11.61667,196
11.62500,189
11.63333,183
11.64167,177
11.65000,171
11.65833,165
11.66667,161
11.67500,156
11.68333,151
11.69167,147
11.70000,143
11.70833,140
11.71667,136
11.72500,133
11.73333,129
11.74167,126
11.75000,123
11.75833,121
11.76667,118
11.77500,115
11.78333,113
11.79167,111
11.80000,109
11.80833,107
11.81667,105
11.82500,104
11.83333,102
11.84167,101
11.85000,100
11.85833,99
11.86667,97
11.87500,96
11.88333,95
11.89167,94
11.90000,93
11.90833,93
11.91667,92
11.92500,92
11.93333,91
11.94167,91
11.95000,90
11.95833,89
11.96667,88
11.97500,88
11.98333,88
11.99167,87
12.00000,87
12.00833,86
12.01667,85
12.02500,84
12.03333,83
12.04167,83
12.05000,82
12.05833,81
12.06667,80
12.07500,80
12.08333,80
12.09167,79
12.10000,78
12.10833,77
12.11667,76
12.12500,75
12.13333,74
12.14167,74
12.15000,73
12.15833,73
12.16667,72
12.17500,71
12.18333,70
12.19167,69
12.20000,68
12.20833,68
12.21667,67
12.22500,66
12.23333,66
12.24167,65
12.25000,65
12.25833,65
12.26667,64
12.27500,63
12.28333,63
12.29167,62
12.30000,62
12.30833,61
12.31667,61
12.32500,61
12.33333,60
12.34167,60
12.35000,60
12.35833,59
12.36667,59
12.37500,58
12.38333,58
12.39167,57
12.40000,57
12.40833,57
12.41667,56
12.42500,56
12.43333,56
12.44167,56
12.45000,55
12.45833,54
12.46667,54
12.47500,54
12.48333,54
12.49167,54
12.50000,54
12.50833,53
12.51667,53
12.52500,53
12.53333,53
12.54167,53
12.55000,52
12.55833,52
12.56667,51
12.57500,51
12.58333,50
12.59167,50
12.60000,50
12.60833,50
12.61667,49
12.62500,49
12.63333,48
12.64167,48
12.65000,48
12.65833,48
12.66667,49
12.67500,49
12.68333,49
12.69167,48
12.70000,48
12.70833,48
12.71667,48
12.72500,48
12.73333,48
12.74167,48
12.75000,48
12.75833,48
12.76667,48
12.77500,48
12.78333,48
12.79167,49
12.80000,49
12.80833,49
12.81667,50
12.82500,50
12.83333,51
12.84167,51
12.85000,52
12.85833,52
12.86667,53
12.87500,53
12.88333,54
12.89167,55
12.90000,56
12.90833,57
12.91667,58
12.92500,59
12.93333,60
12.94167,60
12.95000,61
12.95833,62
12.96667,63
12.97500,64
12.98333,64
12.99167,65
13.00000,66
13.00833,68
13.01667,69
13.02500,70
13.03333,70
13.04167,71
13.05000,72
13.05833,72
13.06667,73
13.07500,74
13.08333,74
13.09167,75
13.10000,75
13.10833,76
13.11667,76
13.12500,77
13.13333,77
13.14167,78
13.15000,78
13.15833,79
13.16667,79
13.17500,79
13.18333,79
13.19167,79
13.20000,79
13.20833,79
13.21667,79
13.22500,79
13.23333,79
13.24167,78
13.25000,78
13.25833,78
13.26667,77
13.27500,77
13.28333,76
13.29167,76
13.30000,75
13.30833,74
13.31667,73
13.32500,71
13.33333,71
13.34167,70
13.35000,69
13.35833,67
13.36667,66
13.37500,64
13.38333,63
13.39167,62
13.40000,61
13.40833,59
13.41667,57
13.42500,56
13.43333,54
13.44167,52
13.45000,51
13.45833,49
13.46667,48
13.47500,47
13.48333,45
13.49167,44
13.50000,43
13.50833,41
13.51667,40
13.52500,39
13.53333,37
13.54167,36
13.55000,35
13.55833,34
13.56667,33
13.57500,32
13.58333,31
13.59167,30
13.60000,30
13.60833,29
13.61667,28
13.62500,27
13.63333,26
13.64167,25
13.65000,24
13.65833,24
13.66667,23
13.67500,22
13.68333,22
13.69167,21
13.70000,20
13.70833,20
13.71667,19
13.72500,18
13.73333,18
13.74167,17
13.75000,17
13.75833,17
13.76667,17
13.77500,16
13.78333,16
13.79167,16
13.80000,15
13.80833,14
13.81667,14
13.82500,14
13.83333,14
13.84167,14
13.85000,14
13.85833,14
13.86667,14
13.87500,14
13.88333,14
13.89167,14
13.90000,14
13.90833,14
13.91667,15
13.92500,15
13.93333,15
13.94167,15
13.95000,15
13.95833,15
13.96667,15
13.97500,15
13.98333,15
13.99167,15
14.00000,16
14.00833,15
14.01667,15
14.02500,16
14.03333,16
14.04167,16
14.05000,17
14.05833,17
14.06667,18
14.07500,19
14.08333,19
14.09167,19
14.10000,19
14.10833,20
14.11667,21
14.12500,22
14.13333,23
14.14167,25
14.15000,26
14.15833,28
14.16667,30
14.17500,33
14.18333,36
14.19167,39
14.20000,44
14.20833,49
14.21667,56
14.22500,63
14.23333,72
14.24167,84
14.25000,97
14.25833,114
14.26667,133
14.27500,157
14.28333,185
14.29167,219
14.30000,259
14.30833,307
14.31667,364
14.32500,430
14.33333,507
14.34167,597
14.35000,700
14.35833,819
14.36667,955
14.37500,1110
14.38333,1284
14.39167,1479
14.40000,1698
14.40833,1942
14.41667,2211
14.42500,2508
14.43333,2833
14.44167,3188
14.45000,3573
14.45833,3990
14.46667,4439
14.47500,4921
14.48333,5436
14.49167,5985
14.50000,6568
14.50833,7184
14.51667,7833
14.52500,8517
14.53333,9233
14.54167,9982
14.55000,10764
14.55833,11578
14.56667,12423
14.57500,13299
14.58333,14205
14.59167,15140
14.60000,16104
14.60833,17096
14.61667,18116
14.62500,19162
14.63333,20235
14.64167,21332
14.65000,22453
14.65833,23598
14.66667,24765
14.67500,25954
14.68333,27164
14.69167,28394
14.70000,29644
14.70833,30914
14.71667,32201
14.72500,33506
14.73333,34826
14.74167,36163
14.75000,37513
14.75833,38877
14.76667,40254
14.77500,41641
14.78333,43039
14.79167,44445
14.80000,45859
14.80833,47278
14.81667,48700
14.82500,50123
14.83333,51545
14.84167,52961
14.85000,54369
14.85833,55764
14.86667,57138
14.87500,58485
14.88333,59795
14.89167,61054
14.90000,62249
14.90833,63361
14.91667,64367
14.92500,65243
14.93333,65960
14.94167,66488
14.95000,66797
14.95833,66856
14.96667,66638
14.97500,66121
14.98333,65290
14.99167,64136
15.00000,62661
15.00833,60876
15.01667,58803
15.02500,56470
15.03333,53915
15.04167,51178
15.05000,48308
15.05833,45349
15.06667,42349
15.07500,39353
15.08333,36399
15.09167,33524
15.10000,30757
15.10833,28121
15.11667,25634
15.12500,23307
15.13333,21147
15.14167,19158
15.15000,17340
15.15833,15687
15.16667,14195
15.17500,12856
15.18333,11663
15.19167,10607
15.20000,9680
15.20833,8875
15.21667,8184
15.22500,7601
15.23333,7121
15.24167,6740
15.25000,6453
15.25833,6259
15.26667,6157
15.27500,6146
15.28333,6229
15.29167,6405
15.30000,6679
15.30833,7052
15.31667,7528
15.32500,8112
15.33333,8806
15.34167,9617
15.35000,10548
15.35833,11603
15.36667,12785
15.37500,14099
15.38333,15544
15.39167,17124
15.40000,18837
15.40833,20684
15.41667,22661
15.42500,24763
15.43333,26986
15.44167,29322
15.45000,31762
15.45833,34296
15.46667,36911
15.47500,39592
15.48333,42325
15.49167,45093
15.50000,47876
15.50833,50657
15.51667,53416
15.52500,56133
15.53333,58787
15.54167,61359
15.55000,63827
15.55833,66172
15.56667,68377
15.57500,70423
15.58333,72295
15.59167,73978
15.60000,75460
15.60833,76731
15.61667,77781
15.62500,78604
15.63333,79196
15.64167,79555
15.65000,79681
15.65833,79576
15.66667,79245
15.67500,78695
15.68333,77934
15.69167,76971
15.70000,75817
15.70833,74485
15.71667,72989
15.72500,71342
15.73333,69561
15.74167,67659
15.75000,65652
15.75833,63557
15.76667,61389
15.77500,59162
15.78333,56893
15.79167,54594
15.80000,52279
15.80833,49961
15.81667,47651
15.82500,45360
15.83333,43099
15.84167,40876
15.85000,38699
15.85833,36575
15.86667,34510
15.87500,32510
15.88333,30578
15.89167,28719
15.90000,26934
15.90833,25225
15.91667,23594
15.92500,22041
15.93333,20566
15.94167,19169
15.95000,17848
15.95833,16602
15.96667,15428
15.97500,14326
15.98333,13292
15.99167,12325
16.00000,11422
16.00833,10579
16.01667,9794
16.02500,9064
16.03333,8386
16.04167,7758
16.05000,7175
16.05833,6637
16.06667,6140
16.07500,5681
16.08333,5259
16.09167,4869
16.10000,4511
16.10833,4182
16.11667,3880
16.12500,3602
16.13333,3347
16.14167,3113
16.15000,2898
16.15833,2702
16.16667,2522
16.17500,2358
16.18333,2207
16.19167,2068
16.20000,1941
16.20833,1825
16.21667,1719
16.22500,1621
16.23333,1531
16.24167,1450
16.25000,1374
16.25833,1305
16.26667,1242
16.27500,1183
16.28333,1129
16.29167,1079
16.30000,1033
16.30833,991
16.31667,952
16.32500,915
16.33333,882
16.34167,851
16.35000,822
16.35833,795
16.36667,770
16.37500,747
16.38333,725
16.39167,705
16.40000,686
16.40833,669
16.41667,653
16.42500,637
16.43333,623
16.44167,609
16.45000,596
16.45833,584
16.46667,573
16.47500,562
16.48333,551
16.49167,541
16.50000,532
16.50833,523
16.51667,515
16.52500,507
16.53333,500
16.54167,493
16.55000,486
16.55833,479
16.56667,472
16.57500,466
16.58333,461
16.59167,456
16.60000,451
16.60833,446
16.61667,441
16.62500,436
16.63333,432
16.64167,428
16.65000,424
16.65833,419
16.66667,415
16.67500,411
16.68333,407
16.69167,403
16.70000,399
16.70833,396
16.71667,392
16.72500,389
16.73333,386
16.74167,382
16.75000,379
16.75833,376
16.76667,372
16.77500,369
16.78333,366
16.79167,363
16.80000,360
16.80833,357
16.81667,354
16.82500,351
16.83333,348
16.84167,345
16.85000,342
16.85833,339
16.86667,337
16.87500,334
16.88333,331
16.89167,328
16.90000,326
16.90833,323
16.91667,321
16.92500,318
16.93333,316
16.94167,314
16.95000,311
16.95833,308
16.96667,306
16.97500,303
16.98333,301
16.99167,299
17.00000,296
17.00833,294
17.01667,292
17.02500,290
17.03333,287
17.04167,285
17.05000,283
17.05833,281
17.06667,279
17.07500,277
17.08333,274
17.09167,272
17.10000,270
17.10833,268
17.11667,266
17.12500,264
17.13333,262
17.14167,260
17.15000,258
17.15833,256
17.16667,254
17.17500,253
17.18333,251
17.19167,249
17.20000,247
17.20833,245
17.21667,243
17.22500,241
17.23333,239
17.24167,237
17.25000,236
17.25833,234
17.26667,233
17.27500,231
17.28333,230
17.29167,229
17.30000,227
17.30833,226
17.31667,224
17.32500,223
17.33333,221
17.34167,220
17.35000,219
17.35833,218
17.36667,217
17.37500,215
17.38333,214
17.39167,213
17.40000,212
17.40833,211
17.41667,210
17.42500,209
17.43333,207
17.44167,206
17.45000,205
17.45833,204
17.46667,203
17.47500,202
17.48333,200
17.49167,199
17.50000,198
17.50833,197
17.51667,196
17.52500,195
17.53333,194
17.54167,193
17.55000,192
17.55833,191
17.56667,190
17.57500,189
17.58333,189
17.59167,188
17.60000,187
17.60833,186
17.61667,185
17.62500,184
17.63333,183
17.64167,183
17.65000,182
17.65833,181
17.66667,180
17.67500,179
17.68333,178
17.69167,178
17.70000,177
17.70833,176
17.71667,175
17.72500,174
17.73333,173
17.74167,172
17.75000,172
17.75833,171
17.76667,170
17.77500,169
17.78333,168
17.79167,168
17.80000,167
17.80833,166
17.81667,166
17.82500,165
17.83333,164
17.84167,163
17.85000,162
17.85833,162
17.86667,161
17.87500,160
17.88333,159
17.89167,158
17.90000,157
17.90833,156
17.91667,155
17.92500,155
17.93333,155
17.94167,154
17.95000,153
17.95833,153
17.96667,152
17.97500,151
17.98333,150
17.99167,150
18.00000,149
18.00833,149
18.01667,148
18.02500,147
18.03333,147
18.04167,146
18.05000,145
18.05833,144
18.06667,143
18.07500,142
18.08333,141
18.09167,140
18.10000,140
18.10833,139
18.11667,138
18.12500,137
18.13333,137
18.14167,136
18.15000,135
18.15833,135
18.16667,134
18.17500,133
18.18333,133
18.19167,132
18.20000,131
18.20833,130
18.21667,130
18.22500,129
18.23333,128
18.24167,128
18.25000,127
18.25833,126
18.26667,125
18.27500,125
18.28333,124
18.29167,123
18.30000,123
18.30833,122
18.31667,121
18.32500,121
18.33333,120
18.34167,120
18.35000,119
18.35833,118
18.36667,117
18.37500,117
18.38333,116
18.39167,116
18.40000,115
18.40833,115
18.41667,115
18.42500,114
18.43333,114
18.44167,113
18.45000,112
18.45833,112
18.46667,111
18.47500,111
18.48333,110
18.49167,109
18.50000,108
18.50833,107
18.51667,107
18.52500,106
18.53333,106
18.54167,105
18.55000,105
18.55833,104
18.56667,104
18.57500,103
18.58333,103
18.59167,102
18.60000,101
18.60833,101
18.61667,100
18.62500,100
18.63333,99
18.64167,99
18.65000,98
18.65833,98
18.66667,97
18.67500,97
18.68333,97
18.69167,97
18.70000,97
18.70833,97
18.71667,97
18.72500,97
18.73333,97
18.74167,97
18.75000,97
18.75833,97
18.76667,97
18.77500,97
18.78333,97
18.79167,97
18.80000,97
18.80833,97
18.81667,98
18.82500,99
18.83333,99
18.84167,100
18.85000,100
18.85833,100
18.86667,101
18.87500,101
18.88333,102
18.89167,102
18.90000,103
18.90833,103
18.91667,104
18.92500,104
18.93333,104
18.94167,104
18.95000,104
18.95833,104
18.96667,104
18.97500,104
18.98333,104
18.99167,103
19.00000,103
19.00833,103
19.01667,103
19.02500,103
19.03333,103
19.04167,102
19.05000,101
19.05833,101
19.06667,100
19.07500,98
19.08333,97
19.09167,96
19.10000,95
19.10833,94
19.11667,92
19.12500,92
19.13333,90
19.14167,89
19.15000,88
19.15833,87
19.16667,86
19.17500,85
19.18333,84
19.19167,83
19.20000,82
19.20833,81
19.21667,80
19.22500,79
19.23333,78
19.24167,77
19.25000,76
19.25833,75
19.26667,74
19.27500,73
19.28333,72
19.29167,71
19.30000,70
19.30833,69
19.31667,68
19.32500,68
19.33333,67
19.34167,67
19.35000,66
19.35833,66
19.36667,65
19.37500,64
19.38333,63
19.39167,62
19.40000,61
19.40833,61
19.41667,60
19.42500,60
19.43333,60
19.44167,60
19.45000,59
19.45833,59
19.46667,58
19.47500,58
19.48333,57
19.49167,57
19.50000,56
19.50833,56
19.51667,56
19.52500,55
19.53333,55
19.54167,54
19.55000,54
19.55833,53
19.56667,53
19.57500,53
19.58333,52
19.59167,52
19.60000,52
19.60833,52
19.61667,51
19.62500,51
19.63333,51
19.64167,51
19.65000,50
19.65833,50
19.66667,50
19.67500,49
19.68333,49
19.69167,49
19.70000,48
19.70833,48
19.71667,48
19.72500,48
19.73333,47
19.74167,47
19.75000,47
19.75833,47
19.76667,47
19.77500,47
19.78333,47
19.79167,47
19.80000,47
19.80833,47
19.81667,46
19.82500,46
19.83333,46
19.84167,45
19.85000,45
19.85833,45
19.86667,45
19.87500,44
19.88333,44
19.89167,44
19.90000,44
19.90833,43
19.91667,43
19.92500,43
19.93333,42
19.94167,42
19.95000,42
19.95833,42
19.96667,42
19.97500,42
19.98333,42
19.99167,42
20.00000,41
20.00833,41
20.01667,41
20.02500,41
20.03333,40
20.04167,40
20.05000,40
20.05833,39
20.06667,39
20.07500,39
20.08333,39
20.09167,39
20.10000,39
20.10833,39
20.11667,39
20.12500,38
20.13333,37
20.14167,37
20.15000,37
20.15833,37
20.16667,36
20.17500,36
20.18333,37
20.19167,37
20.20000,37
20.20833,37
20.21667,36
20.22500,36
20.23333,36
20.24167,36
20.25000,36
20.25833,36
20.26667,35
20.27500,35
20.28333,35
20.29167,35
20.30000,34
20.30833,34
20.31667,33
20.32500,33
20.33333,33
20.34167,33
20.35000,33
20.35833,33
20.36667,33
20.37500,32
20.38333,32
20.39167,32
20.40000,32
20.40833,32
20.41667,32
20.42500,32
20.43333,32
20.44167,32
20.45000,32
20.45833,31
20.46667,31
20.47500,31
20.48333,31
20.49167,31
20.50000,31
20.50833,30
20.51667,30
20.52500,29
20.53333,29
20.54167,29
20.55000,29
20.55833,29
20.56667,29
20.57500,29
20.58333,29
20.59167,29
20.60000,29
20.60833,29
20.61667,29
20.62500,29
20.63333,29
20.64167,28
20.65000,28
20.65833,28
20.66667,28
20.67500,28
20.68333,28
20.69167,28
20.70000,27
20.70833,27
20.71667,27
20.72500,27
20.73333,27
20.74167,26
20.75000,26
20.75833,26
20.76667,26
20.77500,26
20.78333,26
20.79167,26
20.80000,26
20.80833,26
20.81667,26
20.82500,26
20.83333,25
20.84167,25
20.85000,25
20.85833,24
20.86667,24
20.87500,23
20.88333,23
20.89167,23
20.90000,23
20.90833,23
20.91667,23
20.92500,23
20.93333,24
20.94167,24
20.95000,24
20.95833,24
20.96667,24
20.97500,24
20.98333,24
20.99167,24
21.00000,24
21.00833,24
21.01667,23
21.02500,23
21.03333,22
21.04167,22
21.05000,23
21.05833,23
21.06667,23
21.07500,23
21.08333,22
21.09167,22
21.10000,22
21.10833,22
21.11667,22
21.12500,22
21.13333,22
21.14167,22
21.15000,21
21.15833,21
21.16667,22
21.17500,22
21.18333,22
21.19167,22
21.20000,22
21.20833,23
21.21667,23
21.22500,23
21.23333,23
21.24167,23
21.25000,23
21.25833,24
21.26667,24
21.27500,25
21.28333,25
21.29167,26
21.30000,26
21.30833,26
21.31667,27
21.32500,27
21.33333,28
21.34167,29
21.35000,31
21.35833,32
21.36667,34
21.37500,36
21.38333,38
21.39167,40
21.40000,42
21.40833,46
21.41667,49
21.42500,53
21.43333,58
21.44167,64
21.45000,70
21.45833,77
21.46667,84
21.47500,93
21.48333,103
21.49167,113
21.50000,125
21.50833,139
21.51667,155
21.52500,174
21.53333,194
21.54167,218
21.55000,244
21.55833,274
21.56667,307
21.57500,345
21.58333,387
21.59167,434
21.60000,488
21.60833,547
21.61667,615
21.62500,690
21.63333,773
21.64167,867
21.65000,970
21.65833,1085
21.66667,1213
21.67500,1354
21.68333,1509
21.69167,1679
21.70000,1866
21.70833,2070
21.71667,2293
21.72500,2535
21.73333,2798
21.74167,3081
21.75000,3386
21.75833,3713
21.76667,4064
21.77500,4437
21.78333,4835
21.79167,5256
21.80000,5701
21.80833,6168
21.81667,6659
21.82500,7171
21.83333,7703
21.84167,8255
21.85000,8824
21.85833,9410
21.86667,10010
21.87500,10621
21.88333,11241
21.89167,11868
21.90000,12498
21.90833,13128
21.91667,13756
21.92500,14378
21.93333,14991
21.94167,15591
21.95000,16174
21.95833,16737
21.96667,17277
21.97500,17791
21.98333,18275
21.99167,18726
22.00000,19141
22.00833,19519
22.01667,19857
22.02500,20152
22.03333,20403
22.04167,20608
22.05000,20767
22.05833,20879
22.06667,20943
22.07500,20959
22.08333,20927
22.09167,20849
22.10000,20725
22.10833,20556
22.11667,20345
22.12500,20092
22.13333,19800
22.14167,19472
22.15000,19108
22.15833,18712
22.16667,18288
22.17500,17837
22.18333,17362
22.19167,16868
22.20000,16356
22.20833,15829
22.21667,15290
22.22500,14742
22.23333,14188
22.24167,13630
22.25000,13071
22.25833,12514
22.26667,11960
22.27500,11412
22.28333,10871
22.29167,10339
22.30000,9818
22.30833,9308
22.31667,8812
22.32500,8330
22.33333,7863
22.34167,7412
22.35000,6978
22.35833,6561
22.36667,6161
22.37500,5779
22.38333,5414
22.39167,5067
22.40000,4737
22.40833,4424
22.41667,4127
22.42500,3847
22.43333,3584
22.44167,3336
22.45000,3103
22.45833,2884
22.46667,2679
22.47500,2488
22.48333,2309
22.49167,2142
22.50000,1987
22.50833,1842
22.51667,1708
22.52500,1584
22.53333,1469
22.54167,1362
22.55000,1264
22.55833,1173
22.56667,1089
22.57500,1012
22.58333,941
22.59167,875
22.60000,815
22.60833,759
22.61667,708
22.62500,661
22.63333,618
22.64167,578
22.65000,541
22.65833,508
22.66667,478
22.67500,449
22.68333,424
22.69167,400
22.70000,378
22.70833,358
22.71667,340
22.72500,323
22.73333,308
22.74167,293
22.75000,280
22.75833,268
22.76667,256
22.77500,246
22.78333,237
22.79167,228
22.80000,220
22.80833,213
22.81667,206
22.82500,199
22.83333,193
22.84167,187
22.85000,181
22.85833,176
22.86667,172
22.87500,167
22.88333,163
22.89167,160
22.90000,157
22.90833,153
22.91667,150
22.92500,147
22.93333,144
22.94167,141
22.95000,139
22.95833,137
22.96667,134
22.97500,132
22.98333,130
22.99167,128
23.00000,126
23.00833,125
23.01667,123
23.02500,121
23.03333,119
23.04167,118
23.05000,116
23.05833,114
23.06667,113
23.07500,112
23.08333,110
23.09167,109
23.10000,108
23.10833,107
23.11667,106
23.12500,105
23.13333,104
23.14167,102
23.15000,102
23.15833,101
23.16667,100
23.17500,98
23.18333,97
23.19167,97
23.20000,96
23.20833,95
23.21667,94
23.22500,93
23.23333,92
23.24167,91
23.25000,90
23.25833,89
23.26667,88
23.27500,88
23.28333,87
23.29167,86
23.30000,85
23.30833,85
23.31667,84
23.32500,83
23.33333,82
23.34167,82
23.35000,81
23.35833,80
23.36667,79
23.37500,78
23.38333,78
23.39167,77
23.40000,76
23.40833,76
23.41667,75
23.42500,74
23.43333,73
23.44167,73
23.45000,72
23.45833,72
23.46667,71
23.47500,71
23.48333,70
23.49167,70
23.50000,70
23.50833,69
23.51667,68
23.52500,68
23.53333,67
23.54167,66
23.55000,66
23.55833,66
23.56667,65
23.57500,65
23.58333,65
23.59167,64
23.60000,63
23.60833,63
23.61667,62
23.62500,62
23.63333,61
23.64167,61
23.65000,61
23.65833,60
23.66667,60
23.67500,60
23.68333,59
23.69167,59
23.70000,58
23.70833,58
23.71667,58
23.72500,58
23.73333,58
23.74167,57
23.75000,57
23.75833,56
23.76667,56
23.77500,55
23.78333,54
23.79167,54
23.80000,53
23.80833,53
23.81667,53
23.82500,53
23.83333,52
23.84167,52
23.85000,52
23.85833,52
23.86667,52
23.87500,52
23.88333,52
23.89167,52
23.90000,52
23.90833,51
23.91667,51
23.92500,51
23.93333,51
23.94167,50
23.95000,50
23.95833,50
23.96667,49
23.97500,49
23.98333,49
23.99167,48
24.00000,48
24.00833,48
24.01667,48
24.02500,48
24.03333,48
24.04167,47
24.05000,47
24.05833,47
24.06667,47
24.07500,47
24.08333,46
24.09167,46
24.10000,46
24.10833,46
24.11667,46
24.12500,46
24.13333,46
24.14167,46
24.15000,45
24.15833,44
24.16667,44
24.17500,44
24.18333,45
24.19167,45
24.20000,45
24.20833,45
24.21667,45
24.22500,45
24.23333,45
24.24167,45
24.25000,46
24.25833,46
24.26667,46
24.27500,47
24.28333,47
24.29167,48
24.30000,48
24.30833,49
24.31667,50
24.32500,52
24.33333,54
24.34167,56
24.35000,58
24.35833,60
24.36667,62
24.37500,65
24.38333,68
24.39167,71
24.40000,75
24.40833,79
24.41667,84
24.42500,89
24.43333,96
24.44167,102
24.45000,110
24.45833,119
24.46667,128
24.47500,139
24.48333,151
24.49167,164
24.50000,179
24.50833,196
24.51667,215
24.52500,235
24.53333,258
24.54167,284
24.55000,312
24.55833,343
24.56667,378
24.57500,415
24.58333,457
24.59167,503
24.60000,553
24.60833,608
24.61667,668
24.62500,733
24.63333,804
24.64167,881
24.65000,965
24.65833,1055
24.66667,1153
24.67500,1259
24.68333,1373
24.69167,1494
24.70000,1624
24.70833,1763
24.71667,1910
24.72500,2066
24.73333,2231
24.74167,2406
24.75000,2590
24.75833,2783
24.76667,2985
24.77500,3196
24.78333,3415
24.79167,3642
24.80000,3877
24.80833,4119
24.81667,4369
24.82500,4624
24.83333,4884
24.84167,5148
24.85000,5416
24.85833,5686
24.86667,5957
24.87500,6229
24.88333,6500
24.89167,6769
24.90000,7034
24.90833,7296
24.91667,7551
24.92500,7799
24.93333,8039
24.94167,8270
24.95000,8490
24.95833,8699
24.96667,8894
24.97500,9076
24.98333,9243
24.99167,9394
25.00000,9530
25.00833,9648
25.01667,9749
25.02500,9831
25.03333,9894
25.04167,9939
25.05000,9966
25.05833,9973
25.06667,9962
25.07500,9932
25.08333,9884
25.09167,9818
25.10000,9734
25.10833,9634
25.11667,9518
25.12500,9387
25.13333,9241
25.14167,9081
25.15000,8910
25.15833,8726
25.16667,8531
25.17500,8327
25.18333,8114
25.19167,7894
25.20000,7667
25.20833,7434
25.21667,7196
25.22500,6955
25.23333,6712
25.24167,6467
25.25000,6222
25.25833,5977
25.26667,5733
25.27500,5491
25.28333,5252
25.29167,5016
25.30000,4784
25.30833,4556
25.31667,4334
25.32500,4117
25.33333,3905
25.34167,3700
25.35000,3502
25.35833,3309
25.36667,3124
25.37500,2945
25.38333,2774
25.39167,2610
25.40000,2453
25.40833,2303
25.41667,2160
25.42500,2025
25.43333,1896
25.44167,1773
25.45000,1657
25.45833,1547
25.46667,1444
25.47500,1347
25.48333,1256
25.49167,1171
25.50000,1090
25.50833,1015
25.51667,945
25.52500,879
25.53333,818
25.54167,761
25.55000,708
25.55833,659
25.56667,613
25.57500,571
25.58333,532
25.59167,496
25.60000,462
25.60833,431
25.61667,402
25.62500,376
25.63333,351
25.64167,329
25.65000,309
25.65833,290
25.66667,273
25.67500,257
25.68333,242
25.69167,229
25.70000,216
25.70833,205
25.71667,195
25.72500,185
25.73333,176
25.74167,168
25.75000,160
25.75833,153
25.76667,146
25.77500,140
25.78333,134
25.79167,129
25.80000,125
25.80833,121
25.81667,117
25.82500,113
25.83333,110
25.84167,107
25.85000,104
25.85833,101
25.86667,99
25.87500,97
25.88333,95
25.89167,93
25.90000,91
25.90833,89
25.91667,87
25.92500,85
25.93333,83
25.94167,82
25.95000,81
25.95833,80
25.96667,78
25.97500,77
25.98333,76
25.99167,75
26.00000,73
26.00833,72
26.01667,72
26.02500,71
26.03333,70
26.04167,69
26.05000,68
26.05833,67
26.06667,66
26.07500,65
26.08333,64
26.09167,64
26.10000,63
26.10833,62
26.11667,62
26.12500,62
26.13333,61
26.14167,61
26.15000,60
26.15833,59
26.16667,59
26.17500,58
26.18333,58
26.19167,57
26.20000,57
26.20833,56
26.21667,56
26.22500,55
26.23333,55
26.24167,54
26.25000,54
26.25833,54
26.26667,53
26.27500,53
26.28333,53
26.29167,52
26.30000,51
26.30833,51
26.31667,50
26.32500,50
26.33333,50
26.34167,49
26.35000,49
26.35833,49
26.36667,49
26.37500,49
26.38333,48
26.39167,48
26.40000,47
26.40833,47
26.41667,47
26.42500,47
26.43333,46
26.44167,46
26.45000,46
26.45833,45
26.46667,45
26.47500,45
26.48333,45
26.49167,45
26.50000,45
26.50833,45
26.51667,45
26.52500,45
26.53333,45
26.54167,45
26.55000,44
26.55833,44
26.56667,44
26.57500,44
26.58333,44
26.59167,44
26.60000,44
26.60833,44
26.61667,44
26.62500,43
26.63333,43
26.64167,43
26.65000,43
26.65833,43
26.66667,43
26.67500,43
26.68333,42
26.69167,42
26.70000,42
26.70833,43
26.71667,42
26.72500,42
26.73333,42
26.74167,42
26.75000,41
26.75833,41
26.76667,41
26.77500,41
26.78333,41
26.79167,41
26.80000,41
26.80833,41
26.81667,41
26.82500,41
26.83333,41
26.84167,41
26.85000,41
26.85833,41
26.86667,41
26.87500,41
26.88333,40
26.89167,40
26.90000,40
26.90833,40
26.91667,39
26.92500,39
26.93333,39
26.94167,39
26.95000,38
26.95833,38
26.96667,39
26.97500,39
26.98333,39
26.99167,38
27.00000,38
27.00833,37
27.01667,37
27.02500,36
27.03333,36
27.04167,36
27.05000,36
27.05833,36
27.06667,36
27.07500,36
27.08333,36
27.09167,36
27.10000,35
27.10833,35
27.11667,35
27.12500,35
27.13333,35
27.14167,34
27.15000,34
27.15833,34
27.16667,33
27.17500,32
27.18333,32
27.19167,31
27.20000,31
27.20833,31
27.21667,31
27.22500,31
27.23333,31
27.24167,32
27.25000,32
27.25833,32
27.26667,32
27.27500,32
27.28333,31
27.29167,31
27.30000,31
27.30833,30
27.31667,30
27.32500,29
27.33333,29
27.34167,29
27.35000,29
27.35833,29
27.36667,29
27.37500,29
27.38333,30
27.39167,30
27.40000,29
27.40833,29
27.41667,29
27.42500,29
27.43333,29
27.44167,29
27.45000,29
27.45833,29
27.46667,28
27.47500,28
27.48333,28
27.49167,29
27.50000,28
27.50833,28
27.51667,28
27.52500,27
27.53333,27
27.54167,27
27.55000,27
27.55833,28
27.56667,28
27.57500,28
27.58333,28
27.59167,28
27.60000,28
27.60833,27
27.61667,26
27.62500,26
27.63333,26
27.64167,26
27.65000,26
27.65833,26
27.66667,26
27.67500,26
27.68333,26
27.69167,26
27.70000,26
27.70833,26
27.71667,26
27.72500,25
27.73333,24
27.74167,24
27.75000,24
27.75833,24
27.76667,24
27.77500,23
27.78333,23
27.79167,23
27.80000,23
27.80833,23
27.81667,22
27.82500,22
27.83333,21
27.84167,21
27.85000,20
27.85833,19
27.86667,19
27.87500,18
27.88333,17
27.89167,16
27.90000,15
27.90833,14
27.91667,13
27.92500,12
27.93333,11
27.94167,10
27.95000,9
27.95833,8
27.96667,6
27.97500,5
27.98333,4
27.99167,2
28.00000,1
28.00833,-0
28.01667,-2
28.02500,-4
28.03333,-6
28.04167,-9
28.05000,-11
28.05833,-13
28.06667,-16
28.07500,-18
28.08333,-21
28.09167,-23
28.10000,-26
28.10833,-28
28.11667,-31
28.12500,-34
28.13333,-36
28.14167,-39
28.15000,-42
28.15833,-45
28.16667,-48
28.17500,-51
28.18333,-54
28.19167,-58
28.20000,-61
28.20833,-64
28.21667,-67
28.22500,-70
28.23333,-74
28.24167,-77
28.25000,-80
28.25833,-83
28.26667,-86
28.27500,-89
28.28333,-92
28.29167,-95
28.30000,-98
28.30833,-101
28.31667,-104
28.32500,-106
28.33333,-109
28.34167,-111
28.35000,-113
28.35833,-115
28.36667,-117
28.37500,-119
28.38333,-120
28.39167,-122
28.40000,-123
28.40833,-124
28.41667,-125
28.42500,-126
28.43333,-127
28.44167,-127
28.45000,-128
28.45833,-128
28.46667,-128
28.47500,-128
28.48333,-127
28.49167,-127
28.50000,-126
28.50833,-125
28.51667,-125
28.52500,-123
28.53333,-122
28.54167,-121
28.55000,-119
28.55833,-118
28.56667,-116
28.57500,-114
28.58333,-112
28.59167,-110
28.60000,-108
28.60833,-106
28.61667,-104
28.62500,-101
28.63333,-98
28.64167,-96
28.65000,-93
28.65833,-91
28.66667,-88
28.67500,-86
28.68333,-83
28.69167,-80
28.70000,-78
28.70833,-76
28.71667,-73
28.72500,-70
28.73333,-67
28.74167,-65
28.75000,-62
28.75833,-59
28.76667,-57
28.77500,-55
28.78333,-52
28.79167,-50
28.80000,-48
28.80833,-45
28.81667,-43
28.82500,-41
28.83333,-39
28.84167,-36
28.85000,-34
28.85833,-32
28.86667,-30
28.87500,-28
28.88333,-26
28.89167,-24
28.90000,-23
28.90833,-21
28.91667,-19
28.92500,-18
28.93333,-16
28.94167,-15
28.95000,-13
28.95833,-12
28.96667,-11
28.97500,-10
28.98333,-9
28.99167,-8
29.00000,-7
29.00833,-6
29.01667,-5
29.02500,-4
29.03333,-3
29.04167,-2
29.05000,-2
29.05833,-1
29.06667,-1
29.07500,-1
29.08333,-0
29.09167,0
29.10000,1
29.10833,2
29.11667,2
29.12500,3
29.13333,3
29.14167,3
29.15000,4
29.15833,4
29.16667,5
29.17500,5
29.18333,5
29.19167,6
29.20000,6
29.20833,7
29.21667,7
29.22500,7
29.23333,7
29.24167,8
29.25000,8
29.25833,8
29.26667,8
29.27500,8
29.28333,9
29.29167,9
29.30000,9
29.30833,9
29.31667,9
29.32500,10
29.33333,10
29.34167,10
29.35000,10
29.35833,10
29.36667,10
29.37500,9
29.38333,9
29.39167,9
29.40000,9
29.40833,9
29.41667,10
29.42500,10
29.43333,10
29.44167,10
29.45000,10
29.45833,10
29.46667,10
29.47500,9
29.48333,9
29.49167,9
29.50000,9
29.50833,9
29.51667,9
29.52500,10
29.53333,10
29.54167,9
29.55000,9
29.55833,9
29.56667,9
29.57500,8
29.58333,8
29.59167,8
29.60000,7
29.60833,7
29.61667,6
29.62500,6
29.63333,5
29.64167,5
29.65000,5
29.65833,4
29.66667,4
29.67500,3
29.68333,2
29.69167,2
29.70000,1
29.70833,1
29.71667,0
29.72500,0
29.73333,-0
29.74167,-1
29.75000,-2
29.75833,-3
29.76667,-3
29.77500,-4
29.78333,-5
29.79167,-6
29.80000,-7
29.80833,-8
29.81667,-9
29.82500,-10
29.83333,-11
29.84167,-12
29.85000,-13
29.85833,-14
29.86667,-15
29.87500,-16
29.88333,-17
29.89167,-18
29.90000,-19
29.90833,-20
29.91667,-21
29.92500,-22
29.93333,-24
29.94167,-25
29.95000,-26
29.95833,-27
29.96667,-28
29.97500,-29
29.98333,-30
29.99167,-31
30.00000,-32
30.00833,-33
30.01667,-35
30.02500,-36
30.03333,-37
30.04167,-39
30.05000,-39
30.05833,-40
30.06667,-40
30.07500,-41
30.08333,-42
30.09167,-42
30.10000,-43
30.10833,-44
30.11667,-44
30.12500,-45
30.13333,-45
30.14167,-46
30.15000,-46
30.15833,-47
30.16667,-48
30.17500,-48
30.18333,-49
30.19167,-49
30.20000,-49
30.20833,-49
30.21667,-49
30.22500,-49
30.23333,-49
30.24167,-49
30.25000,-48
30.25833,-47
30.26667,-47
30.27500,-46
30.28333,-45
30.29167,-45
30.30000,-45
30.30833,-45
30.31667,-44
30.32500,-43
30.33333,-42
30.34167,-42
30.35000,-41
30.35833,-41
30.36667,-40
30.37500,-40
30.38333,-39
30.39167,-38
30.40000,-37
30.40833,-36
30.41667,-35
30.42500,-34
30.43333,-34
30.44167,-33
30.45000,-32
30.45833,-31
30.46667,-30
30.47500,-29
30.48333,-28
30.49167,-27
30.50000,-26
30.50833,-24
30.51667,-23
30.52500,-22
30.53333,-21
30.54167,-20
30.55000,-20
30.55833,-19
30.56667,-18
30.57500,-18
30.58333,-17
30.59167,-16
30.60000,-16
30.60833,-15
30.61667,-14
30.62500,-14
30.63333,-13
30.64167,-12
30.65000,-11
30.65833,-11
30.66667,-10
30.67500,-9
30.68333,-9
30.69167,-8
30.70000,-8
30.70833,-8
30.71667,-7
30.72500,-7
30.73333,-6
30.74167,-6
30.75000,-5
30.75833,-5
30.76667,-5
30.77500,-4
30.78333,-4
30.79167,-3
30.80000,-3
30.80833,-2
30.81667,-2
30.82500,-2
30.83333,-2
30.84167,-1
30.85000,-1
30.85833,-1
30.86667,-0
30.87500,-1
30.88333,-1
30.89167,-1
30.90000,-0
30.90833,-0
30.91667,-0
30.92500,-0
30.93333,0
30.94167,-0
30.95000,-0
30.95833,-0
30.96667,-0
30.97500,-0
30.98333,-0
30.99167,-0
31.00000,0
31.00833,1
31.01667,1
31.02500,0
31.03333,0
31.04167,0
31.05000,1
31.05833,1
31.06667,1
31.07500,1
31.08333,1
31.09167,1
31.10000,1
31.10833,1
31.11667,1
31.12500,1
31.13333,2
31.14167,2
31.15000,2
31.15833,2
31.16667,2
31.17500,2
31.18333,2
31.19167,2
31.20000,2
31.20833,2
31.21667,2
31.22500,2
31.23333,3
31.24167,3
31.25000,3
31.25833,3
31.26667,3
31.27500,3
31.28333,2
31.29167,3
31.30000,3
31.30833,3
31.31667,3
31.32500,3
31.33333,4
31.34167,5
31.35000,5
31.35833,5
31.36667,5
31.37500,5
31.38333,4
31.39167,4
31.40000,4
31.40833,5
31.41667,5
31.42500,4
31.43333,4
31.44167,5
31.45000,5
31.45833,5
31.46667,5
31.47500,5
31.48333,4
31.49167,4
31.50000,4
31.50833,5
31.51667,5
31.52500,5
31.53333,5
31.54167,6
31.55000,6
31.55833,6
31.56667,6
31.57500,6
31.58333,6
31.59167,5
31.60000,5
31.60833,5
31.61667,5
31.62500,5
31.63333,5
31.64167,5
31.65000,5
31.65833,5
31.66667,5
31.67500,5
31.68333,5
31.69167,5
31.70000,5
31.70833,5
31.71667,5
31.72500,5
31.73333,5
31.74167,5
31.75000,6
31.75833,6
31.76667,6
31.77500,6
31.78333,6
31.79167,6
31.80000,6
31.80833,6
31.81667,6
31.82500,6
31.83333,6
31.84167,6
31.85000,6
31.85833,6
31.86667,6
31.87500,6
31.88333,6
31.89167,6
31.90000,6
31.90833,5
31.91667,5
31.92500,6
31.93333,6
31.94167,6
31.95000,6
31.95833,6
31.96667,6
31.97500,6
31.98333,6
31.99167,6
32.00000,6
32.00833,6
32.01667,6
32.02500,6
32.03333,6
32.04167,6
32.05000,6
32.05833,6
32.06667,6
32.07500,6
32.08333,7
32.09167,7
32.10000,7
32.10833,6
32.11667,6
32.12500,6
32.13333,6
32.14167,5
32.15000,5
32.15833,5
32.16667,5
32.17500,5
32.18333,5
32.19167,5
32.20000,5
32.20833,5
32.21667,5
32.22500,5
32.23333,5
32.24167,5
32.25000,5
32.25833,5
32.26667,6
32.27500,6
32.28333,6
32.29167,6
32.30000,6
32.30833,5
32.31667,5
32.32500,5
32.33333,5
32.34167,5
32.35000,5
32.35833,5
32.36667,5
32.37500,5
32.38333,5
32.39167,5
32.40000,5
32.40833,5
32.41667,5
32.42500,5
32.43333,5
32.44167,5
32.45000,5
32.45833,5
32.46667,5
32.47500,5
32.48333,5
32.49167,6
32.50000,6
32.50833,6
32.51667,6
32.52500,5
32.53333,5
32.54167,5
32.55000,5
32.55833,5
32.56667,5
32.57500,5
32.58333,5
32.59167,5
32.60000,5
32.60833,5
32.61667,5
32.62500,5
32.63333,5
32.64167,5
32.65000,5
32.65833,5
32.66667,5
32.67500,5
32.68333,5
32.69167,5
32.70000,4
32.70833,4
32.71667,5
32.72500,5
32.73333,5
32.74167,5
32.75000,5
32.75833,4
32.76667,4
32.77500,4
32.78333,4
32.79167,4
32.80000,4
32.80833,4
32.81667,4
32.82500,4
32.83333,4
32.84167,4
32.85000,4
32.85833,4
32.86667,5
32.87500,5
32.88333,5
32.89167,5
32.90000,5
32.90833,5
32.91667,5
32.92500,5
32.93333,5
32.94167,4
32.95000,5
32.95833,4
32.96667,4
32.97500,4
32.98333,4
32.99167,4
33.00000,4
33.00833,4
33.01667,4
33.02500,4
33.03333,4
33.04167,4
33.05000,4
33.05833,4
33.06667,4
33.07500,4
33.08333,4
33.09167,4
33.10000,4
33.10833,4
33.11667,4
33.12500,4
33.13333,4
33.14167,4
33.15000,4
33.15833,4
33.16667,4
33.17500,3
33.18333,4
33.19167,4
33.20000,4
33.20833,4
33.21667,4
33.22500,4
33.23333,4
33.24167,4
33.25000,3
33.25833,3
33.26667,3
33.27500,3
33.28333,3
33.29167,3
33.30000,3
33.30833,3
33.31667,3
33.32500,3
33.33333,3
33.34167,3
33.35000,3
33.35833,3
33.36667,3
33.37500,3
33.38333,3
33.39167,3
33.40000,3
33.40833,3
33.41667,3
33.42500,3
33.43333,3
33.44167,3
33.45000,3
33.45833,3
33.46667,3
33.47500,3
33.48333,3
33.49167,3
33.50000,3
33.50833,3
33.51667,3
33.52500,3
33.53333,3
33.54167,3
33.55000,4
33.55833,4
33.56667,4
33.57500,4
33.58333,4
33.59167,4
33.60000,4
33.60833,4
33.61667,4
33.62500,3
33.63333,4
33.64167,4
33.65000,3
33.65833,4
33.66667,4
33.67500,3
33.68333,3
33.69167,3
33.70000,4
33.70833,3
33.71667,3
33.72500,4
33.73333,4
33.74167,4
33.75000,4
33.75833,4
33.76667,3
33.77500,3
33.78333,3
33.79167,3
33.80000,3
33.80833,3
33.81667,3
33.82500,3
33.83333,3
33.84167,2
33.85000,2
33.85833,2
33.86667,2
33.87500,2
33.88333,2
33.89167,2
33.90000,2
33.90833,2
33.91667,2
33.92500,3
33.93333,2
33.94167,2
33.95000,2
33.95833,2
33.96667,2
33.97500,3
33.98333,3
33.99167,3
34.00000,2
34.00833,2
34.01667,2
34.02500,2
34.03333,2
34.04167,2
34.05000,3
34.05833,3
34.06667,3
34.07500,3
34.08333,3
34.09167,3
34.10000,3
34.10833,3
34.11667,3
34.12500,3
34.13333,3
34.14167,3
34.15000,3
34.15833,3
34.16667,3
34.17500,3
34.18333,3
34.19167,3
34.20000,3
34.20833,2
34.21667,2
34.22500,2
34.23333,2
34.24167,2
34.25000,2
34.25833,2
34.26667,2
34.27500,2
34.28333,2
34.29167,3
34.30000,3
34.30833,3
34.31667,3
34.32500,3
34.33333,4
34.34167,4
34.35000,3
34.35833,3
34.36667,2
34.37500,2
34.38333,3
34.39167,3
34.40000,3
34.40833,3
34.41667,3
34.42500,3
34.43333,3
34.44167,3
34.45000,3
34.45833,2
34.46667,2
34.47500,2
34.48333,2
34.49167,2
34.50000,2
34.50833,2
34.51667,2
34.52500,2
34.53333,2
34.54167,2
34.55000,2
34.55833,3
34.56667,3
34.57500,3
34.58333,3
34.59167,2
34.60000,2
34.60833,3
34.61667,3
34.62500,3
34.63333,3
34.64167,2
34.65000,2
34.65833,2
34.66667,1
34.67500,1
34.68333,1
34.69167,1
34.70000,2
34.70833,2
34.71667,2
34.72500,2
34.73333,2
34.74167,2
34.75000,2
34.75833,2
34.76667,3
34.77500,3
34.78333,3
34.79167,3
34.80000,2
34.80833,2
34.81667,2
34.82500,2
34.83333,2
34.84167,2
34.85000,2
34.85833,2
34.86667,2
34.87500,2
34.88333,2
34.89167,2
34.90000,2
34.90833,2
34.91667,2
34.92500,2
34.93333,2
34.94167,2
34.95000,1
34.95833,1
34.96667,2
34.97500,2
34.98333,2
34.99167,2
35.00000,2
35.00833,2
35.01667,2
35.02500,2
35.03333,2
35.04167,2
35.05000,2
35.05833,2
35.06667,2
35.07500,2
35.08333,2
35.09167,2
35.10000,2
35.10833,1
35.11667,1
35.12500,1
35.13333,2
35.14167,2
35.15000,2
35.15833,2
35.16667,1
35.17500,1
35.18333,1
35.19167,1
35.20000,1
35.20833,2
35.21667,2
35.22500,2
35.23333,2
35.24167,1
35.25000,2
35.25833,2
35.26667,2
35.27500,2
35.28333,1
35.29167,2
35.30000,2
35.30833,2
35.31667,2
35.32500,1
35.33333,1
35.34167,1
35.35000,1
35.35833,1
35.36667,1
35.37500,1
35.38333,1
35.39167,1
35.40000,1
35.40833,1
35.41667,1
35.42500,1
35.43333,1
35.44167,1
35.45000,1
35.45833,1
35.46667,1
35.47500,2
35.48333,2
35.49167,2
35.50000,2
35.50833,2
35.51667,1
35.52500,1
35.53333,1
35.54167,1
35.55000,1
35.55833,1
35.56667,1
35.57500,1
35.58333,1
35.59167,1
35.60000,1
35.60833,2
35.61667,2
35.62500,2
35.63333,2
35.64167,2
35.65000,2
35.65833,1
35.66667,1
35.67500,1
35.68333,1
35.69167,1
35.70000,1
35.70833,0
35.71667,0
35.72500,0
35.73333,0
35.74167,0
35.75000,0
35.75833,1
35.76667,1
35.77500,1
35.78333,1
35.79167,1
35.80000,1
35.80833,1
35.81667,1
35.82500,1
35.83333,1
35.84167,1
35.85000,1
35.85833,1
35.86667,1
35.87500,1
35.88333,1
35.89167,1
35.90000,1
35.90833,1
35.91667,1
35.92500,1
35.93333,1
35.94167,1
35.95000,1
35.95833,1
35.96667,1
35.97500,1
35.98333,1
35.99167,0
36.00000,1
36.00833,1
36.01667,1
36.02500,1
36.03333,1
36.04167,2
36.05000,2
36.05833,2
36.06667,2
36.07500,1
36.08333,1
36.09167,1
36.10000,0
36.10833,1
36.11667,1
36.12500,0
36.13333,0
36.14167,-0
36.15000,-0
36.15833,0
36.16667,0
36.17500,0
36.18333,0
36.19167,0
36.20000,0
36.20833,0
36.21667,0
36.22500,-0
36.23333,-0
36.24167,-0
36.25000,-0
36.25833,-1
36.26667,-1
36.27500,-1
36.28333,-0
36.29167,-0
36.30000,0
36.30833,0
36.31667,0
36.32500,-0
36.33333,0
36.34167,0
36.35000,0
36.35833,0
36.36667,-0
36.37500,-0
36.38333,-1
36.39167,-0
36.40000,-0
36.40833,-0
36.41667,-0
36.42500,0
36.43333,0
36.44167,0
36.45000,-0
36.45833,-0
36.46667,0
36.47500,0
36.48333,1
36.49167,1
36.50000,1
36.50833,1
36.51667,1
36.52500,1
36.53333,0
36.54167,0
36.55000,0
36.55833,0
36.56667,0
36.57500,0
36.58333,1
36.59167,1
36.60000,0
36.60833,0
36.61667,-0
36.62500,-0
36.63333,-0
36.64167,0
36.65000,0
36.65833,1
36.66667,1
36.67500,1
36.68333,1
36.69167,2
36.70000,2
36.70833,3
36.71667,3
36.72500,3
36.73333,3
36.74167,3
36.75000,3
36.75833,2
36.76667,2
36.77500,2
36.78333,2
36.79167,2
36.80000,1
36.80833,1
36.81667,1
36.82500,1
36.83333,1
36.84167,0
36.85000,0
36.85833,0
36.86667,1
36.87500,1
36.88333,1
36.89167,2
36.90000,2
36.90833,2
36.91667,1
36.92500,1
36.93333,2
36.94167,2
36.95000,2
36.95833,2
36.96667,2
36.97500,2
36.98333,2
36.99167,2
37.00000,1
37.00833,1
37.01667,1
37.02500,1
37.03333,1
37.04167,1
37.05000,1
37.05833,2
37.06667,2
37.07500,2
37.08333,2
37.09167,2
37.10000,1
37.10833,1
37.11667,1
37.12500,2
37.13333,2
37.14167,1
37.15000,1
37.15833,2
37.16667,2
37.17500,2
37.18333,1
37.19167,2
37.20000,2
37.20833,2
37.21667,2
37.22500,2
37.23333,2
37.24167,1
37.25000,1
37.25833,1
37.26667,1
37.27500,1
37.28333,2
37.29167,2
37.30000,2
37.30833,2
37.31667,1
37.32500,1
37.33333,1
37.34167,1
37.35000,1
37.35833,1
37.36667,2
37.37500,2
37.38333,2
37.39167,2
37.40000,2
37.40833,2
37.41667,1
37.42500,1
37.43333,1
37.44167,1
37.45000,1
37.45833,1
37.46667,1
37.47500,2
37.48333,1
37.49167,1
37.50000,1
37.50833,1
37.51667,1
37.52500,0
37.53333,1
37.54167,1
37.55000,1
37.55833,2
37.56667,2
37.57500,1
37.58333,1
37.59167,1
37.60000,2
37.60833,2
37.61667,2
37.62500,1
37.63333,1
37.64167,1
37.65000,1
37.65833,2
37.66667,1
37.67500,2
37.68333,2
37.69167,2
37.70000,2
37.70833,2
37.71667,1
37.72500,1
37.73333,1
37.74167,1
37.75000,1
37.75833,0
37.76667,-0
37.77500,-0
37.78333,0
37.79167,0
37.80000,1
37.80833,1
37.81667,1
37.82500,1
37.83333,1
37.84167,1
37.85000,1
37.85833,1
37.86667,1
37.87500,1
37.88333,1
37.89167,1
37.90000,1
37.90833,1
37.91667,1
37.92500,1
37.93333,2
37.94167,2
37.95000,2
37.95833,2
37.96667,1
37.97500,1
37.98333,1
37.99167,1
38.00000,1
38.00833,1
38.01667,1
38.02500,1
38.03333,1
38.04167,1
38.05000,2
38.05833,2
38.06667,1
38.07500,2
38.08333,2
38.09167,2
38.10000,2
38.10833,2
38.11667,3
38.12500,3
38.13333,3
38.14167,3
38.15000,3
38.15833,3
38.16667,3
38.17500,3
38.18333,3
38.19167,3
38.20000,3
38.20833,3
38.21667,3
38.22500,3
38.23333,3
38.24167,3
38.25000,3
38.25833,3
38.26667,3
38.27500,4
38.28333,4
38.29167,4
38.30000,4
38.30833,4
38.31667,4
38.32500,4
38.33333,4
38.34167,4
38.35000,4
38.35833,4
38.36667,3
38.37500,3
38.38333,3
38.39167,3
38.40000,3
38.40833,3
38.41667,3
38.42500,3
38.43333,2
38.44167,2
38.45000,3
38.45833,3
38.46667,3
38.47500,3
38.48333,4
38.49167,3
38.50000,3
38.50833,4
38.51667,4
38.52500,4
38.53333,4
38.54167,4
38.55000,4
38.55833,4
38.56667,4
38.57500,4
38.58333,4
38.59167,4
38.60000,3
38.60833,3
38.61667,3
38.62500,3
38.63333,3
38.64167,3
38.65000,3
38.65833,3
38.66667,3
38.67500,3
38.68333,3
38.69167,2
38.70000,2
38.70833,2
38.71667,2
38.72500,2
38.73333,2
38.74167,2
38.75000,3
38.75833,3
38.76667,3
38.77500,2
38.78333,2
38.79167,2
38.80000,2
38.80833,2
38.81667,2
38.82500,2
38.83333,2
38.84167,1
38.85000,1
38.85833,1
38.86667,0
38.87500,0
38.88333,-0
38.89167,-0
38.90000,-0
38.90833,0
38.91667,1
38.92500,1
38.93333,1
38.94167,1
38.95000,1
38.95833,1
38.96667,1
38.97500,0
38.98333,0
38.99167,0
39.00000,0
39.00833,0
39.01667,0
39.02500,0
39.03333,0
39.04167,-0
39.05000,-0
39.05833,0
39.06667,0
39.07500,0
39.08333,0
39.09167,0
39.10000,0
39.10833,0
39.11667,0
39.12500,-0
39.13333,-0
39.14167,-0
39.15000,0
39.15833,0
39.16667,0
39.17500,0
39.18333,0
39.19167,0
39.20000,0
39.20833,0
39.21667,0
39.22500,-0
39.23333,-0
39.24167,-0
39.25000,-0
39.25833,-0
39.26667,-0
39.27500,-1
39.28333,-1
39.29167,-1
39.30000,-1
39.30833,-1
39.31667,-1
39.32500,-0
39.33333,0
39.34167,0
39.35000,0
39.35833,-0
39.36667,-0
39.37500,-0
39.38333,-0
39.39167,-0
39.40000,-0
39.40833,-0
39.41667,-0
39.42500,0
39.43333,0
39.44167,0
39.45000,-0
39.45833,-0
39.46667,-1
39.47500,-1
39.48333,-1
39.49167,-1
39.50000,-1
39.50833,-1
39.51667,-0
39.52500,-0
39.53333,-0
39.54167,-1
39.55000,-1
39.55833,-1
39.56667,-1
39.57500,-1
39.58333,-1
39.59167,-1
39.60000,-1
39.60833,-1
39.61667,-1
39.62500,-1
39.63333,-1
39.64167,-1
39.65000,-1
39.65833,-1
39.66667,-0
39.67500,-0
39.68333,-0
39.69167,-0
39.70000,-0
39.70833,-0
39.71667,-0
39.72500,-0
39.73333,-0
39.74167,0
39.75000,0
39.75833,0
39.76667,0
39.77500,0
39.78333,0
39.79167,0
39.80000,0
39.80833,0
39.81667,0
39.82500,0
39.83333,0
39.84167,-0
39.85000,-0
39.85833,0
39.86667,0
39.87500,0
39.88333,1
39.89167,1
39.90000,1
39.90833,1
39.91667,1
39.92500,1
39.93333,1
39.94167,0
39.95000,0
39.95833,0
39.96667,0
39.97500,0
39.98333,0
39.99167,0
40.00000,0

