[Header]
Application Name,LabSolutions
Version,5.97 SP1
Data File Name,C:\Users\cremerlab\Desktop\griffin\2021-03-31_NC_glucose_glycerol_acetate_calibration\calibration_batch_422021_006_006.lcd
Output Date,4/2/2021
Output Time,11:44:30 PM

[File Information]
Type,Data File
Generated,4/2/2021 11:04:12 PM
Generated by,System Administrator
Modified,4/2/2021 11:44:30 PM
Modified by,System Administrator

[Sample Information]
Operator Name,System Administrator
Acquired,4/2/2021 11:04:30 PM
Sample Type,1:Standard
Level,6
Sample Name,2021-04-02_NC_glucose_glycerol_acetate_calibration_10mM
Sample ID,006
ISTD Amount1,1
ISTD Amount2,1
ISTD Amount3,1
ISTD Amount4,1
ISTD Amount5,1
ISTD Amount6,1
ISTD Amount7,1
ISTD Amount8,1
ISTD Amount9,1
ISTD Amount10,1
ISTD Amount11,1
ISTD Amount12,1
ISTD Amount13,1
ISTD Amount14,1
ISTD Amount15,1
ISTD Amount16,1
ISTD Amount17,1
ISTD Amount18,1
ISTD Amount19,1
ISTD Amount20,1
ISTD Amount21,1
ISTD Amount22,1
ISTD Amount23,1
ISTD Amount24,1
ISTD Amount25,1
ISTD Amount26,1
ISTD Amount27,1
ISTD Amount28,1
ISTD Amount29,1
ISTD Amount30,1
ISTD Amount31,1
ISTD Amount32,1
Sample Amount,1
Dilution Factor,1
Vial#,6
Injection Volume,20

[Original Files]
Data File,C:\Users\cremerlab\Desktop\griffin\2021-03-31_NC_glucose_glycerol_acetate_calibration\calibration_batch_422021_006_006.lcd
Method File,C:\LabSolutions\Data\Project1\organicacidsetc2.lcm
Batch File,C:\Users\cremerlab\Desktop\griffin\2021-03-31_NC_glucose_glycerol_acetate_calibration\calibration_batch.lcb
Report Format File,c:\LabSolutions\System\DEFAULT.lsr

[File Description]


[Configuration]
Instrument Name,HPLC-PC-Instrument1
Instrument #,1
Line #,1
# of Detectors,2
Detector ID,Detector A,Detector B
Detector Name,Detector A,Detector B
# of Channels,1,1

[Peak Table(Detector A)]
# of Peaks,0

[Peak Table(Detector B)]
# of Peaks,5
Peak#,R.Time,I.Time,F.Time,Area,Height,A/H,Conc.,Mark,ID#,Name,k',Plate #,Plate Ht.,Tailing,Resolution,Sep.Factor,Area Ratio,Height Ratio,Conc. %,Norm Conc.
1,11.047,10.767,12.300,845136,47482,17.799,17.387,   ,,,0.000,10390,14.437,1.498,0.000,0.000,0,0,0.000,0.000
2,15.016,14.108,15.317,2132829,85782,24.863,43.878,   ,,,0.359,7742,19.375,0.000,7.113,0.000,0,0,0.000,0.000
3,15.650,15.317,18.567,1314264,53244,24.684,27.038, V ,,,0.417,9547,15.712,0.000,0.958,1.160,0,0,0.000,0.000
4,22.072,21.367,23.242,374995,13870,27.036,7.715,   ,,,0.998,15387,9.749,1.091,9.497,2.395,0,0,0.000,0.000
5,25.058,24.333,26.183,193626,6583,29.412,3.983,   ,,,1.268,16653,9.007,1.068,4.012,1.271,0,0,0.000,0.000

[LC Chromatogram(Detector B-Ch1)]
Interval(msec),500
# of Points,4801
Start Time(min),0.000
End Time(min),40.000
Intensity Units,mV
Intensity Multiplier,0.001
R.Time (min),Intensity
0.00000,-0
0.00833,-0
0.01667,0
0.02500,0
0.03333,0
0.04167,-0
0.05000,-0
0.05833,-0
0.06667,-1
0.07500,-1
0.08333,-1
0.09167,-0
0.10000,-0
0.10833,0
0.11667,0
0.12500,0
0.13333,0
0.14167,1
0.15000,1
0.15833,1
0.16667,1
0.17500,1
0.18333,1
0.19167,0
0.20000,-0
0.20833,-1
0.21667,-1
0.22500,-0
0.23333,-0
0.24167,0
0.25000,1
0.25833,1
0.26667,1
0.27500,1
0.28333,1
0.29167,0
0.30000,1
0.30833,0
0.31667,1
0.32500,0
0.33333,0
0.34167,-0
0.35000,-0
0.35833,-0
0.36667,-0
0.37500,-1
0.38333,-0
0.39167,-0
0.40000,-0
0.40833,-0
0.41667,0
0.42500,1
0.43333,1
0.44167,0
0.45000,0
0.45833,0
0.46667,0
0.47500,0
0.48333,0
0.49167,0
0.50000,0
0.50833,-0
0.51667,-0
0.52500,-0
0.53333,0
0.54167,-0
0.55000,-1
0.55833,-1
0.56667,-0
0.57500,-0
0.58333,0
0.59167,1
0.60000,1
0.60833,1
0.61667,1
0.62500,0
0.63333,0
0.64167,0
0.65000,-0
0.65833,-0
0.66667,-0
0.67500,-1
0.68333,-1
0.69167,-1
0.70000,-1
0.70833,-1
0.71667,-1
0.72500,-1
0.73333,-1
0.74167,-2
0.75000,-2
0.75833,-2
0.76667,-1
0.77500,-1
0.78333,-1
0.79167,-1
0.80000,-1
0.80833,-1
0.81667,-1
0.82500,-1
0.83333,-1
0.84167,-1
0.85000,-1
0.85833,-1
0.86667,-1
0.87500,-1
0.88333,-1
0.89167,-1
0.90000,-1
0.90833,-1
0.91667,-1
0.92500,-1
0.93333,-0
0.94167,-0
0.95000,-1
0.95833,-1
0.96667,-1
0.97500,-1
0.98333,-1
0.99167,-1
1.00000,-1
1.00833,-1
1.01667,-1
1.02500,-0
1.03333,-0
1.04167,-0
1.05000,-1
1.05833,-1
1.06667,-1
1.07500,-1
1.08333,-1
1.09167,-1
1.10000,-1
1.10833,-0
1.11667,1
1.12500,1
1.13333,1
1.14167,1
1.15000,1
1.15833,1
1.16667,1
1.17500,0
1.18333,0
1.19167,-0
1.20000,-0
1.20833,-0
1.21667,-0
1.22500,-0
1.23333,-0
1.24167,-0
1.25000,-0
1.25833,-0
1.26667,-0
1.27500,-0
1.28333,-0
1.29167,-0
1.30000,-0
1.30833,-0
1.31667,-0
1.32500,0
1.33333,-0
1.34167,-0
1.35000,-0
1.35833,0
1.36667,0
1.37500,0
1.38333,-0
1.39167,-0
1.40000,-1
1.40833,-1
1.41667,-1
1.42500,-1
1.43333,-1
1.44167,-1
1.45000,-1
1.45833,-1
1.46667,-1
1.47500,-1
1.48333,-1
1.49167,-1
1.50000,-0
1.50833,-0
1.51667,0
1.52500,0
1.53333,0
1.54167,-0
1.55000,-0
1.55833,-0
1.56667,-1
1.57500,-1
1.58333,-1
1.59167,-1
1.60000,-1
1.60833,-1
1.61667,-0
1.62500,-0
1.63333,0
1.64167,-0
1.65000,-0
1.65833,-1
1.66667,-1
1.67500,-1
1.68333,-1
1.69167,-0
1.70000,-0
1.70833,-0
1.71667,-0
1.72500,0
1.73333,-0
1.74167,-0
1.75000,-0
1.75833,-0
1.76667,-0
1.77500,-0
1.78333,-0
1.79167,0
1.80000,0
1.80833,-0
1.81667,-0
1.82500,-1
1.83333,-1
1.84167,-1
1.85000,-0
1.85833,-0
1.86667,-0
1.87500,-0
1.88333,-1
1.89167,-1
1.90000,-1
1.90833,-1
1.91667,-1
1.92500,-1
1.93333,-1
1.94167,-1
1.95000,-1
1.95833,-1
1.96667,-1
1.97500,-1
1.98333,-1
1.99167,-2
2.00000,-1
2.00833,-1
2.01667,-1
2.02500,-0
2.03333,-0
2.04167,-0
2.05000,-0
2.05833,-0
2.06667,-0
2.07500,-0
2.08333,-0
2.09167,-0
2.10000,-0
2.10833,-0
2.11667,0
2.12500,0
2.13333,0
2.14167,0
2.15000,0
2.15833,0
2.16667,-0
2.17500,-0
2.18333,-1
2.19167,-1
2.20000,-1
2.20833,-1
2.21667,-1
2.22500,-1
2.23333,-1
2.24167,-1
2.25000,-1
2.25833,-1
2.26667,-1
2.27500,-0
2.28333,-0
2.29167,-1
2.30000,-1
2.30833,-1
2.31667,-0
2.32500,-0
2.33333,-0
2.34167,-0
2.35000,-0
2.35833,-0
2.36667,-0
2.37500,-0
2.38333,0
2.39167,-0
2.40000,-0
2.40833,-0
2.41667,-0
2.42500,-1
2.43333,-0
2.44167,-0
2.45000,-0
2.45833,-1
2.46667,-1
2.47500,-1
2.48333,-0
2.49167,-0
2.50000,-0
2.50833,-1
2.51667,-1
2.52500,-1
2.53333,-1
2.54167,-0
2.55000,-0
2.55833,-0
2.56667,-0
2.57500,-0
2.58333,-0
2.59167,-0
2.60000,-0
2.60833,-0
2.61667,-1
2.62500,-1
2.63333,-1
2.64167,-1
2.65000,-1
2.65833,-1
2.66667,-1
2.67500,-1
2.68333,-1
2.69167,-1
2.70000,-1
2.70833,-1
2.71667,-1
2.72500,-1
2.73333,-1
2.74167,-1
2.75000,-2
2.75833,-2
2.76667,-2
2.77500,-2
2.78333,-2
2.79167,-2
2.80000,-2
2.80833,-2
2.81667,-2
2.82500,-2
2.83333,-2
2.84167,-2
2.85000,-1
2.85833,-1
2.86667,-1
2.87500,-1
2.88333,-1
2.89167,-1
2.90000,-1
2.90833,-1
2.91667,-1
2.92500,-1
2.93333,-1
2.94167,-1
2.95000,-1
2.95833,-1
2.96667,-0
2.97500,0
2.98333,0
2.99167,0
3.00000,0
3.00833,0
3.01667,0
3.02500,0
3.03333,0
3.04167,0
3.05000,-0
3.05833,-0
3.06667,-1
3.07500,-1
3.08333,-1
3.09167,-0
3.10000,-0
3.10833,-0
3.11667,-0
3.12500,-0
3.13333,0
3.14167,0
3.15000,0
3.15833,0
3.16667,0
3.17500,0
3.18333,-0
3.19167,-0
3.20000,-0
3.20833,-0
3.21667,-0
3.22500,-0
3.23333,-0
3.24167,-0
3.25000,-0
3.25833,-1
3.26667,-1
3.27500,-1
3.28333,-1
3.29167,-1
3.30000,-1
3.30833,-0
3.31667,-1
3.32500,-1
3.33333,-1
3.34167,-1
3.35000,-1
3.35833,-1
3.36667,-1
3.37500,-1
3.38333,-1
3.39167,-1
3.40000,-1
3.40833,-1
3.41667,-1
3.42500,-1
3.43333,-1
3.44167,-1
3.45000,-1
3.45833,-1
3.46667,-1
3.47500,-1
3.48333,-1
3.49167,-1
3.50000,-1
3.50833,-1
3.51667,-1
3.52500,-1
3.53333,-1
3.54167,-1
3.55000,-1
3.55833,-1
3.56667,-1
3.57500,-1
3.58333,-2
3.59167,-2
3.60000,-2
3.60833,-2
3.61667,-2
3.62500,-2
3.63333,-2
3.64167,-2
3.65000,-2
3.65833,-1
3.66667,-1
3.67500,-1
3.68333,-1
3.69167,-1
3.70000,-0
3.70833,-0
3.71667,-0
3.72500,-0
3.73333,-1
3.74167,-1
3.75000,-1
3.75833,-1
3.76667,-1
3.77500,-1
3.78333,-1
3.79167,-1
3.80000,-1
3.80833,-1
3.81667,-1
3.82500,-1
3.83333,-1
3.84167,-0
3.85000,-0
3.85833,-0
3.86667,-0
3.87500,-1
3.88333,-1
3.89167,-1
3.90000,-0
3.90833,-0
3.91667,0
3.92500,0
3.93333,0
3.94167,-0
3.95000,-1
3.95833,-1
3.96667,-1
3.97500,-1
3.98333,-0
3.99167,-0
4.00000,-0
4.00833,0
4.01667,0
4.02500,0
4.03333,-0
4.04167,-1
4.05000,-1
4.05833,-1
4.06667,-1
4.07500,-1
4.08333,-1
4.09167,-1
4.10000,-1
4.10833,-1
4.11667,-1
4.12500,-1
4.13333,-1
4.14167,-1
4.15000,-1
4.15833,-1
4.16667,-0
4.17500,-0
4.18333,0
4.19167,0
4.20000,0
4.20833,0
4.21667,0
4.22500,-0
4.23333,-0
4.24167,-1
4.25000,-0
4.25833,-0
4.26667,0
4.27500,0
4.28333,0
4.29167,0
4.30000,-0
4.30833,-0
4.31667,-0
4.32500,-0
4.33333,-0
4.34167,-0
4.35000,-0
4.35833,-0
4.36667,-0
4.37500,-0
4.38333,-1
4.39167,-0
4.40000,-0
4.40833,-0
4.41667,-1
4.42500,-1
4.43333,-0
4.44167,-0
4.45000,-0
4.45833,-0
4.46667,-0
4.47500,-1
4.48333,-1
4.49167,-1
4.50000,-1
4.50833,-1
4.51667,-1
4.52500,-1
4.53333,-1
4.54167,-0
4.55000,-0
4.55833,-1
4.56667,-1
4.57500,-1
4.58333,-1
4.59167,-1
4.60000,-1
4.60833,-0
4.61667,-1
4.62500,-1
4.63333,-1
4.64167,-1
4.65000,-1
4.65833,-1
4.66667,-1
4.67500,-1
4.68333,-1
4.69167,-0
4.70000,-0
4.70833,-0
4.71667,-0
4.72500,-1
4.73333,-1
4.74167,-1
4.75000,-2
4.75833,-1
4.76667,-1
4.77500,-1
4.78333,-1
4.79167,-1
4.80000,-1
4.80833,-1
4.81667,-1
4.82500,-2
4.83333,-2
4.84167,-2
4.85000,-2
4.85833,-2
4.86667,-2
4.87500,-2
4.88333,-2
4.89167,-1
4.90000,-1
4.90833,-1
4.91667,-1
4.92500,-1
4.93333,-1
4.94167,-1
4.95000,-1
4.95833,-1
4.96667,-1
4.97500,-1
4.98333,-1
4.99167,-1
5.00000,-0
5.00833,-0
5.01667,-1
5.02500,-1
5.03333,-1
5.04167,-1
5.05000,-1
5.05833,-1
5.06667,-2
5.07500,-2
5.08333,-2
5.09167,-1
5.10000,-1
5.10833,-1
5.11667,-1
5.12500,-1
5.13333,-1
5.14167,-1
5.15000,-1
5.15833,-1
5.16667,-1
5.17500,-1
5.18333,-1
5.19167,-1
5.20000,-1
5.20833,-1
5.21667,-1
5.22500,-1
5.23333,-1
5.24167,-1
5.25000,-1
5.25833,-1
5.26667,-1
5.27500,-1
5.28333,-0
5.29167,-1
5.30000,-1
5.30833,-1
5.31667,-1
5.32500,-1
5.33333,-1
5.34167,-0
5.35000,-0
5.35833,-1
5.36667,-1
5.37500,-1
5.38333,-1
5.39167,-1
5.40000,-1
5.40833,-1
5.41667,-1
5.42500,-1
5.43333,-1
5.44167,-2
5.45000,-2
5.45833,-2
5.46667,-3
5.47500,-3
5.48333,-3
5.49167,-2
5.50000,-2
5.50833,-2
5.51667,-2
5.52500,-2
5.53333,-2
5.54167,-2
5.55000,-2
5.55833,-2
5.56667,-2
5.57500,-1
5.58333,-1
5.59167,-1
5.60000,-2
5.60833,-2
5.61667,-2
5.62500,-2
5.63333,-1
5.64167,-1
5.65000,-1
5.65833,-1
5.66667,-1
5.67500,-1
5.68333,-1
5.69167,-1
5.70000,-1
5.70833,-1
5.71667,-1
5.72500,-1
5.73333,-0
5.74167,-0
5.75000,-0
5.75833,-0
5.76667,-0
5.77500,-1
5.78333,-1
5.79167,-1
5.80000,-1
5.80833,-1
5.81667,-1
5.82500,-1
5.83333,-2
5.84167,-2
5.85000,-2
5.85833,-2
5.86667,-2
5.87500,-2
5.88333,-2
5.89167,-2
5.90000,-2
5.90833,-1
5.91667,-1
5.92500,-2
5.93333,-2
5.94167,-2
5.95000,-2
5.95833,-1
5.96667,-1
5.97500,-2
5.98333,-2
5.99167,-2
6.00000,-2
6.00833,-3
6.01667,-3
6.02500,-3
6.03333,-3
6.04167,-2
6.05000,-2
6.05833,-2
6.06667,-2
6.07500,-2
6.08333,-2
6.09167,-2
6.10000,-2
6.10833,-2
6.11667,-2
6.12500,-2
6.13333,-1
6.14167,-1
6.15000,-2
6.15833,-2
6.16667,-2
6.17500,-2
6.18333,-2
6.19167,-2
6.20000,-2
6.20833,-2
6.21667,-2
6.22500,-2
6.23333,-2
6.24167,-3
6.25000,-2
6.25833,-2
6.26667,-2
6.27500,-2
6.28333,-1
6.29167,-2
6.30000,-2
6.30833,-2
6.31667,-2
6.32500,-2
6.33333,-2
6.34167,-2
6.35000,-2
6.35833,-2
6.36667,-2
6.37500,-2
6.38333,-2
6.39167,-2
6.40000,-2
6.40833,-2
6.41667,-2
6.42500,-2
6.43333,-2
6.44167,-2
6.45000,-2
6.45833,-2
6.46667,-2
6.47500,-2
6.48333,-2
6.49167,-2
6.50000,-2
6.50833,-2
6.51667,-2
6.52500,-2
6.53333,-2
6.54167,-2
6.55000,-2
6.55833,-2
6.56667,-2
6.57500,-2
6.58333,-2
6.59167,-3
6.60000,-3
6.60833,-3
6.61667,-3
6.62500,-3
6.63333,-3
6.64167,-3
6.65000,-3
6.65833,-3
6.66667,-2
6.67500,-2
6.68333,-2
6.69167,-3
6.70000,-3
6.70833,-3
6.71667,-2
6.72500,-2
6.73333,-2
6.74167,-2
6.75000,-2
6.75833,-2
6.76667,-2
6.77500,-2
6.78333,-2
6.79167,-2
6.80000,-2
6.80833,-2
6.81667,-3
6.82500,-3
6.83333,-3
6.84167,-3
6.85000,-3
6.85833,-3
6.86667,-3
6.87500,-3
6.88333,-2
6.89167,-2
6.90000,-2
6.90833,-2
6.91667,-2
6.92500,-2
6.93333,-2
6.94167,-2
6.95000,-2
6.95833,-2
6.96667,-2
6.97500,-2
6.98333,-2
6.99167,-3
7.00000,-3
7.00833,-3
7.01667,-3
7.02500,-3
7.03333,-3
7.04167,-2
7.05000,-2
7.05833,-2
7.06667,-3
7.07500,-3
7.08333,-3
7.09167,-3
7.10000,-3
7.10833,-3
7.11667,-3
7.12500,-2
7.13333,-2
7.14167,-3
7.15000,-3
7.15833,-3
7.16667,-3
7.17500,-3
7.18333,-3
7.19167,-3
7.20000,-2
7.20833,-2
7.21667,-2
7.22500,-3
7.23333,-3
7.24167,-3
7.25000,-3
7.25833,-3
7.26667,-3
7.27500,-2
7.28333,-2
7.29167,-2
7.30000,-2
7.30833,-2
7.31667,-3
7.32500,-3
7.33333,-3
7.34167,-3
7.35000,-3
7.35833,-3
7.36667,-2
7.37500,-2
7.38333,-2
7.39167,-2
7.40000,-3
7.40833,-3
7.41667,-3
7.42500,-3
7.43333,-3
7.44167,-3
7.45000,-2
7.45833,-2
7.46667,-2
7.47500,-2
7.48333,-2
7.49167,-3
7.50000,-3
7.50833,-3
7.51667,-3
7.52500,-2
7.53333,-2
7.54167,-2
7.55000,-2
7.55833,-2
7.56667,-2
7.57500,-2
7.58333,-2
7.59167,-3
7.60000,-3
7.60833,-3
7.61667,-3
7.62500,-2
7.63333,-2
7.64167,-2
7.65000,-1
7.65833,-2
7.66667,-2
7.67500,-2
7.68333,-2
7.69167,-2
7.70000,-2
7.70833,-2
7.71667,-2
7.72500,-3
7.73333,-3
7.74167,-3
7.75000,-2
7.75833,-2
7.76667,-2
7.77500,-2
7.78333,-3
7.79167,-3
7.80000,-3
7.80833,-2
7.81667,-2
7.82500,-2
7.83333,-2
7.84167,-3
7.85000,-3
7.85833,-3
7.86667,-3
7.87500,-3
7.88333,-3
7.89167,-2
7.90000,-2
7.90833,-2
7.91667,-2
7.92500,-2
7.93333,-2
7.94167,-2
7.95000,-2
7.95833,-2
7.96667,-2
7.97500,-2
7.98333,-1
7.99167,-1
8.00000,-1
8.00833,-1
8.01667,-2
8.02500,-2
8.03333,-2
8.04167,-2
8.05000,-2
8.05833,-2
8.06667,-2
8.07500,-3
8.08333,-3
8.09167,-2
8.10000,-2
8.10833,-2
8.11667,-2
8.12500,-2
8.13333,-2
8.14167,-2
8.15000,-2
8.15833,-2
8.16667,-2
8.17500,-2
8.18333,-2
8.19167,-2
8.20000,-2
8.20833,-2
8.21667,-2
8.22500,-2
8.23333,-2
8.24167,-3
8.25000,-3
8.25833,-3
8.26667,-2
8.27500,-2
8.28333,-2
8.29167,-2
8.30000,-2
8.30833,-2
8.31667,-3
8.32500,-2
8.33333,-2
8.34167,-2
8.35000,-2
8.35833,-2
8.36667,-2
8.37500,-2
8.38333,-2
8.39167,-2
8.40000,-2
8.40833,-2
8.41667,-2
8.42500,-2
8.43333,-2
8.44167,-2
8.45000,-2
8.45833,-2
8.46667,-2
8.47500,-2
8.48333,-2
8.49167,-2
8.50000,-2
8.50833,-2
8.51667,-2
8.52500,-2
8.53333,-2
8.54167,-2
8.55000,-2
8.55833,-2
8.56667,-2
8.57500,-2
8.58333,-2
8.59167,-2
8.60000,-2
8.60833,-2
8.61667,-2
8.62500,-2
8.63333,-2
8.64167,-2
8.65000,-1
8.65833,-1
8.66667,-1
8.67500,-1
8.68333,-2
8.69167,-2
8.70000,-2
8.70833,-2
8.71667,-2
8.72500,-1
8.73333,-2
8.74167,-2
8.75000,-2
8.75833,-2
8.76667,-2
8.77500,-2
8.78333,-2
8.79167,-2
8.80000,-2
8.80833,-2
8.81667,-2
8.82500,-2
8.83333,-2
8.84167,-2
8.85000,-2
8.85833,-2
8.86667,-2
8.87500,-2
8.88333,-2
8.89167,-2
8.90000,-2
8.90833,-2
8.91667,-2
8.92500,-2
8.93333,-2
8.94167,-2
8.95000,-2
8.95833,-2
8.96667,-2
8.97500,-2
8.98333,-2
8.99167,-3
9.00000,-2
9.00833,-2
9.01667,-2
9.02500,-2
9.03333,-2
9.04167,-1
9.05000,-1
9.05833,-2
9.06667,-2
9.07500,-1
9.08333,-1
9.09167,-1
9.10000,-1
9.10833,-1
9.11667,-1
9.12500,-1
9.13333,-1
9.14167,-1
9.15000,-1
9.15833,-1
9.16667,-2
9.17500,-2
9.18333,-2
9.19167,-2
9.20000,-2
9.20833,-2
9.21667,-2
9.22500,-2
9.23333,-2
9.24167,-1
9.25000,-1
9.25833,-1
9.26667,-1
9.27500,-1
9.28333,-1
9.29167,-1
9.30000,-1
9.30833,-1
9.31667,-1
9.32500,-1
9.33333,-0
9.34167,-0
9.35000,-0
9.35833,-0
9.36667,-0
9.37500,-0
9.38333,-0
9.39167,0
9.40000,-0
9.40833,-0
9.41667,-1
9.42500,-1
9.43333,-1
9.44167,-2
9.45000,-2
9.45833,-2
9.46667,-2
9.47500,-2
9.48333,-2
9.49167,-1
9.50000,-1
9.50833,-1
9.51667,-1
9.52500,-1
9.53333,-1
9.54167,-1
9.55000,-0
9.55833,-0
9.56667,0
9.57500,0
9.58333,0
9.59167,0
9.60000,1
9.60833,0
9.61667,0
9.62500,0
9.63333,0
9.64167,0
9.65000,0
9.65833,0
9.66667,0
9.67500,0
9.68333,0
9.69167,-0
9.70000,-0
9.70833,-1
9.71667,-1
9.72500,-1
9.73333,-1
9.74167,-1
9.75000,-1
9.75833,-1
9.76667,-0
9.77500,-0
9.78333,-0
9.79167,-1
9.80000,-1
9.80833,-1
9.81667,-1
9.82500,-1
9.83333,-1
9.84167,-1
9.85000,-0
9.85833,-0
9.86667,-0
9.87500,-0
9.88333,-0
9.89167,-0
9.90000,-0
9.90833,-0
9.91667,-1
9.92500,-1
9.93333,-1
9.94167,-1
9.95000,-1
9.95833,-1
9.96667,-1
9.97500,-1
9.98333,-0
9.99167,-1
10.00000,-1
10.00833,-1
10.01667,-1
10.02500,-1
10.03333,-1
10.04167,-1
10.05000,-1
10.05833,-1
10.06667,-1
10.07500,-1
10.08333,-1
10.09167,-1
10.10000,-1
10.10833,-1
10.11667,-1
10.12500,-1
10.13333,-1
10.14167,-1
10.15000,-0
10.15833,-0
10.16667,0
10.17500,0
10.18333,0
10.19167,0
10.20000,0
10.20833,0
10.21667,0
10.22500,0
10.23333,0
10.24167,0
10.25000,0
10.25833,0
10.26667,0
10.27500,0
10.28333,0
10.29167,0
10.30000,0
10.30833,0
10.31667,0
10.32500,1
10.33333,1
10.34167,1
10.35000,1
10.35833,1
10.36667,1
10.37500,2
10.38333,2
10.39167,2
10.40000,2
10.40833,3
10.41667,3
10.42500,3
10.43333,3
10.44167,3
10.45000,4
10.45833,4
10.46667,4
10.47500,4
10.48333,3
10.49167,3
10.50000,2
10.50833,-0
10.51667,-3
10.52500,-6
10.53333,-12
10.54167,-20
10.55000,-31
10.55833,-47
10.56667,-68
10.57500,-95
10.58333,-131
10.59167,-177
10.60000,-234
10.60833,-305
10.61667,-391
10.62500,-496
10.63333,-619
10.64167,-764
10.65000,-930
10.65833,-1117
10.66667,-1326
10.67500,-1554
10.68333,-1799
10.69167,-2057
10.70000,-2321
10.70833,-2586
10.71667,-2843
10.72500,-3084
10.73333,-3298
10.74167,-3475
10.75000,-3602
10.75833,-3668
10.76667,-3661
10.77500,-3569
10.78333,-3381
10.79167,-3085
10.80000,-2673
10.80833,-2134
10.81667,-1463
10.82500,-651
10.83333,306
10.84167,1409
10.85000,2662
10.85833,4063
10.86667,5611
10.87500,7301
10.88333,9127
10.89167,11080
10.90000,13151
10.90833,15325
10.91667,17588
10.92500,19922
10.93333,22304
10.94167,24712
10.95000,27120
10.95833,29497
10.96667,31813
10.97500,34034
10.98333,36126
10.99167,38053
11.00000,39782
11.00833,41281
11.01667,42521
11.02500,43479
11.03333,44135
11.04167,44478
11.05000,44505
11.05833,44218
11.06667,43630
11.07500,42758
11.08333,41625
11.09167,40261
11.10000,38700
11.10833,36976
11.11667,35125
11.12500,33183
11.13333,31184
11.14167,29160
11.15000,27140
11.15833,25148
11.16667,23207
11.17500,21333
11.18333,19541
11.19167,17840
11.20000,16237
11.20833,14738
11.21667,13343
11.22500,12053
11.23333,10866
11.24167,9777
11.25000,8784
11.25833,7881
11.26667,7063
11.27500,6324
11.28333,5658
11.29167,5060
11.30000,4525
11.30833,4046
11.31667,3618
11.32500,3238
11.33333,2899
11.34167,2599
11.35000,2332
11.35833,2096
11.36667,1887
11.37500,1702
11.38333,1539
11.39167,1394
11.40000,1266
11.40833,1153
11.41667,1054
11.42500,965
11.43333,886
11.44167,817
11.45000,755
11.45833,700
11.46667,651
11.47500,607
11.48333,567
11.49167,532
11.50000,500
11.50833,472
11.51667,447
11.52500,424
11.53333,402
11.54167,383
11.55000,365
11.55833,349
11.56667,334
11.57500,321
11.58333,308
11.59167,296
11.60000,285
11.60833,275
11.61667,266
11.62500,258
11.63333,250
11.64167,242
11.65000,234
11.65833,227
11.66667,221
11.67500,215
11.68333,208
11.69167,203
11.70000,197
11.70833,192
11.71667,187
11.72500,183
11.73333,179
11.74167,175
11.75000,171
11.75833,167
11.76667,164
11.77500,160
11.78333,157
11.79167,155
11.80000,152
11.80833,150
11.81667,147
11.82500,145
11.83333,143
11.84167,141
11.85000,139
11.85833,136
11.86667,134
11.87500,132
11.88333,131
11.89167,129
11.90000,128
11.90833,127
11.91667,125
11.92500,124
11.93333,123
11.94167,122
11.95000,121
11.95833,120
11.96667,119
11.97500,118
11.98333,117
11.99167,116
12.00000,115
12.00833,115
12.01667,114
12.02500,113
12.03333,112
12.04167,111
12.05000,111
12.05833,110
12.06667,109
12.07500,108
12.08333,107
12.09167,106
12.10000,105
12.10833,104
12.11667,103
12.12500,102
12.13333,101
12.14167,100
12.15000,100
12.15833,99
12.16667,99
12.17500,98
12.18333,97
12.19167,96
12.20000,95
12.20833,95
12.21667,94
12.22500,93
12.23333,93
12.24167,92
12.25000,91
12.25833,90
12.26667,89
12.27500,89
12.28333,88
12.29167,88
12.30000,88
12.30833,87
12.31667,87
12.32500,87
12.33333,86
12.34167,85
12.35000,85
12.35833,84
12.36667,83
12.37500,82
12.38333,82
12.39167,81
12.40000,80
12.40833,80
12.41667,79
12.42500,79
12.43333,79
12.44167,79
12.45000,79
12.45833,79
12.46667,79
12.47500,78
12.48333,78
12.49167,77
12.50000,77
12.50833,76
12.51667,76
12.52500,76
12.53333,76
12.54167,75
12.55000,75
12.55833,74
12.56667,74
12.57500,73
12.58333,73
12.59167,72
12.60000,72
12.60833,72
12.61667,71
12.62500,71
12.63333,71
12.64167,71
12.65000,70
12.65833,70
12.66667,70
12.67500,69
12.68333,69
12.69167,69
12.70000,69
12.70833,68
12.71667,68
12.72500,67
12.73333,67
12.74167,67
12.75000,67
12.75833,66
12.76667,66
12.77500,66
12.78333,66
12.79167,66
12.80000,66
12.80833,66
12.81667,65
12.82500,65
12.83333,65
12.84167,65
12.85000,66
12.85833,67
12.86667,67
12.87500,68
12.88333,68
12.89167,68
12.90000,68
12.90833,69
12.91667,69
12.92500,70
12.93333,70
12.94167,71
12.95000,71
12.95833,71
12.96667,71
12.97500,72
12.98333,73
12.99167,73
13.00000,74
13.00833,74
13.01667,74
13.02500,75
13.03333,75
13.04167,76
13.05000,76
13.05833,76
13.06667,76
13.07500,76
13.08333,76
13.09167,76
13.10000,76
13.10833,76
13.11667,76
13.12500,76
13.13333,76
13.14167,76
13.15000,76
13.15833,77
13.16667,76
13.17500,76
13.18333,76
13.19167,77
13.20000,77
13.20833,77
13.21667,76
13.22500,76
13.23333,75
13.24167,75
13.25000,75
13.25833,74
13.26667,73
13.27500,72
13.28333,72
13.29167,71
13.30000,70
13.30833,69
13.31667,68
13.32500,67
13.33333,66
13.34167,66
13.35000,65
13.35833,64
13.36667,64
13.37500,62
13.38333,61
13.39167,60
13.40000,58
13.40833,57
13.41667,56
13.42500,55
13.43333,55
13.44167,54
13.45000,52
13.45833,51
13.46667,50
13.47500,49
13.48333,47
13.49167,46
13.50000,45
13.50833,43
13.51667,42
13.52500,41
13.53333,40
13.54167,39
13.55000,38
13.55833,38
13.56667,37
13.57500,37
13.58333,36
13.59167,36
13.60000,35
13.60833,34
13.61667,33
13.62500,33
13.63333,32
13.64167,32
13.65000,31
13.65833,30
13.66667,30
13.67500,29
13.68333,28
13.69167,28
13.70000,27
13.70833,27
13.71667,27
13.72500,27
13.73333,26
13.74167,26
13.75000,26
13.75833,26
13.76667,25
13.77500,25
13.78333,25
13.79167,24
13.80000,24
13.80833,24
13.81667,24
13.82500,24
13.83333,24
13.84167,24
13.85000,24
13.85833,24
13.86667,24
13.87500,24
13.88333,24
13.89167,24
13.90000,24
13.90833,24
13.91667,24
13.92500,24
13.93333,24
13.94167,24
13.95000,25
13.95833,25
13.96667,26
13.97500,26
13.98333,26
13.99167,27
14.00000,27
14.00833,27
14.01667,27
14.02500,28
14.03333,28
14.04167,28
14.05000,28
14.05833,28
14.06667,29
14.07500,29
14.08333,30
14.09167,31
14.10000,32
14.10833,33
14.11667,34
14.12500,35
14.13333,37
14.14167,38
14.15000,40
14.15833,42
14.16667,44
14.17500,46
14.18333,50
14.19167,54
14.20000,58
14.20833,64
14.21667,70
14.22500,78
14.23333,87
14.24167,99
14.25000,113
14.25833,130
14.26667,150
14.27500,175
14.28333,204
14.29167,239
14.30000,281
14.30833,330
14.31667,388
14.32500,456
14.33333,536
14.34167,628
14.35000,735
14.35833,857
14.36667,998
14.37500,1157
14.38333,1337
14.39167,1539
14.40000,1766
14.40833,2017
14.41667,2296
14.42500,2604
14.43333,2941
14.44167,3309
14.45000,3709
14.45833,4141
14.46667,4607
14.47500,5108
14.48333,5643
14.49167,6213
14.50000,6819
14.50833,7460
14.51667,8137
14.52500,8848
14.53333,9594
14.54167,10375
14.55000,11190
14.55833,12040
14.56667,12922
14.57500,13838
14.58333,14785
14.59167,15764
14.60000,16774
14.60833,17814
14.61667,18883
14.62500,19981
14.63333,21107
14.64167,22261
14.65000,23442
14.65833,24649
14.66667,25881
14.67500,27139
14.68333,28420
14.69167,29726
14.70000,31055
14.70833,32406
14.71667,33780
14.72500,35175
14.73333,36591
14.74167,38028
14.75000,39485
14.75833,40962
14.76667,42459
14.77500,43973
14.78333,45505
14.79167,47054
14.80000,48619
14.80833,50200
14.81667,51797
14.82500,53408
14.83333,55033
14.84167,56670
14.85000,58318
14.85833,59976
14.86667,61644
14.87500,63318
14.88333,64998
14.89167,66680
14.90000,68363
14.90833,70042
14.91667,71713
14.92500,73369
14.93333,75004
14.94167,76607
14.95000,78164
14.95833,79657
14.96667,81064
14.97500,82357
14.98333,83504
14.99167,84467
15.00000,85205
15.00833,85673
15.01667,85828
15.02500,85630
15.03333,85044
15.04167,84044
15.05000,82615
15.05833,80755
15.06667,78476
15.07500,75803
15.08333,72776
15.09167,69444
15.10000,65865
15.10833,62101
15.11667,58220
15.12500,54284
15.13333,50357
15.14167,46493
15.15000,42740
15.15833,39139
15.16667,35721
15.17500,32511
15.18333,29522
15.19167,26766
15.20000,24242
15.20833,21951
15.21667,19884
15.22500,18035
15.23333,16393
15.24167,14946
15.25000,13683
15.25833,12594
15.26667,11667
15.27500,10893
15.28333,10263
15.29167,9770
15.30000,9407
15.30833,9169
15.31667,9052
15.32500,9052
15.33333,9168
15.34167,9398
15.35000,9740
15.35833,10193
15.36667,10756
15.37500,11429
15.38333,12210
15.39167,13099
15.40000,14093
15.40833,15191
15.41667,16388
15.42500,17681
15.43333,19065
15.44167,20534
15.45000,22082
15.45833,23699
15.46667,25377
15.47500,27106
15.48333,28875
15.49167,30672
15.50000,32485
15.50833,34300
15.51667,36104
15.52500,37883
15.53333,39623
15.54167,41311
15.55000,42932
15.55833,44472
15.56667,45921
15.57500,47265
15.58333,48495
15.59167,49600
15.60000,50571
15.60833,51403
15.61667,52087
15.62500,52622
15.63333,53002
15.64167,53228
15.65000,53299
15.65833,53218
15.66667,52987
15.67500,52610
15.68333,52092
15.69167,51440
15.70000,50662
15.70833,49766
15.71667,48761
15.72500,47657
15.73333,46464
15.74167,45190
15.75000,43848
15.75833,42447
15.76667,40997
15.77500,39510
15.78333,37993
15.79167,36458
15.80000,34913
15.80833,33366
15.81667,31825
15.82500,30298
15.83333,28791
15.84167,27309
15.85000,25858
15.85833,24444
15.86667,23069
15.87500,21737
15.88333,20451
15.89167,19213
15.90000,18026
15.90833,16889
15.91667,15805
15.92500,14772
15.93333,13791
15.94167,12862
15.95000,11984
15.95833,11156
15.96667,10376
15.97500,9644
15.98333,8957
15.99167,8314
16.00000,7714
16.00833,7154
16.01667,6633
16.02500,6148
16.03333,5698
16.04167,5281
16.05000,4895
16.05833,4538
16.06667,4208
16.07500,3904
16.08333,3623
16.09167,3364
16.10000,3126
16.10833,2907
16.11667,2705
16.12500,2520
16.13333,2351
16.14167,2195
16.15000,2052
16.15833,1922
16.16667,1802
16.17500,1692
16.18333,1592
16.19167,1499
16.20000,1414
16.20833,1337
16.21667,1265
16.22500,1200
16.23333,1140
16.24167,1085
16.25000,1034
16.25833,987
16.26667,944
16.27500,905
16.28333,869
16.29167,835
16.30000,804
16.30833,775
16.31667,748
16.32500,723
16.33333,700
16.34167,678
16.35000,658
16.35833,639
16.36667,622
16.37500,606
16.38333,591
16.39167,577
16.40000,564
16.40833,552
16.41667,540
16.42500,529
16.43333,518
16.44167,508
16.45000,499
16.45833,490
16.46667,481
16.47500,473
16.48333,466
16.49167,459
16.50000,453
16.50833,446
16.51667,440
16.52500,434
16.53333,428
16.54167,423
16.55000,418
16.55833,413
16.56667,408
16.57500,404
16.58333,399
16.59167,395
16.60000,390
16.60833,387
16.61667,383
16.62500,379
16.63333,376
16.64167,372
16.65000,369
16.65833,366
16.66667,363
16.67500,360
16.68333,356
16.69167,353
16.70000,350
16.70833,347
16.71667,345
16.72500,342
16.73333,340
16.74167,337
16.75000,335
16.75833,332
16.76667,330
16.77500,327
16.78333,325
16.79167,323
16.80000,321
16.80833,318
16.81667,316
16.82500,313
16.83333,311
16.84167,309
16.85000,307
16.85833,304
16.86667,302
16.87500,300
16.88333,299
16.89167,297
16.90000,295
16.90833,293
16.91667,291
16.92500,289
16.93333,287
16.94167,285
16.95000,283
16.95833,281
16.96667,279
16.97500,277
16.98333,275
16.99167,273
17.00000,271
17.00833,269
17.01667,267
17.02500,265
17.03333,263
17.04167,262
17.05000,260
17.05833,258
17.06667,257
17.07500,256
17.08333,254
17.09167,252
17.10000,251
17.10833,249
17.11667,248
17.12500,247
17.13333,245
17.14167,244
17.15000,242
17.15833,240
17.16667,238
17.17500,237
17.18333,235
17.19167,234
17.20000,232
17.20833,231
17.21667,229
17.22500,228
17.23333,226
17.24167,225
17.25000,224
17.25833,222
17.26667,221
17.27500,220
17.28333,219
17.29167,218
17.30000,217
17.30833,215
17.31667,214
17.32500,213
17.33333,212
17.34167,211
17.35000,209
17.35833,208
17.36667,207
17.37500,205
17.38333,205
17.39167,204
17.40000,203
17.40833,202
17.41667,201
17.42500,200
17.43333,199
17.44167,198
17.45000,197
17.45833,196
17.46667,195
17.47500,194
17.48333,193
17.49167,192
17.50000,191
17.50833,189
17.51667,189
17.52500,188
17.53333,187
17.54167,186
17.55000,185
17.55833,185
17.56667,184
17.57500,182
17.58333,181
17.59167,180
17.60000,179
17.60833,179
17.61667,178
17.62500,177
17.63333,176
17.64167,176
17.65000,175
17.65833,174
17.66667,172
17.67500,171
17.68333,170
17.69167,169
17.70000,168
17.70833,167
17.71667,167
17.72500,166
17.73333,165
17.74167,165
17.75000,164
17.75833,163
17.76667,163
17.77500,162
17.78333,161
17.79167,160
17.80000,160
17.80833,159
17.81667,158
17.82500,157
17.83333,156
17.84167,155
17.85000,155
17.85833,154
17.86667,153
17.87500,152
17.88333,151
17.89167,150
17.90000,150
17.90833,149
17.91667,149
17.92500,148
17.93333,147
17.94167,146
17.95000,145
17.95833,144
17.96667,144
17.97500,143
17.98333,142
17.99167,142
18.00000,141
18.00833,141
18.01667,140
18.02500,139
18.03333,138
18.04167,137
18.05000,137
18.05833,136
18.06667,135
18.07500,135
18.08333,134
18.09167,133
18.10000,132
18.10833,132
18.11667,131
18.12500,130
18.13333,130
18.14167,130
18.15000,129
18.15833,128
18.16667,127
18.17500,127
18.18333,126
18.19167,126
18.20000,125
18.20833,124
18.21667,124
18.22500,123
18.23333,123
18.24167,122
18.25000,122
18.25833,121
18.26667,120
18.27500,120
18.28333,118
18.29167,117
18.30000,116
18.30833,115
18.31667,114
18.32500,114
18.33333,113
18.34167,113
18.35000,112
18.35833,112
18.36667,111
18.37500,111
18.38333,110
18.39167,110
18.40000,109
18.40833,109
18.41667,108
18.42500,107
18.43333,106
18.44167,106
18.45000,105
18.45833,105
18.46667,105
18.47500,104
18.48333,103
18.49167,102
18.50000,101
18.50833,101
18.51667,100
18.52500,100
18.53333,99
18.54167,99
18.55000,98
18.55833,98
18.56667,98
18.57500,97
18.58333,97
18.59167,96
18.60000,96
18.60833,96
18.61667,96
18.62500,95
18.63333,95
18.64167,94
18.65000,94
18.65833,93
18.66667,92
18.67500,92
18.68333,92
18.69167,92
18.70000,92
18.70833,91
18.71667,90
18.72500,90
18.73333,90
18.74167,91
18.75000,91
18.75833,91
18.76667,91
18.77500,91
18.78333,92
18.79167,93
18.80000,93
18.80833,93
18.81667,93
18.82500,93
18.83333,94
18.84167,94
18.85000,95
18.85833,95
18.86667,95
18.87500,96
18.88333,96
18.89167,97
18.90000,97
18.90833,97
18.91667,97
18.92500,98
18.93333,98
18.94167,98
18.95000,98
18.95833,99
18.96667,99
18.97500,99
18.98333,99
18.99167,99
19.00000,99
19.00833,99
19.01667,99
19.02500,98
19.03333,98
19.04167,97
19.05000,96
19.05833,96
19.06667,95
19.07500,94
19.08333,93
19.09167,92
19.10000,91
19.10833,90
19.11667,89
19.12500,88
19.13333,87
19.14167,86
19.15000,85
19.15833,84
19.16667,83
19.17500,81
19.18333,80
19.19167,79
19.20000,78
19.20833,77
19.21667,76
19.22500,74
19.23333,73
19.24167,72
19.25000,71
19.25833,70
19.26667,70
19.27500,69
19.28333,69
19.29167,68
19.30000,68
19.30833,67
19.31667,66
19.32500,65
19.33333,64
19.34167,63
19.35000,62
19.35833,62
19.36667,61
19.37500,61
19.38333,60
19.39167,60
19.40000,59
19.40833,59
19.41667,59
19.42500,58
19.43333,57
19.44167,57
19.45000,57
19.45833,56
19.46667,56
19.47500,56
19.48333,56
19.49167,55
19.50000,55
19.50833,55
19.51667,54
19.52500,54
19.53333,54
19.54167,53
19.55000,53
19.55833,52
19.56667,52
19.57500,52
19.58333,52
19.59167,51
19.60000,51
19.60833,51
19.61667,50
19.62500,50
19.63333,50
19.64167,50
19.65000,49
19.65833,49
19.66667,49
19.67500,49
19.68333,48
19.69167,48
19.70000,47
19.70833,47
19.71667,47
19.72500,46
19.73333,46
19.74167,46
19.75000,46
19.75833,46
19.76667,45
19.77500,45
19.78333,45
19.79167,45
19.80000,44
19.80833,44
19.81667,44
19.82500,44
19.83333,44
19.84167,44
19.85000,44
19.85833,44
19.86667,44
19.87500,44
19.88333,44
19.89167,44
19.90000,43
19.90833,43
19.91667,43
19.92500,43
19.93333,42
19.94167,41
19.95000,40
19.95833,40
19.96667,40
19.97500,40
19.98333,41
19.99167,41
20.00000,40
20.00833,40
20.01667,40
20.02500,39
20.03333,39
20.04167,39
20.05000,39
20.05833,40
20.06667,40
20.07500,40
20.08333,40
20.09167,39
20.10000,39
20.10833,39
20.11667,39
20.12500,38
20.13333,38
20.14167,38
20.15000,38
20.15833,38
20.16667,38
20.17500,38
20.18333,38
20.19167,38
20.20000,37
20.20833,37
20.21667,37
20.22500,37
20.23333,37
20.24167,37
20.25000,36
20.25833,36
20.26667,35
20.27500,35
20.28333,35
20.29167,35
20.30000,34
20.30833,34
20.31667,34
20.32500,34
20.33333,33
20.34167,34
20.35000,34
20.35833,34
20.36667,34
20.37500,34
20.38333,34
20.39167,34
20.40000,33
20.40833,33
20.41667,33
20.42500,33
20.43333,33
20.44167,32
20.45000,32
20.45833,32
20.46667,32
20.47500,32
20.48333,32
20.49167,32
20.50000,31
20.50833,31
20.51667,32
20.52500,32
20.53333,32
20.54167,32
20.55000,31
20.55833,31
20.56667,31
20.57500,31
20.58333,31
20.59167,31
20.60000,31
20.60833,31
20.61667,31
20.62500,31
20.63333,30
20.64167,30
20.65000,29
20.65833,29
20.66667,29
20.67500,29
20.68333,30
20.69167,30
20.70000,30
20.70833,29
20.71667,29
20.72500,29
20.73333,29
20.74167,29
20.75000,28
20.75833,27
20.76667,27
20.77500,27
20.78333,27
20.79167,28
20.80000,28
20.80833,28
20.81667,28
20.82500,27
20.83333,27
20.84167,27
20.85000,27
20.85833,26
20.86667,26
20.87500,26
20.88333,25
20.89167,25
20.90000,25
20.90833,25
20.91667,25
20.92500,25
20.93333,25
20.94167,25
20.95000,25
20.95833,25
20.96667,25
20.97500,25
20.98333,25
20.99167,24
21.00000,24
21.00833,24
21.01667,24
21.02500,24
21.03333,24
21.04167,24
21.05000,24
21.05833,23
21.06667,23
21.07500,23
21.08333,22
21.09167,22
21.10000,22
21.10833,22
21.11667,22
21.12500,23
21.13333,23
21.14167,23
21.15000,22
21.15833,22
21.16667,22
21.17500,23
21.18333,23
21.19167,23
21.20000,23
21.20833,23
21.21667,22
21.22500,22
21.23333,22
21.24167,22
21.25000,22
21.25833,22
21.26667,23
21.27500,23
21.28333,24
21.29167,24
21.30000,25
21.30833,25
21.31667,26
21.32500,26
21.33333,27
21.34167,28
21.35000,29
21.35833,30
21.36667,31
21.37500,32
21.38333,33
21.39167,35
21.40000,36
21.40833,38
21.41667,41
21.42500,44
21.43333,47
21.44167,51
21.45000,55
21.45833,60
21.46667,65
21.47500,71
21.48333,77
21.49167,85
21.50000,93
21.50833,102
21.51667,113
21.52500,126
21.53333,140
21.54167,155
21.55000,173
21.55833,193
21.56667,216
21.57500,241
21.58333,270
21.59167,302
21.60000,338
21.60833,378
21.61667,424
21.62500,475
21.63333,532
21.64167,595
21.65000,665
21.65833,743
21.66667,830
21.67500,925
21.68333,1030
21.69167,1146
21.70000,1272
21.70833,1410
21.71667,1560
21.72500,1723
21.73333,1900
21.74167,2091
21.75000,2297
21.75833,2517
21.76667,2753
21.77500,3004
21.78333,3271
21.79167,3554
21.80000,3852
21.80833,4166
21.81667,4494
21.82500,4837
21.83333,5193
21.84167,5562
21.85000,5943
21.85833,6333
21.86667,6733
21.87500,7140
21.88333,7553
21.89167,7970
21.90000,8389
21.90833,8808
21.91667,9224
21.92500,9636
21.93333,10041
21.94167,10436
21.95000,10821
21.95833,11191
21.96667,11546
21.97500,11883
21.98333,12199
21.99167,12494
22.00000,12765
22.00833,13010
22.01667,13228
22.02500,13418
22.03333,13578
22.04167,13708
22.05000,13807
22.05833,13875
22.06667,13910
22.07500,13914
22.08333,13887
22.09167,13829
22.10000,13740
22.10833,13622
22.11667,13476
22.12500,13303
22.13333,13103
22.14167,12880
22.15000,12634
22.15833,12367
22.16667,12082
22.17500,11779
22.18333,11462
22.19167,11131
22.20000,10789
22.20833,10437
22.21667,10078
22.22500,9714
22.23333,9345
22.24167,8975
22.25000,8604
22.25833,8234
22.26667,7867
22.27500,7504
22.28333,7146
22.29167,6794
22.30000,6450
22.30833,6114
22.31667,5786
22.32500,5469
22.33333,5161
22.34167,4864
22.35000,4578
22.35833,4304
22.36667,4041
22.37500,3789
22.38333,3549
22.39167,3321
22.40000,3105
22.40833,2899
22.41667,2705
22.42500,2522
22.43333,2349
22.44167,2186
22.45000,2034
22.45833,1891
22.46667,1757
22.47500,1631
22.48333,1515
22.49167,1406
22.50000,1304
22.50833,1210
22.51667,1122
22.52500,1041
22.53333,966
22.54167,896
22.55000,832
22.55833,772
22.56667,718
22.57500,667
22.58333,621
22.59167,578
22.60000,539
22.60833,502
22.61667,469
22.62500,439
22.63333,411
22.64167,385
22.65000,361
22.65833,339
22.66667,319
22.67500,301
22.68333,284
22.69167,269
22.70000,254
22.70833,241
22.71667,229
22.72500,218
22.73333,208
22.74167,198
22.75000,189
22.75833,181
22.76667,174
22.77500,167
22.78333,161
22.79167,155
22.80000,150
22.80833,145
22.81667,140
22.82500,136
22.83333,132
22.84167,129
22.85000,125
22.85833,122
22.86667,119
22.87500,117
22.88333,114
22.89167,112
22.90000,110
22.90833,107
22.91667,106
22.92500,103
22.93333,101
22.94167,99
22.95000,98
22.95833,96
22.96667,95
22.97500,93
22.98333,92
22.99167,90
23.00000,89
23.00833,88
23.01667,86
23.02500,85
23.03333,84
23.04167,83
23.05000,82
23.05833,81
23.06667,81
23.07500,80
23.08333,79
23.09167,78
23.10000,77
23.10833,77
23.11667,76
23.12500,76
23.13333,75
23.14167,74
23.15000,73
23.15833,72
23.16667,72
23.17500,71
23.18333,70
23.19167,69
23.20000,69
23.20833,68
23.21667,67
23.22500,67
23.23333,67
23.24167,66
23.25000,66
23.25833,66
23.26667,65
23.27500,65
23.28333,64
23.29167,63
23.30000,63
23.30833,62
23.31667,62
23.32500,61
23.33333,61
23.34167,60
23.35000,60
23.35833,59
23.36667,59
23.37500,58
23.38333,58
23.39167,58
23.40000,57
23.40833,56
23.41667,56
23.42500,55
23.43333,55
23.44167,54
23.45000,54
23.45833,54
23.46667,53
23.47500,53
23.48333,52
23.49167,52
23.50000,52
23.50833,51
23.51667,51
23.52500,50
23.53333,50
23.54167,50
23.55000,49
23.55833,49
23.56667,49
23.57500,48
23.58333,48
23.59167,47
23.60000,47
23.60833,47
23.61667,46
23.62500,46
23.63333,46
23.64167,46
23.65000,46
23.65833,46
23.66667,45
23.67500,45
23.68333,45
23.69167,44
23.70000,44
23.70833,44
23.71667,44
23.72500,44
23.73333,43
23.74167,43
23.75000,42
23.75833,42
23.76667,42
23.77500,42
23.78333,42
23.79167,41
23.80000,41
23.80833,40
23.81667,40
23.82500,40
23.83333,40
23.84167,40
23.85000,40
23.85833,40
23.86667,40
23.87500,40
23.88333,40
23.89167,40
23.90000,40
23.90833,40
23.91667,40
23.92500,40
23.93333,39
23.94167,39
23.95000,39
23.95833,38
23.96667,38
23.97500,38
23.98333,37
23.99167,37
24.00000,37
24.00833,37
24.01667,37
24.02500,37
24.03333,36
24.04167,36
24.05000,36
24.05833,36
24.06667,36
24.07500,36
24.08333,36
24.09167,36
24.10000,36
24.10833,35
24.11667,35
24.12500,35
24.13333,35
24.14167,35
24.15000,35
24.15833,35
24.16667,35
24.17500,35
24.18333,35
24.19167,35
24.20000,35
24.20833,35
24.21667,35
24.22500,35
24.23333,35
24.24167,35
24.25000,36
24.25833,36
24.26667,36
24.27500,36
24.28333,37
24.29167,38
24.30000,38
24.30833,39
24.31667,39
24.32500,40
24.33333,41
24.34167,42
24.35000,43
24.35833,45
24.36667,46
24.37500,48
24.38333,50
24.39167,53
24.40000,56
24.40833,59
24.41667,62
24.42500,66
24.43333,70
24.44167,74
24.45000,79
24.45833,85
24.46667,91
24.47500,98
24.48333,107
24.49167,116
24.50000,126
24.50833,137
24.51667,149
24.52500,163
24.53333,179
24.54167,195
24.55000,214
24.55833,235
24.56667,258
24.57500,283
24.58333,310
24.59167,341
24.60000,374
24.60833,411
24.61667,451
24.62500,494
24.63333,542
24.64167,593
24.65000,649
24.65833,709
24.66667,775
24.67500,845
24.68333,920
24.69167,1001
24.70000,1087
24.70833,1179
24.71667,1277
24.72500,1380
24.73333,1490
24.74167,1605
24.75000,1727
24.75833,1855
24.76667,1988
24.77500,2128
24.78333,2273
24.79167,2424
24.80000,2580
24.80833,2740
24.81667,2905
24.82500,3073
24.83333,3245
24.84167,3420
24.85000,3597
24.85833,3776
24.86667,3955
24.87500,4136
24.88333,4315
24.89167,4493
24.90000,4668
24.90833,4841
24.91667,5011
24.92500,5175
24.93333,5334
24.94167,5488
24.95000,5634
24.95833,5773
24.96667,5903
24.97500,6024
24.98333,6135
24.99167,6236
25.00000,6326
25.00833,6405
25.01667,6473
25.02500,6529
25.03333,6572
25.04167,6602
25.05000,6620
25.05833,6626
25.06667,6619
25.07500,6600
25.08333,6568
25.09167,6525
25.10000,6470
25.10833,6404
25.11667,6328
25.12500,6241
25.13333,6144
25.14167,6039
25.15000,5925
25.15833,5802
25.16667,5673
25.17500,5537
25.18333,5395
25.19167,5249
25.20000,5097
25.20833,4942
25.21667,4785
25.22500,4625
25.23333,4463
25.24167,4301
25.25000,4138
25.25833,3975
25.26667,3813
25.27500,3651
25.28333,3492
25.29167,3335
25.30000,3180
25.30833,3029
25.31667,2881
25.32500,2736
25.33333,2595
25.34167,2459
25.35000,2326
25.35833,2198
25.36667,2075
25.37500,1956
25.38333,1843
25.39167,1733
25.40000,1629
25.40833,1530
25.41667,1435
25.42500,1345
25.43333,1259
25.44167,1178
25.45000,1101
25.45833,1029
25.46667,960
25.47500,896
25.48333,836
25.49167,780
25.50000,727
25.50833,677
25.51667,630
25.52500,587
25.53333,547
25.54167,510
25.55000,475
25.55833,443
25.56667,412
25.57500,384
25.58333,358
25.59167,334
25.60000,312
25.60833,292
25.61667,273
25.62500,255
25.63333,239
25.64167,224
25.65000,211
25.65833,198
25.66667,187
25.67500,176
25.68333,167
25.69167,158
25.70000,150
25.70833,142
25.71667,136
25.72500,129
25.73333,123
25.74167,118
25.75000,113
25.75833,108
25.76667,104
25.77500,100
25.78333,96
25.79167,93
25.80000,90
25.80833,88
25.81667,85
25.82500,82
25.83333,80
25.84167,78
25.85000,76
25.85833,74
25.86667,72
25.87500,71
25.88333,69
25.89167,68
25.90000,66
25.90833,65
25.91667,63
25.92500,62
25.93333,61
25.94167,60
25.95000,60
25.95833,59
25.96667,58
25.97500,57
25.98333,56
25.99167,56
26.00000,55
26.00833,55
26.01667,54
26.02500,54
26.03333,53
26.04167,53
26.05000,52
26.05833,52
26.06667,51
26.07500,51
26.08333,50
26.09167,50
26.10000,49
26.10833,49
26.11667,48
26.12500,48
26.13333,47
26.14167,47
26.15000,46
26.15833,46
26.16667,45
26.17500,45
26.18333,45
26.19167,44
26.20000,44
26.20833,44
26.21667,44
26.22500,43
26.23333,43
26.24167,42
26.25000,42
26.25833,42
26.26667,41
26.27500,41
26.28333,41
26.29167,41
26.30000,41
26.30833,41
26.31667,41
26.32500,40
26.33333,40
26.34167,40
26.35000,41
26.35833,40
26.36667,40
26.37500,40
26.38333,40
26.39167,39
26.40000,39
26.40833,38
26.41667,38
26.42500,38
26.43333,38
26.44167,38
26.45000,38
26.45833,38
26.46667,38
26.47500,37
26.48333,37
26.49167,37
26.50000,36
26.50833,36
26.51667,37
26.52500,37
26.53333,37
26.54167,37
26.55000,37
26.55833,37
26.56667,37
26.57500,37
26.58333,37
26.59167,36
26.60000,36
26.60833,36
26.61667,36
26.62500,36
26.63333,37
26.64167,37
26.65000,36
26.65833,36
26.66667,36
26.67500,36
26.68333,36
26.69167,36
26.70000,36
26.70833,35
26.71667,35
26.72500,35
26.73333,35
26.74167,35
26.75000,35
26.75833,35
26.76667,35
26.77500,35
26.78333,35
26.79167,35
26.80000,35
26.80833,35
26.81667,35
26.82500,36
26.83333,35
26.84167,35
26.85000,35
26.85833,35
26.86667,34
26.87500,34
26.88333,34
26.89167,35
26.90000,35
26.90833,34
26.91667,34
26.92500,34
26.93333,34
26.94167,33
26.95000,33
26.95833,33
26.96667,33
26.97500,32
26.98333,32
26.99167,32
27.00000,32
27.00833,32
27.01667,32
27.02500,32
27.03333,32
27.04167,32
27.05000,31
27.05833,31
27.06667,31
27.07500,31
27.08333,31
27.09167,30
27.10000,30
27.10833,30
27.11667,30
27.12500,30
27.13333,30
27.14167,29
27.15000,29
27.15833,29
27.16667,29
27.17500,29
27.18333,29
27.19167,29
27.20000,29
27.20833,29
27.21667,29
27.22500,29
27.23333,29
27.24167,29
27.25000,29
27.25833,29
27.26667,29
27.27500,29
27.28333,29
27.29167,29
27.30000,28
27.30833,28
27.31667,28
27.32500,28
27.33333,28
27.34167,28
27.35000,28
27.35833,28
27.36667,28
27.37500,28
27.38333,28
27.39167,28
27.40000,28
27.40833,28
27.41667,29
27.42500,29
27.43333,28
27.44167,28
27.45000,28
27.45833,28
27.46667,28
27.47500,28
27.48333,28
27.49167,27
27.50000,27
27.50833,27
27.51667,27
27.52500,27
27.53333,27
27.54167,27
27.55000,27
27.55833,27
27.56667,27
27.57500,27
27.58333,27
27.59167,27
27.60000,26
27.60833,26
27.61667,26
27.62500,26
27.63333,26
27.64167,26
27.65000,26
27.65833,26
27.66667,26
27.67500,25
27.68333,25
27.69167,25
27.70000,25
27.70833,25
27.71667,25
27.72500,24
27.73333,24
27.74167,24
27.75000,24
27.75833,24
27.76667,24
27.77500,24
27.78333,23
27.79167,23
27.80000,22
27.80833,22
27.81667,21
27.82500,21
27.83333,21
27.84167,20
27.85000,20
27.85833,20
27.86667,19
27.87500,18
27.88333,17
27.89167,17
27.90000,16
27.90833,15
27.91667,15
27.92500,14
27.93333,13
27.94167,12
27.95000,10
27.95833,9
27.96667,7
27.97500,6
27.98333,4
27.99167,2
28.00000,1
28.00833,-0
28.01667,-2
28.02500,-3
28.03333,-5
28.04167,-7
28.05000,-9
28.05833,-11
28.06667,-14
28.07500,-16
28.08333,-19
28.09167,-21
28.10000,-23
28.10833,-26
28.11667,-29
28.12500,-32
28.13333,-34
28.14167,-37
28.15000,-40
28.15833,-43
28.16667,-46
28.17500,-49
28.18333,-52
28.19167,-55
28.20000,-58
28.20833,-62
28.21667,-64
28.22500,-68
28.23333,-71
28.24167,-74
28.25000,-77
28.25833,-80
28.26667,-83
28.27500,-86
28.28333,-89
28.29167,-92
28.30000,-95
28.30833,-97
28.31667,-100
28.32500,-103
28.33333,-105
28.34167,-107
28.35000,-109
28.35833,-111
28.36667,-113
28.37500,-115
28.38333,-116
28.39167,-117
28.40000,-119
28.40833,-120
28.41667,-121
28.42500,-122
28.43333,-122
28.44167,-123
28.45000,-123
28.45833,-124
28.46667,-124
28.47500,-124
28.48333,-123
28.49167,-123
28.50000,-122
28.50833,-121
28.51667,-120
28.52500,-118
28.53333,-117
28.54167,-116
28.55000,-114
28.55833,-113
28.56667,-111
28.57500,-110
28.58333,-108
28.59167,-106
28.60000,-104
28.60833,-101
28.61667,-99
28.62500,-96
28.63333,-94
28.64167,-91
28.65000,-89
28.65833,-86
28.66667,-83
28.67500,-81
28.68333,-78
28.69167,-75
28.70000,-73
28.70833,-70
28.71667,-67
28.72500,-65
28.73333,-62
28.74167,-59
28.75000,-57
28.75833,-54
28.76667,-52
28.77500,-50
28.78333,-47
28.79167,-45
28.80000,-43
28.80833,-40
28.81667,-38
28.82500,-36
28.83333,-34
28.84167,-32
28.85000,-30
28.85833,-28
28.86667,-26
28.87500,-24
28.88333,-22
28.89167,-20
28.90000,-18
28.90833,-17
28.91667,-15
28.92500,-14
28.93333,-13
28.94167,-12
28.95000,-11
28.95833,-9
28.96667,-8
28.97500,-6
28.98333,-5
28.99167,-4
29.00000,-2
29.00833,-1
29.01667,-0
29.02500,0
29.03333,1
29.04167,2
29.05000,3
29.05833,3
29.06667,4
29.07500,5
29.08333,5
29.09167,6
29.10000,6
29.10833,7
29.11667,7
29.12500,7
29.13333,8
29.14167,8
29.15000,8
29.15833,8
29.16667,9
29.17500,9
29.18333,9
29.19167,9
29.20000,10
29.20833,10
29.21667,10
29.22500,10
29.23333,10
29.24167,11
29.25000,11
29.25833,12
29.26667,12
29.27500,12
29.28333,12
29.29167,12
29.30000,12
29.30833,12
29.31667,12
29.32500,12
29.33333,13
29.34167,13
29.35000,13
29.35833,13
29.36667,13
29.37500,13
29.38333,13
29.39167,13
29.40000,13
29.40833,14
29.41667,14
29.42500,14
29.43333,14
29.44167,14
29.45000,14
29.45833,13
29.46667,13
29.47500,13
29.48333,13
29.49167,12
29.50000,12
29.50833,12
29.51667,12
29.52500,12
29.53333,12
29.54167,12
29.55000,12
29.55833,12
29.56667,12
29.57500,12
29.58333,12
29.59167,11
29.60000,11
29.60833,10
29.61667,10
29.62500,9
29.63333,9
29.64167,8
29.65000,8
29.65833,7
29.66667,6
29.67500,6
29.68333,6
29.69167,5
29.70000,5
29.70833,4
29.71667,3
29.72500,2
29.73333,2
29.74167,2
29.75000,1
29.75833,1
29.76667,0
29.77500,-0
29.78333,-1
29.79167,-1
29.80000,-2
29.80833,-3
29.81667,-3
29.82500,-4
29.83333,-5
29.84167,-6
29.85000,-7
29.85833,-8
29.86667,-9
29.87500,-10
29.88333,-11
29.89167,-12
29.90000,-13
29.90833,-15
29.91667,-16
29.92500,-17
29.93333,-18
29.94167,-19
29.95000,-20
29.95833,-21
29.96667,-22
29.97500,-23
29.98333,-24
29.99167,-25
30.00000,-26
30.00833,-27
30.01667,-28
30.02500,-29
30.03333,-31
30.04167,-31
30.05000,-32
30.05833,-33
30.06667,-33
30.07500,-34
30.08333,-35
30.09167,-36
30.10000,-37
30.10833,-38
30.11667,-38
30.12500,-39
30.13333,-39
30.14167,-40
30.15000,-41
30.15833,-41
30.16667,-41
30.17500,-41
30.18333,-41
30.19167,-41
30.20000,-41
30.20833,-42
30.21667,-42
30.22500,-42
30.23333,-42
30.24167,-42
30.25000,-42
30.25833,-41
30.26667,-41
30.27500,-40
30.28333,-40
30.29167,-39
30.30000,-38
30.30833,-37
30.31667,-37
30.32500,-36
30.33333,-36
30.34167,-35
30.35000,-35
30.35833,-34
30.36667,-33
30.37500,-33
30.38333,-31
30.39167,-30
30.40000,-29
30.40833,-28
30.41667,-27
30.42500,-26
30.43333,-26
30.44167,-25
30.45000,-24
30.45833,-22
30.46667,-21
30.47500,-20
30.48333,-20
30.49167,-19
30.50000,-18
30.50833,-17
30.51667,-16
30.52500,-14
30.53333,-14
30.54167,-13
30.55000,-12
30.55833,-12
30.56667,-11
30.57500,-10
30.58333,-10
30.59167,-9
30.60000,-8
30.60833,-7
30.61667,-6
30.62500,-6
30.63333,-5
30.64167,-5
30.65000,-4
30.65833,-4
30.66667,-3
30.67500,-3
30.68333,-2
30.69167,-1
30.70000,-1
30.70833,0
30.71667,1
30.72500,1
30.73333,2
30.74167,3
30.75000,3
30.75833,4
30.76667,4
30.77500,4
30.78333,4
30.79167,4
30.80000,5
30.80833,5
30.81667,5
30.82500,5
30.83333,6
30.84167,6
30.85000,6
30.85833,7
30.86667,7
30.87500,8
30.88333,8
30.89167,8
30.90000,8
30.90833,8
30.91667,8
30.92500,8
30.93333,8
30.94167,8
30.95000,8
30.95833,8
30.96667,8
30.97500,9
30.98333,9
30.99167,8
31.00000,8
31.00833,8
31.01667,8
31.02500,8
31.03333,8
31.04167,8
31.05000,9
31.05833,9
31.06667,9
31.07500,9
31.08333,9
31.09167,9
31.10000,9
31.10833,9
31.11667,10
31.12500,9
31.13333,9
31.14167,10
31.15000,10
31.15833,10
31.16667,10
31.17500,10
31.18333,10
31.19167,10
31.20000,10
31.20833,11
31.21667,11
31.22500,11
31.23333,11
31.24167,11
31.25000,11
31.25833,11
31.26667,11
31.27500,11
31.28333,11
31.29167,11
31.30000,12
31.30833,12
31.31667,12
31.32500,11
31.33333,11
31.34167,11
31.35000,11
31.35833,11
31.36667,11
31.37500,12
31.38333,12
31.39167,12
31.40000,12
31.40833,12
31.41667,12
31.42500,12
31.43333,12
31.44167,12
31.45000,12
31.45833,12
31.46667,12
31.47500,12
31.48333,12
31.49167,12
31.50000,13
31.50833,13
31.51667,13
31.52500,13
31.53333,13
31.54167,13
31.55000,13
31.55833,13
31.56667,14
31.57500,14
31.58333,14
31.59167,13
31.60000,13
31.60833,13
31.61667,13
31.62500,13
31.63333,14
31.64167,14
31.65000,14
31.65833,13
31.66667,13
31.67500,13
31.68333,13
31.69167,13
31.70000,13
31.70833,12
31.71667,12
31.72500,12
31.73333,12
31.74167,12
31.75000,13
31.75833,13
31.76667,14
31.77500,14
31.78333,13
31.79167,13
31.80000,13
31.80833,13
31.81667,14
31.82500,14
31.83333,14
31.84167,14
31.85000,14
31.85833,14
31.86667,14
31.87500,14
31.88333,14
31.89167,14
31.90000,14
31.90833,14
31.91667,14
31.92500,14
31.93333,14
31.94167,13
31.95000,13
31.95833,13
31.96667,13
31.97500,13
31.98333,13
31.99167,13
32.00000,13
32.00833,13
32.01667,13
32.02500,14
32.03333,13
32.04167,13
32.05000,13
32.05833,13
32.06667,13
32.07500,13
32.08333,13
32.09167,13
32.10000,13
32.10833,13
32.11667,13
32.12500,13
32.13333,14
32.14167,14
32.15000,14
32.15833,14
32.16667,13
32.17500,13
32.18333,14
32.19167,14
32.20000,14
32.20833,14
32.21667,14
32.22500,14
32.23333,14
32.24167,14
32.25000,14
32.25833,14
32.26667,14
32.27500,14
32.28333,13
32.29167,13
32.30000,13
32.30833,13
32.31667,13
32.32500,13
32.33333,14
32.34167,14
32.35000,14
32.35833,14
32.36667,14
32.37500,14
32.38333,14
32.39167,14
32.40000,14
32.40833,14
32.41667,14
32.42500,14
32.43333,15
32.44167,14
32.45000,14
32.45833,14
32.46667,14
32.47500,14
32.48333,14
32.49167,14
32.50000,13
32.50833,13
32.51667,13
32.52500,13
32.53333,13
32.54167,13
32.55000,13
32.55833,13
32.56667,13
32.57500,13
32.58333,13
32.59167,13
32.60000,13
32.60833,13
32.61667,13
32.62500,14
32.63333,14
32.64167,14
32.65000,14
32.65833,14
32.66667,14
32.67500,14
32.68333,14
32.69167,14
32.70000,14
32.70833,15
32.71667,15
32.72500,15
32.73333,15
32.74167,15
32.75000,15
32.75833,15
32.76667,14
32.77500,14
32.78333,14
32.79167,14
32.80000,14
32.80833,13
32.81667,13
32.82500,14
32.83333,14
32.84167,13
32.85000,13
32.85833,13
32.86667,13
32.87500,13
32.88333,13
32.89167,13
32.90000,14
32.90833,14
32.91667,14
32.92500,14
32.93333,14
32.94167,14
32.95000,14
32.95833,14
32.96667,14
32.97500,13
32.98333,14
32.99167,14
33.00000,14
33.00833,14
33.01667,14
33.02500,14
33.03333,14
33.04167,14
33.05000,14
33.05833,14
33.06667,14
33.07500,14
33.08333,14
33.09167,14
33.10000,14
33.10833,14
33.11667,14
33.12500,14
33.13333,14
33.14167,14
33.15000,14
33.15833,14
33.16667,14
33.17500,14
33.18333,14
33.19167,13
33.20000,13
33.20833,13
33.21667,12
33.22500,12
33.23333,13
33.24167,13
33.25000,13
33.25833,14
33.26667,14
33.27500,14
33.28333,14
33.29167,14
33.30000,14
33.30833,14
33.31667,14
33.32500,14
33.33333,14
33.34167,14
33.35000,14
33.35833,14
33.36667,14
33.37500,14
33.38333,13
33.39167,13
33.40000,13
33.40833,13
33.41667,13
33.42500,13
33.43333,13
33.44167,13
33.45000,13
33.45833,13
33.46667,13
33.47500,13
33.48333,13
33.49167,13
33.50000,13
33.50833,13
33.51667,13
33.52500,13
33.53333,13
33.54167,13
33.55000,13
33.55833,13
33.56667,13
33.57500,13
33.58333,13
33.59167,13
33.60000,13
33.60833,13
33.61667,13
33.62500,14
33.63333,13
33.64167,13
33.65000,13
33.65833,13
33.66667,14
33.67500,14
33.68333,14
33.69167,14
33.70000,14
33.70833,14
33.71667,14
33.72500,14
33.73333,14
33.74167,14
33.75000,14
33.75833,14
33.76667,13
33.77500,14
33.78333,13
33.79167,13
33.80000,13
33.80833,13
33.81667,13
33.82500,14
33.83333,14
33.84167,14
33.85000,13
33.85833,13
33.86667,14
33.87500,14
33.88333,14
33.89167,14
33.90000,14
33.90833,14
33.91667,14
33.92500,14
33.93333,14
33.94167,14
33.95000,14
33.95833,14
33.96667,13
33.97500,13
33.98333,13
33.99167,13
34.00000,13
34.00833,13
34.01667,13
34.02500,13
34.03333,13
34.04167,12
34.05000,12
34.05833,12
34.06667,12
34.07500,13
34.08333,13
34.09167,13
34.10000,13
34.10833,13
34.11667,13
34.12500,13
34.13333,12
34.14167,12
34.15000,12
34.15833,12
34.16667,12
34.17500,12
34.18333,12
34.19167,12
34.20000,12
34.20833,12
34.21667,12
34.22500,12
34.23333,12
34.24167,12
34.25000,12
34.25833,12
34.26667,12
34.27500,12
34.28333,12
34.29167,12
34.30000,13
34.30833,13
34.31667,13
34.32500,12
34.33333,12
34.34167,12
34.35000,12
34.35833,12
34.36667,12
34.37500,12
34.38333,13
34.39167,13
34.40000,13
34.40833,13
34.41667,12
34.42500,12
34.43333,12
34.44167,12
34.45000,12
34.45833,13
34.46667,13
34.47500,12
34.48333,12
34.49167,12
34.50000,12
34.50833,12
34.51667,12
34.52500,12
34.53333,13
34.54167,13
34.55000,13
34.55833,13
34.56667,13
34.57500,13
34.58333,13
34.59167,13
34.60000,13
34.60833,13
34.61667,13
34.62500,13
34.63333,12
34.64167,12
34.65000,12
34.65833,12
34.66667,12
34.67500,12
34.68333,12
34.69167,12
34.70000,12
34.70833,12
34.71667,12
34.72500,12
34.73333,12
34.74167,13
34.75000,13
34.75833,13
34.76667,13
34.77500,13
34.78333,13
34.79167,13
34.80000,12
34.80833,12
34.81667,12
34.82500,12
34.83333,12
34.84167,12
34.85000,13
34.85833,13
34.86667,13
34.87500,13
34.88333,13
34.89167,13
34.90000,13
34.90833,13
34.91667,13
34.92500,13
34.93333,13
34.94167,13
34.95000,13
34.95833,12
34.96667,12
34.97500,12
34.98333,12
34.99167,12
35.00000,11
35.00833,11
35.01667,11
35.02500,11
35.03333,11
35.04167,11
35.05000,11
35.05833,11
35.06667,11
35.07500,12
35.08333,12
35.09167,12
35.10000,12
35.10833,12
35.11667,12
35.12500,12
35.13333,12
35.14167,12
35.15000,12
35.15833,12
35.16667,12
35.17500,12
35.18333,12
35.19167,12
35.20000,12
35.20833,12
35.21667,12
35.22500,12
35.23333,12
35.24167,12
35.25000,11
35.25833,11
35.26667,12
35.27500,12
35.28333,12
35.29167,12
35.30000,12
35.30833,12
35.31667,12
35.32500,12
35.33333,12
35.34167,12
35.35000,12
35.35833,12
35.36667,12
35.37500,12
35.38333,13
35.39167,12
35.40000,12
35.40833,12
35.41667,12
35.42500,12
35.43333,12
35.44167,12
35.45000,12
35.45833,12
35.46667,12
35.47500,12
35.48333,13
35.49167,12
35.50000,12
35.50833,12
35.51667,12
35.52500,12
35.53333,12
35.54167,12
35.55000,12
35.55833,12
35.56667,12
35.57500,12
35.58333,12
35.59167,12
35.60000,12
35.60833,12
35.61667,12
35.62500,12
35.63333,12
35.64167,12
35.65000,12
35.65833,12
35.66667,12
35.67500,12
35.68333,13
35.69167,13
35.70000,13
35.70833,13
35.71667,12
35.72500,12
35.73333,12
35.74167,12
35.75000,12
35.75833,12
35.76667,12
35.77500,12
35.78333,12
35.79167,12
35.80000,12
35.80833,12
35.81667,12
35.82500,12
35.83333,12
35.84167,12
35.85000,12
35.85833,12
35.86667,12
35.87500,12
35.88333,12
35.89167,12
35.90000,12
35.90833,12
35.91667,12
35.92500,12
35.93333,11
35.94167,12
35.95000,11
35.95833,11
35.96667,11
35.97500,11
35.98333,11
35.99167,11
36.00000,11
36.00833,11
36.01667,11
36.02500,12
36.03333,12
36.04167,12
36.05000,12
36.05833,12
36.06667,12
36.07500,11
36.08333,11
36.09167,11
36.10000,11
36.10833,11
36.11667,11
36.12500,11
36.13333,11
36.14167,11
36.15000,11
36.15833,11
36.16667,11
36.17500,10
36.18333,10
36.19167,10
36.20000,11
36.20833,11
36.21667,11
36.22500,11
36.23333,11
36.24167,10
36.25000,10
36.25833,10
36.26667,10
36.27500,10
36.28333,10
36.29167,9
36.30000,9
36.30833,9
36.31667,9
36.32500,9
36.33333,9
36.34167,9
36.35000,9
36.35833,9
36.36667,9
36.37500,10
36.38333,10
36.39167,9
36.40000,9
36.40833,10
36.41667,10
36.42500,10
36.43333,10
36.44167,10
36.45000,10
36.45833,10
36.46667,10
36.47500,9
36.48333,9
36.49167,10
36.50000,10
36.50833,9
36.51667,9
36.52500,9
36.53333,9
36.54167,10
36.55000,10
36.55833,10
36.56667,10
36.57500,10
36.58333,10
36.59167,10
36.60000,10
36.60833,10
36.61667,10
36.62500,10
36.63333,10
36.64167,10
36.65000,10
36.65833,10
36.66667,9
36.67500,9
36.68333,10
36.69167,9
36.70000,9
36.70833,10
36.71667,10
36.72500,10
36.73333,10
36.74167,10
36.75000,10
36.75833,11
36.76667,11
36.77500,11
36.78333,11
36.79167,10
36.80000,10
36.80833,10
36.81667,11
36.82500,11
36.83333,11
36.84167,11
36.85000,11
36.85833,11
36.86667,11
36.87500,11
36.88333,11
36.89167,11
36.90000,11
36.90833,11
36.91667,11
36.92500,10
36.93333,10
36.94167,10
36.95000,10
36.95833,10
36.96667,10
36.97500,10
36.98333,9
36.99167,10
37.00000,10
37.00833,10
37.01667,11
37.02500,11
37.03333,11
37.04167,11
37.05000,11
37.05833,11
37.06667,11
37.07500,11
37.08333,11
37.09167,10
37.10000,10
37.10833,10
37.11667,9
37.12500,9
37.13333,9
37.14167,10
37.15000,10
37.15833,10
37.16667,10
37.17500,10
37.18333,10
37.19167,10
37.20000,10
37.20833,10
37.21667,10
37.22500,9
37.23333,9
37.24167,9
37.25000,9
37.25833,9
37.26667,9
37.27500,9
37.28333,9
37.29167,9
37.30000,9
37.30833,9
37.31667,9
37.32500,9
37.33333,9
37.34167,9
37.35000,9
37.35833,9
37.36667,9
37.37500,9
37.38333,9
37.39167,9
37.40000,10
37.40833,10
37.41667,9
37.42500,9
37.43333,9
37.44167,9
37.45000,9
37.45833,9
37.46667,9
37.47500,9
37.48333,9
37.49167,9
37.50000,9
37.50833,9
37.51667,9
37.52500,9
37.53333,9
37.54167,9
37.55000,9
37.55833,9
37.56667,9
37.57500,9
37.58333,9
37.59167,9
37.60000,9
37.60833,9
37.61667,9
37.62500,9
37.63333,9
37.64167,9
37.65000,9
37.65833,9
37.66667,9
37.67500,9
37.68333,9
37.69167,9
37.70000,9
37.70833,9
37.71667,9
37.72500,9
37.73333,9
37.74167,9
37.75000,9
37.75833,9
37.76667,9
37.77500,9
37.78333,9
37.79167,9
37.80000,9
37.80833,9
37.81667,9
37.82500,9
37.83333,10
37.84167,10
37.85000,10
37.85833,10
37.86667,10
37.87500,10
37.88333,10
37.89167,10
37.90000,9
37.90833,9
37.91667,9
37.92500,9
37.93333,9
37.94167,9
37.95000,9
37.95833,9
37.96667,10
37.97500,10
37.98333,10
37.99167,10
38.00000,10
38.00833,10
38.01667,9
38.02500,9
38.03333,9
38.04167,9
38.05000,9
38.05833,9
38.06667,10
38.07500,10
38.08333,10
38.09167,10
38.10000,10
38.10833,10
38.11667,10
38.12500,10
38.13333,10
38.14167,11
38.15000,11
38.15833,11
38.16667,11
38.17500,11
38.18333,11
38.19167,11
38.20000,11
38.20833,11
38.21667,11
38.22500,11
38.23333,11
38.24167,10
38.25000,10
38.25833,10
38.26667,10
38.27500,11
38.28333,11
38.29167,11
38.30000,11
38.30833,11
38.31667,11
38.32500,11
38.33333,11
38.34167,11
38.35000,11
38.35833,12
38.36667,12
38.37500,12
38.38333,11
38.39167,11
38.40000,11
38.40833,10
38.41667,10
38.42500,10
38.43333,11
38.44167,11
38.45000,11
38.45833,12
38.46667,12
38.47500,12
38.48333,12
38.49167,12
38.50000,11
38.50833,11
38.51667,11
38.52500,11
38.53333,11
38.54167,12
38.55000,12
38.55833,12
38.56667,12
38.57500,11
38.58333,11
38.59167,11
38.60000,11
38.60833,11
38.61667,11
38.62500,11
38.63333,11
38.64167,12
38.65000,12
38.65833,12
38.66667,12
38.67500,12
38.68333,12
38.69167,11
38.70000,11
38.70833,11
38.71667,10
38.72500,10
38.73333,10
38.74167,10
38.75000,10
38.75833,10
38.76667,9
38.77500,9
38.78333,9
38.79167,9
38.80000,10
38.80833,10
38.81667,10
38.82500,9
38.83333,9
38.84167,10
38.85000,10
38.85833,10
38.86667,9
38.87500,9
38.88333,9
38.89167,9
38.90000,9
38.90833,9
38.91667,9
38.92500,8
38.93333,9
38.94167,8
38.95000,8
38.95833,8
38.96667,8
38.97500,9
38.98333,9
38.99167,8
39.00000,8
39.00833,8
39.01667,8
39.02500,8
39.03333,8
39.04167,8
39.05000,8
39.05833,8
39.06667,8
39.07500,9
39.08333,8
39.09167,8
39.10000,8
39.10833,8
39.11667,8
39.12500,8
39.13333,8
39.14167,8
39.15000,8
39.15833,7
39.16667,7
39.17500,7
39.18333,7
39.19167,7
39.20000,7
39.20833,7
39.21667,7
39.22500,7
39.23333,7
39.24167,7
39.25000,7
39.25833,7
39.26667,7
39.27500,7
39.28333,7
39.29167,7
39.30000,8
39.30833,8
39.31667,8
39.32500,8
39.33333,7
39.34167,8
39.35000,7
39.35833,7
39.36667,7
39.37500,8
39.38333,8
39.39167,8
39.40000,8
39.40833,8
39.41667,7
39.42500,7
39.43333,7
39.44167,7
39.45000,6
39.45833,6
39.46667,7
39.47500,7
39.48333,7
39.49167,7
39.50000,7
39.50833,7
39.51667,7
39.52500,7
39.53333,8
39.54167,8
39.55000,8
39.55833,8
39.56667,8
39.57500,8
39.58333,7
39.59167,7
39.60000,7
39.60833,7
39.61667,7
39.62500,7
39.63333,7
39.64167,7
39.65000,7
39.65833,7
39.66667,7
39.67500,7
39.68333,7
39.69167,7
39.70000,7
39.70833,7
39.71667,7
39.72500,7
39.73333,7
39.74167,7
39.75000,8
39.75833,8
39.76667,8
39.77500,8
39.78333,8
39.79167,7
39.80000,7
39.80833,7
39.81667,7
39.82500,7
39.83333,7
39.84167,7
39.85000,7
39.85833,7
39.86667,7
39.87500,7
39.88333,7
39.89167,7
39.90000,8
39.90833,7
39.91667,7
39.92500,7
39.93333,7
39.94167,7
39.95000,7
39.95833,7
39.96667,8
39.97500,8
39.98333,8
39.99167,8
40.00000,8

