[Header]
Application Name,LabSolutions
Version,5.97 SP1
Data File Name,C:\Users\cremerlab\Desktop\griffin\2021-03-31_NC_glucose_glycerol_acetate_calibration\calibration_batch_422021_001_001.lcd
Output Date,4/2/2021
Output Time,8:22:50 PM

[File Information]
Type,Data File
Generated,4/2/2021 7:42:31 PM
Generated by,System Administrator
Modified,4/2/2021 8:22:50 PM
Modified by,System Administrator

[Sample Information]
Operator Name,System Administrator
Acquired,4/2/2021 7:42:50 PM
Sample Type,1:Standard
Level,1
Sample Name,2021-04-02_NC_glucose_glycerol_acetate_calibration_00mM
Sample ID,001
ISTD Amount1,1
ISTD Amount2,1
ISTD Amount3,1
ISTD Amount4,1
ISTD Amount5,1
ISTD Amount6,1
ISTD Amount7,1
ISTD Amount8,1
ISTD Amount9,1
ISTD Amount10,1
ISTD Amount11,1
ISTD Amount12,1
ISTD Amount13,1
ISTD Amount14,1
ISTD Amount15,1
ISTD Amount16,1
ISTD Amount17,1
ISTD Amount18,1
ISTD Amount19,1
ISTD Amount20,1
ISTD Amount21,1
ISTD Amount22,1
ISTD Amount23,1
ISTD Amount24,1
ISTD Amount25,1
ISTD Amount26,1
ISTD Amount27,1
ISTD Amount28,1
ISTD Amount29,1
ISTD Amount30,1
ISTD Amount31,1
ISTD Amount32,1
Sample Amount,1
Dilution Factor,1
Vial#,1
Injection Volume,20

[Original Files]
Data File,C:\Users\cremerlab\Desktop\griffin\2021-03-31_NC_glucose_glycerol_acetate_calibration\calibration_batch_422021_001_001.lcd
Method File,C:\LabSolutions\Data\Project1\organicacidsetc2.lcm
Batch File,C:\Users\cremerlab\Desktop\griffin\2021-03-31_NC_glucose_glycerol_acetate_calibration\calibration_batch.lcb
Report Format File,c:\LabSolutions\System\DEFAULT.lsr

[File Description]


[Configuration]
Instrument Name,HPLC-PC-Instrument1
Instrument #,1
Line #,1
# of Detectors,2
Detector ID,Detector A,Detector B
Detector Name,Detector A,Detector B
# of Channels,1,1

[Peak Table(Detector A)]
# of Peaks,0

[Peak Table(Detector B)]
# of Peaks,4
Peak#,R.Time,I.Time,F.Time,Area,Height,A/H,Conc.,Mark,ID#,Name,k',Plate #,Plate Ht.,Tailing,Resolution,Sep.Factor,Area Ratio,Height Ratio,Conc. %,Norm Conc.
1,1.748,0.500,3.033,1041200,20889,49.845,0.000,   ,,,0.000,28,5359.167,1.091,0.000,0.000,0,0,0.000,0.000
2,3.676,3.033,4.425,11428,233,49.013,0.000, V ,,,1.103,129,1158.936,0.000,1.475,0.000,0,0,0.000,0.000
3,11.061,10.758,11.658,1125951,70426,15.988,0.000,   ,,,5.329,10926,13.728,1.139,8.609,4.830,0,0,0.000,0.000
4,15.109,14.108,18.075,3242704,119895,27.046,0.000,   ,,,7.644,7079,21.188,0.770,7.091,1.435,0,0,0.000,0.000

[LC Chromatogram(Detector B-Ch1)]
Interval(msec),500
# of Points,4801
Start Time(min),0.000
End Time(min),40.000
Intensity Units,mV
Intensity Multiplier,0.001
R.Time (min),Intensity
0.00000,102
0.00833,102
0.01667,28
0.02500,0
0.03333,0
0.04167,-0
0.05000,-0
0.05833,-0
0.06667,-1
0.07500,-1
0.08333,-1
0.09167,-1
0.10000,-1
0.10833,-2
0.11667,-3
0.12500,-4
0.13333,-5
0.14167,-5
0.15000,-6
0.15833,-6
0.16667,-7
0.17500,-8
0.18333,-9
0.19167,-9
0.20000,-10
0.20833,-11
0.21667,-11
0.22500,-12
0.23333,-13
0.24167,-13
0.25000,-14
0.25833,-14
0.26667,-15
0.27500,-15
0.28333,-16
0.29167,-16
0.30000,-17
0.30833,-18
0.31667,-18
0.32500,-19
0.33333,-19
0.34167,-20
0.35000,-20
0.35833,-21
0.36667,-21
0.37500,-21
0.38333,-21
0.39167,-22
0.40000,-22
0.40833,-22
0.41667,-22
0.42500,-22
0.43333,-22
0.44167,-22
0.45000,-22
0.45833,-22
0.46667,-22
0.47500,-22
0.48333,-21
0.49167,-21
0.50000,-20
0.50833,-19
0.51667,-17
0.52500,-16
0.53333,-14
0.54167,-12
0.55000,-11
0.55833,-9
0.56667,-7
0.57500,-5
0.58333,-3
0.59167,0
0.60000,3
0.60833,7
0.61667,10
0.62500,13
0.63333,17
0.64167,21
0.65000,25
0.65833,31
0.66667,36
0.67500,42
0.68333,49
0.69167,55
0.70000,63
0.70833,71
0.71667,79
0.72500,88
0.73333,98
0.74167,108
0.75000,120
0.75833,132
0.76667,145
0.77500,160
0.78333,175
0.79167,191
0.80000,208
0.80833,226
0.81667,246
0.82500,267
0.83333,289
0.84167,312
0.85000,337
0.85833,364
0.86667,392
0.87500,423
0.88333,454
0.89167,488
0.90000,524
0.90833,562
0.91667,603
0.92500,646
0.93333,691
0.94167,740
0.95000,791
0.95833,844
0.96667,901
0.97500,961
0.98333,1024
0.99167,1091
1.00000,1162
1.00833,1236
1.01667,1314
1.02500,1396
1.03333,1482
1.04167,1573
1.05000,1669
1.05833,1770
1.06667,1876
1.07500,1987
1.08333,2103
1.09167,2224
1.10000,2351
1.10833,2483
1.11667,2622
1.12500,2767
1.13333,2917
1.14167,3075
1.15000,3238
1.15833,3409
1.16667,3586
1.17500,3769
1.18333,3960
1.19167,4158
1.20000,4363
1.20833,4575
1.21667,4794
1.22500,5020
1.23333,5254
1.24167,5495
1.25000,5743
1.25833,5998
1.26667,6261
1.27500,6530
1.28333,6806
1.29167,7088
1.30000,7377
1.30833,7673
1.31667,7974
1.32500,8281
1.33333,8594
1.34167,8912
1.35000,9235
1.35833,9563
1.36667,9895
1.37500,10231
1.38333,10570
1.39167,10913
1.40000,11258
1.40833,11605
1.41667,11953
1.42500,12302
1.43333,12652
1.44167,13002
1.45000,13351
1.45833,13700
1.46667,14046
1.47500,14391
1.48333,14732
1.49167,15069
1.50000,15402
1.50833,15731
1.51667,16054
1.52500,16371
1.53333,16681
1.54167,16985
1.55000,17281
1.55833,17569
1.56667,17849
1.57500,18119
1.58333,18379
1.59167,18629
1.60000,18868
1.60833,19096
1.61667,19313
1.62500,19517
1.63333,19710
1.64167,19890
1.65000,20057
1.65833,20211
1.66667,20352
1.67500,20479
1.68333,20593
1.69167,20693
1.70000,20780
1.70833,20852
1.71667,20911
1.72500,20955
1.73333,20986
1.74167,21003
1.75000,21007
1.75833,20996
1.76667,20973
1.77500,20935
1.78333,20885
1.79167,20822
1.80000,20746
1.80833,20657
1.81667,20556
1.82500,20443
1.83333,20319
1.84167,20184
1.85000,20038
1.85833,19882
1.86667,19715
1.87500,19538
1.88333,19352
1.89167,19157
1.90000,18953
1.90833,18741
1.91667,18521
1.92500,18294
1.93333,18059
1.94167,17818
1.95000,17571
1.95833,17318
1.96667,17060
1.97500,16796
1.98333,16529
1.99167,16257
2.00000,15982
2.00833,15704
2.01667,15422
2.02500,15139
2.03333,14853
2.04167,14565
2.05000,14276
2.05833,13985
2.06667,13695
2.07500,13403
2.08333,13112
2.09167,12821
2.10000,12530
2.10833,12241
2.11667,11953
2.12500,11666
2.13333,11381
2.14167,11098
2.15000,10817
2.15833,10538
2.16667,10262
2.17500,9990
2.18333,9720
2.19167,9453
2.20000,9190
2.20833,8931
2.21667,8674
2.22500,8422
2.23333,8174
2.24167,7930
2.25000,7691
2.25833,7455
2.26667,7224
2.27500,6997
2.28333,6775
2.29167,6557
2.30000,6344
2.30833,6136
2.31667,5932
2.32500,5733
2.33333,5539
2.34167,5349
2.35000,5164
2.35833,4983
2.36667,4808
2.37500,4637
2.38333,4470
2.39167,4308
2.40000,4151
2.40833,3998
2.41667,3850
2.42500,3706
2.43333,3567
2.44167,3432
2.45000,3301
2.45833,3174
2.46667,3051
2.47500,2932
2.48333,2817
2.49167,2706
2.50000,2599
2.50833,2495
2.51667,2395
2.52500,2298
2.53333,2205
2.54167,2116
2.55000,2029
2.55833,1946
2.56667,1867
2.57500,1789
2.58333,1715
2.59167,1644
2.60000,1575
2.60833,1509
2.61667,1446
2.62500,1385
2.63333,1327
2.64167,1271
2.65000,1218
2.65833,1166
2.66667,1117
2.67500,1070
2.68333,1024
2.69167,981
2.70000,940
2.70833,901
2.71667,863
2.72500,826
2.73333,792
2.74167,759
2.75000,728
2.75833,698
2.76667,670
2.77500,643
2.78333,617
2.79167,593
2.80000,570
2.80833,548
2.81667,528
2.82500,508
2.83333,489
2.84167,472
2.85000,455
2.85833,440
2.86667,425
2.87500,412
2.88333,399
2.89167,388
2.90000,377
2.90833,368
2.91667,359
2.92500,350
2.93333,343
2.94167,336
2.95000,329
2.95833,324
2.96667,319
2.97500,314
2.98333,311
2.99167,308
3.00000,305
3.00833,304
3.01667,302
3.02500,301
3.03333,301
3.04167,302
3.05000,303
3.05833,304
3.06667,305
3.07500,307
3.08333,309
3.09167,311
3.10000,314
3.10833,317
3.11667,321
3.12500,325
3.13333,329
3.14167,333
3.15000,338
3.15833,343
3.16667,348
3.17500,352
3.18333,358
3.19167,363
3.20000,369
3.20833,375
3.21667,380
3.22500,386
3.23333,391
3.24167,397
3.25000,402
3.25833,408
3.26667,414
3.27500,420
3.28333,426
3.29167,431
3.30000,437
3.30833,442
3.31667,448
3.32500,453
3.33333,458
3.34167,463
3.35000,469
3.35833,474
3.36667,479
3.37500,483
3.38333,488
3.39167,493
3.40000,497
3.40833,501
3.41667,505
3.42500,509
3.43333,513
3.44167,516
3.45000,520
3.45833,523
3.46667,526
3.47500,529
3.48333,532
3.49167,535
3.50000,538
3.50833,541
3.51667,543
3.52500,545
3.53333,547
3.54167,549
3.55000,550
3.55833,552
3.56667,554
3.57500,555
3.58333,556
3.59167,558
3.60000,559
3.60833,560
3.61667,561
3.62500,562
3.63333,562
3.64167,563
3.65000,564
3.65833,564
3.66667,564
3.67500,564
3.68333,564
3.69167,564
3.70000,564
3.70833,563
3.71667,563
3.72500,562
3.73333,562
3.74167,561
3.75000,560
3.75833,559
3.76667,558
3.77500,557
3.78333,556
3.79167,555
3.80000,554
3.80833,553
3.81667,552
3.82500,551
3.83333,549
3.84167,547
3.85000,545
3.85833,543
3.86667,541
3.87500,539
3.88333,537
3.89167,535
3.90000,534
3.90833,532
3.91667,530
3.92500,527
3.93333,525
3.94167,523
3.95000,520
3.95833,518
3.96667,516
3.97500,513
3.98333,511
3.99167,509
4.00000,506
4.00833,504
4.01667,501
4.02500,499
4.03333,496
4.04167,494
4.05000,491
4.05833,488
4.06667,486
4.07500,483
4.08333,481
4.09167,479
4.10000,476
4.10833,473
4.11667,471
4.12500,469
4.13333,466
4.14167,464
4.15000,462
4.15833,460
4.16667,458
4.17500,456
4.18333,453
4.19167,451
4.20000,449
4.20833,446
4.21667,444
4.22500,442
4.23333,440
4.24167,439
4.25000,437
4.25833,436
4.26667,434
4.27500,432
4.28333,431
4.29167,429
4.30000,427
4.30833,426
4.31667,424
4.32500,423
4.33333,421
4.34167,420
4.35000,419
4.35833,418
4.36667,418
4.37500,417
4.38333,416
4.39167,415
4.40000,414
4.40833,414
4.41667,413
4.42500,413
4.43333,413
4.44167,413
4.45000,413
4.45833,412
4.46667,412
4.47500,412
4.48333,413
4.49167,413
4.50000,414
4.50833,415
4.51667,416
4.52500,417
4.53333,418
4.54167,419
4.55000,421
4.55833,422
4.56667,424
4.57500,426
4.58333,429
4.59167,431
4.60000,433
4.60833,435
4.61667,438
4.62500,441
4.63333,444
4.64167,448
4.65000,451
4.65833,455
4.66667,458
4.67500,462
4.68333,466
4.69167,471
4.70000,475
4.70833,480
4.71667,485
4.72500,490
4.73333,496
4.74167,502
4.75000,507
4.75833,513
4.76667,519
4.77500,525
4.78333,531
4.79167,538
4.80000,545
4.80833,552
4.81667,559
4.82500,567
4.83333,574
4.84167,582
4.85000,590
4.85833,598
4.86667,606
4.87500,615
4.88333,623
4.89167,632
4.90000,641
4.90833,650
4.91667,659
4.92500,668
4.93333,677
4.94167,686
4.95000,696
4.95833,706
4.96667,716
4.97500,725
4.98333,735
4.99167,745
5.00000,755
5.00833,765
5.01667,776
5.02500,786
5.03333,797
5.04167,807
5.05000,817
5.05833,828
5.06667,838
5.07500,849
5.08333,859
5.09167,870
5.10000,880
5.10833,891
5.11667,902
5.12500,912
5.13333,923
5.14167,933
5.15000,944
5.15833,954
5.16667,965
5.17500,975
5.18333,985
5.19167,995
5.20000,1005
5.20833,1016
5.21667,1026
5.22500,1036
5.23333,1046
5.24167,1056
5.25000,1066
5.25833,1076
5.26667,1086
5.27500,1095
5.28333,1105
5.29167,1115
5.30000,1124
5.30833,1134
5.31667,1143
5.32500,1152
5.33333,1160
5.34167,1169
5.35000,1178
5.35833,1187
5.36667,1196
5.37500,1204
5.38333,1213
5.39167,1221
5.40000,1230
5.40833,1238
5.41667,1246
5.42500,1254
5.43333,1262
5.44167,1269
5.45000,1277
5.45833,1284
5.46667,1291
5.47500,1299
5.48333,1306
5.49167,1314
5.50000,1320
5.50833,1327
5.51667,1334
5.52500,1341
5.53333,1348
5.54167,1354
5.55000,1360
5.55833,1366
5.56667,1372
5.57500,1378
5.58333,1384
5.59167,1390
5.60000,1395
5.60833,1400
5.61667,1406
5.62500,1412
5.63333,1417
5.64167,1422
5.65000,1427
5.65833,1433
5.66667,1437
5.67500,1442
5.68333,1447
5.69167,1452
5.70000,1457
5.70833,1462
5.71667,1466
5.72500,1470
5.73333,1474
5.74167,1478
5.75000,1482
5.75833,1487
5.76667,1490
5.77500,1494
5.78333,1498
5.79167,1501
5.80000,1505
5.80833,1508
5.81667,1512
5.82500,1515
5.83333,1519
5.84167,1522
5.85000,1526
5.85833,1529
5.86667,1532
5.87500,1535
5.88333,1538
5.89167,1541
5.90000,1543
5.90833,1547
5.91667,1550
5.92500,1553
5.93333,1555
5.94167,1558
5.95000,1560
5.95833,1563
5.96667,1566
5.97500,1568
5.98333,1571
5.99167,1574
6.00000,1576
6.00833,1578
6.01667,1581
6.02500,1583
6.03333,1586
6.04167,1588
6.05000,1591
6.05833,1593
6.06667,1595
6.07500,1598
6.08333,1600
6.09167,1602
6.10000,1604
6.10833,1607
6.11667,1609
6.12500,1611
6.13333,1614
6.14167,1616
6.15000,1618
6.15833,1621
6.16667,1623
6.17500,1625
6.18333,1627
6.19167,1630
6.20000,1632
6.20833,1634
6.21667,1636
6.22500,1638
6.23333,1640
6.24167,1642
6.25000,1645
6.25833,1647
6.26667,1650
6.27500,1652
6.28333,1654
6.29167,1656
6.30000,1659
6.30833,1661
6.31667,1663
6.32500,1666
6.33333,1668
6.34167,1671
6.35000,1674
6.35833,1676
6.36667,1679
6.37500,1681
6.38333,1684
6.39167,1686
6.40000,1689
6.40833,1692
6.41667,1695
6.42500,1698
6.43333,1701
6.44167,1704
6.45000,1707
6.45833,1710
6.46667,1713
6.47500,1715
6.48333,1719
6.49167,1721
6.50000,1724
6.50833,1727
6.51667,1731
6.52500,1734
6.53333,1737
6.54167,1740
6.55000,1743
6.55833,1746
6.56667,1750
6.57500,1753
6.58333,1757
6.59167,1760
6.60000,1764
6.60833,1768
6.61667,1772
6.62500,1775
6.63333,1779
6.64167,1783
6.65000,1787
6.65833,1790
6.66667,1794
6.67500,1798
6.68333,1802
6.69167,1806
6.70000,1810
6.70833,1814
6.71667,1818
6.72500,1821
6.73333,1825
6.74167,1829
6.75000,1833
6.75833,1838
6.76667,1842
6.77500,1846
6.78333,1850
6.79167,1854
6.80000,1858
6.80833,1862
6.81667,1866
6.82500,1871
6.83333,1875
6.84167,1879
6.85000,1884
6.85833,1888
6.86667,1892
6.87500,1896
6.88333,1900
6.89167,1904
6.90000,1909
6.90833,1913
6.91667,1918
6.92500,1922
6.93333,1927
6.94167,1931
6.95000,1935
6.95833,1939
6.96667,1944
6.97500,1948
6.98333,1952
6.99167,1956
7.00000,1961
7.00833,1965
7.01667,1968
7.02500,1972
7.03333,1976
7.04167,1980
7.05000,1984
7.05833,1988
7.06667,1992
7.07500,1996
7.08333,2000
7.09167,2005
7.10000,2008
7.10833,2012
7.11667,2015
7.12500,2019
7.13333,2023
7.14167,2027
7.15000,2031
7.15833,2035
7.16667,2039
7.17500,2043
7.18333,2046
7.19167,2049
7.20000,2053
7.20833,2057
7.21667,2060
7.22500,2064
7.23333,2067
7.24167,2070
7.25000,2073
7.25833,2076
7.26667,2080
7.27500,2083
7.28333,2086
7.29167,2089
7.30000,2092
7.30833,2095
7.31667,2099
7.32500,2102
7.33333,2105
7.34167,2108
7.35000,2111
7.35833,2114
7.36667,2116
7.37500,2120
7.38333,2122
7.39167,2125
7.40000,2128
7.40833,2131
7.41667,2133
7.42500,2136
7.43333,2139
7.44167,2141
7.45000,2144
7.45833,2147
7.46667,2149
7.47500,2152
7.48333,2154
7.49167,2157
7.50000,2160
7.50833,2162
7.51667,2164
7.52500,2167
7.53333,2169
7.54167,2171
7.55000,2173
7.55833,2176
7.56667,2178
7.57500,2180
7.58333,2182
7.59167,2184
7.60000,2186
7.60833,2188
7.61667,2190
7.62500,2192
7.63333,2195
7.64167,2197
7.65000,2199
7.65833,2201
7.66667,2203
7.67500,2205
7.68333,2207
7.69167,2209
7.70000,2211
7.70833,2213
7.71667,2215
7.72500,2216
7.73333,2218
7.74167,2220
7.75000,2222
7.75833,2223
7.76667,2225
7.77500,2227
7.78333,2229
7.79167,2230
7.80000,2232
7.80833,2234
7.81667,2235
7.82500,2237
7.83333,2239
7.84167,2240
7.85000,2241
7.85833,2243
7.86667,2245
7.87500,2246
7.88333,2248
7.89167,2249
7.90000,2250
7.90833,2251
7.91667,2253
7.92500,2254
7.93333,2256
7.94167,2257
7.95000,2259
7.95833,2261
7.96667,2262
7.97500,2263
7.98333,2264
7.99167,2265
8.00000,2266
8.00833,2268
8.01667,2269
8.02500,2270
8.03333,2272
8.04167,2273
8.05000,2274
8.05833,2276
8.06667,2277
8.07500,2279
8.08333,2280
8.09167,2281
8.10000,2283
8.10833,2284
8.11667,2285
8.12500,2286
8.13333,2288
8.14167,2289
8.15000,2291
8.15833,2292
8.16667,2293
8.17500,2294
8.18333,2294
8.19167,2296
8.20000,2297
8.20833,2298
8.21667,2299
8.22500,2301
8.23333,2302
8.24167,2302
8.25000,2303
8.25833,2304
8.26667,2306
8.27500,2307
8.28333,2308
8.29167,2309
8.30000,2310
8.30833,2311
8.31667,2312
8.32500,2313
8.33333,2314
8.34167,2315
8.35000,2317
8.35833,2318
8.36667,2319
8.37500,2320
8.38333,2321
8.39167,2322
8.40000,2323
8.40833,2324
8.41667,2325
8.42500,2325
8.43333,2326
8.44167,2327
8.45000,2328
8.45833,2329
8.46667,2330
8.47500,2331
8.48333,2332
8.49167,2334
8.50000,2334
8.50833,2335
8.51667,2336
8.52500,2336
8.53333,2337
8.54167,2338
8.55000,2339
8.55833,2340
8.56667,2341
8.57500,2342
8.58333,2342
8.59167,2343
8.60000,2344
8.60833,2345
8.61667,2346
8.62500,2347
8.63333,2348
8.64167,2349
8.65000,2350
8.65833,2350
8.66667,2351
8.67500,2352
8.68333,2353
8.69167,2354
8.70000,2355
8.70833,2357
8.71667,2358
8.72500,2358
8.73333,2359
8.74167,2360
8.75000,2360
8.75833,2361
8.76667,2362
8.77500,2362
8.78333,2363
8.79167,2364
8.80000,2365
8.80833,2365
8.81667,2366
8.82500,2367
8.83333,2368
8.84167,2369
8.85000,2369
8.85833,2370
8.86667,2370
8.87500,2371
8.88333,2372
8.89167,2372
8.90000,2373
8.90833,2375
8.91667,2375
8.92500,2376
8.93333,2376
8.94167,2377
8.95000,2378
8.95833,2379
8.96667,2379
8.97500,2380
8.98333,2381
8.99167,2381
9.00000,2382
9.00833,2383
9.01667,2383
9.02500,2384
9.03333,2385
9.04167,2385
9.05000,2386
9.05833,2387
9.06667,2388
9.07500,2388
9.08333,2389
9.09167,2389
9.10000,2390
9.10833,2391
9.11667,2391
9.12500,2392
9.13333,2392
9.14167,2393
9.15000,2394
9.15833,2395
9.16667,2395
9.17500,2396
9.18333,2396
9.19167,2397
9.20000,2397
9.20833,2397
9.21667,2397
9.22500,2397
9.23333,2398
9.24167,2399
9.25000,2400
9.25833,2400
9.26667,2401
9.27500,2402
9.28333,2403
9.29167,2404
9.30000,2405
9.30833,2405
9.31667,2406
9.32500,2406
9.33333,2407
9.34167,2407
9.35000,2408
9.35833,2408
9.36667,2408
9.37500,2409
9.38333,2409
9.39167,2410
9.40000,2411
9.40833,2411
9.41667,2412
9.42500,2413
9.43333,2413
9.44167,2413
9.45000,2413
9.45833,2414
9.46667,2414
9.47500,2415
9.48333,2416
9.49167,2417
9.50000,2417
9.50833,2417
9.51667,2418
9.52500,2418
9.53333,2418
9.54167,2419
9.55000,2420
9.55833,2420
9.56667,2421
9.57500,2422
9.58333,2423
9.59167,2423
9.60000,2423
9.60833,2424
9.61667,2424
9.62500,2425
9.63333,2425
9.64167,2426
9.65000,2426
9.65833,2427
9.66667,2427
9.67500,2428
9.68333,2429
9.69167,2430
9.70000,2430
9.70833,2431
9.71667,2431
9.72500,2431
9.73333,2432
9.74167,2433
9.75000,2433
9.75833,2434
9.76667,2434
9.77500,2435
9.78333,2435
9.79167,2436
9.80000,2436
9.80833,2436
9.81667,2437
9.82500,2437
9.83333,2437
9.84167,2438
9.85000,2438
9.85833,2439
9.86667,2440
9.87500,2440
9.88333,2441
9.89167,2441
9.90000,2442
9.90833,2442
9.91667,2442
9.92500,2442
9.93333,2443
9.94167,2443
9.95000,2444
9.95833,2444
9.96667,2445
9.97500,2445
9.98333,2446
9.99167,2446
10.00000,2447
10.00833,2447
10.01667,2448
10.02500,2448
10.03333,2449
10.04167,2449
10.05000,2450
10.05833,2451
10.06667,2451
10.07500,2451
10.08333,2452
10.09167,2452
10.10000,2452
10.10833,2452
10.11667,2453
10.12500,2453
10.13333,2453
10.14167,2453
10.15000,2454
10.15833,2454
10.16667,2455
10.17500,2455
10.18333,2456
10.19167,2456
10.20000,2457
10.20833,2458
10.21667,2458
10.22500,2458
10.23333,2459
10.24167,2460
10.25000,2460
10.25833,2461
10.26667,2462
10.27500,2462
10.28333,2463
10.29167,2464
10.30000,2464
10.30833,2465
10.31667,2466
10.32500,2466
10.33333,2467
10.34167,2467
10.35000,2467
10.35833,2468
10.36667,2469
10.37500,2470
10.38333,2471
10.39167,2471
10.40000,2472
10.40833,2472
10.41667,2473
10.42500,2473
10.43333,2475
10.44167,2476
10.45000,2477
10.45833,2477
10.46667,2478
10.47500,2479
10.48333,2479
10.49167,2479
10.50000,2479
10.50833,2478
10.51667,2475
10.52500,2472
10.53333,2466
10.54167,2457
10.55000,2445
10.55833,2427
10.56667,2404
10.57500,2372
10.58333,2331
10.59167,2278
10.60000,2211
10.60833,2128
10.61667,2026
10.62500,1905
10.63333,1761
10.64167,1595
10.65000,1406
10.65833,1193
10.66667,960
10.67500,709
10.68333,444
10.69167,171
10.70000,-104
10.70833,-370
10.71667,-619
10.72500,-840
10.73333,-1019
10.74167,-1146
10.75000,-1205
10.75833,-1183
10.76667,-1067
10.77500,-845
10.78333,-503
10.79167,-30
10.80000,584
10.80833,1349
10.81667,2273
10.82500,3363
10.83333,4623
10.84167,6058
10.85000,7668
10.85833,9456
10.86667,11421
10.87500,13558
10.88333,15867
10.89167,18339
10.90000,20970
10.90833,23748
10.91667,26664
10.92500,29703
10.93333,32849
10.94167,36084
10.95000,39386
10.95833,42727
10.96667,46077
10.97500,49400
10.98333,52656
10.99167,55800
11.00000,58783
11.00833,61553
11.01667,64055
11.02500,66234
11.03333,68040
11.04167,69425
11.05000,70351
11.05833,70789
11.06667,70725
11.07500,70157
11.08333,69096
11.09167,67569
11.10000,65617
11.10833,63287
11.11667,60639
11.12500,57736
11.13333,54640
11.14167,51417
11.15000,48128
11.15833,44829
11.16667,41568
11.17500,38388
11.18333,35324
11.19167,32402
11.20000,29641
11.20833,27056
11.21667,24653
11.22500,22434
11.23333,20399
11.24167,18541
11.25000,16854
11.25833,15329
11.26667,13955
11.27500,12723
11.28333,11621
11.29167,10639
11.30000,9765
11.30833,8989
11.31667,8303
11.32500,7696
11.33333,7160
11.34167,6688
11.35000,6273
11.35833,5909
11.36667,5588
11.37500,5307
11.38333,5061
11.39167,4845
11.40000,4656
11.40833,4491
11.41667,4347
11.42500,4221
11.43333,4111
11.44167,4015
11.45000,3932
11.45833,3859
11.46667,3795
11.47500,3740
11.48333,3691
11.49167,3649
11.50000,3613
11.50833,3581
11.51667,3553
11.52500,3530
11.53333,3509
11.54167,3491
11.55000,3476
11.55833,3463
11.56667,3453
11.57500,3444
11.58333,3436
11.59167,3429
11.60000,3424
11.60833,3420
11.61667,3417
11.62500,3414
11.63333,3412
11.64167,3411
11.65000,3411
11.65833,3410
11.66667,3410
11.67500,3411
11.68333,3411
11.69167,3412
11.70000,3413
11.70833,3413
11.71667,3414
11.72500,3416
11.73333,3417
11.74167,3418
11.75000,3419
11.75833,3419
11.76667,3420
11.77500,3420
11.78333,3420
11.79167,3421
11.80000,3420
11.80833,3420
11.81667,3420
11.82500,3419
11.83333,3418
11.84167,3416
11.85000,3415
11.85833,3413
11.86667,3410
11.87500,3407
11.88333,3404
11.89167,3400
11.90000,3396
11.90833,3392
11.91667,3388
11.92500,3384
11.93333,3378
11.94167,3373
11.95000,3367
11.95833,3361
11.96667,3354
11.97500,3347
11.98333,3340
11.99167,3332
12.00000,3325
12.00833,3317
12.01667,3309
12.02500,3301
12.03333,3292
12.04167,3283
12.05000,3274
12.05833,3265
12.06667,3255
12.07500,3245
12.08333,3235
12.09167,3225
12.10000,3215
12.10833,3205
12.11667,3195
12.12500,3185
12.13333,3175
12.14167,3164
12.15000,3154
12.15833,3143
12.16667,3132
12.17500,3121
12.18333,3110
12.19167,3099
12.20000,3088
12.20833,3077
12.21667,3067
12.22500,3057
12.23333,3046
12.24167,3036
12.25000,3026
12.25833,3015
12.26667,3005
12.27500,2995
12.28333,2985
12.29167,2975
12.30000,2966
12.30833,2956
12.31667,2947
12.32500,2937
12.33333,2928
12.34167,2920
12.35000,2911
12.35833,2903
12.36667,2895
12.37500,2887
12.38333,2879
12.39167,2871
12.40000,2864
12.40833,2856
12.41667,2849
12.42500,2841
12.43333,2835
12.44167,2828
12.45000,2821
12.45833,2814
12.46667,2808
12.47500,2802
12.48333,2796
12.49167,2790
12.50000,2784
12.50833,2778
12.51667,2772
12.52500,2767
12.53333,2762
12.54167,2757
12.55000,2752
12.55833,2747
12.56667,2743
12.57500,2738
12.58333,2734
12.59167,2730
12.60000,2726
12.60833,2722
12.61667,2718
12.62500,2715
12.63333,2711
12.64167,2708
12.65000,2704
12.65833,2701
12.66667,2698
12.67500,2695
12.68333,2691
12.69167,2688
12.70000,2685
12.70833,2683
12.71667,2680
12.72500,2678
12.73333,2675
12.74167,2673
12.75000,2670
12.75833,2668
12.76667,2666
12.77500,2664
12.78333,2662
12.79167,2659
12.80000,2657
12.80833,2655
12.81667,2653
12.82500,2652
12.83333,2650
12.84167,2648
12.85000,2647
12.85833,2645
12.86667,2643
12.87500,2641
12.88333,2639
12.89167,2638
12.90000,2637
12.90833,2636
12.91667,2634
12.92500,2633
12.93333,2632
12.94167,2630
12.95000,2629
12.95833,2628
12.96667,2626
12.97500,2625
12.98333,2623
12.99167,2622
13.00000,2621
13.00833,2620
13.01667,2619
13.02500,2618
13.03333,2617
13.04167,2616
13.05000,2615
13.05833,2614
13.06667,2614
13.07500,2613
13.08333,2612
13.09167,2611
13.10000,2610
13.10833,2609
13.11667,2608
13.12500,2607
13.13333,2607
13.14167,2606
13.15000,2605
13.15833,2605
13.16667,2604
13.17500,2603
13.18333,2603
13.19167,2602
13.20000,2601
13.20833,2600
13.21667,2599
13.22500,2598
13.23333,2598
13.24167,2597
13.25000,2596
13.25833,2596
13.26667,2595
13.27500,2594
13.28333,2594
13.29167,2594
13.30000,2593
13.30833,2592
13.31667,2591
13.32500,2591
13.33333,2591
13.34167,2591
13.35000,2590
13.35833,2590
13.36667,2590
13.37500,2589
13.38333,2589
13.39167,2588
13.40000,2587
13.40833,2587
13.41667,2586
13.42500,2586
13.43333,2585
13.44167,2585
13.45000,2585
13.45833,2585
13.46667,2585
13.47500,2585
13.48333,2584
13.49167,2583
13.50000,2583
13.50833,2582
13.51667,2582
13.52500,2582
13.53333,2582
13.54167,2582
13.55000,2582
13.55833,2581
13.56667,2581
13.57500,2581
13.58333,2581
13.59167,2581
13.60000,2581
13.60833,2581
13.61667,2581
13.62500,2581
13.63333,2581
13.64167,2581
13.65000,2581
13.65833,2581
13.66667,2581
13.67500,2581
13.68333,2581
13.69167,2581
13.70000,2581
13.70833,2581
13.71667,2581
13.72500,2581
13.73333,2580
13.74167,2580
13.75000,2580
13.75833,2580
13.76667,2580
13.77500,2581
13.78333,2581
13.79167,2581
13.80000,2581
13.80833,2581
13.81667,2581
13.82500,2581
13.83333,2581
13.84167,2581
13.85000,2581
13.85833,2581
13.86667,2581
13.87500,2581
13.88333,2582
13.89167,2582
13.90000,2582
13.90833,2583
13.91667,2583
13.92500,2583
13.93333,2583
13.94167,2584
13.95000,2584
13.95833,2584
13.96667,2584
13.97500,2584
13.98333,2584
13.99167,2585
14.00000,2585
14.00833,2586
14.01667,2586
14.02500,2587
14.03333,2587
14.04167,2588
14.05000,2588
14.05833,2588
14.06667,2589
14.07500,2589
14.08333,2589
14.09167,2590
14.10000,2591
14.10833,2592
14.11667,2592
14.12500,2593
14.13333,2595
14.14167,2596
14.15000,2598
14.15833,2600
14.16667,2602
14.17500,2604
14.18333,2608
14.19167,2612
14.20000,2616
14.20833,2622
14.21667,2629
14.22500,2637
14.23333,2647
14.24167,2660
14.25000,2674
14.25833,2691
14.26667,2712
14.27500,2738
14.28333,2768
14.29167,2804
14.30000,2848
14.30833,2899
14.31667,2960
14.32500,3031
14.33333,3114
14.34167,3210
14.35000,3321
14.35833,3448
14.36667,3594
14.37500,3760
14.38333,3947
14.39167,4159
14.40000,4395
14.40833,4658
14.41667,4950
14.42500,5271
14.43333,5624
14.44167,6008
14.45000,6426
14.45833,6879
14.46667,7367
14.47500,7891
14.48333,8451
14.49167,9048
14.50000,9682
14.50833,10353
14.51667,11062
14.52500,11809
14.53333,12592
14.54167,13411
14.55000,14266
14.55833,15158
14.56667,16085
14.57500,17046
14.58333,18042
14.59167,19072
14.60000,20135
14.60833,21230
14.61667,22357
14.62500,23515
14.63333,24704
14.64167,25923
14.65000,27172
14.65833,28449
14.66667,29755
14.67500,31089
14.68333,32450
14.69167,33838
14.70000,35252
14.70833,36693
14.71667,38159
14.72500,39651
14.73333,41167
14.74167,42709
14.75000,44275
14.75833,45865
14.76667,47479
14.77500,49117
14.78333,50778
14.79167,52462
14.80000,54170
14.80833,55900
14.81667,57652
14.82500,59427
14.83333,61224
14.84167,63044
14.85000,64885
14.85833,66748
14.86667,68632
14.87500,70538
14.88333,72464
14.89167,74411
14.90000,76377
14.90833,78364
14.91667,80370
14.92500,82395
14.93333,84438
14.94167,86499
14.95000,88576
14.95833,90669
14.96667,92776
14.97500,94897
14.98333,97028
14.99167,99167
15.00000,101311
15.00833,103456
15.01667,105596
15.02500,107721
15.03333,109820
15.04167,111876
15.05000,113867
15.05833,115763
15.06667,117528
15.07500,119114
15.08333,120468
15.09167,121530
15.10000,122234
15.10833,122514
15.11667,122308
15.12500,121560
15.13333,120228
15.14167,118284
15.15000,115722
15.15833,112554
15.16667,108814
15.17500,104558
15.18333,99856
15.19167,94791
15.20000,89458
15.20833,83951
15.21667,78366
15.22500,72793
15.23333,67312
15.24167,61994
15.25000,56898
15.25833,52068
15.26667,47536
15.27500,43320
15.28333,39431
15.29167,35867
15.30000,32622
15.30833,29683
15.31667,27033
15.32500,24653
15.33333,22521
15.34167,20616
15.35000,18916
15.35833,17401
15.36667,16052
15.37500,14850
15.38333,13779
15.39167,12823
15.40000,11969
15.40833,11206
15.41667,10521
15.42500,9906
15.43333,9353
15.44167,8855
15.45000,8403
15.45833,7995
15.46667,7624
15.47500,7287
15.48333,6979
15.49167,6697
15.50000,6439
15.50833,6202
15.51667,5984
15.52500,5782
15.53333,5596
15.54167,5424
15.55000,5265
15.55833,5117
15.56667,4980
15.57500,4852
15.58333,4733
15.59167,4623
15.60000,4520
15.60833,4423
15.61667,4333
15.62500,4249
15.63333,4171
15.64167,4097
15.65000,4028
15.65833,3964
15.66667,3903
15.67500,3847
15.68333,3794
15.69167,3744
15.70000,3698
15.70833,3654
15.71667,3613
15.72500,3575
15.73333,3539
15.74167,3505
15.75000,3474
15.75833,3445
15.76667,3417
15.77500,3391
15.78333,3366
15.79167,3343
15.80000,3322
15.80833,3301
15.81667,3283
15.82500,3265
15.83333,3248
15.84167,3233
15.85000,3218
15.85833,3204
15.86667,3191
15.87500,3179
15.88333,3167
15.89167,3156
15.90000,3146
15.90833,3137
15.91667,3128
15.92500,3119
15.93333,3111
15.94167,3104
15.95000,3096
15.95833,3089
15.96667,3082
15.97500,3076
15.98333,3071
15.99167,3065
16.00000,3060
16.00833,3055
16.01667,3050
16.02500,3045
16.03333,3040
16.04167,3036
16.05000,3031
16.05833,3027
16.06667,3023
16.07500,3019
16.08333,3016
16.09167,3013
16.10000,3010
16.10833,3007
16.11667,3003
16.12500,3000
16.13333,2997
16.14167,2994
16.15000,2991
16.15833,2988
16.16667,2985
16.17500,2982
16.18333,2979
16.19167,2976
16.20000,2973
16.20833,2971
16.21667,2968
16.22500,2965
16.23333,2962
16.24167,2960
16.25000,2957
16.25833,2955
16.26667,2952
16.27500,2950
16.28333,2947
16.29167,2945
16.30000,2942
16.30833,2940
16.31667,2938
16.32500,2935
16.33333,2933
16.34167,2931
16.35000,2928
16.35833,2925
16.36667,2922
16.37500,2920
16.38333,2917
16.39167,2915
16.40000,2913
16.40833,2911
16.41667,2909
16.42500,2907
16.43333,2905
16.44167,2902
16.45000,2900
16.45833,2898
16.46667,2895
16.47500,2893
16.48333,2891
16.49167,2888
16.50000,2886
16.50833,2884
16.51667,2882
16.52500,2881
16.53333,2879
16.54167,2877
16.55000,2875
16.55833,2873
16.56667,2871
16.57500,2870
16.58333,2868
16.59167,2866
16.60000,2864
16.60833,2862
16.61667,2861
16.62500,2859
16.63333,2857
16.64167,2856
16.65000,2854
16.65833,2852
16.66667,2850
16.67500,2848
16.68333,2846
16.69167,2845
16.70000,2843
16.70833,2842
16.71667,2841
16.72500,2839
16.73333,2838
16.74167,2837
16.75000,2835
16.75833,2834
16.76667,2832
16.77500,2831
16.78333,2830
16.79167,2828
16.80000,2827
16.80833,2825
16.81667,2824
16.82500,2823
16.83333,2821
16.84167,2820
16.85000,2819
16.85833,2818
16.86667,2817
16.87500,2816
16.88333,2815
16.89167,2814
16.90000,2812
16.90833,2811
16.91667,2810
16.92500,2809
16.93333,2807
16.94167,2806
16.95000,2805
16.95833,2804
16.96667,2804
16.97500,2803
16.98333,2802
16.99167,2801
17.00000,2800
17.00833,2799
17.01667,2798
17.02500,2797
17.03333,2796
17.04167,2796
17.05000,2795
17.05833,2794
17.06667,2793
17.07500,2792
17.08333,2791
17.09167,2790
17.10000,2788
17.10833,2787
17.11667,2786
17.12500,2786
17.13333,2785
17.14167,2784
17.15000,2783
17.15833,2782
17.16667,2781
17.17500,2781
17.18333,2780
17.19167,2779
17.20000,2778
17.20833,2778
17.21667,2777
17.22500,2776
17.23333,2775
17.24167,2774
17.25000,2773
17.25833,2772
17.26667,2772
17.27500,2771
17.28333,2770
17.29167,2769
17.30000,2768
17.30833,2767
17.31667,2766
17.32500,2765
17.33333,2765
17.34167,2764
17.35000,2763
17.35833,2762
17.36667,2761
17.37500,2761
17.38333,2760
17.39167,2759
17.40000,2758
17.40833,2757
17.41667,2756
17.42500,2755
17.43333,2755
17.44167,2754
17.45000,2753
17.45833,2752
17.46667,2751
17.47500,2751
17.48333,2750
17.49167,2749
17.50000,2748
17.50833,2747
17.51667,2747
17.52500,2746
17.53333,2745
17.54167,2744
17.55000,2744
17.55833,2743
17.56667,2742
17.57500,2741
17.58333,2740
17.59167,2740
17.60000,2739
17.60833,2738
17.61667,2737
17.62500,2737
17.63333,2736
17.64167,2735
17.65000,2734
17.65833,2733
17.66667,2732
17.67500,2732
17.68333,2731
17.69167,2730
17.70000,2729
17.70833,2729
17.71667,2728
17.72500,2728
17.73333,2727
17.74167,2727
17.75000,2726
17.75833,2725
17.76667,2724
17.77500,2724
17.78333,2723
17.79167,2722
17.80000,2722
17.80833,2721
17.81667,2719
17.82500,2718
17.83333,2718
17.84167,2717
17.85000,2716
17.85833,2716
17.86667,2715
17.87500,2715
17.88333,2714
17.89167,2714
17.90000,2713
17.90833,2712
17.91667,2711
17.92500,2710
17.93333,2709
17.94167,2709
17.95000,2708
17.95833,2707
17.96667,2706
17.97500,2706
17.98333,2705
17.99167,2704
18.00000,2704
18.00833,2703
18.01667,2702
18.02500,2701
18.03333,2701
18.04167,2700
18.05000,2699
18.05833,2699
18.06667,2698
18.07500,2698
18.08333,2698
18.09167,2698
18.10000,2697
18.10833,2697
18.11667,2696
18.12500,2696
18.13333,2695
18.14167,2695
18.15000,2694
18.15833,2694
18.16667,2693
18.17500,2692
18.18333,2692
18.19167,2691
18.20000,2691
18.20833,2690
18.21667,2690
18.22500,2690
18.23333,2689
18.24167,2689
18.25000,2688
18.25833,2688
18.26667,2687
18.27500,2686
18.28333,2685
18.29167,2685
18.30000,2685
18.30833,2685
18.31667,2684
18.32500,2684
18.33333,2683
18.34167,2683
18.35000,2683
18.35833,2682
18.36667,2682
18.37500,2681
18.38333,2681
18.39167,2680
18.40000,2679
18.40833,2679
18.41667,2679
18.42500,2678
18.43333,2678
18.44167,2677
18.45000,2677
18.45833,2677
18.46667,2677
18.47500,2677
18.48333,2676
18.49167,2676
18.50000,2675
18.50833,2675
18.51667,2675
18.52500,2674
18.53333,2674
18.54167,2674
18.55000,2673
18.55833,2673
18.56667,2673
18.57500,2673
18.58333,2673
18.59167,2672
18.60000,2672
18.60833,2672
18.61667,2672
18.62500,2672
18.63333,2671
18.64167,2671
18.65000,2670
18.65833,2670
18.66667,2669
18.67500,2669
18.68333,2669
18.69167,2669
18.70000,2669
18.70833,2669
18.71667,2668
18.72500,2668
18.73333,2668
18.74167,2669
18.75000,2669
18.75833,2669
18.76667,2669
18.77500,2669
18.78333,2670
18.79167,2670
18.80000,2671
18.80833,2671
18.81667,2672
18.82500,2672
18.83333,2672
18.84167,2672
18.85000,2673
18.85833,2673
18.86667,2673
18.87500,2674
18.88333,2674
18.89167,2675
18.90000,2675
18.90833,2674
18.91667,2674
18.92500,2674
18.93333,2675
18.94167,2675
18.95000,2675
18.95833,2675
18.96667,2676
18.97500,2676
18.98333,2676
18.99167,2675
19.00000,2675
19.00833,2675
19.01667,2675
19.02500,2675
19.03333,2674
19.04167,2674
19.05000,2673
19.05833,2673
19.06667,2673
19.07500,2672
19.08333,2672
19.09167,2671
19.10000,2670
19.10833,2670
19.11667,2669
19.12500,2668
19.13333,2667
19.14167,2666
19.15000,2666
19.15833,2665
19.16667,2665
19.17500,2664
19.18333,2663
19.19167,2663
19.20000,2662
19.20833,2661
19.21667,2661
19.22500,2660
19.23333,2659
19.24167,2658
19.25000,2658
19.25833,2657
19.26667,2657
19.27500,2656
19.28333,2655
19.29167,2655
19.30000,2654
19.30833,2653
19.31667,2653
19.32500,2652
19.33333,2652
19.34167,2652
19.35000,2652
19.35833,2651
19.36667,2651
19.37500,2650
19.38333,2650
19.39167,2650
19.40000,2649
19.40833,2649
19.41667,2649
19.42500,2649
19.43333,2648
19.44167,2648
19.45000,2647
19.45833,2647
19.46667,2646
19.47500,2646
19.48333,2646
19.49167,2646
19.50000,2646
19.50833,2645
19.51667,2645
19.52500,2645
19.53333,2645
19.54167,2645
19.55000,2644
19.55833,2644
19.56667,2644
19.57500,2644
19.58333,2644
19.59167,2644
19.60000,2644
19.60833,2644
19.61667,2644
19.62500,2644
19.63333,2643
19.64167,2643
19.65000,2643
19.65833,2642
19.66667,2642
19.67500,2642
19.68333,2642
19.69167,2642
19.70000,2642
19.70833,2642
19.71667,2642
19.72500,2641
19.73333,2641
19.74167,2641
19.75000,2641
19.75833,2641
19.76667,2641
19.77500,2641
19.78333,2641
19.79167,2641
19.80000,2641
19.80833,2641
19.81667,2641
19.82500,2640
19.83333,2640
19.84167,2640
19.85000,2639
19.85833,2639
19.86667,2639
19.87500,2639
19.88333,2639
19.89167,2639
19.90000,2639
19.90833,2639
19.91667,2639
19.92500,2639
19.93333,2638
19.94167,2638
19.95000,2638
19.95833,2638
19.96667,2638
19.97500,2638
19.98333,2638
19.99167,2638
20.00000,2638
20.00833,2637
20.01667,2637
20.02500,2637
20.03333,2637
20.04167,2636
20.05000,2636
20.05833,2637
20.06667,2637
20.07500,2637
20.08333,2637
20.09167,2637
20.10000,2637
20.10833,2637
20.11667,2637
20.12500,2637
20.13333,2637
20.14167,2637
20.15000,2636
20.15833,2637
20.16667,2637
20.17500,2637
20.18333,2637
20.19167,2637
20.20000,2637
20.20833,2636
20.21667,2636
20.22500,2635
20.23333,2635
20.24167,2635
20.25000,2635
20.25833,2635
20.26667,2635
20.27500,2636
20.28333,2635
20.29167,2635
20.30000,2635
20.30833,2635
20.31667,2635
20.32500,2635
20.33333,2635
20.34167,2635
20.35000,2635
20.35833,2635
20.36667,2635
20.37500,2635
20.38333,2635
20.39167,2635
20.40000,2635
20.40833,2635
20.41667,2634
20.42500,2634
20.43333,2634
20.44167,2634
20.45000,2634
20.45833,2634
20.46667,2634
20.47500,2634
20.48333,2633
20.49167,2633
20.50000,2633
20.50833,2634
20.51667,2634
20.52500,2633
20.53333,2633
20.54167,2633
20.55000,2633
20.55833,2632
20.56667,2632
20.57500,2632
20.58333,2632
20.59167,2632
20.60000,2632
20.60833,2632
20.61667,2632
20.62500,2632
20.63333,2632
20.64167,2632
20.65000,2633
20.65833,2633
20.66667,2633
20.67500,2633
20.68333,2633
20.69167,2632
20.70000,2632
20.70833,2632
20.71667,2632
20.72500,2632
20.73333,2632
20.74167,2632
20.75000,2632
20.75833,2632
20.76667,2632
20.77500,2632
20.78333,2632
20.79167,2632
20.80000,2632
20.80833,2633
20.81667,2632
20.82500,2632
20.83333,2632
20.84167,2632
20.85000,2631
20.85833,2631
20.86667,2631
20.87500,2631
20.88333,2632
20.89167,2632
20.90000,2632
20.90833,2632
20.91667,2631
20.92500,2631
20.93333,2631
20.94167,2631
20.95000,2631
20.95833,2631
20.96667,2632
20.97500,2631
20.98333,2631
20.99167,2631
21.00000,2631
21.00833,2631
21.01667,2631
21.02500,2631
21.03333,2631
21.04167,2631
21.05000,2631
21.05833,2631
21.06667,2631
21.07500,2631
21.08333,2631
21.09167,2631
21.10000,2631
21.10833,2631
21.11667,2631
21.12500,2631
21.13333,2631
21.14167,2631
21.15000,2631
21.15833,2631
21.16667,2631
21.17500,2631
21.18333,2631
21.19167,2631
21.20000,2631
21.20833,2630
21.21667,2630
21.22500,2630
21.23333,2630
21.24167,2630
21.25000,2630
21.25833,2629
21.26667,2629
21.27500,2629
21.28333,2629
21.29167,2629
21.30000,2629
21.30833,2629
21.31667,2629
21.32500,2629
21.33333,2629
21.34167,2629
21.35000,2629
21.35833,2630
21.36667,2630
21.37500,2630
21.38333,2630
21.39167,2630
21.40000,2630
21.40833,2630
21.41667,2630
21.42500,2629
21.43333,2629
21.44167,2629
21.45000,2629
21.45833,2629
21.46667,2629
21.47500,2629
21.48333,2629
21.49167,2630
21.50000,2630
21.50833,2629
21.51667,2629
21.52500,2629
21.53333,2629
21.54167,2630
21.55000,2630
21.55833,2630
21.56667,2630
21.57500,2630
21.58333,2630
21.59167,2630
21.60000,2630
21.60833,2630
21.61667,2630
21.62500,2630
21.63333,2630
21.64167,2630
21.65000,2630
21.65833,2630
21.66667,2630
21.67500,2630
21.68333,2630
21.69167,2630
21.70000,2629
21.70833,2630
21.71667,2630
21.72500,2630
21.73333,2630
21.74167,2631
21.75000,2631
21.75833,2631
21.76667,2631
21.77500,2631
21.78333,2631
21.79167,2631
21.80000,2630
21.80833,2630
21.81667,2630
21.82500,2630
21.83333,2630
21.84167,2630
21.85000,2631
21.85833,2631
21.86667,2631
21.87500,2631
21.88333,2631
21.89167,2631
21.90000,2631
21.90833,2631
21.91667,2632
21.92500,2632
21.93333,2632
21.94167,2632
21.95000,2632
21.95833,2632
21.96667,2632
21.97500,2632
21.98333,2632
21.99167,2632
22.00000,2632
22.00833,2632
22.01667,2632
22.02500,2632
22.03333,2632
22.04167,2632
22.05000,2632
22.05833,2632
22.06667,2632
22.07500,2633
22.08333,2633
22.09167,2633
22.10000,2633
22.10833,2633
22.11667,2633
22.12500,2633
22.13333,2633
22.14167,2633
22.15000,2633
22.15833,2632
22.16667,2632
22.17500,2632
22.18333,2632
22.19167,2632
22.20000,2632
22.20833,2632
22.21667,2632
22.22500,2632
22.23333,2632
22.24167,2632
22.25000,2632
22.25833,2632
22.26667,2632
22.27500,2632
22.28333,2632
22.29167,2632
22.30000,2631
22.30833,2631
22.31667,2631
22.32500,2631
22.33333,2631
22.34167,2631
22.35000,2631
22.35833,2631
22.36667,2631
22.37500,2631
22.38333,2631
22.39167,2631
22.40000,2631
22.40833,2631
22.41667,2631
22.42500,2630
22.43333,2630
22.44167,2630
22.45000,2631
22.45833,2631
22.46667,2631
22.47500,2631
22.48333,2631
22.49167,2631
22.50000,2631
22.50833,2631
22.51667,2630
22.52500,2630
22.53333,2630
22.54167,2630
22.55000,2629
22.55833,2629
22.56667,2629
22.57500,2629
22.58333,2630
22.59167,2630
22.60000,2630
22.60833,2630
22.61667,2630
22.62500,2630
22.63333,2630
22.64167,2630
22.65000,2630
22.65833,2629
22.66667,2629
22.67500,2630
22.68333,2630
22.69167,2630
22.70000,2630
22.70833,2630
22.71667,2631
22.72500,2631
22.73333,2631
22.74167,2631
22.75000,2631
22.75833,2631
22.76667,2631
22.77500,2631
22.78333,2631
22.79167,2631
22.80000,2630
22.80833,2630
22.81667,2629
22.82500,2629
22.83333,2630
22.84167,2630
22.85000,2630
22.85833,2630
22.86667,2630
22.87500,2630
22.88333,2630
22.89167,2629
22.90000,2629
22.90833,2629
22.91667,2629
22.92500,2629
22.93333,2629
22.94167,2629
22.95000,2629
22.95833,2629
22.96667,2629
22.97500,2629
22.98333,2630
22.99167,2630
23.00000,2630
23.00833,2630
23.01667,2630
23.02500,2630
23.03333,2630
23.04167,2630
23.05000,2630
23.05833,2631
23.06667,2631
23.07500,2631
23.08333,2631
23.09167,2630
23.10000,2630
23.10833,2630
23.11667,2630
23.12500,2630
23.13333,2631
23.14167,2631
23.15000,2631
23.15833,2631
23.16667,2631
23.17500,2631
23.18333,2630
23.19167,2630
23.20000,2629
23.20833,2629
23.21667,2629
23.22500,2629
23.23333,2630
23.24167,2630
23.25000,2629
23.25833,2629
23.26667,2629
23.27500,2629
23.28333,2629
23.29167,2629
23.30000,2629
23.30833,2629
23.31667,2629
23.32500,2629
23.33333,2629
23.34167,2629
23.35000,2629
23.35833,2629
23.36667,2630
23.37500,2630
23.38333,2630
23.39167,2630
23.40000,2630
23.40833,2631
23.41667,2631
23.42500,2631
23.43333,2630
23.44167,2630
23.45000,2630
23.45833,2630
23.46667,2630
23.47500,2630
23.48333,2630
23.49167,2630
23.50000,2630
23.50833,2630
23.51667,2630
23.52500,2629
23.53333,2629
23.54167,2629
23.55000,2629
23.55833,2629
23.56667,2629
23.57500,2629
23.58333,2629
23.59167,2629
23.60000,2629
23.60833,2630
23.61667,2630
23.62500,2630
23.63333,2630
23.64167,2630
23.65000,2630
23.65833,2629
23.66667,2629
23.67500,2629
23.68333,2629
23.69167,2629
23.70000,2629
23.70833,2629
23.71667,2629
23.72500,2628
23.73333,2629
23.74167,2629
23.75000,2629
23.75833,2629
23.76667,2629
23.77500,2629
23.78333,2629
23.79167,2629
23.80000,2630
23.80833,2630
23.81667,2630
23.82500,2629
23.83333,2630
23.84167,2630
23.85000,2630
23.85833,2630
23.86667,2630
23.87500,2630
23.88333,2630
23.89167,2629
23.90000,2629
23.90833,2629
23.91667,2629
23.92500,2629
23.93333,2629
23.94167,2629
23.95000,2629
23.95833,2629
23.96667,2629
23.97500,2629
23.98333,2629
23.99167,2629
24.00000,2630
24.00833,2630
24.01667,2630
24.02500,2630
24.03333,2630
24.04167,2630
24.05000,2630
24.05833,2630
24.06667,2630
24.07500,2630
24.08333,2630
24.09167,2630
24.10000,2630
24.10833,2630
24.11667,2630
24.12500,2630
24.13333,2630
24.14167,2630
24.15000,2630
24.15833,2630
24.16667,2630
24.17500,2629
24.18333,2629
24.19167,2630
24.20000,2630
24.20833,2630
24.21667,2630
24.22500,2630
24.23333,2630
24.24167,2630
24.25000,2630
24.25833,2630
24.26667,2630
24.27500,2630
24.28333,2630
24.29167,2630
24.30000,2630
24.30833,2630
24.31667,2630
24.32500,2630
24.33333,2630
24.34167,2630
24.35000,2630
24.35833,2630
24.36667,2631
24.37500,2631
24.38333,2631
24.39167,2631
24.40000,2630
24.40833,2630
24.41667,2630
24.42500,2630
24.43333,2630
24.44167,2630
24.45000,2630
24.45833,2630
24.46667,2630
24.47500,2630
24.48333,2630
24.49167,2630
24.50000,2630
24.50833,2630
24.51667,2630
24.52500,2630
24.53333,2630
24.54167,2630
24.55000,2630
24.55833,2630
24.56667,2630
24.57500,2630
24.58333,2630
24.59167,2630
24.60000,2630
24.60833,2630
24.61667,2630
24.62500,2630
24.63333,2631
24.64167,2631
24.65000,2631
24.65833,2631
24.66667,2630
24.67500,2630
24.68333,2630
24.69167,2630
24.70000,2630
24.70833,2631
24.71667,2631
24.72500,2631
24.73333,2631
24.74167,2631
24.75000,2631
24.75833,2631
24.76667,2631
24.77500,2630
24.78333,2630
24.79167,2630
24.80000,2630
24.80833,2630
24.81667,2630
24.82500,2630
24.83333,2631
24.84167,2631
24.85000,2631
24.85833,2631
24.86667,2631
24.87500,2631
24.88333,2631
24.89167,2632
24.90000,2632
24.90833,2632
24.91667,2633
24.92500,2632
24.93333,2632
24.94167,2633
24.95000,2633
24.95833,2633
24.96667,2633
24.97500,2633
24.98333,2633
24.99167,2633
25.00000,2633
25.00833,2632
25.01667,2632
25.02500,2632
25.03333,2632
25.04167,2632
25.05000,2632
25.05833,2632
25.06667,2632
25.07500,2632
25.08333,2632
25.09167,2633
25.10000,2633
25.10833,2633
25.11667,2633
25.12500,2633
25.13333,2632
25.14167,2632
25.15000,2632
25.15833,2632
25.16667,2632
25.17500,2633
25.18333,2633
25.19167,2633
25.20000,2633
25.20833,2633
25.21667,2633
25.22500,2633
25.23333,2633
25.24167,2633
25.25000,2633
25.25833,2633
25.26667,2633
25.27500,2633
25.28333,2633
25.29167,2633
25.30000,2633
25.30833,2633
25.31667,2633
25.32500,2633
25.33333,2633
25.34167,2633
25.35000,2633
25.35833,2633
25.36667,2633
25.37500,2633
25.38333,2633
25.39167,2633
25.40000,2632
25.40833,2632
25.41667,2632
25.42500,2632
25.43333,2633
25.44167,2633
25.45000,2633
25.45833,2633
25.46667,2633
25.47500,2633
25.48333,2633
25.49167,2633
25.50000,2633
25.50833,2633
25.51667,2633
25.52500,2633
25.53333,2633
25.54167,2633
25.55000,2633
25.55833,2633
25.56667,2634
25.57500,2634
25.58333,2634
25.59167,2634
25.60000,2634
25.60833,2634
25.61667,2634
25.62500,2634
25.63333,2634
25.64167,2634
25.65000,2634
25.65833,2634
25.66667,2634
25.67500,2635
25.68333,2635
25.69167,2635
25.70000,2635
25.70833,2635
25.71667,2635
25.72500,2635
25.73333,2635
25.74167,2635
25.75000,2635
25.75833,2635
25.76667,2634
25.77500,2634
25.78333,2634
25.79167,2634
25.80000,2634
25.80833,2634
25.81667,2634
25.82500,2634
25.83333,2634
25.84167,2634
25.85000,2634
25.85833,2634
25.86667,2634
25.87500,2635
25.88333,2635
25.89167,2635
25.90000,2634
25.90833,2634
25.91667,2634
25.92500,2634
25.93333,2634
25.94167,2634
25.95000,2634
25.95833,2634
25.96667,2634
25.97500,2634
25.98333,2635
25.99167,2635
26.00000,2634
26.00833,2634
26.01667,2634
26.02500,2634
26.03333,2635
26.04167,2635
26.05000,2635
26.05833,2635
26.06667,2635
26.07500,2635
26.08333,2635
26.09167,2636
26.10000,2636
26.10833,2636
26.11667,2636
26.12500,2636
26.13333,2636
26.14167,2636
26.15000,2636
26.15833,2636
26.16667,2636
26.17500,2636
26.18333,2636
26.19167,2636
26.20000,2636
26.20833,2636
26.21667,2636
26.22500,2637
26.23333,2636
26.24167,2636
26.25000,2636
26.25833,2636
26.26667,2636
26.27500,2636
26.28333,2635
26.29167,2635
26.30000,2635
26.30833,2635
26.31667,2635
26.32500,2635
26.33333,2635
26.34167,2635
26.35000,2635
26.35833,2635
26.36667,2635
26.37500,2635
26.38333,2635
26.39167,2636
26.40000,2636
26.40833,2636
26.41667,2636
26.42500,2636
26.43333,2636
26.44167,2636
26.45000,2636
26.45833,2636
26.46667,2636
26.47500,2636
26.48333,2636
26.49167,2636
26.50000,2636
26.50833,2636
26.51667,2637
26.52500,2637
26.53333,2637
26.54167,2637
26.55000,2637
26.55833,2637
26.56667,2637
26.57500,2637
26.58333,2637
26.59167,2636
26.60000,2637
26.60833,2637
26.61667,2637
26.62500,2637
26.63333,2636
26.64167,2636
26.65000,2636
26.65833,2636
26.66667,2636
26.67500,2637
26.68333,2637
26.69167,2637
26.70000,2637
26.70833,2637
26.71667,2637
26.72500,2637
26.73333,2637
26.74167,2637
26.75000,2638
26.75833,2638
26.76667,2638
26.77500,2638
26.78333,2638
26.79167,2638
26.80000,2638
26.80833,2638
26.81667,2638
26.82500,2638
26.83333,2638
26.84167,2638
26.85000,2637
26.85833,2637
26.86667,2638
26.87500,2638
26.88333,2638
26.89167,2638
26.90000,2638
26.90833,2638
26.91667,2638
26.92500,2638
26.93333,2638
26.94167,2638
26.95000,2638
26.95833,2638
26.96667,2638
26.97500,2639
26.98333,2639
26.99167,2640
27.00000,2639
27.00833,2639
27.01667,2639
27.02500,2639
27.03333,2639
27.04167,2639
27.05000,2638
27.05833,2638
27.06667,2638
27.07500,2638
27.08333,2639
27.09167,2639
27.10000,2639
27.10833,2640
27.11667,2640
27.12500,2640
27.13333,2640
27.14167,2640
27.15000,2640
27.15833,2640
27.16667,2640
27.17500,2640
27.18333,2640
27.19167,2640
27.20000,2640
27.20833,2640
27.21667,2640
27.22500,2640
27.23333,2640
27.24167,2640
27.25000,2640
27.25833,2640
27.26667,2640
27.27500,2640
27.28333,2640
27.29167,2640
27.30000,2640
27.30833,2640
27.31667,2640
27.32500,2640
27.33333,2640
27.34167,2640
27.35000,2640
27.35833,2640
27.36667,2640
27.37500,2640
27.38333,2640
27.39167,2640
27.40000,2640
27.40833,2640
27.41667,2640
27.42500,2640
27.43333,2640
27.44167,2640
27.45000,2641
27.45833,2641
27.46667,2641
27.47500,2641
27.48333,2641
27.49167,2641
27.50000,2641
27.50833,2641
27.51667,2641
27.52500,2641
27.53333,2641
27.54167,2641
27.55000,2641
27.55833,2640
27.56667,2640
27.57500,2640
27.58333,2641
27.59167,2641
27.60000,2641
27.60833,2641
27.61667,2641
27.62500,2641
27.63333,2641
27.64167,2641
27.65000,2641
27.65833,2641
27.66667,2641
27.67500,2641
27.68333,2641
27.69167,2640
27.70000,2640
27.70833,2639
27.71667,2639
27.72500,2639
27.73333,2639
27.74167,2639
27.75000,2639
27.75833,2639
27.76667,2639
27.77500,2639
27.78333,2639
27.79167,2638
27.80000,2638
27.80833,2637
27.81667,2637
27.82500,2637
27.83333,2637
27.84167,2637
27.85000,2636
27.85833,2636
27.86667,2636
27.87500,2635
27.88333,2635
27.89167,2634
27.90000,2633
27.90833,2633
27.91667,2632
27.92500,2631
27.93333,2630
27.94167,2629
27.95000,2627
27.95833,2626
27.96667,2625
27.97500,2624
27.98333,2622
27.99167,2621
28.00000,2620
28.00833,2619
28.01667,2617
28.02500,2615
28.03333,2614
28.04167,2612
28.05000,2611
28.05833,2609
28.06667,2607
28.07500,2605
28.08333,2602
28.09167,2600
28.10000,2598
28.10833,2596
28.11667,2593
28.12500,2591
28.13333,2588
28.14167,2585
28.15000,2582
28.15833,2579
28.16667,2577
28.17500,2574
28.18333,2571
28.19167,2568
28.20000,2565
28.20833,2563
28.21667,2560
28.22500,2557
28.23333,2554
28.24167,2551
28.25000,2548
28.25833,2546
28.26667,2543
28.27500,2540
28.28333,2538
28.29167,2535
28.30000,2532
28.30833,2529
28.31667,2527
28.32500,2525
28.33333,2523
28.34167,2521
28.35000,2519
28.35833,2517
28.36667,2515
28.37500,2514
28.38333,2512
28.39167,2511
28.40000,2510
28.40833,2509
28.41667,2508
28.42500,2507
28.43333,2506
28.44167,2506
28.45000,2506
28.45833,2506
28.46667,2506
28.47500,2506
28.48333,2507
28.49167,2507
28.50000,2508
28.50833,2509
28.51667,2510
28.52500,2511
28.53333,2512
28.54167,2513
28.55000,2515
28.55833,2516
28.56667,2518
28.57500,2520
28.58333,2523
28.59167,2525
28.60000,2527
28.60833,2529
28.61667,2531
28.62500,2533
28.63333,2535
28.64167,2537
28.65000,2540
28.65833,2542
28.66667,2544
28.67500,2547
28.68333,2550
28.69167,2552
28.70000,2554
28.70833,2557
28.71667,2559
28.72500,2562
28.73333,2565
28.74167,2568
28.75000,2570
28.75833,2573
28.76667,2575
28.77500,2578
28.78333,2580
28.79167,2582
28.80000,2584
28.80833,2586
28.81667,2587
28.82500,2589
28.83333,2592
28.84167,2594
28.85000,2596
28.85833,2597
28.86667,2599
28.87500,2600
28.88333,2602
28.89167,2603
28.90000,2605
28.90833,2607
28.91667,2608
28.92500,2610
28.93333,2611
28.94167,2613
28.95000,2614
28.95833,2615
28.96667,2615
28.97500,2616
28.98333,2617
28.99167,2618
29.00000,2619
29.00833,2620
29.01667,2621
29.02500,2622
29.03333,2623
29.04167,2623
29.05000,2624
29.05833,2625
29.06667,2625
29.07500,2626
29.08333,2627
29.09167,2627
29.10000,2628
29.10833,2628
29.11667,2628
29.12500,2629
29.13333,2630
29.14167,2630
29.15000,2631
29.15833,2631
29.16667,2632
29.17500,2632
29.18333,2632
29.19167,2633
29.20000,2633
29.20833,2633
29.21667,2633
29.22500,2634
29.23333,2634
29.24167,2634
29.25000,2635
29.25833,2635
29.26667,2635
29.27500,2636
29.28333,2636
29.29167,2636
29.30000,2636
29.30833,2636
29.31667,2636
29.32500,2637
29.33333,2637
29.34167,2637
29.35000,2637
29.35833,2637
29.36667,2636
29.37500,2636
29.38333,2637
29.39167,2637
29.40000,2637
29.40833,2637
29.41667,2637
29.42500,2637
29.43333,2636
29.44167,2636
29.45000,2636
29.45833,2636
29.46667,2636
29.47500,2636
29.48333,2636
29.49167,2636
29.50000,2636
29.50833,2636
29.51667,2636
29.52500,2636
29.53333,2636
29.54167,2636
29.55000,2635
29.55833,2635
29.56667,2635
29.57500,2635
29.58333,2635
29.59167,2635
29.60000,2634
29.60833,2634
29.61667,2634
29.62500,2633
29.63333,2633
29.64167,2633
29.65000,2632
29.65833,2632
29.66667,2632
29.67500,2631
29.68333,2631
29.69167,2631
29.70000,2630
29.70833,2630
29.71667,2630
29.72500,2629
29.73333,2629
29.74167,2629
29.75000,2628
29.75833,2628
29.76667,2627
29.77500,2626
29.78333,2625
29.79167,2625
29.80000,2624
29.80833,2623
29.81667,2623
29.82500,2622
29.83333,2621
29.84167,2620
29.85000,2619
29.85833,2618
29.86667,2617
29.87500,2616
29.88333,2615
29.89167,2614
29.90000,2613
29.90833,2612
29.91667,2611
29.92500,2610
29.93333,2609
29.94167,2608
29.95000,2607
29.95833,2606
29.96667,2606
29.97500,2605
29.98333,2605
29.99167,2604
30.00000,2603
30.00833,2601
30.01667,2600
30.02500,2599
30.03333,2598
30.04167,2597
30.05000,2596
30.05833,2596
30.06667,2595
30.07500,2595
30.08333,2594
30.09167,2593
30.10000,2593
30.10833,2593
30.11667,2592
30.12500,2592
30.13333,2592
30.14167,2591
30.15000,2591
30.15833,2591
30.16667,2590
30.17500,2589
30.18333,2589
30.19167,2589
30.20000,2589
30.20833,2589
30.21667,2589
30.22500,2590
30.23333,2590
30.24167,2590
30.25000,2591
30.25833,2591
30.26667,2591
30.27500,2591
30.28333,2591
30.29167,2591
30.30000,2592
30.30833,2592
30.31667,2593
30.32500,2594
30.33333,2594
30.34167,2595
30.35000,2595
30.35833,2596
30.36667,2597
30.37500,2598
30.38333,2599
30.39167,2599
30.40000,2600
30.40833,2601
30.41667,2602
30.42500,2602
30.43333,2603
30.44167,2604
30.45000,2605
30.45833,2605
30.46667,2606
30.47500,2607
30.48333,2608
30.49167,2609
30.50000,2609
30.50833,2610
30.51667,2611
30.52500,2612
30.53333,2613
30.54167,2614
30.55000,2616
30.55833,2617
30.56667,2617
30.57500,2618
30.58333,2618
30.59167,2619
30.60000,2619
30.60833,2620
30.61667,2621
30.62500,2622
30.63333,2622
30.64167,2623
30.65000,2623
30.65833,2624
30.66667,2624
30.67500,2625
30.68333,2626
30.69167,2626
30.70000,2627
30.70833,2627
30.71667,2628
30.72500,2628
30.73333,2628
30.74167,2628
30.75000,2629
30.75833,2629
30.76667,2629
30.77500,2629
30.78333,2630
30.79167,2630
30.80000,2630
30.80833,2630
30.81667,2630
30.82500,2630
30.83333,2631
30.84167,2631
30.85000,2632
30.85833,2632
30.86667,2632
30.87500,2632
30.88333,2632
30.89167,2632
30.90000,2632
30.90833,2632
30.91667,2632
30.92500,2633
30.93333,2633
30.94167,2633
30.95000,2633
30.95833,2633
30.96667,2633
30.97500,2633
30.98333,2633
30.99167,2634
31.00000,2634
31.00833,2634
31.01667,2634
31.02500,2634
31.03333,2634
31.04167,2634
31.05000,2634
31.05833,2634
31.06667,2634
31.07500,2634
31.08333,2635
31.09167,2635
31.10000,2635
31.10833,2635
31.11667,2635
31.12500,2635
31.13333,2635
31.14167,2634
31.15000,2634
31.15833,2634
31.16667,2635
31.17500,2635
31.18333,2635
31.19167,2635
31.20000,2635
31.20833,2635
31.21667,2635
31.22500,2635
31.23333,2636
31.24167,2636
31.25000,2636
31.25833,2636
31.26667,2636
31.27500,2636
31.28333,2637
31.29167,2637
31.30000,2637
31.30833,2637
31.31667,2637
31.32500,2637
31.33333,2637
31.34167,2637
31.35000,2637
31.35833,2637
31.36667,2637
31.37500,2637
31.38333,2637
31.39167,2637
31.40000,2637
31.40833,2637
31.41667,2638
31.42500,2637
31.43333,2637
31.44167,2637
31.45000,2638
31.45833,2637
31.46667,2638
31.47500,2638
31.48333,2638
31.49167,2639
31.50000,2639
31.50833,2640
31.51667,2640
31.52500,2640
31.53333,2640
31.54167,2640
31.55000,2640
31.55833,2640
31.56667,2640
31.57500,2640
31.58333,2640
31.59167,2640
31.60000,2640
31.60833,2640
31.61667,2640
31.62500,2640
31.63333,2640
31.64167,2640
31.65000,2640
31.65833,2640
31.66667,2640
31.67500,2640
31.68333,2640
31.69167,2640
31.70000,2640
31.70833,2640
31.71667,2640
31.72500,2640
31.73333,2639
31.74167,2640
31.75000,2640
31.75833,2640
31.76667,2640
31.77500,2640
31.78333,2641
31.79167,2641
31.80000,2641
31.80833,2641
31.81667,2641
31.82500,2641
31.83333,2641
31.84167,2641
31.85000,2642
31.85833,2642
31.86667,2641
31.87500,2641
31.88333,2641
31.89167,2641
31.90000,2641
31.90833,2640
31.91667,2640
31.92500,2640
31.93333,2640
31.94167,2640
31.95000,2640
31.95833,2640
31.96667,2640
31.97500,2640
31.98333,2640
31.99167,2640
32.00000,2641
32.00833,2640
32.01667,2640
32.02500,2641
32.03333,2641
32.04167,2641
32.05000,2641
32.05833,2641
32.06667,2641
32.07500,2641
32.08333,2641
32.09167,2640
32.10000,2640
32.10833,2641
32.11667,2641
32.12500,2641
32.13333,2641
32.14167,2641
32.15000,2641
32.15833,2641
32.16667,2641
32.17500,2641
32.18333,2641
32.19167,2641
32.20000,2641
32.20833,2641
32.21667,2641
32.22500,2641
32.23333,2641
32.24167,2641
32.25000,2641
32.25833,2641
32.26667,2640
32.27500,2641
32.28333,2641
32.29167,2641
32.30000,2641
32.30833,2641
32.31667,2641
32.32500,2641
32.33333,2641
32.34167,2641
32.35000,2641
32.35833,2641
32.36667,2641
32.37500,2641
32.38333,2641
32.39167,2641
32.40000,2641
32.40833,2642
32.41667,2642
32.42500,2642
32.43333,2641
32.44167,2641
32.45000,2641
32.45833,2641
32.46667,2641
32.47500,2641
32.48333,2641
32.49167,2641
32.50000,2641
32.50833,2642
32.51667,2642
32.52500,2642
32.53333,2642
32.54167,2642
32.55000,2642
32.55833,2642
32.56667,2642
32.57500,2642
32.58333,2641
32.59167,2641
32.60000,2641
32.60833,2641
32.61667,2641
32.62500,2642
32.63333,2642
32.64167,2642
32.65000,2642
32.65833,2642
32.66667,2642
32.67500,2642
32.68333,2642
32.69167,2642
32.70000,2642
32.70833,2642
32.71667,2642
32.72500,2641
32.73333,2641
32.74167,2641
32.75000,2642
32.75833,2642
32.76667,2642
32.77500,2642
32.78333,2641
32.79167,2642
32.80000,2642
32.80833,2642
32.81667,2642
32.82500,2642
32.83333,2642
32.84167,2642
32.85000,2642
32.85833,2642
32.86667,2642
32.87500,2642
32.88333,2642
32.89167,2642
32.90000,2642
32.90833,2642
32.91667,2641
32.92500,2641
32.93333,2641
32.94167,2641
32.95000,2641
32.95833,2642
32.96667,2642
32.97500,2642
32.98333,2642
32.99167,2642
33.00000,2642
33.00833,2642
33.01667,2642
33.02500,2642
33.03333,2642
33.04167,2641
33.05000,2641
33.05833,2641
33.06667,2641
33.07500,2641
33.08333,2641
33.09167,2641
33.10000,2641
33.10833,2641
33.11667,2641
33.12500,2642
33.13333,2642
33.14167,2642
33.15000,2642
33.15833,2642
33.16667,2642
33.17500,2642
33.18333,2642
33.19167,2642
33.20000,2642
33.20833,2642
33.21667,2642
33.22500,2642
33.23333,2642
33.24167,2642
33.25000,2642
33.25833,2642
33.26667,2642
33.27500,2642
33.28333,2642
33.29167,2642
33.30000,2642
33.30833,2642
33.31667,2641
33.32500,2641
33.33333,2641
33.34167,2641
33.35000,2641
33.35833,2641
33.36667,2641
33.37500,2641
33.38333,2641
33.39167,2641
33.40000,2641
33.40833,2641
33.41667,2641
33.42500,2641
33.43333,2641
33.44167,2641
33.45000,2641
33.45833,2640
33.46667,2640
33.47500,2641
33.48333,2641
33.49167,2642
33.50000,2642
33.50833,2642
33.51667,2642
33.52500,2642
33.53333,2642
33.54167,2641
33.55000,2641
33.55833,2641
33.56667,2642
33.57500,2642
33.58333,2642
33.59167,2642
33.60000,2641
33.60833,2641
33.61667,2641
33.62500,2641
33.63333,2641
33.64167,2641
33.65000,2641
33.65833,2641
33.66667,2641
33.67500,2641
33.68333,2641
33.69167,2641
33.70000,2641
33.70833,2641
33.71667,2642
33.72500,2642
33.73333,2641
33.74167,2641
33.75000,2641
33.75833,2641
33.76667,2641
33.77500,2641
33.78333,2641
33.79167,2641
33.80000,2641
33.80833,2641
33.81667,2641
33.82500,2641
33.83333,2641
33.84167,2641
33.85000,2641
33.85833,2641
33.86667,2641
33.87500,2641
33.88333,2641
33.89167,2641
33.90000,2641
33.90833,2642
33.91667,2642
33.92500,2642
33.93333,2642
33.94167,2642
33.95000,2642
33.95833,2642
33.96667,2641
33.97500,2641
33.98333,2641
33.99167,2641
34.00000,2642
34.00833,2642
34.01667,2642
34.02500,2642
34.03333,2643
34.04167,2643
34.05000,2643
34.05833,2643
34.06667,2642
34.07500,2642
34.08333,2642
34.09167,2642
34.10000,2641
34.10833,2641
34.11667,2641
34.12500,2641
34.13333,2641
34.14167,2641
34.15000,2641
34.15833,2642
34.16667,2642
34.17500,2642
34.18333,2642
34.19167,2642
34.20000,2642
34.20833,2642
34.21667,2642
34.22500,2643
34.23333,2643
34.24167,2643
34.25000,2643
34.25833,2642
34.26667,2642
34.27500,2642
34.28333,2642
34.29167,2642
34.30000,2642
34.30833,2642
34.31667,2642
34.32500,2642
34.33333,2642
34.34167,2642
34.35000,2642
34.35833,2642
34.36667,2642
34.37500,2642
34.38333,2642
34.39167,2642
34.40000,2642
34.40833,2642
34.41667,2642
34.42500,2642
34.43333,2642
34.44167,2642
34.45000,2642
34.45833,2643
34.46667,2643
34.47500,2643
34.48333,2643
34.49167,2643
34.50000,2643
34.50833,2643
34.51667,2643
34.52500,2642
34.53333,2642
34.54167,2642
34.55000,2642
34.55833,2643
34.56667,2643
34.57500,2642
34.58333,2642
34.59167,2642
34.60000,2642
34.60833,2642
34.61667,2641
34.62500,2641
34.63333,2642
34.64167,2642
34.65000,2642
34.65833,2642
34.66667,2642
34.67500,2642
34.68333,2642
34.69167,2641
34.70000,2641
34.70833,2642
34.71667,2642
34.72500,2642
34.73333,2642
34.74167,2642
34.75000,2642
34.75833,2642
34.76667,2642
34.77500,2642
34.78333,2642
34.79167,2642
34.80000,2642
34.80833,2642
34.81667,2642
34.82500,2642
34.83333,2642
34.84167,2642
34.85000,2642
34.85833,2642
34.86667,2641
34.87500,2641
34.88333,2641
34.89167,2642
34.90000,2642
34.90833,2641
34.91667,2642
34.92500,2642
34.93333,2642
34.94167,2643
34.95000,2643
34.95833,2643
34.96667,2643
34.97500,2643
34.98333,2643
34.99167,2643
35.00000,2643
35.00833,2642
35.01667,2643
35.02500,2642
35.03333,2642
35.04167,2642
35.05000,2642
35.05833,2642
35.06667,2642
35.07500,2641
35.08333,2641
35.09167,2641
35.10000,2641
35.10833,2641
35.11667,2641
35.12500,2641
35.13333,2642
35.14167,2642
35.15000,2642
35.15833,2641
35.16667,2641
35.17500,2642
35.18333,2642
35.19167,2642
35.20000,2642
35.20833,2642
35.21667,2642
35.22500,2642
35.23333,2642
35.24167,2642
35.25000,2642
35.25833,2642
35.26667,2642
35.27500,2641
35.28333,2641
35.29167,2641
35.30000,2641
35.30833,2641
35.31667,2641
35.32500,2641
35.33333,2642
35.34167,2642
35.35000,2642
35.35833,2642
35.36667,2642
35.37500,2641
35.38333,2641
35.39167,2641
35.40000,2641
35.40833,2642
35.41667,2642
35.42500,2642
35.43333,2642
35.44167,2642
35.45000,2642
35.45833,2642
35.46667,2642
35.47500,2642
35.48333,2642
35.49167,2642
35.50000,2642
35.50833,2642
35.51667,2642
35.52500,2641
35.53333,2641
35.54167,2641
35.55000,2641
35.55833,2641
35.56667,2641
35.57500,2641
35.58333,2641
35.59167,2641
35.60000,2641
35.60833,2641
35.61667,2641
35.62500,2641
35.63333,2641
35.64167,2641
35.65000,2641
35.65833,2641
35.66667,2641
35.67500,2641
35.68333,2641
35.69167,2641
35.70000,2642
35.70833,2642
35.71667,2642
35.72500,2642
35.73333,2642
35.74167,2642
35.75000,2642
35.75833,2642
35.76667,2642
35.77500,2641
35.78333,2641
35.79167,2641
35.80000,2641
35.80833,2641
35.81667,2641
35.82500,2641
35.83333,2641
35.84167,2641
35.85000,2642
35.85833,2642
35.86667,2642
35.87500,2642
35.88333,2642
35.89167,2641
35.90000,2641
35.90833,2641
35.91667,2641
35.92500,2641
35.93333,2641
35.94167,2641
35.95000,2641
35.95833,2641
35.96667,2641
35.97500,2641
35.98333,2641
35.99167,2641
36.00000,2641
36.00833,2641
36.01667,2641
36.02500,2641
36.03333,2641
36.04167,2641
36.05000,2641
36.05833,2641
36.06667,2641
36.07500,2641
36.08333,2641
36.09167,2641
36.10000,2641
36.10833,2640
36.11667,2641
36.12500,2641
36.13333,2641
36.14167,2641
36.15000,2641
36.15833,2641
36.16667,2641
36.17500,2641
36.18333,2641
36.19167,2641
36.20000,2641
36.20833,2641
36.21667,2642
36.22500,2642
36.23333,2642
36.24167,2642
36.25000,2642
36.25833,2642
36.26667,2642
36.27500,2642
36.28333,2642
36.29167,2642
36.30000,2642
36.30833,2642
36.31667,2642
36.32500,2642
36.33333,2642
36.34167,2641
36.35000,2641
36.35833,2641
36.36667,2641
36.37500,2641
36.38333,2641
36.39167,2641
36.40000,2641
36.40833,2641
36.41667,2641
36.42500,2641
36.43333,2641
36.44167,2641
36.45000,2641
36.45833,2641
36.46667,2641
36.47500,2641
36.48333,2641
36.49167,2642
36.50000,2642
36.50833,2642
36.51667,2642
36.52500,2642
36.53333,2642
36.54167,2642
36.55000,2642
36.55833,2642
36.56667,2642
36.57500,2642
36.58333,2642
36.59167,2642
36.60000,2642
36.60833,2642
36.61667,2642
36.62500,2642
36.63333,2642
36.64167,2642
36.65000,2642
36.65833,2642
36.66667,2642
36.67500,2642
36.68333,2642
36.69167,2642
36.70000,2641
36.70833,2641
36.71667,2641
36.72500,2642
36.73333,2642
36.74167,2642
36.75000,2642
36.75833,2642
36.76667,2642
36.77500,2642
36.78333,2642
36.79167,2642
36.80000,2642
36.80833,2642
36.81667,2641
36.82500,2641
36.83333,2641
36.84167,2641
36.85000,2641
36.85833,2641
36.86667,2642
36.87500,2642
36.88333,2642
36.89167,2642
36.90000,2642
36.90833,2643
36.91667,2643
36.92500,2643
36.93333,2643
36.94167,2643
36.95000,2643
36.95833,2642
36.96667,2642
36.97500,2642
36.98333,2641
36.99167,2641
37.00000,2642
37.00833,2642
37.01667,2642
37.02500,2642
37.03333,2642
37.04167,2642
37.05000,2642
37.05833,2642
37.06667,2642
37.07500,2643
37.08333,2642
37.09167,2642
37.10000,2642
37.10833,2642
37.11667,2642
37.12500,2642
37.13333,2642
37.14167,2642
37.15000,2642
37.15833,2642
37.16667,2642
37.17500,2642
37.18333,2642
37.19167,2642
37.20000,2641
37.20833,2641
37.21667,2642
37.22500,2642
37.23333,2642
37.24167,2642
37.25000,2642
37.25833,2642
37.26667,2642
37.27500,2642
37.28333,2642
37.29167,2641
37.30000,2641
37.30833,2641
37.31667,2641
37.32500,2641
37.33333,2641
37.34167,2641
37.35000,2641
37.35833,2641
37.36667,2641
37.37500,2641
37.38333,2641
37.39167,2642
37.40000,2642
37.40833,2642
37.41667,2642
37.42500,2642
37.43333,2642
37.44167,2642
37.45000,2642
37.45833,2642
37.46667,2642
37.47500,2642
37.48333,2642
37.49167,2642
37.50000,2642
37.50833,2642
37.51667,2642
37.52500,2642
37.53333,2642
37.54167,2642
37.55000,2642
37.55833,2642
37.56667,2642
37.57500,2642
37.58333,2642
37.59167,2642
37.60000,2642
37.60833,2641
37.61667,2641
37.62500,2641
37.63333,2641
37.64167,2642
37.65000,2642
37.65833,2642
37.66667,2642
37.67500,2642
37.68333,2642
37.69167,2642
37.70000,2641
37.70833,2642
37.71667,2642
37.72500,2642
37.73333,2642
37.74167,2642
37.75000,2642
37.75833,2642
37.76667,2642
37.77500,2642
37.78333,2642
37.79167,2642
37.80000,2642
37.80833,2642
37.81667,2641
37.82500,2642
37.83333,2642
37.84167,2642
37.85000,2642
37.85833,2642
37.86667,2642
37.87500,2642
37.88333,2642
37.89167,2642
37.90000,2642
37.90833,2643
37.91667,2643
37.92500,2643
37.93333,2643
37.94167,2643
37.95000,2643
37.95833,2644
37.96667,2644
37.97500,2644
37.98333,2644
37.99167,2644
38.00000,2644
38.00833,2644
38.01667,2644
38.02500,2643
38.03333,2643
38.04167,2643
38.05000,2644
38.05833,2644
38.06667,2644
38.07500,2644
38.08333,2644
38.09167,2644
38.10000,2644
38.10833,2644
38.11667,2645
38.12500,2645
38.13333,2646
38.14167,2646
38.15000,2646
38.15833,2646
38.16667,2645
38.17500,2645
38.18333,2645
38.19167,2645
38.20000,2646
38.20833,2646
38.21667,2646
38.22500,2646
38.23333,2646
38.24167,2646
38.25000,2646
38.25833,2646
38.26667,2646
38.27500,2646
38.28333,2646
38.29167,2646
38.30000,2647
38.30833,2647
38.31667,2647
38.32500,2647
38.33333,2647
38.34167,2647
38.35000,2647
38.35833,2647
38.36667,2648
38.37500,2648
38.38333,2648
38.39167,2648
38.40000,2648
38.40833,2648
38.41667,2648
38.42500,2647
38.43333,2648
38.44167,2648
38.45000,2648
38.45833,2648
38.46667,2648
38.47500,2648
38.48333,2648
38.49167,2648
38.50000,2648
38.50833,2648
38.51667,2648
38.52500,2648
38.53333,2648
38.54167,2648
38.55000,2648
38.55833,2648
38.56667,2648
38.57500,2648
38.58333,2648
38.59167,2649
38.60000,2649
38.60833,2648
38.61667,2648
38.62500,2648
38.63333,2647
38.64167,2647
38.65000,2648
38.65833,2647
38.66667,2647
38.67500,2647
38.68333,2647
38.69167,2647
38.70000,2647
38.70833,2647
38.71667,2647
38.72500,2648
38.73333,2648
38.74167,2648
38.75000,2648
38.75833,2647
38.76667,2647
38.77500,2647
38.78333,2647
38.79167,2647
38.80000,2647
38.80833,2647
38.81667,2647
38.82500,2647
38.83333,2647
38.84167,2646
38.85000,2646
38.85833,2647
38.86667,2647
38.87500,2647
38.88333,2647
38.89167,2647
38.90000,2647
38.90833,2647
38.91667,2646
38.92500,2646
38.93333,2645
38.94167,2645
38.95000,2645
38.95833,2645
38.96667,2645
38.97500,2644
38.98333,2644
38.99167,2644
39.00000,2644
39.00833,2644
39.01667,2643
39.02500,2643
39.03333,2643
39.04167,2643
39.05000,2644
39.05833,2644
39.06667,2644
39.07500,2644
39.08333,2644
39.09167,2644
39.10000,2644
39.10833,2644
39.11667,2644
39.12500,2645
39.13333,2645
39.14167,2645
39.15000,2645
39.15833,2644
39.16667,2644
39.17500,2644
39.18333,2644
39.19167,2644
39.20000,2644
39.20833,2644
39.21667,2644
39.22500,2644
39.23333,2644
39.24167,2644
39.25000,2644
39.25833,2644
39.26667,2643
39.27500,2643
39.28333,2643
39.29167,2643
39.30000,2643
39.30833,2643
39.31667,2644
39.32500,2644
39.33333,2644
39.34167,2644
39.35000,2644
39.35833,2644
39.36667,2644
39.37500,2644
39.38333,2644
39.39167,2644
39.40000,2644
39.40833,2644
39.41667,2643
39.42500,2643
39.43333,2643
39.44167,2643
39.45000,2644
39.45833,2644
39.46667,2644
39.47500,2644
39.48333,2644
39.49167,2644
39.50000,2645
39.50833,2645
39.51667,2645
39.52500,2645
39.53333,2645
39.54167,2645
39.55000,2645
39.55833,2644
39.56667,2644
39.57500,2644
39.58333,2644
39.59167,2644
39.60000,2644
39.60833,2644
39.61667,2644
39.62500,2644
39.63333,2644
39.64167,2644
39.65000,2644
39.65833,2644
39.66667,2644
39.67500,2644
39.68333,2645
39.69167,2645
39.70000,2645
39.70833,2645
39.71667,2645
39.72500,2644
39.73333,2644
39.74167,2644
39.75000,2644
39.75833,2644
39.76667,2644
39.77500,2644
39.78333,2644
39.79167,2644
39.80000,2644
39.80833,2644
39.81667,2644
39.82500,2644
39.83333,2644
39.84167,2645
39.85000,2645
39.85833,2645
39.86667,2645
39.87500,2645
39.88333,2644
39.89167,2644
39.90000,2644
39.90833,2644
39.91667,2644
39.92500,2644
39.93333,2644
39.94167,2644
39.95000,2644
39.95833,2645
39.96667,2645
39.97500,2645
39.98333,2646
39.99167,2646
40.00000,2646

