[Header]
Application Name,LabSolutions
Version,5.97 SP1
Data File Name,C:\Users\cremerlab\Desktop\griffin\2021-03-31_NC_glucose_glycerol_acetate_calibration\calibration_batch_422021_011_011.lcd
Output Date,4/3/2021
Output Time,3:06:14 AM

[File Information]
Type,Data File
Generated,4/3/2021 2:25:54 AM
Generated by,System Administrator
Modified,4/3/2021 3:06:14 AM
Modified by,System Administrator

[Sample Information]
Operator Name,System Administrator
Acquired,4/3/2021 2:26:14 AM
Sample Type,1:Standard
Level,2
Sample Name,2021-04-02_NC_glucose_glycerol_acetate_calibration_0.25mM
Sample ID,011
ISTD Amount1,1
ISTD Amount2,1
ISTD Amount3,1
ISTD Amount4,1
ISTD Amount5,1
ISTD Amount6,1
ISTD Amount7,1
ISTD Amount8,1
ISTD Amount9,1
ISTD Amount10,1
ISTD Amount11,1
ISTD Amount12,1
ISTD Amount13,1
ISTD Amount14,1
ISTD Amount15,1
ISTD Amount16,1
ISTD Amount17,1
ISTD Amount18,1
ISTD Amount19,1
ISTD Amount20,1
ISTD Amount21,1
ISTD Amount22,1
ISTD Amount23,1
ISTD Amount24,1
ISTD Amount25,1
ISTD Amount26,1
ISTD Amount27,1
ISTD Amount28,1
ISTD Amount29,1
ISTD Amount30,1
ISTD Amount31,1
ISTD Amount32,1
Sample Amount,1
Dilution Factor,1
Vial#,11
Injection Volume,20

[Original Files]
Data File,C:\Users\cremerlab\Desktop\griffin\2021-03-31_NC_glucose_glycerol_acetate_calibration\calibration_batch_422021_011_011.lcd
Method File,C:\LabSolutions\Data\Project1\organicacidsetc2.lcm
Batch File,C:\Users\cremerlab\Desktop\griffin\2021-03-31_NC_glucose_glycerol_acetate_calibration\calibration_batch.lcb
Report Format File,c:\LabSolutions\System\DEFAULT.lsr

[File Description]


[Configuration]
Instrument Name,HPLC-PC-Instrument1
Instrument #,1
Line #,1
# of Detectors,2
Detector ID,Detector A,Detector B
Detector Name,Detector A,Detector B
# of Channels,1,1

[Peak Table(Detector A)]
# of Peaks,0

[Peak Table(Detector B)]
# of Peaks,4
Peak#,R.Time,I.Time,F.Time,Area,Height,A/H,Conc.,Mark,ID#,Name,k',Plate #,Plate Ht.,Tailing,Resolution,Sep.Factor,Area Ratio,Height Ratio,Conc. %,Norm Conc.
1,11.064,10.758,12.467,1226663,70922,17.296,0.000,   ,,,0.000,10772,13.925,1.268,0.000,0.000,0,0,0.000,0.000
2,15.112,14.108,18.442,3251943,119291,27.261,0.000,   ,,,0.366,7121,21.065,0.777,7.085,0.000,0,0,0.000,0.000
3,22.074,21.608,22.692,9350,358,26.103,0.000,   ,,,0.995,15746,9.526,1.094,9.806,2.720,0,0,0.000,0.000
4,25.071,24.633,25.625,4384,161,27.196,0.000,   ,,,1.266,18613,8.059,1.084,4.166,1.272,0,0,0.000,0.000

[LC Chromatogram(Detector B-Ch1)]
Interval(msec),500
# of Points,4801
Start Time(min),0.000
End Time(min),40.000
Intensity Units,mV
Intensity Multiplier,0.001
R.Time (min),Intensity
0.00000,0
0.00833,0
0.01667,0
0.02500,0
0.03333,-0
0.04167,-1
0.05000,-1
0.05833,-1
0.06667,-1
0.07500,-1
0.08333,-0
0.09167,-1
0.10000,-0
0.10833,-1
0.11667,-1
0.12500,-1
0.13333,-1
0.14167,-1
0.15000,-1
0.15833,-1
0.16667,-1
0.17500,-1
0.18333,-1
0.19167,-1
0.20000,-1
0.20833,-1
0.21667,-1
0.22500,-0
0.23333,-0
0.24167,-0
0.25000,-0
0.25833,-0
0.26667,-0
0.27500,-0
0.28333,-0
0.29167,-0
0.30000,-0
0.30833,-0
0.31667,-0
0.32500,-1
0.33333,-1
0.34167,-1
0.35000,-1
0.35833,-1
0.36667,-1
0.37500,-0
0.38333,-0
0.39167,-0
0.40000,-0
0.40833,-0
0.41667,-1
0.42500,-1
0.43333,-1
0.44167,-1
0.45000,-1
0.45833,-1
0.46667,-1
0.47500,-0
0.48333,-0
0.49167,-0
0.50000,-1
0.50833,-1
0.51667,-1
0.52500,-1
0.53333,-1
0.54167,-1
0.55000,-1
0.55833,-1
0.56667,-1
0.57500,-1
0.58333,-1
0.59167,-1
0.60000,-1
0.60833,-1
0.61667,-1
0.62500,-1
0.63333,-1
0.64167,-1
0.65000,-1
0.65833,-1
0.66667,-1
0.67500,-2
0.68333,-2
0.69167,-2
0.70000,-3
0.70833,-3
0.71667,-3
0.72500,-3
0.73333,-3
0.74167,-3
0.75000,-3
0.75833,-3
0.76667,-3
0.77500,-3
0.78333,-3
0.79167,-2
0.80000,-2
0.80833,-2
0.81667,-2
0.82500,-2
0.83333,-2
0.84167,-2
0.85000,-2
0.85833,-2
0.86667,-2
0.87500,-1
0.88333,-2
0.89167,-2
0.90000,-2
0.90833,-2
0.91667,-2
0.92500,-2
0.93333,-1
0.94167,-1
0.95000,-1
0.95833,-1
0.96667,-2
0.97500,-2
0.98333,-2
0.99167,-2
1.00000,-2
1.00833,-1
1.01667,-2
1.02500,-2
1.03333,-3
1.04167,-3
1.05000,-3
1.05833,-3
1.06667,-3
1.07500,-3
1.08333,-3
1.09167,-3
1.10000,-3
1.10833,-2
1.11667,-2
1.12500,-2
1.13333,-1
1.14167,-1
1.15000,-1
1.15833,-1
1.16667,-1
1.17500,-1
1.18333,-2
1.19167,-2
1.20000,-2
1.20833,-2
1.21667,-2
1.22500,-2
1.23333,-2
1.24167,-2
1.25000,-2
1.25833,-3
1.26667,-3
1.27500,-3
1.28333,-3
1.29167,-2
1.30000,-2
1.30833,-2
1.31667,-2
1.32500,-2
1.33333,-2
1.34167,-2
1.35000,-2
1.35833,-2
1.36667,-2
1.37500,-2
1.38333,-2
1.39167,-1
1.40000,-1
1.40833,-2
1.41667,-2
1.42500,-2
1.43333,-2
1.44167,-2
1.45000,-2
1.45833,-2
1.46667,-2
1.47500,-2
1.48333,-2
1.49167,-2
1.50000,-2
1.50833,-2
1.51667,-2
1.52500,-2
1.53333,-2
1.54167,-1
1.55000,-1
1.55833,-1
1.56667,-1
1.57500,-1
1.58333,-1
1.59167,-1
1.60000,-1
1.60833,-2
1.61667,-2
1.62500,-2
1.63333,-2
1.64167,-2
1.65000,-2
1.65833,-2
1.66667,-2
1.67500,-3
1.68333,-3
1.69167,-2
1.70000,-2
1.70833,-2
1.71667,-2
1.72500,-1
1.73333,-1
1.74167,-2
1.75000,-2
1.75833,-1
1.76667,-1
1.77500,-1
1.78333,-1
1.79167,-1
1.80000,-1
1.80833,-2
1.81667,-2
1.82500,-3
1.83333,-3
1.84167,-3
1.85000,-3
1.85833,-3
1.86667,-3
1.87500,-3
1.88333,-3
1.89167,-3
1.90000,-3
1.90833,-3
1.91667,-3
1.92500,-3
1.93333,-3
1.94167,-3
1.95000,-3
1.95833,-2
1.96667,-2
1.97500,-2
1.98333,-2
1.99167,-2
2.00000,-2
2.00833,-3
2.01667,-3
2.02500,-3
2.03333,-2
2.04167,-2
2.05000,-2
2.05833,-2
2.06667,-2
2.07500,-3
2.08333,-3
2.09167,-3
2.10000,-3
2.10833,-3
2.11667,-3
2.12500,-3
2.13333,-3
2.14167,-3
2.15000,-3
2.15833,-3
2.16667,-3
2.17500,-3
2.18333,-3
2.19167,-3
2.20000,-3
2.20833,-3
2.21667,-3
2.22500,-3
2.23333,-3
2.24167,-3
2.25000,-3
2.25833,-3
2.26667,-3
2.27500,-3
2.28333,-3
2.29167,-3
2.30000,-3
2.30833,-3
2.31667,-4
2.32500,-4
2.33333,-4
2.34167,-3
2.35000,-3
2.35833,-3
2.36667,-3
2.37500,-3
2.38333,-3
2.39167,-3
2.40000,-3
2.40833,-3
2.41667,-3
2.42500,-3
2.43333,-3
2.44167,-3
2.45000,-2
2.45833,-2
2.46667,-2
2.47500,-2
2.48333,-2
2.49167,-2
2.50000,-3
2.50833,-3
2.51667,-3
2.52500,-3
2.53333,-2
2.54167,-2
2.55000,-2
2.55833,-2
2.56667,-2
2.57500,-2
2.58333,-2
2.59167,-3
2.60000,-3
2.60833,-3
2.61667,-4
2.62500,-4
2.63333,-4
2.64167,-4
2.65000,-4
2.65833,-4
2.66667,-4
2.67500,-4
2.68333,-4
2.69167,-3
2.70000,-2
2.70833,-2
2.71667,-2
2.72500,-2
2.73333,-2
2.74167,-2
2.75000,-2
2.75833,-2
2.76667,-2
2.77500,-2
2.78333,-2
2.79167,-2
2.80000,-2
2.80833,-2
2.81667,-2
2.82500,-3
2.83333,-3
2.84167,-3
2.85000,-4
2.85833,-4
2.86667,-4
2.87500,-4
2.88333,-3
2.89167,-3
2.90000,-3
2.90833,-3
2.91667,-2
2.92500,-2
2.93333,-2
2.94167,-2
2.95000,-2
2.95833,-2
2.96667,-2
2.97500,-2
2.98333,-2
2.99167,-2
3.00000,-2
3.00833,-3
3.01667,-3
3.02500,-3
3.03333,-3
3.04167,-3
3.05000,-3
3.05833,-3
3.06667,-3
3.07500,-3
3.08333,-3
3.09167,-3
3.10000,-3
3.10833,-3
3.11667,-3
3.12500,-3
3.13333,-3
3.14167,-3
3.15000,-3
3.15833,-3
3.16667,-3
3.17500,-3
3.18333,-3
3.19167,-3
3.20000,-2
3.20833,-2
3.21667,-2
3.22500,-2
3.23333,-2
3.24167,-2
3.25000,-2
3.25833,-2
3.26667,-3
3.27500,-3
3.28333,-3
3.29167,-3
3.30000,-3
3.30833,-2
3.31667,-2
3.32500,-2
3.33333,-3
3.34167,-3
3.35000,-3
3.35833,-3
3.36667,-2
3.37500,-2
3.38333,-2
3.39167,-2
3.40000,-2
3.40833,-2
3.41667,-3
3.42500,-3
3.43333,-3
3.44167,-3
3.45000,-3
3.45833,-3
3.46667,-3
3.47500,-3
3.48333,-2
3.49167,-2
3.50000,-2
3.50833,-2
3.51667,-2
3.52500,-2
3.53333,-2
3.54167,-2
3.55000,-2
3.55833,-2
3.56667,-2
3.57500,-2
3.58333,-2
3.59167,-2
3.60000,-2
3.60833,-2
3.61667,-2
3.62500,-2
3.63333,-2
3.64167,-2
3.65000,-2
3.65833,-2
3.66667,-2
3.67500,-2
3.68333,-2
3.69167,-2
3.70000,-2
3.70833,-2
3.71667,-2
3.72500,-2
3.73333,-2
3.74167,-2
3.75000,-2
3.75833,-2
3.76667,-1
3.77500,-1
3.78333,-1
3.79167,-2
3.80000,-2
3.80833,-2
3.81667,-2
3.82500,-2
3.83333,-2
3.84167,-2
3.85000,-2
3.85833,-2
3.86667,-2
3.87500,-2
3.88333,-2
3.89167,-2
3.90000,-2
3.90833,-2
3.91667,-2
3.92500,-2
3.93333,-2
3.94167,-2
3.95000,-2
3.95833,-2
3.96667,-2
3.97500,-2
3.98333,-2
3.99167,-2
4.00000,-2
4.00833,-2
4.01667,-2
4.02500,-2
4.03333,-2
4.04167,-2
4.05000,-2
4.05833,-2
4.06667,-2
4.07500,-2
4.08333,-2
4.09167,-2
4.10000,-1
4.10833,-1
4.11667,-1
4.12500,-1
4.13333,-1
4.14167,-1
4.15000,-1
4.15833,-1
4.16667,-1
4.17500,-2
4.18333,-2
4.19167,-2
4.20000,-2
4.20833,-2
4.21667,-1
4.22500,-1
4.23333,-1
4.24167,-1
4.25000,-1
4.25833,-1
4.26667,-1
4.27500,-1
4.28333,-1
4.29167,-2
4.30000,-2
4.30833,-2
4.31667,-3
4.32500,-3
4.33333,-3
4.34167,-3
4.35000,-2
4.35833,-2
4.36667,-2
4.37500,-2
4.38333,-2
4.39167,-2
4.40000,-2
4.40833,-2
4.41667,-2
4.42500,-2
4.43333,-2
4.44167,-2
4.45000,-2
4.45833,-2
4.46667,-2
4.47500,-1
4.48333,-1
4.49167,-1
4.50000,-1
4.50833,-1
4.51667,-1
4.52500,-1
4.53333,-1
4.54167,-1
4.55000,-1
4.55833,-1
4.56667,-1
4.57500,-1
4.58333,-2
4.59167,-2
4.60000,-2
4.60833,-2
4.61667,-1
4.62500,-1
4.63333,-1
4.64167,-1
4.65000,-1
4.65833,-1
4.66667,-1
4.67500,-0
4.68333,-0
4.69167,-1
4.70000,-1
4.70833,-1
4.71667,-1
4.72500,-1
4.73333,-1
4.74167,-1
4.75000,-1
4.75833,-1
4.76667,-1
4.77500,-1
4.78333,-1
4.79167,-1
4.80000,-1
4.80833,-1
4.81667,-1
4.82500,-0
4.83333,-0
4.84167,-1
4.85000,-1
4.85833,-1
4.86667,-1
4.87500,-1
4.88333,-1
4.89167,-2
4.90000,-2
4.90833,-2
4.91667,-1
4.92500,-1
4.93333,-1
4.94167,-1
4.95000,-1
4.95833,-1
4.96667,-1
4.97500,-1
4.98333,-1
4.99167,-2
5.00000,-2
5.00833,-1
5.01667,-1
5.02500,-1
5.03333,-1
5.04167,-0
5.05000,-0
5.05833,-1
5.06667,-1
5.07500,-1
5.08333,-1
5.09167,-1
5.10000,-1
5.10833,-1
5.11667,-2
5.12500,-2
5.13333,-2
5.14167,-2
5.15000,-2
5.15833,-2
5.16667,-1
5.17500,-1
5.18333,-1
5.19167,-1
5.20000,-1
5.20833,-2
5.21667,-2
5.22500,-2
5.23333,-2
5.24167,-2
5.25000,-2
5.25833,-2
5.26667,-2
5.27500,-2
5.28333,-2
5.29167,-2
5.30000,-2
5.30833,-2
5.31667,-2
5.32500,-2
5.33333,-1
5.34167,-1
5.35000,-1
5.35833,-1
5.36667,-2
5.37500,-2
5.38333,-2
5.39167,-2
5.40000,-2
5.40833,-2
5.41667,-2
5.42500,-2
5.43333,-2
5.44167,-2
5.45000,-2
5.45833,-2
5.46667,-2
5.47500,-2
5.48333,-2
5.49167,-2
5.50000,-2
5.50833,-2
5.51667,-2
5.52500,-2
5.53333,-2
5.54167,-2
5.55000,-2
5.55833,-1
5.56667,-1
5.57500,-1
5.58333,-1
5.59167,-1
5.60000,-1
5.60833,-1
5.61667,-1
5.62500,-2
5.63333,-2
5.64167,-2
5.65000,-2
5.65833,-2
5.66667,-2
5.67500,-2
5.68333,-2
5.69167,-1
5.70000,-1
5.70833,-1
5.71667,-1
5.72500,-2
5.73333,-2
5.74167,-2
5.75000,-2
5.75833,-2
5.76667,-2
5.77500,-2
5.78333,-2
5.79167,-2
5.80000,-2
5.80833,-2
5.81667,-2
5.82500,-2
5.83333,-2
5.84167,-2
5.85000,-2
5.85833,-2
5.86667,-2
5.87500,-2
5.88333,-2
5.89167,-1
5.90000,-1
5.90833,-1
5.91667,-1
5.92500,-1
5.93333,-1
5.94167,-1
5.95000,-1
5.95833,-1
5.96667,-1
5.97500,-1
5.98333,-1
5.99167,-1
6.00000,-1
6.00833,-1
6.01667,-1
6.02500,-2
6.03333,-2
6.04167,-2
6.05000,-2
6.05833,-2
6.06667,-2
6.07500,-2
6.08333,-2
6.09167,-2
6.10000,-2
6.10833,-2
6.11667,-2
6.12500,-2
6.13333,-2
6.14167,-2
6.15000,-2
6.15833,-2
6.16667,-2
6.17500,-1
6.18333,-1
6.19167,-1
6.20000,-1
6.20833,-2
6.21667,-2
6.22500,-2
6.23333,-2
6.24167,-2
6.25000,-2
6.25833,-2
6.26667,-2
6.27500,-2
6.28333,-2
6.29167,-2
6.30000,-2
6.30833,-2
6.31667,-2
6.32500,-2
6.33333,-2
6.34167,-3
6.35000,-2
6.35833,-2
6.36667,-2
6.37500,-2
6.38333,-2
6.39167,-2
6.40000,-2
6.40833,-3
6.41667,-3
6.42500,-3
6.43333,-3
6.44167,-3
6.45000,-3
6.45833,-3
6.46667,-3
6.47500,-2
6.48333,-2
6.49167,-2
6.50000,-1
6.50833,-1
6.51667,-1
6.52500,-1
6.53333,-1
6.54167,-2
6.55000,-2
6.55833,-1
6.56667,-1
6.57500,-1
6.58333,-2
6.59167,-2
6.60000,-2
6.60833,-2
6.61667,-2
6.62500,-2
6.63333,-2
6.64167,-2
6.65000,-2
6.65833,-3
6.66667,-3
6.67500,-3
6.68333,-3
6.69167,-3
6.70000,-3
6.70833,-3
6.71667,-3
6.72500,-3
6.73333,-3
6.74167,-2
6.75000,-3
6.75833,-2
6.76667,-3
6.77500,-2
6.78333,-2
6.79167,-2
6.80000,-2
6.80833,-2
6.81667,-2
6.82500,-2
6.83333,-2
6.84167,-2
6.85000,-3
6.85833,-3
6.86667,-2
6.87500,-2
6.88333,-1
6.89167,-2
6.90000,-2
6.90833,-2
6.91667,-2
6.92500,-2
6.93333,-2
6.94167,-2
6.95000,-2
6.95833,-3
6.96667,-3
6.97500,-3
6.98333,-2
6.99167,-2
7.00000,-2
7.00833,-1
7.01667,-1
7.02500,-1
7.03333,-2
7.04167,-2
7.05000,-2
7.05833,-2
7.06667,-2
7.07500,-2
7.08333,-1
7.09167,-1
7.10000,-1
7.10833,-2
7.11667,-2
7.12500,-2
7.13333,-2
7.14167,-3
7.15000,-3
7.15833,-3
7.16667,-2
7.17500,-2
7.18333,-2
7.19167,-2
7.20000,-2
7.20833,-2
7.21667,-2
7.22500,-2
7.23333,-2
7.24167,-2
7.25000,-2
7.25833,-2
7.26667,-2
7.27500,-2
7.28333,-2
7.29167,-2
7.30000,-2
7.30833,-2
7.31667,-2
7.32500,-2
7.33333,-1
7.34167,-2
7.35000,-2
7.35833,-2
7.36667,-2
7.37500,-2
7.38333,-2
7.39167,-2
7.40000,-2
7.40833,-3
7.41667,-3
7.42500,-3
7.43333,-3
7.44167,-3
7.45000,-2
7.45833,-3
7.46667,-3
7.47500,-3
7.48333,-2
7.49167,-3
7.50000,-3
7.50833,-3
7.51667,-3
7.52500,-3
7.53333,-2
7.54167,-2
7.55000,-2
7.55833,-1
7.56667,-1
7.57500,-2
7.58333,-2
7.59167,-2
7.60000,-2
7.60833,-2
7.61667,-2
7.62500,-3
7.63333,-3
7.64167,-3
7.65000,-3
7.65833,-3
7.66667,-2
7.67500,-2
7.68333,-3
7.69167,-3
7.70000,-3
7.70833,-3
7.71667,-3
7.72500,-2
7.73333,-2
7.74167,-2
7.75000,-2
7.75833,-2
7.76667,-2
7.77500,-3
7.78333,-3
7.79167,-3
7.80000,-3
7.80833,-2
7.81667,-2
7.82500,-2
7.83333,-2
7.84167,-2
7.85000,-2
7.85833,-2
7.86667,-2
7.87500,-3
7.88333,-3
7.89167,-3
7.90000,-3
7.90833,-2
7.91667,-2
7.92500,-2
7.93333,-2
7.94167,-2
7.95000,-2
7.95833,-1
7.96667,-1
7.97500,-1
7.98333,-2
7.99167,-2
8.00000,-2
8.00833,-2
8.01667,-2
8.02500,-2
8.03333,-2
8.04167,-2
8.05000,-2
8.05833,-2
8.06667,-2
8.07500,-1
8.08333,-1
8.09167,-1
8.10000,-1
8.10833,-1
8.11667,-1
8.12500,-1
8.13333,-2
8.14167,-2
8.15000,-2
8.15833,-2
8.16667,-2
8.17500,-2
8.18333,-1
8.19167,-1
8.20000,-2
8.20833,-2
8.21667,-2
8.22500,-2
8.23333,-2
8.24167,-2
8.25000,-1
8.25833,-1
8.26667,-1
8.27500,-1
8.28333,-1
8.29167,-1
8.30000,-1
8.30833,-2
8.31667,-2
8.32500,-2
8.33333,-2
8.34167,-2
8.35000,-1
8.35833,-1
8.36667,-1
8.37500,-1
8.38333,-1
8.39167,-1
8.40000,-1
8.40833,-1
8.41667,-1
8.42500,-1
8.43333,-2
8.44167,-2
8.45000,-2
8.45833,-2
8.46667,-2
8.47500,-2
8.48333,-2
8.49167,-2
8.50000,-2
8.50833,-2
8.51667,-2
8.52500,-2
8.53333,-1
8.54167,-1
8.55000,-1
8.55833,-1
8.56667,-1
8.57500,-2
8.58333,-2
8.59167,-2
8.60000,-2
8.60833,-2
8.61667,-2
8.62500,-2
8.63333,-2
8.64167,-1
8.65000,-1
8.65833,-1
8.66667,-1
8.67500,-1
8.68333,-1
8.69167,-2
8.70000,-2
8.70833,-2
8.71667,-2
8.72500,-2
8.73333,-2
8.74167,-2
8.75000,-2
8.75833,-2
8.76667,-2
8.77500,-2
8.78333,-2
8.79167,-2
8.80000,-1
8.80833,-2
8.81667,-2
8.82500,-2
8.83333,-2
8.84167,-2
8.85000,-2
8.85833,-2
8.86667,-2
8.87500,-2
8.88333,-1
8.89167,-1
8.90000,-2
8.90833,-1
8.91667,-2
8.92500,-2
8.93333,-2
8.94167,-2
8.95000,-2
8.95833,-3
8.96667,-3
8.97500,-3
8.98333,-3
8.99167,-3
9.00000,-3
9.00833,-3
9.01667,-3
9.02500,-3
9.03333,-3
9.04167,-3
9.05000,-3
9.05833,-3
9.06667,-3
9.07500,-3
9.08333,-3
9.09167,-3
9.10000,-3
9.10833,-3
9.11667,-2
9.12500,-2
9.13333,-2
9.14167,-3
9.15000,-3
9.15833,-3
9.16667,-3
9.17500,-3
9.18333,-3
9.19167,-2
9.20000,-2
9.20833,-2
9.21667,-2
9.22500,-2
9.23333,-2
9.24167,-2
9.25000,-2
9.25833,-2
9.26667,-2
9.27500,-1
9.28333,-1
9.29167,-1
9.30000,-1
9.30833,-1
9.31667,-1
9.32500,-1
9.33333,-1
9.34167,-1
9.35000,-1
9.35833,-1
9.36667,-1
9.37500,-1
9.38333,-1
9.39167,-1
9.40000,-1
9.40833,-1
9.41667,-1
9.42500,-1
9.43333,-1
9.44167,-1
9.45000,-1
9.45833,-1
9.46667,-1
9.47500,-1
9.48333,-1
9.49167,-1
9.50000,-1
9.50833,-2
9.51667,-2
9.52500,-2
9.53333,-2
9.54167,-2
9.55000,-1
9.55833,-1
9.56667,-2
9.57500,-1
9.58333,-1
9.59167,-1
9.60000,-1
9.60833,-1
9.61667,-1
9.62500,-2
9.63333,-2
9.64167,-2
9.65000,-2
9.65833,-2
9.66667,-2
9.67500,-2
9.68333,-2
9.69167,-2
9.70000,-2
9.70833,-2
9.71667,-2
9.72500,-2
9.73333,-2
9.74167,-2
9.75000,-3
9.75833,-3
9.76667,-3
9.77500,-2
9.78333,-2
9.79167,-2
9.80000,-1
9.80833,-1
9.81667,-1
9.82500,-1
9.83333,-1
9.84167,-1
9.85000,-1
9.85833,-2
9.86667,-2
9.87500,-2
9.88333,-2
9.89167,-2
9.90000,-2
9.90833,-2
9.91667,-2
9.92500,-1
9.93333,-1
9.94167,-1
9.95000,-1
9.95833,-1
9.96667,-2
9.97500,-2
9.98333,-2
9.99167,-2
10.00000,-2
10.00833,-2
10.01667,-1
10.02500,-1
10.03333,-2
10.04167,-1
10.05000,-1
10.05833,-1
10.06667,-1
10.07500,-1
10.08333,-1
10.09167,-1
10.10000,-1
10.10833,-1
10.11667,-1
10.12500,-1
10.13333,-1
10.14167,-2
10.15000,-2
10.15833,-2
10.16667,-2
10.17500,-2
10.18333,-2
10.19167,-2
10.20000,-2
10.20833,-2
10.21667,-2
10.22500,-2
10.23333,-2
10.24167,-2
10.25000,-2
10.25833,-2
10.26667,-2
10.27500,-2
10.28333,-2
10.29167,-1
10.30000,-1
10.30833,-1
10.31667,-0
10.32500,-0
10.33333,-0
10.34167,0
10.35000,0
10.35833,1
10.36667,1
10.37500,1
10.38333,1
10.39167,1
10.40000,2
10.40833,2
10.41667,3
10.42500,3
10.43333,3
10.44167,3
10.45000,3
10.45833,4
10.46667,4
10.47500,4
10.48333,4
10.49167,3
10.50000,2
10.50833,1
10.51667,-2
10.52500,-7
10.53333,-14
10.54167,-23
10.55000,-35
10.55833,-52
10.56667,-75
10.57500,-105
10.58333,-144
10.59167,-194
10.60000,-258
10.60833,-336
10.61667,-432
10.62500,-548
10.63333,-685
10.64167,-844
10.65000,-1027
10.65833,-1233
10.66667,-1461
10.67500,-1709
10.68333,-1973
10.69167,-2248
10.70000,-2527
10.70833,-2803
10.71667,-3065
10.72500,-3304
10.73333,-3506
10.74167,-3660
10.75000,-3752
10.75833,-3768
10.76667,-3696
10.77500,-3522
10.78333,-3233
10.79167,-2818
10.80000,-2265
10.80833,-1564
10.81667,-706
10.82500,315
10.83333,1506
10.84167,2869
10.85000,4409
10.85833,6127
10.86667,8022
10.87500,10092
10.88333,12334
10.89167,14744
10.90000,17313
10.90833,20035
10.91667,22898
10.92500,25891
10.93333,28997
10.94167,32198
10.95000,35474
10.95833,38798
10.96667,42142
10.97500,45471
10.98333,48747
10.99167,51925
11.00000,54959
11.00833,57796
11.01667,60383
11.02500,62664
11.03333,64587
11.04167,66103
11.05000,67171
11.05833,67759
11.06667,67848
11.07500,67432
11.08333,66518
11.09167,65130
11.10000,63303
11.10833,61084
11.11667,58530
11.12500,55700
11.13333,52661
11.14167,49476
11.15000,46208
11.15833,42914
11.16667,39647
11.17500,36449
11.18333,33358
11.19167,30403
11.20000,27605
11.20833,24979
11.21667,22533
11.22500,20271
11.23333,18193
11.24167,16294
11.25000,14567
11.25833,13003
11.26667,11593
11.27500,10327
11.28333,9194
11.29167,8182
11.30000,7281
11.30833,6480
11.31667,5769
11.32500,5140
11.33333,4584
11.34167,4092
11.35000,3659
11.35833,3277
11.36667,2940
11.37500,2643
11.38333,2382
11.39167,2152
11.40000,1949
11.40833,1770
11.41667,1612
11.42500,1473
11.43333,1350
11.44167,1242
11.45000,1145
11.45833,1058
11.46667,981
11.47500,913
11.48333,852
11.49167,797
11.50000,748
11.50833,704
11.51667,664
11.52500,628
11.53333,595
11.54167,565
11.55000,537
11.55833,512
11.56667,489
11.57500,468
11.58333,448
11.59167,430
11.60000,413
11.60833,398
11.61667,383
11.62500,370
11.63333,357
11.64167,345
11.65000,334
11.65833,324
11.66667,314
11.67500,305
11.68333,296
11.69167,288
11.70000,280
11.70833,273
11.71667,266
11.72500,259
11.73333,253
11.74167,248
11.75000,242
11.75833,237
11.76667,232
11.77500,227
11.78333,223
11.79167,218
11.80000,214
11.80833,210
11.81667,206
11.82500,203
11.83333,200
11.84167,197
11.85000,194
11.85833,191
11.86667,188
11.87500,186
11.88333,184
11.89167,182
11.90000,179
11.90833,177
11.91667,175
11.92500,173
11.93333,171
11.94167,169
11.95000,167
11.95833,166
11.96667,164
11.97500,163
11.98333,161
11.99167,160
12.00000,158
12.00833,157
12.01667,156
12.02500,154
12.03333,153
12.04167,152
12.05000,151
12.05833,150
12.06667,149
12.07500,148
12.08333,147
12.09167,146
12.10000,146
12.10833,145
12.11667,144
12.12500,143
12.13333,142
12.14167,141
12.15000,140
12.15833,139
12.16667,139
12.17500,137
12.18333,136
12.19167,135
12.20000,134
12.20833,133
12.21667,133
12.22500,132
12.23333,131
12.24167,131
12.25000,130
12.25833,129
12.26667,129
12.27500,128
12.28333,128
12.29167,127
12.30000,126
12.30833,125
12.31667,125
12.32500,124
12.33333,123
12.34167,122
12.35000,121
12.35833,121
12.36667,120
12.37500,119
12.38333,119
12.39167,118
12.40000,118
12.40833,117
12.41667,116
12.42500,115
12.43333,115
12.44167,114
12.45000,114
12.45833,114
12.46667,113
12.47500,113
12.48333,112
12.49167,112
12.50000,111
12.50833,110
12.51667,110
12.52500,109
12.53333,108
12.54167,108
12.55000,107
12.55833,107
12.56667,107
12.57500,107
12.58333,106
12.59167,105
12.60000,105
12.60833,104
12.61667,103
12.62500,103
12.63333,102
12.64167,101
12.65000,101
12.65833,100
12.66667,99
12.67500,98
12.68333,98
12.69167,97
12.70000,96
12.70833,96
12.71667,95
12.72500,95
12.73333,94
12.74167,93
12.75000,92
12.75833,92
12.76667,91
12.77500,90
12.78333,90
12.79167,89
12.80000,88
12.80833,87
12.81667,87
12.82500,87
12.83333,86
12.84167,86
12.85000,85
12.85833,84
12.86667,83
12.87500,82
12.88333,81
12.89167,80
12.90000,80
12.90833,79
12.91667,78
12.92500,78
12.93333,77
12.94167,76
12.95000,76
12.95833,75
12.96667,74
12.97500,74
12.98333,73
12.99167,72
13.00000,71
13.00833,71
13.01667,70
13.02500,70
13.03333,69
13.04167,68
13.05000,67
13.05833,66
13.06667,66
13.07500,65
13.08333,64
13.09167,64
13.10000,63
13.10833,62
13.11667,62
13.12500,61
13.13333,60
13.14167,59
13.15000,58
13.15833,57
13.16667,56
13.17500,56
13.18333,55
13.19167,55
13.20000,55
13.20833,54
13.21667,53
13.22500,53
13.23333,52
13.24167,51
13.25000,51
13.25833,50
13.26667,50
13.27500,49
13.28333,49
13.29167,48
13.30000,48
13.30833,47
13.31667,46
13.32500,46
13.33333,45
13.34167,45
13.35000,45
13.35833,45
13.36667,45
13.37500,44
13.38333,44
13.39167,43
13.40000,42
13.40833,42
13.41667,41
13.42500,41
13.43333,40
13.44167,40
13.45000,39
13.45833,39
13.46667,39
13.47500,39
13.48333,39
13.49167,39
13.50000,39
13.50833,39
13.51667,39
13.52500,39
13.53333,38
13.54167,38
13.55000,38
13.55833,37
13.56667,36
13.57500,36
13.58333,36
13.59167,36
13.60000,36
13.60833,37
13.61667,37
13.62500,37
13.63333,37
13.64167,37
13.65000,37
13.65833,37
13.66667,37
13.67500,37
13.68333,37
13.69167,37
13.70000,37
13.70833,37
13.71667,37
13.72500,37
13.73333,37
13.74167,37
13.75000,37
13.75833,37
13.76667,38
13.77500,38
13.78333,38
13.79167,38
13.80000,38
13.80833,37
13.81667,37
13.82500,37
13.83333,37
13.84167,37
13.85000,37
13.85833,37
13.86667,38
13.87500,38
13.88333,38
13.89167,38
13.90000,38
13.90833,38
13.91667,39
13.92500,39
13.93333,39
13.94167,39
13.95000,39
13.95833,40
13.96667,40
13.97500,40
13.98333,40
13.99167,40
14.00000,40
14.00833,41
14.01667,41
14.02500,41
14.03333,42
14.04167,42
14.05000,42
14.05833,43
14.06667,43
14.07500,44
14.08333,45
14.09167,45
14.10000,46
14.10833,47
14.11667,48
14.12500,49
14.13333,50
14.14167,52
14.15000,54
14.15833,55
14.16667,57
14.17500,60
14.18333,63
14.19167,67
14.20000,72
14.20833,77
14.21667,83
14.22500,91
14.23333,99
14.24167,110
14.25000,123
14.25833,138
14.26667,157
14.27500,180
14.28333,207
14.29167,240
14.30000,279
14.30833,325
14.31667,379
14.32500,444
14.33333,519
14.34167,608
14.35000,710
14.35833,827
14.36667,963
14.37500,1117
14.38333,1291
14.39167,1488
14.40000,1710
14.40833,1957
14.41667,2231
14.42500,2535
14.43333,2869
14.44167,3234
14.45000,3632
14.45833,4065
14.46667,4532
14.47500,5035
14.48333,5574
14.49167,6149
14.50000,6762
14.50833,7412
14.51667,8099
14.52500,8823
14.53333,9585
14.54167,10383
14.55000,11218
14.55833,12088
14.56667,12994
14.57500,13936
14.58333,14912
14.59167,15922
14.60000,16965
14.60833,18040
14.61667,19148
14.62500,20288
14.63333,21459
14.64167,22660
14.65000,23891
14.65833,25151
14.66667,26440
14.67500,27757
14.68333,29101
14.69167,30473
14.70000,31872
14.70833,33296
14.71667,34747
14.72500,36223
14.73333,37724
14.74167,39250
14.75000,40800
14.75833,42375
14.76667,43974
14.77500,45597
14.78333,47243
14.79167,48913
14.80000,50606
14.80833,52323
14.81667,54061
14.82500,55823
14.83333,57606
14.84167,59412
14.85000,61240
14.85833,63089
14.86667,64960
14.87500,66853
14.88333,68766
14.89167,70700
14.90000,72654
14.90833,74629
14.91667,76623
14.92500,78636
14.93333,80667
14.94167,82717
14.95000,84784
14.95833,86867
14.96667,88964
14.97500,91075
14.98333,93197
14.99167,95329
15.00000,97468
15.00833,99609
15.01667,101747
15.02500,103874
15.03333,105980
15.04167,108049
15.05000,110063
15.05833,111994
15.06667,113808
15.07500,115461
15.08333,116903
15.09167,118074
15.10000,118911
15.10833,119347
15.11667,119317
15.12500,118764
15.13333,117639
15.14167,115909
15.15000,113559
15.15833,110596
15.16667,107046
15.17500,102958
15.18333,98398
15.19167,93446
15.20000,88194
15.20833,82738
15.21667,77173
15.22500,71594
15.23333,66084
15.24167,60717
15.25000,55557
15.25833,50651
15.26667,46036
15.27500,41734
15.28333,37758
15.29167,34110
15.30000,30786
15.30833,27773
15.31667,25056
15.32500,22616
15.33333,20433
15.34167,18485
15.35000,16751
15.35833,15209
15.36667,13840
15.37500,12625
15.38333,11548
15.39167,10593
15.40000,9745
15.40833,8993
15.41667,8325
15.42500,7731
15.43333,7204
15.44167,6735
15.45000,6318
15.45833,5946
15.46667,5615
15.47500,5319
15.48333,5055
15.49167,4819
15.50000,4608
15.50833,4418
15.51667,4248
15.52500,4094
15.53333,3955
15.54167,3829
15.55000,3715
15.55833,3611
15.56667,3515
15.57500,3426
15.58333,3343
15.59167,3265
15.60000,3191
15.60833,3121
15.61667,3053
15.62500,2987
15.63333,2923
15.64167,2859
15.65000,2796
15.65833,2734
15.66667,2671
15.67500,2607
15.68333,2544
15.69167,2481
15.70000,2417
15.70833,2353
15.71667,2289
15.72500,2225
15.73333,2160
15.74167,2096
15.75000,2031
15.75833,1967
15.76667,1903
15.77500,1840
15.78333,1777
15.79167,1715
15.80000,1654
15.80833,1595
15.81667,1536
15.82500,1479
15.83333,1423
15.84167,1369
15.85000,1317
15.85833,1267
15.86667,1218
15.87500,1171
15.88333,1126
15.89167,1083
15.90000,1041
15.90833,1001
15.91667,964
15.92500,928
15.93333,894
15.94167,861
15.95000,831
15.95833,801
15.96667,774
15.97500,748
15.98333,724
15.99167,701
16.00000,680
16.00833,661
16.01667,642
16.02500,624
16.03333,608
16.04167,592
16.05000,577
16.05833,564
16.06667,551
16.07500,539
16.08333,528
16.09167,517
16.10000,508
16.10833,498
16.11667,490
16.12500,481
16.13333,473
16.14167,466
16.15000,459
16.15833,452
16.16667,446
16.17500,440
16.18333,435
16.19167,430
16.20000,425
16.20833,420
16.21667,415
16.22500,410
16.23333,406
16.24167,402
16.25000,398
16.25833,394
16.26667,390
16.27500,387
16.28333,383
16.29167,379
16.30000,376
16.30833,373
16.31667,369
16.32500,366
16.33333,364
16.34167,361
16.35000,358
16.35833,354
16.36667,352
16.37500,349
16.38333,346
16.39167,343
16.40000,340
16.40833,337
16.41667,334
16.42500,332
16.43333,329
16.44167,327
16.45000,324
16.45833,322
16.46667,319
16.47500,317
16.48333,315
16.49167,312
16.50000,310
16.50833,308
16.51667,306
16.52500,304
16.53333,302
16.54167,300
16.55000,297
16.55833,295
16.56667,293
16.57500,291
16.58333,289
16.59167,287
16.60000,285
16.60833,283
16.61667,282
16.62500,280
16.63333,278
16.64167,277
16.65000,275
16.65833,274
16.66667,272
16.67500,270
16.68333,268
16.69167,266
16.70000,265
16.70833,263
16.71667,262
16.72500,260
16.73333,259
16.74167,258
16.75000,256
16.75833,255
16.76667,253
16.77500,252
16.78333,250
16.79167,249
16.80000,247
16.80833,246
16.81667,245
16.82500,244
16.83333,243
16.84167,241
16.85000,240
16.85833,239
16.86667,238
16.87500,236
16.88333,235
16.89167,234
16.90000,233
16.90833,231
16.91667,230
16.92500,229
16.93333,228
16.94167,227
16.95000,226
16.95833,224
16.96667,223
16.97500,222
16.98333,221
16.99167,221
17.00000,220
17.00833,219
17.01667,217
17.02500,216
17.03333,215
17.04167,214
17.05000,213
17.05833,212
17.06667,211
17.07500,209
17.08333,208
17.09167,207
17.10000,206
17.10833,205
17.11667,204
17.12500,204
17.13333,202
17.14167,201
17.15000,200
17.15833,199
17.16667,198
17.17500,197
17.18333,196
17.19167,195
17.20000,194
17.20833,193
17.21667,192
17.22500,191
17.23333,191
17.24167,190
17.25000,189
17.25833,188
17.26667,188
17.27500,187
17.28333,186
17.29167,185
17.30000,184
17.30833,183
17.31667,182
17.32500,181
17.33333,180
17.34167,179
17.35000,178
17.35833,178
17.36667,177
17.37500,176
17.38333,175
17.39167,174
17.40000,173
17.40833,172
17.41667,171
17.42500,170
17.43333,169
17.44167,168
17.45000,167
17.45833,167
17.46667,166
17.47500,165
17.48333,164
17.49167,163
17.50000,162
17.50833,161
17.51667,160
17.52500,159
17.53333,158
17.54167,157
17.55000,156
17.55833,155
17.56667,154
17.57500,153
17.58333,152
17.59167,152
17.60000,151
17.60833,150
17.61667,150
17.62500,149
17.63333,148
17.64167,148
17.65000,147
17.65833,146
17.66667,145
17.67500,144
17.68333,143
17.69167,142
17.70000,141
17.70833,140
17.71667,139
17.72500,139
17.73333,138
17.74167,137
17.75000,137
17.75833,136
17.76667,135
17.77500,134
17.78333,134
17.79167,133
17.80000,132
17.80833,131
17.81667,131
17.82500,130
17.83333,129
17.84167,128
17.85000,128
17.85833,127
17.86667,126
17.87500,125
17.88333,125
17.89167,124
17.90000,123
17.90833,122
17.91667,121
17.92500,120
17.93333,120
17.94167,119
17.95000,118
17.95833,118
17.96667,118
17.97500,117
17.98333,116
17.99167,115
18.00000,114
18.00833,113
18.01667,113
18.02500,112
18.03333,112
18.04167,111
18.05000,110
18.05833,110
18.06667,109
18.07500,109
18.08333,109
18.09167,108
18.10000,107
18.10833,107
18.11667,106
18.12500,105
18.13333,105
18.14167,104
18.15000,104
18.15833,103
18.16667,103
18.17500,102
18.18333,101
18.19167,101
18.20000,100
18.20833,100
18.21667,99
18.22500,99
18.23333,98
18.24167,98
18.25000,97
18.25833,97
18.26667,96
18.27500,96
18.28333,95
18.29167,95
18.30000,94
18.30833,93
18.31667,93
18.32500,92
18.33333,91
18.34167,91
18.35000,90
18.35833,90
18.36667,89
18.37500,88
18.38333,88
18.39167,87
18.40000,87
18.40833,86
18.41667,86
18.42500,85
18.43333,85
18.44167,85
18.45000,84
18.45833,84
18.46667,84
18.47500,83
18.48333,82
18.49167,82
18.50000,82
18.50833,81
18.51667,80
18.52500,80
18.53333,79
18.54167,79
18.55000,78
18.55833,78
18.56667,77
18.57500,78
18.58333,78
18.59167,77
18.60000,77
18.60833,77
18.61667,76
18.62500,76
18.63333,76
18.64167,75
18.65000,75
18.65833,75
18.66667,75
18.67500,75
18.68333,75
18.69167,75
18.70000,75
18.70833,75
18.71667,75
18.72500,75
18.73333,75
18.74167,75
18.75000,76
18.75833,76
18.76667,77
18.77500,77
18.78333,78
18.79167,79
18.80000,80
18.80833,81
18.81667,81
18.82500,82
18.83333,82
18.84167,83
18.85000,84
18.85833,85
18.86667,86
18.87500,87
18.88333,88
18.89167,89
18.90000,90
18.90833,91
18.91667,92
18.92500,93
18.93333,94
18.94167,95
18.95000,95
18.95833,96
18.96667,96
18.97500,96
18.98333,96
18.99167,96
19.00000,96
19.00833,97
19.01667,96
19.02500,96
19.03333,95
19.04167,95
19.05000,95
19.05833,94
19.06667,93
19.07500,92
19.08333,92
19.09167,91
19.10000,90
19.10833,89
19.11667,88
19.12500,87
19.13333,85
19.14167,84
19.15000,82
19.15833,81
19.16667,80
19.17500,78
19.18333,77
19.19167,75
19.20000,74
19.20833,73
19.21667,71
19.22500,70
19.23333,69
19.24167,67
19.25000,66
19.25833,65
19.26667,64
19.27500,63
19.28333,62
19.29167,60
19.30000,59
19.30833,58
19.31667,57
19.32500,56
19.33333,55
19.34167,54
19.35000,53
19.35833,52
19.36667,52
19.37500,51
19.38333,51
19.39167,51
19.40000,50
19.40833,50
19.41667,50
19.42500,49
19.43333,49
19.44167,48
19.45000,48
19.45833,47
19.46667,47
19.47500,47
19.48333,47
19.49167,46
19.50000,46
19.50833,45
19.51667,45
19.52500,44
19.53333,44
19.54167,44
19.55000,44
19.55833,44
19.56667,43
19.57500,43
19.58333,42
19.59167,42
19.60000,41
19.60833,41
19.61667,41
19.62500,41
19.63333,41
19.64167,40
19.65000,40
19.65833,40
19.66667,39
19.67500,39
19.68333,38
19.69167,38
19.70000,38
19.70833,38
19.71667,38
19.72500,38
19.73333,38
19.74167,38
19.75000,38
19.75833,38
19.76667,38
19.77500,37
19.78333,37
19.79167,37
19.80000,37
19.80833,36
19.81667,36
19.82500,36
19.83333,36
19.84167,35
19.85000,35
19.85833,34
19.86667,34
19.87500,35
19.88333,35
19.89167,35
19.90000,34
19.90833,34
19.91667,34
19.92500,34
19.93333,33
19.94167,33
19.95000,33
19.95833,33
19.96667,33
19.97500,33
19.98333,33
19.99167,33
20.00000,33
20.00833,33
20.01667,33
20.02500,33
20.03333,33
20.04167,32
20.05000,32
20.05833,32
20.06667,31
20.07500,31
20.08333,31
20.09167,30
20.10000,30
20.10833,31
20.11667,31
20.12500,31
20.13333,30
20.14167,30
20.15000,30
20.15833,30
20.16667,30
20.17500,30
20.18333,31
20.19167,31
20.20000,30
20.20833,30
20.21667,30
20.22500,29
20.23333,29
20.24167,28
20.25000,28
20.25833,28
20.26667,28
20.27500,29
20.28333,29
20.29167,28
20.30000,28
20.30833,28
20.31667,28
20.32500,27
20.33333,27
20.34167,28
20.35000,28
20.35833,28
20.36667,27
20.37500,27
20.38333,27
20.39167,27
20.40000,27
20.40833,27
20.41667,27
20.42500,28
20.43333,28
20.44167,27
20.45000,27
20.45833,27
20.46667,27
20.47500,27
20.48333,26
20.49167,26
20.50000,26
20.50833,26
20.51667,26
20.52500,26
20.53333,25
20.54167,25
20.55000,25
20.55833,25
20.56667,25
20.57500,25
20.58333,25
20.59167,25
20.60000,24
20.60833,24
20.61667,24
20.62500,24
20.63333,24
20.64167,25
20.65000,25
20.65833,24
20.66667,24
20.67500,24
20.68333,24
20.69167,24
20.70000,24
20.70833,23
20.71667,23
20.72500,23
20.73333,23
20.74167,23
20.75000,23
20.75833,23
20.76667,23
20.77500,23
20.78333,23
20.79167,22
20.80000,22
20.80833,22
20.81667,22
20.82500,22
20.83333,22
20.84167,22
20.85000,22
20.85833,22
20.86667,22
20.87500,22
20.88333,22
20.89167,22
20.90000,21
20.90833,21
20.91667,21
20.92500,21
20.93333,21
20.94167,21
20.95000,22
20.95833,22
20.96667,22
20.97500,22
20.98333,21
20.99167,21
21.00000,21
21.00833,21
21.01667,20
21.02500,20
21.03333,20
21.04167,20
21.05000,20
21.05833,20
21.06667,20
21.07500,20
21.08333,20
21.09167,20
21.10000,20
21.10833,20
21.11667,20
21.12500,20
21.13333,20
21.14167,20
21.15000,20
21.15833,20
21.16667,20
21.17500,20
21.18333,20
21.19167,20
21.20000,19
21.20833,19
21.21667,19
21.22500,19
21.23333,18
21.24167,18
21.25000,18
21.25833,18
21.26667,18
21.27500,18
21.28333,18
21.29167,17
21.30000,17
21.30833,17
21.31667,17
21.32500,17
21.33333,17
21.34167,17
21.35000,17
21.35833,17
21.36667,17
21.37500,18
21.38333,18
21.39167,18
21.40000,18
21.40833,18
21.41667,18
21.42500,18
21.43333,18
21.44167,19
21.45000,19
21.45833,19
21.46667,19
21.47500,19
21.48333,19
21.49167,19
21.50000,19
21.50833,19
21.51667,19
21.52500,20
21.53333,20
21.54167,21
21.55000,21
21.55833,21
21.56667,22
21.57500,22
21.58333,22
21.59167,23
21.60000,24
21.60833,25
21.61667,26
21.62500,27
21.63333,29
21.64167,30
21.65000,32
21.65833,34
21.66667,37
21.67500,39
21.68333,42
21.69167,44
21.70000,47
21.70833,51
21.71667,55
21.72500,59
21.73333,64
21.74167,69
21.75000,74
21.75833,80
21.76667,85
21.77500,92
21.78333,99
21.79167,106
21.80000,113
21.80833,121
21.81667,130
21.82500,138
21.83333,148
21.84167,157
21.85000,168
21.85833,178
21.86667,189
21.87500,199
21.88333,210
21.89167,221
21.90000,232
21.90833,243
21.91667,254
21.92500,265
21.93333,275
21.94167,286
21.95000,295
21.95833,305
21.96667,315
21.97500,324
21.98333,332
21.99167,340
22.00000,347
22.00833,354
22.01667,360
22.02500,365
22.03333,370
22.04167,373
22.05000,376
22.05833,379
22.06667,380
22.07500,380
22.08333,380
22.09167,379
22.10000,377
22.10833,374
22.11667,370
22.12500,365
22.13333,360
22.14167,354
22.15000,348
22.15833,341
22.16667,334
22.17500,327
22.18333,318
22.19167,310
22.20000,301
22.20833,291
22.21667,282
22.22500,272
22.23333,263
22.24167,253
22.25000,243
22.25833,234
22.26667,224
22.27500,215
22.28333,205
22.29167,196
22.30000,187
22.30833,178
22.31667,169
22.32500,160
22.33333,151
22.34167,143
22.35000,135
22.35833,128
22.36667,121
22.37500,114
22.38333,108
22.39167,101
22.40000,96
22.40833,90
22.41667,85
22.42500,80
22.43333,75
22.44167,71
22.45000,67
22.45833,63
22.46667,60
22.47500,57
22.48333,53
22.49167,50
22.50000,47
22.50833,44
22.51667,42
22.52500,39
22.53333,37
22.54167,36
22.55000,34
22.55833,33
22.56667,31
22.57500,30
22.58333,28
22.59167,27
22.60000,26
22.60833,25
22.61667,24
22.62500,23
22.63333,22
22.64167,21
22.65000,21
22.65833,20
22.66667,19
22.67500,19
22.68333,18
22.69167,18
22.70000,18
22.70833,18
22.71667,17
22.72500,17
22.73333,17
22.74167,16
22.75000,16
22.75833,16
22.76667,16
22.77500,16
22.78333,16
22.79167,15
22.80000,15
22.80833,15
22.81667,15
22.82500,15
22.83333,15
22.84167,15
22.85000,14
22.85833,14
22.86667,14
22.87500,14
22.88333,14
22.89167,13
22.90000,13
22.90833,14
22.91667,14
22.92500,14
22.93333,14
22.94167,14
22.95000,14
22.95833,13
22.96667,13
22.97500,13
22.98333,13
22.99167,13
23.00000,13
23.00833,13
23.01667,13
23.02500,13
23.03333,13
23.04167,13
23.05000,13
23.05833,13
23.06667,13
23.07500,14
23.08333,14
23.09167,14
23.10000,13
23.10833,13
23.11667,13
23.12500,13
23.13333,13
23.14167,12
23.15000,12
23.15833,13
23.16667,13
23.17500,13
23.18333,13
23.19167,13
23.20000,13
23.20833,13
23.21667,13
23.22500,13
23.23333,12
23.24167,12
23.25000,13
23.25833,13
23.26667,13
23.27500,13
23.28333,13
23.29167,13
23.30000,13
23.30833,12
23.31667,11
23.32500,11
23.33333,11
23.34167,11
23.35000,11
23.35833,11
23.36667,11
23.37500,12
23.38333,12
23.39167,12
23.40000,12
23.40833,12
23.41667,12
23.42500,12
23.43333,11
23.44167,11
23.45000,11
23.45833,11
23.46667,11
23.47500,11
23.48333,11
23.49167,11
23.50000,11
23.50833,11
23.51667,11
23.52500,11
23.53333,11
23.54167,10
23.55000,10
23.55833,10
23.56667,10
23.57500,10
23.58333,11
23.59167,10
23.60000,10
23.60833,10
23.61667,10
23.62500,11
23.63333,11
23.64167,11
23.65000,11
23.65833,11
23.66667,11
23.67500,11
23.68333,10
23.69167,10
23.70000,10
23.70833,10
23.71667,10
23.72500,10
23.73333,10
23.74167,11
23.75000,11
23.75833,11
23.76667,10
23.77500,10
23.78333,10
23.79167,10
23.80000,10
23.80833,10
23.81667,10
23.82500,10
23.83333,9
23.84167,9
23.85000,9
23.85833,9
23.86667,9
23.87500,9
23.88333,9
23.89167,9
23.90000,9
23.90833,9
23.91667,9
23.92500,9
23.93333,9
23.94167,9
23.95000,9
23.95833,9
23.96667,9
23.97500,9
23.98333,9
23.99167,9
24.00000,9
24.00833,9
24.01667,9
24.02500,10
24.03333,10
24.04167,10
24.05000,10
24.05833,10
24.06667,10
24.07500,10
24.08333,10
24.09167,10
24.10000,9
24.10833,9
24.11667,9
24.12500,9
24.13333,9
24.14167,9
24.15000,9
24.15833,8
24.16667,8
24.17500,9
24.18333,9
24.19167,10
24.20000,10
24.20833,9
24.21667,9
24.22500,9
24.23333,9
24.24167,8
24.25000,9
24.25833,9
24.26667,9
24.27500,10
24.28333,10
24.29167,10
24.30000,10
24.30833,10
24.31667,10
24.32500,10
24.33333,10
24.34167,10
24.35000,10
24.35833,10
24.36667,10
24.37500,10
24.38333,10
24.39167,10
24.40000,10
24.40833,10
24.41667,10
24.42500,10
24.43333,9
24.44167,9
24.45000,10
24.45833,10
24.46667,10
24.47500,10
24.48333,10
24.49167,10
24.50000,10
24.50833,10
24.51667,11
24.52500,11
24.53333,11
24.54167,12
24.55000,12
24.55833,13
24.56667,13
24.57500,14
24.58333,14
24.59167,15
24.60000,15
24.60833,16
24.61667,17
24.62500,18
24.63333,19
24.64167,21
24.65000,22
24.65833,24
24.66667,26
24.67500,27
24.68333,29
24.69167,31
24.70000,33
24.70833,35
24.71667,37
24.72500,40
24.73333,43
24.74167,46
24.75000,48
24.75833,52
24.76667,55
24.77500,58
24.78333,62
24.79167,66
24.80000,70
24.80833,74
24.81667,77
24.82500,81
24.83333,86
24.84167,91
24.85000,95
24.85833,100
24.86667,105
24.87500,109
24.88333,114
24.89167,118
24.90000,123
24.90833,127
24.91667,132
24.92500,136
24.93333,140
24.94167,144
24.95000,148
24.95833,152
24.96667,155
24.97500,159
24.98333,162
24.99167,165
25.00000,168
25.00833,170
25.01667,173
25.02500,175
25.03333,176
25.04167,178
25.05000,179
25.05833,180
25.06667,180
25.07500,180
25.08333,180
25.09167,179
25.10000,178
25.10833,177
25.11667,175
25.12500,173
25.13333,171
25.14167,169
25.15000,166
25.15833,163
25.16667,160
25.17500,157
25.18333,154
25.19167,150
25.20000,147
25.20833,143
25.21667,139
25.22500,134
25.23333,130
25.24167,126
25.25000,121
25.25833,117
25.26667,113
25.27500,108
25.28333,104
25.29167,100
25.30000,96
25.30833,92
25.31667,88
25.32500,85
25.33333,81
25.34167,77
25.35000,73
25.35833,70
25.36667,66
25.37500,63
25.38333,60
25.39167,57
25.40000,55
25.40833,52
25.41667,50
25.42500,47
25.43333,45
25.44167,43
25.45000,41
25.45833,39
25.46667,37
25.47500,35
25.48333,34
25.49167,32
25.50000,31
25.50833,29
25.51667,28
25.52500,27
25.53333,26
25.54167,25
25.55000,24
25.55833,23
25.56667,22
25.57500,21
25.58333,20
25.59167,20
25.60000,19
25.60833,19
25.61667,18
25.62500,18
25.63333,18
25.64167,18
25.65000,17
25.65833,16
25.66667,16
25.67500,15
25.68333,15
25.69167,14
25.70000,14
25.70833,14
25.71667,14
25.72500,14
25.73333,14
25.74167,14
25.75000,14
25.75833,13
25.76667,13
25.77500,13
25.78333,13
25.79167,13
25.80000,13
25.80833,13
25.81667,13
25.82500,13
25.83333,14
25.84167,14
25.85000,14
25.85833,13
25.86667,13
25.87500,13
25.88333,13
25.89167,13
25.90000,13
25.90833,13
25.91667,13
25.92500,13
25.93333,13
25.94167,13
25.95000,12
25.95833,12
25.96667,12
25.97500,12
25.98333,12
25.99167,12
26.00000,12
26.00833,12
26.01667,12
26.02500,12
26.03333,13
26.04167,13
26.05000,13
26.05833,13
26.06667,12
26.07500,12
26.08333,12
26.09167,12
26.10000,13
26.10833,13
26.11667,13
26.12500,13
26.13333,14
26.14167,14
26.15000,13
26.15833,13
26.16667,13
26.17500,12
26.18333,13
26.19167,13
26.20000,13
26.20833,13
26.21667,12
26.22500,12
26.23333,12
26.24167,12
26.25000,12
26.25833,12
26.26667,12
26.27500,13
26.28333,13
26.29167,13
26.30000,13
26.30833,13
26.31667,13
26.32500,13
26.33333,13
26.34167,13
26.35000,13
26.35833,13
26.36667,13
26.37500,13
26.38333,13
26.39167,13
26.40000,13
26.40833,13
26.41667,13
26.42500,13
26.43333,13
26.44167,13
26.45000,13
26.45833,13
26.46667,13
26.47500,13
26.48333,13
26.49167,13
26.50000,13
26.50833,13
26.51667,13
26.52500,13
26.53333,13
26.54167,13
26.55000,13
26.55833,13
26.56667,13
26.57500,13
26.58333,13
26.59167,12
26.60000,12
26.60833,12
26.61667,12
26.62500,12
26.63333,12
26.64167,12
26.65000,12
26.65833,12
26.66667,13
26.67500,13
26.68333,13
26.69167,13
26.70000,14
26.70833,14
26.71667,14
26.72500,13
26.73333,13
26.74167,12
26.75000,12
26.75833,12
26.76667,12
26.77500,12
26.78333,13
26.79167,13
26.80000,13
26.80833,13
26.81667,13
26.82500,13
26.83333,13
26.84167,13
26.85000,14
26.85833,14
26.86667,14
26.87500,14
26.88333,14
26.89167,13
26.90000,13
26.90833,13
26.91667,13
26.92500,13
26.93333,13
26.94167,13
26.95000,13
26.95833,13
26.96667,13
26.97500,13
26.98333,13
26.99167,13
27.00000,13
27.00833,14
27.01667,14
27.02500,14
27.03333,13
27.04167,13
27.05000,14
27.05833,14
27.06667,14
27.07500,14
27.08333,14
27.09167,15
27.10000,14
27.10833,14
27.11667,14
27.12500,14
27.13333,14
27.14167,14
27.15000,13
27.15833,13
27.16667,14
27.17500,14
27.18333,15
27.19167,15
27.20000,15
27.20833,15
27.21667,15
27.22500,15
27.23333,15
27.24167,15
27.25000,15
27.25833,14
27.26667,14
27.27500,14
27.28333,14
27.29167,14
27.30000,14
27.30833,14
27.31667,14
27.32500,14
27.33333,14
27.34167,14
27.35000,14
27.35833,14
27.36667,14
27.37500,15
27.38333,15
27.39167,15
27.40000,15
27.40833,15
27.41667,15
27.42500,15
27.43333,16
27.44167,16
27.45000,15
27.45833,15
27.46667,15
27.47500,15
27.48333,16
27.49167,16
27.50000,16
27.50833,16
27.51667,16
27.52500,15
27.53333,15
27.54167,15
27.55000,15
27.55833,15
27.56667,15
27.57500,15
27.58333,14
27.59167,15
27.60000,15
27.60833,15
27.61667,14
27.62500,14
27.63333,14
27.64167,14
27.65000,14
27.65833,14
27.66667,14
27.67500,14
27.68333,14
27.69167,14
27.70000,14
27.70833,14
27.71667,14
27.72500,14
27.73333,13
27.74167,13
27.75000,13
27.75833,13
27.76667,13
27.77500,13
27.78333,13
27.79167,12
27.80000,12
27.80833,12
27.81667,11
27.82500,11
27.83333,11
27.84167,10
27.85000,9
27.85833,8
27.86667,7
27.87500,7
27.88333,7
27.89167,7
27.90000,6
27.90833,6
27.91667,5
27.92500,5
27.93333,4
27.94167,2
27.95000,1
27.95833,0
27.96667,-1
27.97500,-2
27.98333,-4
27.99167,-6
28.00000,-7
28.00833,-9
28.01667,-10
28.02500,-12
28.03333,-14
28.04167,-16
28.05000,-18
28.05833,-20
28.06667,-22
28.07500,-24
28.08333,-27
28.09167,-29
28.10000,-31
28.10833,-34
28.11667,-36
28.12500,-39
28.13333,-42
28.14167,-45
28.15000,-47
28.15833,-50
28.16667,-53
28.17500,-56
28.18333,-59
28.19167,-62
28.20000,-65
28.20833,-69
28.21667,-72
28.22500,-75
28.23333,-78
28.24167,-80
28.25000,-83
28.25833,-86
28.26667,-89
28.27500,-92
28.28333,-95
28.29167,-98
28.30000,-100
28.30833,-103
28.31667,-106
28.32500,-108
28.33333,-110
28.34167,-112
28.35000,-114
28.35833,-116
28.36667,-118
28.37500,-120
28.38333,-121
28.39167,-123
28.40000,-124
28.40833,-125
28.41667,-126
28.42500,-127
28.43333,-127
28.44167,-128
28.45000,-128
28.45833,-128
28.46667,-128
28.47500,-128
28.48333,-127
28.49167,-127
28.50000,-126
28.50833,-125
28.51667,-124
28.52500,-123
28.53333,-122
28.54167,-121
28.55000,-119
28.55833,-117
28.56667,-115
28.57500,-113
28.58333,-111
28.59167,-109
28.60000,-106
28.60833,-104
28.61667,-102
28.62500,-99
28.63333,-97
28.64167,-94
28.65000,-91
28.65833,-89
28.66667,-86
28.67500,-83
28.68333,-81
28.69167,-78
28.70000,-76
28.70833,-73
28.71667,-71
28.72500,-69
28.73333,-66
28.74167,-64
28.75000,-62
28.75833,-59
28.76667,-57
28.77500,-55
28.78333,-52
28.79167,-50
28.80000,-48
28.80833,-45
28.81667,-43
28.82500,-40
28.83333,-38
28.84167,-36
28.85000,-34
28.85833,-32
28.86667,-30
28.87500,-29
28.88333,-27
28.89167,-25
28.90000,-24
28.90833,-22
28.91667,-21
28.92500,-20
28.93333,-19
28.94167,-17
28.95000,-16
28.95833,-15
28.96667,-14
28.97500,-13
28.98333,-12
28.99167,-11
29.00000,-10
29.00833,-9
29.01667,-8
29.02500,-7
29.03333,-6
29.04167,-5
29.05000,-5
29.05833,-4
29.06667,-3
29.07500,-2
29.08333,-2
29.09167,-1
29.10000,-0
29.10833,0
29.11667,1
29.12500,1
29.13333,1
29.14167,1
29.15000,1
29.15833,1
29.16667,1
29.17500,1
29.18333,2
29.19167,2
29.20000,2
29.20833,2
29.21667,3
29.22500,3
29.23333,4
29.24167,4
29.25000,5
29.25833,6
29.26667,6
29.27500,6
29.28333,6
29.29167,6
29.30000,5
29.30833,6
29.31667,6
29.32500,6
29.33333,6
29.34167,5
29.35000,5
29.35833,5
29.36667,5
29.37500,5
29.38333,5
29.39167,6
29.40000,6
29.40833,7
29.41667,7
29.42500,7
29.43333,7
29.44167,6
29.45000,6
29.45833,6
29.46667,5
29.47500,5
29.48333,5
29.49167,5
29.50000,5
29.50833,5
29.51667,5
29.52500,5
29.53333,5
29.54167,5
29.55000,4
29.55833,4
29.56667,4
29.57500,4
29.58333,4
29.59167,3
29.60000,3
29.60833,2
29.61667,2
29.62500,2
29.63333,2
29.64167,1
29.65000,1
29.65833,1
29.66667,0
29.67500,0
29.68333,-0
29.69167,-0
29.70000,-1
29.70833,-2
29.71667,-3
29.72500,-3
29.73333,-4
29.74167,-4
29.75000,-5
29.75833,-6
29.76667,-6
29.77500,-7
29.78333,-8
29.79167,-9
29.80000,-10
29.80833,-10
29.81667,-11
29.82500,-12
29.83333,-13
29.84167,-15
29.85000,-15
29.85833,-16
29.86667,-17
29.87500,-18
29.88333,-19
29.89167,-20
29.90000,-21
29.90833,-22
29.91667,-23
29.92500,-24
29.93333,-25
29.94167,-26
29.95000,-27
29.95833,-28
29.96667,-29
29.97500,-30
29.98333,-30
29.99167,-31
30.00000,-32
30.00833,-33
30.01667,-34
30.02500,-35
30.03333,-36
30.04167,-37
30.05000,-38
30.05833,-39
30.06667,-40
30.07500,-41
30.08333,-42
30.09167,-43
30.10000,-43
30.10833,-44
30.11667,-44
30.12500,-44
30.13333,-45
30.14167,-45
30.15000,-45
30.15833,-46
30.16667,-46
30.17500,-46
30.18333,-46
30.19167,-46
30.20000,-46
30.20833,-46
30.21667,-46
30.22500,-46
30.23333,-46
30.24167,-46
30.25000,-46
30.25833,-45
30.26667,-45
30.27500,-44
30.28333,-44
30.29167,-44
30.30000,-43
30.30833,-43
30.31667,-42
30.32500,-41
30.33333,-41
30.34167,-40
30.35000,-39
30.35833,-38
30.36667,-37
30.37500,-36
30.38333,-35
30.39167,-35
30.40000,-34
30.40833,-33
30.41667,-32
30.42500,-32
30.43333,-31
30.44167,-30
30.45000,-29
30.45833,-28
30.46667,-27
30.47500,-26
30.48333,-25
30.49167,-25
30.50000,-24
30.50833,-24
30.51667,-23
30.52500,-22
30.53333,-20
30.54167,-19
30.55000,-18
30.55833,-17
30.56667,-16
30.57500,-15
30.58333,-14
30.59167,-13
30.60000,-12
30.60833,-11
30.61667,-11
30.62500,-10
30.63333,-10
30.64167,-9
30.65000,-9
30.65833,-9
30.66667,-8
30.67500,-7
30.68333,-7
30.69167,-7
30.70000,-6
30.70833,-6
30.71667,-5
30.72500,-4
30.73333,-4
30.74167,-3
30.75000,-3
30.75833,-2
30.76667,-2
30.77500,-1
30.78333,-1
30.79167,-0
30.80000,-1
30.80833,-1
30.81667,-1
30.82500,-1
30.83333,-1
30.84167,-1
30.85000,-1
30.85833,-0
30.86667,0
30.87500,1
30.88333,1
30.89167,1
30.90000,1
30.90833,1
30.91667,1
30.92500,1
30.93333,1
30.94167,1
30.95000,1
30.95833,1
30.96667,2
30.97500,2
30.98333,2
30.99167,3
31.00000,3
31.00833,3
31.01667,3
31.02500,2
31.03333,2
31.04167,2
31.05000,3
31.05833,3
31.06667,3
31.07500,3
31.08333,3
31.09167,3
31.10000,3
31.10833,3
31.11667,3
31.12500,3
31.13333,3
31.14167,3
31.15000,3
31.15833,3
31.16667,3
31.17500,4
31.18333,4
31.19167,4
31.20000,4
31.20833,4
31.21667,3
31.22500,3
31.23333,3
31.24167,4
31.25000,4
31.25833,4
31.26667,4
31.27500,4
31.28333,4
31.29167,4
31.30000,5
31.30833,5
31.31667,5
31.32500,5
31.33333,5
31.34167,5
31.35000,6
31.35833,6
31.36667,6
31.37500,6
31.38333,6
31.39167,6
31.40000,6
31.40833,6
31.41667,6
31.42500,6
31.43333,6
31.44167,6
31.45000,6
31.45833,6
31.46667,6
31.47500,7
31.48333,7
31.49167,6
31.50000,6
31.50833,6
31.51667,7
31.52500,7
31.53333,7
31.54167,7
31.55000,7
31.55833,7
31.56667,7
31.57500,7
31.58333,7
31.59167,7
31.60000,7
31.60833,7
31.61667,7
31.62500,7
31.63333,7
31.64167,7
31.65000,7
31.65833,7
31.66667,7
31.67500,7
31.68333,7
31.69167,7
31.70000,7
31.70833,7
31.71667,7
31.72500,8
31.73333,8
31.74167,8
31.75000,8
31.75833,8
31.76667,7
31.77500,7
31.78333,7
31.79167,7
31.80000,7
31.80833,7
31.81667,7
31.82500,7
31.83333,8
31.84167,7
31.85000,7
31.85833,7
31.86667,7
31.87500,7
31.88333,8
31.89167,8
31.90000,8
31.90833,8
31.91667,8
31.92500,8
31.93333,9
31.94167,9
31.95000,9
31.95833,9
31.96667,9
31.97500,9
31.98333,9
31.99167,8
32.00000,8
32.00833,7
32.01667,7
32.02500,7
32.03333,7
32.04167,7
32.05000,7
32.05833,7
32.06667,8
32.07500,8
32.08333,8
32.09167,8
32.10000,8
32.10833,8
32.11667,8
32.12500,8
32.13333,8
32.14167,8
32.15000,8
32.15833,7
32.16667,7
32.17500,7
32.18333,7
32.19167,8
32.20000,7
32.20833,7
32.21667,7
32.22500,7
32.23333,8
32.24167,8
32.25000,8
32.25833,7
32.26667,7
32.27500,8
32.28333,8
32.29167,8
32.30000,8
32.30833,8
32.31667,8
32.32500,8
32.33333,7
32.34167,7
32.35000,7
32.35833,7
32.36667,7
32.37500,7
32.38333,7
32.39167,7
32.40000,7
32.40833,6
32.41667,6
32.42500,6
32.43333,6
32.44167,7
32.45000,7
32.45833,7
32.46667,7
32.47500,7
32.48333,7
32.49167,7
32.50000,7
32.50833,7
32.51667,7
32.52500,7
32.53333,7
32.54167,7
32.55000,8
32.55833,8
32.56667,8
32.57500,8
32.58333,8
32.59167,7
32.60000,7
32.60833,8
32.61667,8
32.62500,8
32.63333,8
32.64167,7
32.65000,7
32.65833,8
32.66667,8
32.67500,8
32.68333,7
32.69167,7
32.70000,7
32.70833,7
32.71667,7
32.72500,7
32.73333,7
32.74167,7
32.75000,7
32.75833,6
32.76667,6
32.77500,6
32.78333,6
32.79167,6
32.80000,6
32.80833,7
32.81667,7
32.82500,7
32.83333,7
32.84167,7
32.85000,6
32.85833,6
32.86667,6
32.87500,7
32.88333,7
32.89167,7
32.90000,7
32.90833,7
32.91667,8
32.92500,8
32.93333,8
32.94167,8
32.95000,8
32.95833,8
32.96667,8
32.97500,8
32.98333,7
32.99167,7
33.00000,7
33.00833,6
33.01667,6
33.02500,6
33.03333,6
33.04167,6
33.05000,6
33.05833,6
33.06667,6
33.07500,6
33.08333,6
33.09167,6
33.10000,6
33.10833,7
33.11667,7
33.12500,7
33.13333,6
33.14167,6
33.15000,6
33.15833,6
33.16667,6
33.17500,6
33.18333,6
33.19167,6
33.20000,6
33.20833,6
33.21667,7
33.22500,7
33.23333,7
33.24167,7
33.25000,7
33.25833,7
33.26667,7
33.27500,7
33.28333,7
33.29167,7
33.30000,7
33.30833,7
33.31667,7
33.32500,7
33.33333,7
33.34167,6
33.35000,6
33.35833,6
33.36667,6
33.37500,6
33.38333,6
33.39167,7
33.40000,7
33.40833,7
33.41667,7
33.42500,7
33.43333,7
33.44167,7
33.45000,7
33.45833,7
33.46667,7
33.47500,6
33.48333,6
33.49167,6
33.50000,6
33.50833,6
33.51667,6
33.52500,6
33.53333,6
33.54167,6
33.55000,6
33.55833,6
33.56667,6
33.57500,6
33.58333,6
33.59167,6
33.60000,7
33.60833,7
33.61667,7
33.62500,7
33.63333,7
33.64167,7
33.65000,7
33.65833,7
33.66667,7
33.67500,7
33.68333,7
33.69167,7
33.70000,7
33.70833,7
33.71667,7
33.72500,7
33.73333,7
33.74167,8
33.75000,8
33.75833,7
33.76667,7
33.77500,8
33.78333,8
33.79167,8
33.80000,8
33.80833,8
33.81667,7
33.82500,7
33.83333,7
33.84167,7
33.85000,7
33.85833,7
33.86667,7
33.87500,7
33.88333,7
33.89167,7
33.90000,7
33.90833,7
33.91667,7
33.92500,7
33.93333,7
33.94167,7
33.95000,7
33.95833,7
33.96667,7
33.97500,7
33.98333,7
33.99167,7
34.00000,7
34.00833,7
34.01667,7
34.02500,7
34.03333,6
34.04167,6
34.05000,6
34.05833,6
34.06667,6
34.07500,6
34.08333,6
34.09167,6
34.10000,6
34.10833,6
34.11667,6
34.12500,6
34.13333,6
34.14167,7
34.15000,7
34.15833,7
34.16667,6
34.17500,7
34.18333,7
34.19167,7
34.20000,7
34.20833,7
34.21667,6
34.22500,6
34.23333,6
34.24167,6
34.25000,6
34.25833,6
34.26667,6
34.27500,6
34.28333,6
34.29167,6
34.30000,6
34.30833,6
34.31667,6
34.32500,6
34.33333,6
34.34167,6
34.35000,5
34.35833,5
34.36667,5
34.37500,5
34.38333,5
34.39167,5
34.40000,5
34.40833,5
34.41667,5
34.42500,5
34.43333,6
34.44167,6
34.45000,5
34.45833,5
34.46667,5
34.47500,5
34.48333,5
34.49167,5
34.50000,5
34.50833,5
34.51667,6
34.52500,6
34.53333,6
34.54167,5
34.55000,5
34.55833,5
34.56667,6
34.57500,6
34.58333,6
34.59167,5
34.60000,5
34.60833,5
34.61667,5
34.62500,5
34.63333,5
34.64167,5
34.65000,5
34.65833,5
34.66667,5
34.67500,5
34.68333,5
34.69167,5
34.70000,6
34.70833,6
34.71667,6
34.72500,5
34.73333,5
34.74167,5
34.75000,5
34.75833,5
34.76667,5
34.77500,5
34.78333,5
34.79167,5
34.80000,5
34.80833,5
34.81667,5
34.82500,5
34.83333,5
34.84167,5
34.85000,5
34.85833,5
34.86667,5
34.87500,5
34.88333,5
34.89167,4
34.90000,4
34.90833,4
34.91667,4
34.92500,4
34.93333,4
34.94167,4
34.95000,5
34.95833,5
34.96667,5
34.97500,5
34.98333,5
34.99167,5
35.00000,5
35.00833,5
35.01667,5
35.02500,5
35.03333,5
35.04167,5
35.05000,5
35.05833,5
35.06667,5
35.07500,5
35.08333,5
35.09167,5
35.10000,5
35.10833,5
35.11667,5
35.12500,5
35.13333,5
35.14167,5
35.15000,5
35.15833,5
35.16667,5
35.17500,5
35.18333,5
35.19167,5
35.20000,5
35.20833,5
35.21667,5
35.22500,5
35.23333,5
35.24167,5
35.25000,5
35.25833,5
35.26667,5
35.27500,5
35.28333,5
35.29167,5
35.30000,5
35.30833,4
35.31667,4
35.32500,5
35.33333,5
35.34167,5
35.35000,5
35.35833,5
35.36667,5
35.37500,5
35.38333,5
35.39167,5
35.40000,5
35.40833,5
35.41667,5
35.42500,4
35.43333,4
35.44167,4
35.45000,4
35.45833,4
35.46667,4
35.47500,4
35.48333,4
35.49167,4
35.50000,4
35.50833,4
35.51667,3
35.52500,3
35.53333,4
35.54167,4
35.55000,4
35.55833,4
35.56667,4
35.57500,4
35.58333,4
35.59167,4
35.60000,4
35.60833,4
35.61667,4
35.62500,4
35.63333,4
35.64167,4
35.65000,4
35.65833,4
35.66667,3
35.67500,3
35.68333,3
35.69167,4
35.70000,4
35.70833,4
35.71667,4
35.72500,4
35.73333,3
35.74167,3
35.75000,3
35.75833,3
35.76667,3
35.77500,3
35.78333,3
35.79167,3
35.80000,3
35.80833,3
35.81667,3
35.82500,3
35.83333,3
35.84167,3
35.85000,2
35.85833,2
35.86667,2
35.87500,2
35.88333,3
35.89167,3
35.90000,3
35.90833,3
35.91667,3
35.92500,3
35.93333,3
35.94167,3
35.95000,3
35.95833,3
35.96667,3
35.97500,3
35.98333,3
35.99167,3
36.00000,3
36.00833,3
36.01667,3
36.02500,3
36.03333,3
36.04167,3
36.05000,3
36.05833,3
36.06667,3
36.07500,3
36.08333,3
36.09167,3
36.10000,2
36.10833,2
36.11667,2
36.12500,2
36.13333,2
36.14167,1
36.15000,1
36.15833,1
36.16667,1
36.17500,1
36.18333,2
36.19167,2
36.20000,2
36.20833,3
36.21667,3
36.22500,3
36.23333,4
36.24167,4
36.25000,4
36.25833,3
36.26667,3
36.27500,3
36.28333,2
36.29167,2
36.30000,2
36.30833,1
36.31667,1
36.32500,1
36.33333,0
36.34167,0
36.35000,1
36.35833,1
36.36667,1
36.37500,1
36.38333,1
36.39167,2
36.40000,1
36.40833,1
36.41667,1
36.42500,1
36.43333,1
36.44167,1
36.45000,1
36.45833,1
36.46667,1
36.47500,1
36.48333,1
36.49167,2
36.50000,2
36.50833,2
36.51667,2
36.52500,2
36.53333,2
36.54167,2
36.55000,2
36.55833,2
36.56667,2
36.57500,3
36.58333,3
36.59167,3
36.60000,3
36.60833,3
36.61667,3
36.62500,3
36.63333,3
36.64167,2
36.65000,2
36.65833,2
36.66667,2
36.67500,2
36.68333,2
36.69167,3
36.70000,3
36.70833,3
36.71667,3
36.72500,3
36.73333,3
36.74167,2
36.75000,2
36.75833,2
36.76667,2
36.77500,2
36.78333,2
36.79167,2
36.80000,2
36.80833,2
36.81667,3
36.82500,3
36.83333,2
36.84167,2
36.85000,2
36.85833,2
36.86667,3
36.87500,3
36.88333,3
36.89167,3
36.90000,3
36.90833,3
36.91667,3
36.92500,3
36.93333,3
36.94167,3
36.95000,3
36.95833,3
36.96667,3
36.97500,3
36.98333,3
36.99167,3
37.00000,2
37.00833,3
37.01667,3
37.02500,3
37.03333,3
37.04167,3
37.05000,3
37.05833,3
37.06667,3
37.07500,3
37.08333,3
37.09167,3
37.10000,3
37.10833,3
37.11667,3
37.12500,3
37.13333,3
37.14167,3
37.15000,3
37.15833,3
37.16667,3
37.17500,3
37.18333,3
37.19167,3
37.20000,3
37.20833,3
37.21667,3
37.22500,3
37.23333,3
37.24167,3
37.25000,3
37.25833,2
37.26667,2
37.27500,2
37.28333,2
37.29167,3
37.30000,3
37.30833,4
37.31667,4
37.32500,4
37.33333,4
37.34167,4
37.35000,4
37.35833,4
37.36667,4
37.37500,4
37.38333,4
37.39167,4
37.40000,4
37.40833,4
37.41667,4
37.42500,4
37.43333,4
37.44167,4
37.45000,4
37.45833,4
37.46667,4
37.47500,4
37.48333,4
37.49167,4
37.50000,4
37.50833,4
37.51667,4
37.52500,3
37.53333,3
37.54167,3
37.55000,3
37.55833,3
37.56667,3
37.57500,3
37.58333,4
37.59167,4
37.60000,4
37.60833,4
37.61667,4
37.62500,3
37.63333,3
37.64167,3
37.65000,3
37.65833,3
37.66667,3
37.67500,3
37.68333,3
37.69167,3
37.70000,3
37.70833,3
37.71667,3
37.72500,3
37.73333,3
37.74167,3
37.75000,3
37.75833,3
37.76667,3
37.77500,3
37.78333,4
37.79167,4
37.80000,4
37.80833,4
37.81667,4
37.82500,4
37.83333,4
37.84167,4
37.85000,4
37.85833,4
37.86667,4
37.87500,4
37.88333,4
37.89167,4
37.90000,3
37.90833,3
37.91667,3
37.92500,3
37.93333,3
37.94167,4
37.95000,4
37.95833,4
37.96667,4
37.97500,4
37.98333,4
37.99167,4
38.00000,4
38.00833,4
38.01667,4
38.02500,4
38.03333,4
38.04167,5
38.05000,5
38.05833,5
38.06667,5
38.07500,5
38.08333,6
38.09167,6
38.10000,6
38.10833,5
38.11667,5
38.12500,5
38.13333,5
38.14167,5
38.15000,6
38.15833,6
38.16667,6
38.17500,6
38.18333,6
38.19167,6
38.20000,6
38.20833,6
38.21667,7
38.22500,7
38.23333,7
38.24167,7
38.25000,7
38.25833,7
38.26667,7
38.27500,7
38.28333,7
38.29167,7
38.30000,7
38.30833,7
38.31667,8
38.32500,8
38.33333,8
38.34167,8
38.35000,8
38.35833,8
38.36667,8
38.37500,8
38.38333,8
38.39167,8
38.40000,8
38.40833,8
38.41667,8
38.42500,8
38.43333,8
38.44167,8
38.45000,8
38.45833,8
38.46667,8
38.47500,8
38.48333,8
38.49167,9
38.50000,9
38.50833,9
38.51667,8
38.52500,8
38.53333,8
38.54167,8
38.55000,8
38.55833,8
38.56667,7
38.57500,7
38.58333,7
38.59167,7
38.60000,7
38.60833,7
38.61667,7
38.62500,7
38.63333,7
38.64167,7
38.65000,7
38.65833,7
38.66667,7
38.67500,7
38.68333,7
38.69167,7
38.70000,7
38.70833,6
38.71667,6
38.72500,6
38.73333,6
38.74167,6
38.75000,6
38.75833,6
38.76667,5
38.77500,5
38.78333,5
38.79167,5
38.80000,5
38.80833,4
38.81667,4
38.82500,4
38.83333,4
38.84167,3
38.85000,3
38.85833,3
38.86667,3
38.87500,3
38.88333,3
38.89167,3
38.90000,4
38.90833,4
38.91667,3
38.92500,3
38.93333,3
38.94167,4
38.95000,4
38.95833,3
38.96667,3
38.97500,3
38.98333,3
38.99167,3
39.00000,3
39.00833,3
39.01667,3
39.02500,3
39.03333,2
39.04167,2
39.05000,2
39.05833,2
39.06667,2
39.07500,2
39.08333,2
39.09167,2
39.10000,2
39.10833,2
39.11667,2
39.12500,2
39.13333,2
39.14167,2
39.15000,2
39.15833,2
39.16667,2
39.17500,3
39.18333,3
39.19167,2
39.20000,2
39.20833,2
39.21667,2
39.22500,2
39.23333,2
39.24167,2
39.25000,2
39.25833,2
39.26667,2
39.27500,2
39.28333,2
39.29167,2
39.30000,2
39.30833,2
39.31667,2
39.32500,2
39.33333,2
39.34167,2
39.35000,2
39.35833,2
39.36667,2
39.37500,2
39.38333,2
39.39167,2
39.40000,2
39.40833,2
39.41667,2
39.42500,2
39.43333,2
39.44167,2
39.45000,2
39.45833,2
39.46667,2
39.47500,2
39.48333,2
39.49167,2
39.50000,2
39.50833,3
39.51667,3
39.52500,3
39.53333,3
39.54167,3
39.55000,3
39.55833,3
39.56667,3
39.57500,3
39.58333,3
39.59167,3
39.60000,2
39.60833,2
39.61667,2
39.62500,2
39.63333,2
39.64167,2
39.65000,3
39.65833,3
39.66667,3
39.67500,3
39.68333,3
39.69167,3
39.70000,3
39.70833,2
39.71667,2
39.72500,3
39.73333,3
39.74167,3
39.75000,3
39.75833,3
39.76667,3
39.77500,3
39.78333,3
39.79167,3
39.80000,3
39.80833,3
39.81667,3
39.82500,3
39.83333,3
39.84167,3
39.85000,3
39.85833,3
39.86667,3
39.87500,3
39.88333,3
39.89167,3
39.90000,3
39.90833,3
39.91667,3
39.92500,2
39.93333,3
39.94167,3
39.95000,3
39.95833,3
39.96667,3
39.97500,3
39.98333,3
39.99167,3
40.00000,3

