[Header]
Application Name,LabSolutions
Version,5.97 SP1
Data File Name,C:\Users\cremerlab\Desktop\griffin\2021-03-31_NC_glucose_glycerol_acetate_calibration\calibration_batch_422021_003_003.lcd
Output Date,4/2/2021
Output Time,9:43:31 PM

[File Information]
Type,Data File
Generated,4/2/2021 9:03:12 PM
Generated by,System Administrator
Modified,4/2/2021 9:43:31 PM
Modified by,System Administrator

[Sample Information]
Operator Name,System Administrator
Acquired,4/2/2021 9:03:30 PM
Sample Type,1:Standard
Level,3
Sample Name,2021-04-02_NC_glucose_glycerol_acetate_calibration_25mM
Sample ID,003
ISTD Amount1,1
ISTD Amount2,1
ISTD Amount3,1
ISTD Amount4,1
ISTD Amount5,1
ISTD Amount6,1
ISTD Amount7,1
ISTD Amount8,1
ISTD Amount9,1
ISTD Amount10,1
ISTD Amount11,1
ISTD Amount12,1
ISTD Amount13,1
ISTD Amount14,1
ISTD Amount15,1
ISTD Amount16,1
ISTD Amount17,1
ISTD Amount18,1
ISTD Amount19,1
ISTD Amount20,1
ISTD Amount21,1
ISTD Amount22,1
ISTD Amount23,1
ISTD Amount24,1
ISTD Amount25,1
ISTD Amount26,1
ISTD Amount27,1
ISTD Amount28,1
ISTD Amount29,1
ISTD Amount30,1
ISTD Amount31,1
ISTD Amount32,1
Sample Amount,1
Dilution Factor,1
Vial#,3
Injection Volume,20

[Original Files]
Data File,C:\Users\cremerlab\Desktop\griffin\2021-03-31_NC_glucose_glycerol_acetate_calibration\calibration_batch_422021_003_003.lcd
Method File,C:\LabSolutions\Data\Project1\organicacidsetc2.lcm
Batch File,C:\Users\cremerlab\Desktop\griffin\2021-03-31_NC_glucose_glycerol_acetate_calibration\calibration_batch.lcb
Report Format File,c:\LabSolutions\System\DEFAULT.lsr

[File Description]


[Configuration]
Instrument Name,HPLC-PC-Instrument1
Instrument #,1
Line #,1
# of Detectors,2
Detector ID,Detector A,Detector B
Detector Name,Detector A,Detector B
# of Channels,1,1

[Peak Table(Detector A)]
# of Peaks,0

[Peak Table(Detector B)]
# of Peaks,6
Peak#,R.Time,I.Time,F.Time,Area,Height,A/H,Conc.,Mark,ID#,Name,k',Plate #,Plate Ht.,Tailing,Resolution,Sep.Factor,Area Ratio,Height Ratio,Conc. %,Norm Conc.
1,11.061,10.808,11.800,257062,12782,20.112,0.000,   ,,,0.000,8215,18.260,1.882,0.000,0.000,0,0,0.000,0.000
2,13.246,12.883,13.767,1811,67,26.897,0.000,   ,,,0.198,4795,31.281,1.113,3.488,0.000,0,0,0.000,0.000
3,14.795,14.133,15.175,541202,24214,22.351,0.000,   ,,,0.338,9743,15.396,0.000,2.270,1.709,0,0,0.000,0.000
4,15.652,15.175,18.517,3195049,131412,24.313,0.000, V ,,,0.415,9765,15.360,1.148,1.389,1.229,0,0,0.000,0.000
5,22.076,21.300,23.758,944717,34769,27.171,0.000,   ,,,0.996,15371,9.759,1.093,9.546,2.399,0,0,0.000,0.000
6,25.054,24.275,26.383,486203,16487,29.490,0.000,   ,,,1.265,16621,9.025,1.076,4.000,1.270,0,0,0.000,0.000

[LC Chromatogram(Detector B-Ch1)]
Interval(msec),500
# of Points,4801
Start Time(min),0.000
End Time(min),40.000
Intensity Units,mV
Intensity Multiplier,0.001
R.Time (min),Intensity
0.00000,-1
0.00833,-1
0.01667,0
0.02500,-0
0.03333,-1
0.04167,-1
0.05000,-1
0.05833,-1
0.06667,-1
0.07500,-2
0.08333,-2
0.09167,-2
0.10000,-2
0.10833,-1
0.11667,-1
0.12500,-1
0.13333,-1
0.14167,-0
0.15000,-0
0.15833,0
0.16667,-0
0.17500,-0
0.18333,-1
0.19167,-1
0.20000,-1
0.20833,-1
0.21667,-1
0.22500,-1
0.23333,-1
0.24167,-0
0.25000,-0
0.25833,0
0.26667,0
0.27500,-0
0.28333,-0
0.29167,-0
0.30000,-1
0.30833,-1
0.31667,-1
0.32500,-1
0.33333,-1
0.34167,-1
0.35000,-1
0.35833,-1
0.36667,-1
0.37500,-1
0.38333,-1
0.39167,-1
0.40000,-1
0.40833,-1
0.41667,-1
0.42500,-1
0.43333,-1
0.44167,-1
0.45000,-1
0.45833,-1
0.46667,-1
0.47500,-1
0.48333,-1
0.49167,-1
0.50000,-1
0.50833,-1
0.51667,-1
0.52500,-1
0.53333,-1
0.54167,-2
0.55000,-2
0.55833,-2
0.56667,-2
0.57500,-1
0.58333,-1
0.59167,-1
0.60000,-0
0.60833,-0
0.61667,-0
0.62500,-0
0.63333,-0
0.64167,-1
0.65000,-1
0.65833,-1
0.66667,-1
0.67500,-1
0.68333,-1
0.69167,-2
0.70000,-2
0.70833,-2
0.71667,-3
0.72500,-3
0.73333,-3
0.74167,-3
0.75000,-3
0.75833,-3
0.76667,-2
0.77500,-2
0.78333,-2
0.79167,-2
0.80000,-2
0.80833,-2
0.81667,-2
0.82500,-2
0.83333,-2
0.84167,-2
0.85000,-2
0.85833,-2
0.86667,-2
0.87500,-1
0.88333,-1
0.89167,-2
0.90000,-2
0.90833,-2
0.91667,-2
0.92500,-2
0.93333,-2
0.94167,-2
0.95000,-2
0.95833,-2
0.96667,-2
0.97500,-2
0.98333,-2
0.99167,-1
1.00000,-1
1.00833,-1
1.01667,-1
1.02500,-1
1.03333,-2
1.04167,-2
1.05000,-3
1.05833,-3
1.06667,-3
1.07500,-3
1.08333,-3
1.09167,-3
1.10000,-2
1.10833,-2
1.11667,-2
1.12500,-2
1.13333,-2
1.14167,-2
1.15000,-2
1.15833,-1
1.16667,-1
1.17500,-1
1.18333,-2
1.19167,-2
1.20000,-2
1.20833,-2
1.21667,-2
1.22500,-2
1.23333,-2
1.24167,-2
1.25000,-2
1.25833,-2
1.26667,-2
1.27500,-2
1.28333,-3
1.29167,-3
1.30000,-3
1.30833,-3
1.31667,-3
1.32500,-3
1.33333,-3
1.34167,-3
1.35000,-3
1.35833,-2
1.36667,-2
1.37500,-3
1.38333,-3
1.39167,-3
1.40000,-3
1.40833,-4
1.41667,-4
1.42500,-4
1.43333,-4
1.44167,-3
1.45000,-3
1.45833,-3
1.46667,-3
1.47500,-3
1.48333,-3
1.49167,-3
1.50000,-3
1.50833,-3
1.51667,-2
1.52500,-2
1.53333,-2
1.54167,-2
1.55000,-2
1.55833,-2
1.56667,-3
1.57500,-3
1.58333,-3
1.59167,-3
1.60000,-3
1.60833,-2
1.61667,-3
1.62500,-2
1.63333,-2
1.64167,-2
1.65000,-3
1.65833,-3
1.66667,-3
1.67500,-3
1.68333,-3
1.69167,-4
1.70000,-4
1.70833,-4
1.71667,-4
1.72500,-4
1.73333,-4
1.74167,-4
1.75000,-3
1.75833,-3
1.76667,-3
1.77500,-2
1.78333,-2
1.79167,-3
1.80000,-3
1.80833,-3
1.81667,-3
1.82500,-3
1.83333,-4
1.84167,-4
1.85000,-3
1.85833,-3
1.86667,-3
1.87500,-3
1.88333,-3
1.89167,-4
1.90000,-4
1.90833,-4
1.91667,-4
1.92500,-4
1.93333,-4
1.94167,-4
1.95000,-4
1.95833,-4
1.96667,-4
1.97500,-4
1.98333,-4
1.99167,-4
2.00000,-4
2.00833,-4
2.01667,-4
2.02500,-4
2.03333,-4
2.04167,-4
2.05000,-4
2.05833,-4
2.06667,-4
2.07500,-4
2.08333,-4
2.09167,-4
2.10000,-4
2.10833,-4
2.11667,-4
2.12500,-5
2.13333,-5
2.14167,-5
2.15000,-5
2.15833,-5
2.16667,-5
2.17500,-5
2.18333,-5
2.19167,-5
2.20000,-5
2.20833,-5
2.21667,-5
2.22500,-5
2.23333,-5
2.24167,-5
2.25000,-5
2.25833,-5
2.26667,-5
2.27500,-5
2.28333,-4
2.29167,-5
2.30000,-5
2.30833,-5
2.31667,-5
2.32500,-5
2.33333,-5
2.34167,-5
2.35000,-5
2.35833,-5
2.36667,-5
2.37500,-4
2.38333,-4
2.39167,-4
2.40000,-4
2.40833,-4
2.41667,-4
2.42500,-4
2.43333,-4
2.44167,-5
2.45000,-5
2.45833,-5
2.46667,-5
2.47500,-5
2.48333,-5
2.49167,-5
2.50000,-5
2.50833,-5
2.51667,-6
2.52500,-6
2.53333,-6
2.54167,-6
2.55000,-6
2.55833,-5
2.56667,-5
2.57500,-5
2.58333,-5
2.59167,-5
2.60000,-5
2.60833,-6
2.61667,-6
2.62500,-6
2.63333,-6
2.64167,-6
2.65000,-6
2.65833,-6
2.66667,-6
2.67500,-6
2.68333,-6
2.69167,-6
2.70000,-6
2.70833,-6
2.71667,-6
2.72500,-6
2.73333,-6
2.74167,-6
2.75000,-6
2.75833,-6
2.76667,-6
2.77500,-6
2.78333,-6
2.79167,-5
2.80000,-5
2.80833,-5
2.81667,-5
2.82500,-5
2.83333,-5
2.84167,-5
2.85000,-5
2.85833,-5
2.86667,-5
2.87500,-5
2.88333,-5
2.89167,-5
2.90000,-5
2.90833,-5
2.91667,-5
2.92500,-5
2.93333,-5
2.94167,-5
2.95000,-5
2.95833,-5
2.96667,-5
2.97500,-5
2.98333,-5
2.99167,-5
3.00000,-5
3.00833,-5
3.01667,-5
3.02500,-5
3.03333,-5
3.04167,-5
3.05000,-5
3.05833,-5
3.06667,-5
3.07500,-5
3.08333,-5
3.09167,-5
3.10000,-5
3.10833,-5
3.11667,-5
3.12500,-5
3.13333,-5
3.14167,-5
3.15000,-5
3.15833,-5
3.16667,-5
3.17500,-5
3.18333,-5
3.19167,-5
3.20000,-5
3.20833,-5
3.21667,-5
3.22500,-5
3.23333,-5
3.24167,-5
3.25000,-5
3.25833,-5
3.26667,-5
3.27500,-5
3.28333,-5
3.29167,-5
3.30000,-5
3.30833,-5
3.31667,-5
3.32500,-6
3.33333,-5
3.34167,-5
3.35000,-5
3.35833,-5
3.36667,-6
3.37500,-6
3.38333,-6
3.39167,-6
3.40000,-6
3.40833,-6
3.41667,-6
3.42500,-6
3.43333,-6
3.44167,-6
3.45000,-6
3.45833,-6
3.46667,-5
3.47500,-5
3.48333,-5
3.49167,-5
3.50000,-5
3.50833,-6
3.51667,-6
3.52500,-6
3.53333,-5
3.54167,-5
3.55000,-5
3.55833,-5
3.56667,-5
3.57500,-5
3.58333,-5
3.59167,-5
3.60000,-5
3.60833,-6
3.61667,-6
3.62500,-6
3.63333,-6
3.64167,-5
3.65000,-5
3.65833,-5
3.66667,-6
3.67500,-6
3.68333,-6
3.69167,-6
3.70000,-6
3.70833,-6
3.71667,-6
3.72500,-6
3.73333,-6
3.74167,-6
3.75000,-6
3.75833,-6
3.76667,-6
3.77500,-5
3.78333,-5
3.79167,-5
3.80000,-6
3.80833,-6
3.81667,-6
3.82500,-6
3.83333,-6
3.84167,-7
3.85000,-7
3.85833,-7
3.86667,-7
3.87500,-7
3.88333,-7
3.89167,-7
3.90000,-7
3.90833,-7
3.91667,-7
3.92500,-7
3.93333,-7
3.94167,-7
3.95000,-7
3.95833,-7
3.96667,-7
3.97500,-7
3.98333,-7
3.99167,-7
4.00000,-7
4.00833,-7
4.01667,-7
4.02500,-7
4.03333,-7
4.04167,-7
4.05000,-7
4.05833,-7
4.06667,-7
4.07500,-7
4.08333,-7
4.09167,-7
4.10000,-7
4.10833,-7
4.11667,-7
4.12500,-7
4.13333,-7
4.14167,-7
4.15000,-8
4.15833,-8
4.16667,-8
4.17500,-8
4.18333,-8
4.19167,-8
4.20000,-8
4.20833,-8
4.21667,-8
4.22500,-8
4.23333,-8
4.24167,-8
4.25000,-8
4.25833,-8
4.26667,-8
4.27500,-8
4.28333,-9
4.29167,-9
4.30000,-9
4.30833,-8
4.31667,-8
4.32500,-8
4.33333,-8
4.34167,-8
4.35000,-8
4.35833,-8
4.36667,-9
4.37500,-9
4.38333,-9
4.39167,-9
4.40000,-9
4.40833,-10
4.41667,-10
4.42500,-10
4.43333,-9
4.44167,-9
4.45000,-8
4.45833,-8
4.46667,-8
4.47500,-9
4.48333,-9
4.49167,-9
4.50000,-9
4.50833,-9
4.51667,-8
4.52500,-8
4.53333,-8
4.54167,-8
4.55000,-8
4.55833,-8
4.56667,-8
4.57500,-8
4.58333,-8
4.59167,-8
4.60000,-8
4.60833,-8
4.61667,-8
4.62500,-8
4.63333,-8
4.64167,-8
4.65000,-8
4.65833,-8
4.66667,-8
4.67500,-8
4.68333,-8
4.69167,-8
4.70000,-8
4.70833,-7
4.71667,-7
4.72500,-7
4.73333,-7
4.74167,-7
4.75000,-7
4.75833,-7
4.76667,-7
4.77500,-7
4.78333,-7
4.79167,-8
4.80000,-8
4.80833,-8
4.81667,-8
4.82500,-8
4.83333,-8
4.84167,-9
4.85000,-9
4.85833,-8
4.86667,-8
4.87500,-8
4.88333,-8
4.89167,-8
4.90000,-8
4.90833,-8
4.91667,-8
4.92500,-8
4.93333,-8
4.94167,-8
4.95000,-8
4.95833,-8
4.96667,-8
4.97500,-8
4.98333,-8
4.99167,-8
5.00000,-8
5.00833,-8
5.01667,-8
5.02500,-8
5.03333,-9
5.04167,-9
5.05000,-9
5.05833,-9
5.06667,-9
5.07500,-9
5.08333,-9
5.09167,-8
5.10000,-8
5.10833,-8
5.11667,-8
5.12500,-8
5.13333,-8
5.14167,-8
5.15000,-8
5.15833,-8
5.16667,-8
5.17500,-8
5.18333,-8
5.19167,-8
5.20000,-8
5.20833,-8
5.21667,-8
5.22500,-8
5.23333,-8
5.24167,-8
5.25000,-8
5.25833,-8
5.26667,-9
5.27500,-9
5.28333,-9
5.29167,-9
5.30000,-8
5.30833,-8
5.31667,-8
5.32500,-8
5.33333,-8
5.34167,-8
5.35000,-8
5.35833,-8
5.36667,-8
5.37500,-7
5.38333,-7
5.39167,-7
5.40000,-7
5.40833,-8
5.41667,-8
5.42500,-8
5.43333,-8
5.44167,-7
5.45000,-7
5.45833,-7
5.46667,-8
5.47500,-8
5.48333,-8
5.49167,-8
5.50000,-7
5.50833,-7
5.51667,-7
5.52500,-7
5.53333,-7
5.54167,-7
5.55000,-8
5.55833,-8
5.56667,-8
5.57500,-8
5.58333,-8
5.59167,-7
5.60000,-7
5.60833,-7
5.61667,-7
5.62500,-7
5.63333,-7
5.64167,-7
5.65000,-7
5.65833,-8
5.66667,-8
5.67500,-7
5.68333,-7
5.69167,-7
5.70000,-7
5.70833,-6
5.71667,-6
5.72500,-6
5.73333,-6
5.74167,-6
5.75000,-6
5.75833,-7
5.76667,-7
5.77500,-7
5.78333,-7
5.79167,-7
5.80000,-7
5.80833,-8
5.81667,-8
5.82500,-8
5.83333,-8
5.84167,-8
5.85000,-8
5.85833,-8
5.86667,-7
5.87500,-7
5.88333,-7
5.89167,-7
5.90000,-8
5.90833,-8
5.91667,-8
5.92500,-8
5.93333,-7
5.94167,-7
5.95000,-7
5.95833,-7
5.96667,-7
5.97500,-8
5.98333,-8
5.99167,-8
6.00000,-8
6.00833,-8
6.01667,-8
6.02500,-7
6.03333,-7
6.04167,-7
6.05000,-7
6.05833,-7
6.06667,-7
6.07500,-7
6.08333,-7
6.09167,-8
6.10000,-8
6.10833,-7
6.11667,-7
6.12500,-8
6.13333,-8
6.14167,-8
6.15000,-8
6.15833,-8
6.16667,-8
6.17500,-8
6.18333,-8
6.19167,-8
6.20000,-8
6.20833,-8
6.21667,-8
6.22500,-8
6.23333,-8
6.24167,-8
6.25000,-8
6.25833,-8
6.26667,-9
6.27500,-9
6.28333,-9
6.29167,-9
6.30000,-8
6.30833,-8
6.31667,-8
6.32500,-8
6.33333,-8
6.34167,-8
6.35000,-8
6.35833,-8
6.36667,-8
6.37500,-7
6.38333,-7
6.39167,-7
6.40000,-7
6.40833,-8
6.41667,-8
6.42500,-9
6.43333,-8
6.44167,-8
6.45000,-8
6.45833,-8
6.46667,-8
6.47500,-8
6.48333,-8
6.49167,-8
6.50000,-8
6.50833,-8
6.51667,-8
6.52500,-8
6.53333,-9
6.54167,-9
6.55000,-9
6.55833,-9
6.56667,-9
6.57500,-9
6.58333,-9
6.59167,-9
6.60000,-9
6.60833,-9
6.61667,-10
6.62500,-10
6.63333,-10
6.64167,-10
6.65000,-10
6.65833,-10
6.66667,-9
6.67500,-9
6.68333,-9
6.69167,-8
6.70000,-8
6.70833,-8
6.71667,-9
6.72500,-9
6.73333,-9
6.74167,-10
6.75000,-10
6.75833,-10
6.76667,-9
6.77500,-9
6.78333,-9
6.79167,-9
6.80000,-9
6.80833,-8
6.81667,-8
6.82500,-8
6.83333,-9
6.84167,-9
6.85000,-9
6.85833,-9
6.86667,-9
6.87500,-9
6.88333,-9
6.89167,-9
6.90000,-9
6.90833,-9
6.91667,-8
6.92500,-8
6.93333,-8
6.94167,-8
6.95000,-8
6.95833,-9
6.96667,-9
6.97500,-8
6.98333,-8
6.99167,-8
7.00000,-8
7.00833,-8
7.01667,-8
7.02500,-8
7.03333,-8
7.04167,-8
7.05000,-8
7.05833,-8
7.06667,-8
7.07500,-9
7.08333,-9
7.09167,-9
7.10000,-9
7.10833,-9
7.11667,-9
7.12500,-9
7.13333,-9
7.14167,-9
7.15000,-9
7.15833,-9
7.16667,-9
7.17500,-9
7.18333,-10
7.19167,-10
7.20000,-10
7.20833,-10
7.21667,-10
7.22500,-10
7.23333,-9
7.24167,-9
7.25000,-9
7.25833,-9
7.26667,-8
7.27500,-8
7.28333,-8
7.29167,-8
7.30000,-9
7.30833,-9
7.31667,-9
7.32500,-9
7.33333,-9
7.34167,-9
7.35000,-9
7.35833,-9
7.36667,-9
7.37500,-10
7.38333,-10
7.39167,-9
7.40000,-9
7.40833,-9
7.41667,-9
7.42500,-9
7.43333,-9
7.44167,-9
7.45000,-9
7.45833,-9
7.46667,-9
7.47500,-9
7.48333,-9
7.49167,-9
7.50000,-9
7.50833,-9
7.51667,-9
7.52500,-9
7.53333,-9
7.54167,-9
7.55000,-8
7.55833,-8
7.56667,-8
7.57500,-8
7.58333,-8
7.59167,-8
7.60000,-9
7.60833,-9
7.61667,-9
7.62500,-9
7.63333,-9
7.64167,-10
7.65000,-10
7.65833,-10
7.66667,-9
7.67500,-9
7.68333,-9
7.69167,-9
7.70000,-9
7.70833,-9
7.71667,-9
7.72500,-8
7.73333,-8
7.74167,-8
7.75000,-9
7.75833,-9
7.76667,-9
7.77500,-9
7.78333,-9
7.79167,-9
7.80000,-9
7.80833,-9
7.81667,-9
7.82500,-9
7.83333,-9
7.84167,-9
7.85000,-10
7.85833,-10
7.86667,-10
7.87500,-10
7.88333,-9
7.89167,-9
7.90000,-8
7.90833,-9
7.91667,-9
7.92500,-9
7.93333,-9
7.94167,-9
7.95000,-9
7.95833,-9
7.96667,-9
7.97500,-9
7.98333,-9
7.99167,-9
8.00000,-9
8.00833,-9
8.01667,-9
8.02500,-9
8.03333,-9
8.04167,-9
8.05000,-9
8.05833,-9
8.06667,-9
8.07500,-9
8.08333,-9
8.09167,-9
8.10000,-9
8.10833,-9
8.11667,-9
8.12500,-9
8.13333,-10
8.14167,-9
8.15000,-9
8.15833,-9
8.16667,-9
8.17500,-9
8.18333,-9
8.19167,-9
8.20000,-8
8.20833,-8
8.21667,-8
8.22500,-8
8.23333,-9
8.24167,-9
8.25000,-9
8.25833,-9
8.26667,-9
8.27500,-9
8.28333,-9
8.29167,-9
8.30000,-10
8.30833,-10
8.31667,-10
8.32500,-10
8.33333,-10
8.34167,-10
8.35000,-10
8.35833,-9
8.36667,-9
8.37500,-9
8.38333,-9
8.39167,-9
8.40000,-9
8.40833,-9
8.41667,-9
8.42500,-9
8.43333,-9
8.44167,-9
8.45000,-9
8.45833,-9
8.46667,-9
8.47500,-9
8.48333,-9
8.49167,-9
8.50000,-9
8.50833,-9
8.51667,-9
8.52500,-9
8.53333,-9
8.54167,-8
8.55000,-8
8.55833,-8
8.56667,-8
8.57500,-9
8.58333,-9
8.59167,-9
8.60000,-9
8.60833,-9
8.61667,-9
8.62500,-9
8.63333,-9
8.64167,-9
8.65000,-9
8.65833,-9
8.66667,-9
8.67500,-9
8.68333,-9
8.69167,-9
8.70000,-9
8.70833,-9
8.71667,-9
8.72500,-9
8.73333,-10
8.74167,-10
8.75000,-10
8.75833,-10
8.76667,-10
8.77500,-10
8.78333,-10
8.79167,-10
8.80000,-10
8.80833,-10
8.81667,-10
8.82500,-10
8.83333,-11
8.84167,-11
8.85000,-11
8.85833,-11
8.86667,-11
8.87500,-11
8.88333,-11
8.89167,-11
8.90000,-11
8.90833,-10
8.91667,-10
8.92500,-10
8.93333,-10
8.94167,-10
8.95000,-10
8.95833,-10
8.96667,-10
8.97500,-10
8.98333,-10
8.99167,-10
9.00000,-10
9.00833,-10
9.01667,-10
9.02500,-10
9.03333,-10
9.04167,-10
9.05000,-10
9.05833,-10
9.06667,-10
9.07500,-10
9.08333,-10
9.09167,-10
9.10000,-10
9.10833,-10
9.11667,-9
9.12500,-9
9.13333,-9
9.14167,-9
9.15000,-9
9.15833,-10
9.16667,-10
9.17500,-10
9.18333,-10
9.19167,-10
9.20000,-10
9.20833,-10
9.21667,-11
9.22500,-10
9.23333,-10
9.24167,-10
9.25000,-11
9.25833,-11
9.26667,-11
9.27500,-11
9.28333,-11
9.29167,-10
9.30000,-10
9.30833,-10
9.31667,-10
9.32500,-10
9.33333,-10
9.34167,-11
9.35000,-11
9.35833,-11
9.36667,-12
9.37500,-12
9.38333,-11
9.39167,-11
9.40000,-11
9.40833,-11
9.41667,-11
9.42500,-11
9.43333,-11
9.44167,-11
9.45000,-11
9.45833,-11
9.46667,-11
9.47500,-11
9.48333,-11
9.49167,-11
9.50000,-11
9.50833,-11
9.51667,-11
9.52500,-10
9.53333,-10
9.54167,-10
9.55000,-10
9.55833,-10
9.56667,-10
9.57500,-11
9.58333,-11
9.59167,-11
9.60000,-11
9.60833,-11
9.61667,-11
9.62500,-11
9.63333,-11
9.64167,-11
9.65000,-11
9.65833,-11
9.66667,-10
9.67500,-10
9.68333,-10
9.69167,-11
9.70000,-11
9.70833,-11
9.71667,-11
9.72500,-11
9.73333,-11
9.74167,-10
9.75000,-10
9.75833,-10
9.76667,-10
9.77500,-10
9.78333,-10
9.79167,-10
9.80000,-11
9.80833,-11
9.81667,-11
9.82500,-10
9.83333,-11
9.84167,-11
9.85000,-11
9.85833,-11
9.86667,-11
9.87500,-11
9.88333,-11
9.89167,-11
9.90000,-11
9.90833,-11
9.91667,-11
9.92500,-11
9.93333,-11
9.94167,-11
9.95000,-11
9.95833,-11
9.96667,-11
9.97500,-11
9.98333,-11
9.99167,-11
10.00000,-10
10.00833,-10
10.01667,-10
10.02500,-10
10.03333,-10
10.04167,-10
10.05000,-11
10.05833,-11
10.06667,-11
10.07500,-11
10.08333,-11
10.09167,-11
10.10000,-11
10.10833,-11
10.11667,-11
10.12500,-11
10.13333,-11
10.14167,-11
10.15000,-11
10.15833,-11
10.16667,-11
10.17500,-11
10.18333,-11
10.19167,-11
10.20000,-11
10.20833,-11
10.21667,-11
10.22500,-11
10.23333,-11
10.24167,-11
10.25000,-11
10.25833,-11
10.26667,-11
10.27500,-11
10.28333,-11
10.29167,-11
10.30000,-11
10.30833,-11
10.31667,-11
10.32500,-10
10.33333,-10
10.34167,-10
10.35000,-10
10.35833,-10
10.36667,-9
10.37500,-9
10.38333,-9
10.39167,-9
10.40000,-9
10.40833,-9
10.41667,-9
10.42500,-9
10.43333,-9
10.44167,-10
10.45000,-10
10.45833,-10
10.46667,-10
10.47500,-10
10.48333,-10
10.49167,-10
10.50000,-10
10.50833,-11
10.51667,-13
10.52500,-16
10.53333,-19
10.54167,-24
10.55000,-31
10.55833,-41
10.56667,-53
10.57500,-69
10.58333,-90
10.59167,-118
10.60000,-152
10.60833,-195
10.61667,-249
10.62500,-314
10.63333,-394
10.64167,-488
10.65000,-599
10.65833,-729
10.66667,-877
10.67500,-1044
10.68333,-1231
10.69167,-1437
10.70000,-1659
10.70833,-1896
10.71667,-2145
10.72500,-2402
10.73333,-2662
10.74167,-2920
10.75000,-3170
10.75833,-3406
10.76667,-3619
10.77500,-3804
10.78333,-3954
10.79167,-4061
10.80000,-4120
10.80833,-4125
10.81667,-4071
10.82500,-3954
10.83333,-3772
10.84167,-3522
10.85000,-3205
10.85833,-2822
10.86667,-2375
10.87500,-1867
10.88333,-1304
10.89167,-691
10.90000,-36
10.90833,654
10.91667,1370
10.92500,2103
10.93333,2845
10.94167,3585
10.95000,4314
10.95833,5024
10.96667,5705
10.97500,6351
10.98333,6953
10.99167,7506
11.00000,8003
11.00833,8442
11.01667,8818
11.02500,9128
11.03333,9373
11.04167,9552
11.05000,9664
11.05833,9713
11.06667,9700
11.07500,9629
11.08333,9504
11.09167,9329
11.10000,9109
11.10833,8847
11.11667,8551
11.12500,8226
11.13333,7876
11.14167,7506
11.15000,7124
11.15833,6733
11.16667,6337
11.17500,5941
11.18333,5549
11.19167,5165
11.20000,4790
11.20833,4428
11.21667,4080
11.22500,3748
11.23333,3433
11.24167,3136
11.25000,2857
11.25833,2597
11.26667,2355
11.27500,2132
11.28333,1925
11.29167,1736
11.30000,1564
11.30833,1406
11.31667,1263
11.32500,1134
11.33333,1017
11.34167,911
11.35000,817
11.35833,732
11.36667,657
11.37500,589
11.38333,528
11.39167,474
11.40000,426
11.40833,384
11.41667,346
11.42500,312
11.43333,282
11.44167,256
11.45000,232
11.45833,211
11.46667,193
11.47500,176
11.48333,162
11.49167,149
11.50000,137
11.50833,127
11.51667,118
11.52500,110
11.53333,102
11.54167,95
11.55000,89
11.55833,83
11.56667,78
11.57500,73
11.58333,69
11.59167,65
11.60000,61
11.60833,58
11.61667,55
11.62500,52
11.63333,50
11.64167,47
11.65000,45
11.65833,44
11.66667,42
11.67500,40
11.68333,38
11.69167,36
11.70000,34
11.70833,32
11.71667,31
11.72500,30
11.73333,29
11.74167,28
11.75000,27
11.75833,26
11.76667,26
11.77500,25
11.78333,25
11.79167,24
11.80000,24
11.80833,24
11.81667,24
11.82500,23
11.83333,23
11.84167,23
11.85000,24
11.85833,25
11.86667,25
11.87500,25
11.88333,25
11.89167,26
11.90000,26
11.90833,26
11.91667,26
11.92500,27
11.93333,27
11.94167,27
11.95000,28
11.95833,27
11.96667,27
11.97500,27
11.98333,28
11.99167,27
12.00000,27
12.00833,27
12.01667,27
12.02500,26
12.03333,26
12.04167,26
12.05000,26
12.05833,25
12.06667,24
12.07500,24
12.08333,23
12.09167,23
12.10000,22
12.10833,21
12.11667,21
12.12500,21
12.13333,21
12.14167,20
12.15000,20
12.15833,19
12.16667,18
12.17500,18
12.18333,17
12.19167,17
12.20000,16
12.20833,15
12.21667,15
12.22500,15
12.23333,14
12.24167,13
12.25000,12
12.25833,12
12.26667,11
12.27500,11
12.28333,10
12.29167,9
12.30000,9
12.30833,9
12.31667,9
12.32500,8
12.33333,8
12.34167,8
12.35000,8
12.35833,8
12.36667,7
12.37500,7
12.38333,6
12.39167,6
12.40000,6
12.40833,6
12.41667,6
12.42500,6
12.43333,5
12.44167,5
12.45000,5
12.45833,5
12.46667,5
12.47500,4
12.48333,4
12.49167,5
12.50000,4
12.50833,4
12.51667,4
12.52500,4
12.53333,4
12.54167,3
12.55000,3
12.55833,3
12.56667,3
12.57500,3
12.58333,3
12.59167,4
12.60000,4
12.60833,4
12.61667,4
12.62500,4
12.63333,5
12.64167,5
12.65000,5
12.65833,4
12.66667,4
12.67500,4
12.68333,4
12.69167,4
12.70000,5
12.70833,5
12.71667,5
12.72500,5
12.73333,6
12.74167,6
12.75000,7
12.75833,7
12.76667,7
12.77500,8
12.78333,9
12.79167,10
12.80000,11
12.80833,12
12.81667,13
12.82500,15
12.83333,16
12.84167,17
12.85000,18
12.85833,19
12.86667,21
12.87500,22
12.88333,24
12.89167,25
12.90000,27
12.90833,28
12.91667,30
12.92500,32
12.93333,33
12.94167,35
12.95000,37
12.95833,39
12.96667,41
12.97500,43
12.98333,45
12.99167,47
13.00000,49
13.00833,51
13.01667,52
13.02500,54
13.03333,55
13.04167,56
13.05000,58
13.05833,60
13.06667,61
13.07500,62
13.08333,64
13.09167,65
13.10000,66
13.10833,68
13.11667,69
13.12500,70
13.13333,71
13.14167,72
13.15000,73
13.15833,74
13.16667,75
13.17500,75
13.18333,76
13.19167,77
13.20000,78
13.20833,78
13.21667,79
13.22500,79
13.23333,79
13.24167,79
13.25000,79
13.25833,79
13.26667,79
13.27500,78
13.28333,78
13.29167,78
13.30000,77
13.30833,75
13.31667,74
13.32500,72
13.33333,70
13.34167,68
13.35000,67
13.35833,65
13.36667,64
13.37500,62
13.38333,60
13.39167,59
13.40000,57
13.40833,55
13.41667,53
13.42500,51
13.43333,49
13.44167,46
13.45000,44
13.45833,42
13.46667,40
13.47500,38
13.48333,36
13.49167,34
13.50000,32
13.50833,30
13.51667,28
13.52500,27
13.53333,25
13.54167,23
13.55000,21
13.55833,20
13.56667,18
13.57500,16
13.58333,15
13.59167,13
13.60000,12
13.60833,10
13.61667,9
13.62500,7
13.63333,6
13.64167,5
13.65000,4
13.65833,3
13.66667,2
13.67500,1
13.68333,1
13.69167,0
13.70000,-1
13.70833,-1
13.71667,-2
13.72500,-3
13.73333,-3
13.74167,-3
13.75000,-3
13.75833,-4
13.76667,-5
13.77500,-5
13.78333,-5
13.79167,-5
13.80000,-6
13.80833,-6
13.81667,-7
13.82500,-7
13.83333,-7
13.84167,-7
13.85000,-8
13.85833,-8
13.86667,-8
13.87500,-8
13.88333,-8
13.89167,-8
13.90000,-8
13.90833,-9
13.91667,-9
13.92500,-9
13.93333,-9
13.94167,-9
13.95000,-9
13.95833,-9
13.96667,-9
13.97500,-9
13.98333,-9
13.99167,-9
14.00000,-9
14.00833,-9
14.01667,-9
14.02500,-9
14.03333,-9
14.04167,-10
14.05000,-10
14.05833,-10
14.06667,-10
14.07500,-10
14.08333,-10
14.09167,-9
14.10000,-8
14.10833,-8
14.11667,-8
14.12500,-7
14.13333,-7
14.14167,-6
14.15000,-5
14.15833,-4
14.16667,-3
14.17500,-1
14.18333,1
14.19167,3
14.20000,6
14.20833,9
14.21667,13
14.22500,18
14.23333,25
14.24167,32
14.25000,41
14.25833,52
14.26667,65
14.27500,81
14.28333,101
14.29167,124
14.30000,152
14.30833,185
14.31667,224
14.32500,269
14.33333,323
14.34167,385
14.35000,458
14.35833,541
14.36667,637
14.37500,746
14.38333,869
14.39167,1008
14.40000,1165
14.40833,1340
14.41667,1534
14.42500,1747
14.43333,1982
14.44167,2240
14.45000,2520
14.45833,2823
14.46667,3150
14.47500,3501
14.48333,3877
14.49167,4278
14.50000,4704
14.50833,5154
14.51667,5628
14.52500,6125
14.53333,6646
14.54167,7189
14.55000,7754
14.55833,8339
14.56667,8943
14.57500,9566
14.58333,10206
14.59167,10861
14.60000,11530
14.60833,12211
14.61667,12903
14.62500,13603
14.63333,14309
14.64167,15019
14.65000,15730
14.65833,16440
14.66667,17146
14.67500,17844
14.68333,18530
14.69167,19201
14.70000,19853
14.70833,20481
14.71667,21080
14.72500,21644
14.73333,22169
14.74167,22648
14.75000,23075
14.75833,23445
14.76667,23750
14.77500,23986
14.78333,24146
14.79167,24225
14.80000,24221
14.80833,24128
14.81667,23946
14.82500,23673
14.83333,23312
14.84167,22863
14.85000,22332
14.85833,21724
14.86667,21045
14.87500,20303
14.88333,19507
14.89167,18667
14.90000,17793
14.90833,16894
14.91667,15981
14.92500,15062
14.93333,14147
14.94167,13243
14.95000,12358
14.95833,11497
14.96667,10668
14.97500,9873
14.98333,9116
14.99167,8398
15.00000,7722
15.00833,7088
15.01667,6497
15.02500,5947
15.03333,5439
15.04167,4971
15.05000,4541
15.05833,4148
15.06667,3790
15.07500,3466
15.08333,3173
15.09167,2910
15.10000,2675
15.10833,2467
15.11667,2285
15.12500,2128
15.13333,1995
15.14167,1884
15.15000,1797
15.15833,1734
15.16667,1695
15.17500,1681
15.18333,1694
15.19167,1735
15.20000,1808
15.20833,1914
15.21667,2058
15.22500,2244
15.23333,2478
15.24167,2764
15.25000,3110
15.25833,3521
15.26667,4007
15.27500,4575
15.28333,5234
15.29167,5994
15.30000,6865
15.30833,7856
15.31667,8979
15.32500,10243
15.33333,11660
15.34167,13240
15.35000,14993
15.35833,16928
15.36667,19052
15.37500,21372
15.38333,23894
15.39167,26621
15.40000,29554
15.40833,32692
15.41667,36033
15.42500,39572
15.43333,43300
15.44167,47207
15.45000,51278
15.45833,55497
15.46667,59846
15.47500,64300
15.48333,68838
15.49167,73431
15.50000,78051
15.50833,82667
15.51667,87248
15.52500,91762
15.53333,96176
15.54167,100456
15.55000,104569
15.55833,108484
15.56667,112170
15.57500,115598
15.58333,118742
15.59167,121578
15.60000,124085
15.60833,126244
15.61667,128042
15.62500,129467
15.63333,130512
15.64167,131172
15.65000,131448
15.65833,131342
15.66667,130862
15.67500,130018
15.68333,128822
15.69167,127290
15.70000,125441
15.70833,123294
15.71667,120871
15.72500,118196
15.73333,115293
15.74167,112187
15.75000,108904
15.75833,105470
15.76667,101912
15.77500,98252
15.78333,94515
15.79167,90726
15.80000,86905
15.80833,83075
15.81667,79256
15.82500,75465
15.83333,71719
15.84167,68034
15.85000,64423
15.85833,60898
15.86667,57468
15.87500,54143
15.88333,50930
15.89167,47834
15.90000,44860
15.90833,42012
15.91667,39292
15.92500,36701
15.93333,34238
15.94167,31903
15.95000,29694
15.95833,27609
15.96667,25646
15.97500,23800
15.98333,22069
15.99167,20448
16.00000,18932
16.00833,17518
16.01667,16201
16.02500,14976
16.03333,13839
16.04167,12784
16.05000,11807
16.05833,10903
16.06667,10069
16.07500,9298
16.08333,8589
16.09167,7935
16.10000,7333
16.10833,6780
16.11667,6271
16.12500,5805
16.13333,5377
16.14167,4984
16.15000,4624
16.15833,4295
16.16667,3993
16.17500,3717
16.18333,3464
16.19167,3233
16.20000,3021
16.20833,2827
16.21667,2650
16.22500,2487
16.23333,2338
16.24167,2201
16.25000,2076
16.25833,1961
16.26667,1855
16.27500,1758
16.28333,1670
16.29167,1588
16.30000,1513
16.30833,1444
16.31667,1380
16.32500,1321
16.33333,1266
16.34167,1216
16.35000,1169
16.35833,1126
16.36667,1085
16.37500,1048
16.38333,1013
16.39167,980
16.40000,950
16.40833,922
16.41667,896
16.42500,872
16.43333,850
16.44167,828
16.45000,808
16.45833,789
16.46667,771
16.47500,754
16.48333,738
16.49167,723
16.50000,709
16.50833,695
16.51667,683
16.52500,671
16.53333,660
16.54167,649
16.55000,639
16.55833,629
16.56667,620
16.57500,610
16.58333,602
16.59167,594
16.60000,586
16.60833,578
16.61667,571
16.62500,564
16.63333,557
16.64167,551
16.65000,544
16.65833,538
16.66667,532
16.67500,527
16.68333,522
16.69167,516
16.70000,511
16.70833,506
16.71667,500
16.72500,495
16.73333,490
16.74167,485
16.75000,480
16.75833,476
16.76667,471
16.77500,467
16.78333,463
16.79167,458
16.80000,454
16.80833,449
16.81667,445
16.82500,441
16.83333,437
16.84167,432
16.85000,428
16.85833,425
16.86667,421
16.87500,417
16.88333,413
16.89167,409
16.90000,405
16.90833,401
16.91667,397
16.92500,393
16.93333,390
16.94167,386
16.95000,382
16.95833,379
16.96667,376
16.97500,372
16.98333,369
16.99167,365
17.00000,362
17.00833,358
17.01667,355
17.02500,352
17.03333,349
17.04167,345
17.05000,342
17.05833,339
17.06667,335
17.07500,332
17.08333,329
17.09167,327
17.10000,324
17.10833,320
17.11667,317
17.12500,314
17.13333,311
17.14167,308
17.15000,306
17.15833,303
17.16667,301
17.17500,299
17.18333,296
17.19167,294
17.20000,291
17.20833,288
17.21667,286
17.22500,284
17.23333,281
17.24167,279
17.25000,277
17.25833,274
17.26667,272
17.27500,270
17.28333,268
17.29167,265
17.30000,263
17.30833,261
17.31667,259
17.32500,257
17.33333,256
17.34167,254
17.35000,253
17.35833,251
17.36667,249
17.37500,247
17.38333,245
17.39167,244
17.40000,242
17.40833,240
17.41667,239
17.42500,237
17.43333,236
17.44167,234
17.45000,233
17.45833,232
17.46667,230
17.47500,229
17.48333,228
17.49167,226
17.50000,225
17.50833,224
17.51667,223
17.52500,222
17.53333,220
17.54167,219
17.55000,217
17.55833,216
17.56667,215
17.57500,214
17.58333,213
17.59167,212
17.60000,211
17.60833,210
17.61667,208
17.62500,207
17.63333,206
17.64167,205
17.65000,203
17.65833,203
17.66667,201
17.67500,200
17.68333,199
17.69167,198
17.70000,197
17.70833,196
17.71667,195
17.72500,194
17.73333,194
17.74167,193
17.75000,192
17.75833,191
17.76667,190
17.77500,189
17.78333,188
17.79167,187
17.80000,186
17.80833,185
17.81667,184
17.82500,183
17.83333,183
17.84167,182
17.85000,181
17.85833,180
17.86667,179
17.87500,178
17.88333,177
17.89167,175
17.90000,174
17.90833,173
17.91667,172
17.92500,171
17.93333,170
17.94167,170
17.95000,169
17.95833,168
17.96667,167
17.97500,166
17.98333,165
17.99167,165
18.00000,164
18.00833,163
18.01667,162
18.02500,161
18.03333,160
18.04167,159
18.05000,158
18.05833,157
18.06667,157
18.07500,156
18.08333,155
18.09167,155
18.10000,154
18.10833,153
18.11667,152
18.12500,151
18.13333,150
18.14167,149
18.15000,148
18.15833,148
18.16667,147
18.17500,146
18.18333,145
18.19167,144
18.20000,144
18.20833,143
18.21667,142
18.22500,141
18.23333,140
18.24167,139
18.25000,138
18.25833,137
18.26667,136
18.27500,136
18.28333,135
18.29167,134
18.30000,133
18.30833,132
18.31667,131
18.32500,131
18.33333,130
18.34167,129
18.35000,128
18.35833,127
18.36667,127
18.37500,126
18.38333,125
18.39167,124
18.40000,123
18.40833,122
18.41667,122
18.42500,121
18.43333,121
18.44167,120
18.45000,119
18.45833,119
18.46667,118
18.47500,117
18.48333,116
18.49167,115
18.50000,115
18.50833,115
18.51667,114
18.52500,114
18.53333,113
18.54167,112
18.55000,111
18.55833,110
18.56667,109
18.57500,108
18.58333,108
18.59167,107
18.60000,106
18.60833,106
18.61667,106
18.62500,105
18.63333,105
18.64167,104
18.65000,104
18.65833,103
18.66667,103
18.67500,102
18.68333,102
18.69167,102
18.70000,102
18.70833,101
18.71667,100
18.72500,100
18.73333,100
18.74167,100
18.75000,100
18.75833,100
18.76667,100
18.77500,100
18.78333,100
18.79167,100
18.80000,100
18.80833,100
18.81667,100
18.82500,100
18.83333,100
18.84167,100
18.85000,101
18.85833,101
18.86667,102
18.87500,102
18.88333,103
18.89167,103
18.90000,103
18.90833,102
18.91667,102
18.92500,102
18.93333,102
18.94167,102
18.95000,102
18.95833,102
18.96667,102
18.97500,102
18.98333,102
18.99167,101
19.00000,101
19.00833,100
19.01667,100
19.02500,99
19.03333,99
19.04167,98
19.05000,98
19.05833,97
19.06667,97
19.07500,96
19.08333,95
19.09167,94
19.10000,94
19.10833,93
19.11667,92
19.12500,91
19.13333,90
19.14167,89
19.15000,88
19.15833,87
19.16667,86
19.17500,85
19.18333,84
19.19167,83
19.20000,82
19.20833,82
19.21667,81
19.22500,80
19.23333,79
19.24167,78
19.25000,77
19.25833,76
19.26667,75
19.27500,74
19.28333,72
19.29167,72
19.30000,71
19.30833,70
19.31667,70
19.32500,69
19.33333,68
19.34167,67
19.35000,67
19.35833,66
19.36667,65
19.37500,65
19.38333,64
19.39167,64
19.40000,63
19.40833,63
19.41667,63
19.42500,63
19.43333,62
19.44167,62
19.45000,62
19.45833,61
19.46667,61
19.47500,60
19.48333,60
19.49167,59
19.50000,59
19.50833,58
19.51667,57
19.52500,57
19.53333,56
19.54167,56
19.55000,56
19.55833,55
19.56667,55
19.57500,55
19.58333,55
19.59167,54
19.60000,54
19.60833,54
19.61667,53
19.62500,52
19.63333,52
19.64167,52
19.65000,52
19.65833,51
19.66667,51
19.67500,51
19.68333,51
19.69167,51
19.70000,51
19.70833,50
19.71667,50
19.72500,49
19.73333,49
19.74167,48
19.75000,48
19.75833,48
19.76667,47
19.77500,47
19.78333,47
19.79167,47
19.80000,47
19.80833,46
19.81667,46
19.82500,45
19.83333,45
19.84167,45
19.85000,45
19.85833,45
19.86667,45
19.87500,45
19.88333,44
19.89167,44
19.90000,44
19.90833,44
19.91667,44
19.92500,43
19.93333,43
19.94167,42
19.95000,42
19.95833,41
19.96667,41
19.97500,41
19.98333,41
19.99167,42
20.00000,42
20.00833,41
20.01667,41
20.02500,41
20.03333,41
20.04167,41
20.05000,40
20.05833,40
20.06667,40
20.07500,39
20.08333,39
20.09167,39
20.10000,38
20.10833,38
20.11667,38
20.12500,37
20.13333,37
20.14167,37
20.15000,37
20.15833,37
20.16667,37
20.17500,37
20.18333,37
20.19167,37
20.20000,37
20.20833,36
20.21667,36
20.22500,36
20.23333,35
20.24167,35
20.25000,35
20.25833,35
20.26667,34
20.27500,34
20.28333,34
20.29167,34
20.30000,34
20.30833,34
20.31667,34
20.32500,33
20.33333,33
20.34167,33
20.35000,33
20.35833,32
20.36667,32
20.37500,32
20.38333,32
20.39167,32
20.40000,32
20.40833,32
20.41667,32
20.42500,31
20.43333,31
20.44167,31
20.45000,31
20.45833,30
20.46667,30
20.47500,30
20.48333,30
20.49167,29
20.50000,29
20.50833,29
20.51667,29
20.52500,29
20.53333,28
20.54167,28
20.55000,28
20.55833,28
20.56667,28
20.57500,27
20.58333,27
20.59167,27
20.60000,27
20.60833,27
20.61667,26
20.62500,26
20.63333,26
20.64167,26
20.65000,26
20.65833,25
20.66667,25
20.67500,25
20.68333,24
20.69167,24
20.70000,24
20.70833,24
20.71667,23
20.72500,23
20.73333,23
20.74167,23
20.75000,23
20.75833,24
20.76667,24
20.77500,24
20.78333,24
20.79167,23
20.80000,23
20.80833,23
20.81667,23
20.82500,22
20.83333,22
20.84167,22
20.85000,22
20.85833,22
20.86667,22
20.87500,21
20.88333,21
20.89167,21
20.90000,20
20.90833,20
20.91667,21
20.92500,21
20.93333,21
20.94167,21
20.95000,21
20.95833,21
20.96667,21
20.97500,20
20.98333,20
20.99167,20
21.00000,20
21.00833,20
21.01667,20
21.02500,19
21.03333,19
21.04167,19
21.05000,19
21.05833,19
21.06667,18
21.07500,18
21.08333,18
21.09167,18
21.10000,18
21.10833,18
21.11667,18
21.12500,17
21.13333,17
21.14167,17
21.15000,17
21.15833,17
21.16667,17
21.17500,17
21.18333,18
21.19167,18
21.20000,18
21.20833,18
21.21667,18
21.22500,18
21.23333,19
21.24167,19
21.25000,19
21.25833,19
21.26667,20
21.27500,20
21.28333,21
21.29167,22
21.30000,22
21.30833,23
21.31667,24
21.32500,26
21.33333,27
21.34167,29
21.35000,31
21.35833,34
21.36667,36
21.37500,39
21.38333,43
21.39167,47
21.40000,52
21.40833,57
21.41667,63
21.42500,69
21.43333,77
21.44167,85
21.45000,95
21.45833,106
21.46667,118
21.47500,132
21.48333,147
21.49167,165
21.50000,185
21.50833,208
21.51667,234
21.52500,263
21.53333,296
21.54167,334
21.55000,377
21.55833,425
21.56667,479
21.57500,540
21.58333,609
21.59167,686
21.60000,773
21.60833,870
21.61667,979
21.62500,1101
21.63333,1237
21.64167,1389
21.65000,1558
21.65833,1745
21.66667,1953
21.67500,2183
21.68333,2435
21.69167,2713
21.70000,3018
21.70833,3351
21.71667,3714
21.72500,4109
21.73333,4537
21.74167,5000
21.75000,5499
21.75833,6036
21.76667,6609
21.77500,7222
21.78333,7873
21.79167,8563
21.80000,9293
21.80833,10061
21.81667,10866
21.82500,11708
21.83333,12585
21.84167,13494
21.85000,14434
21.85833,15400
21.86667,16391
21.87500,17403
21.88333,18430
21.89167,19469
21.90000,20514
21.90833,21563
21.91667,22607
21.92500,23643
21.93333,24665
21.94167,25666
21.95000,26641
21.95833,27586
21.96667,28493
21.97500,29357
21.98333,30172
21.99167,30935
22.00000,31640
22.00833,32282
22.01667,32858
22.02500,33365
22.03333,33799
22.04167,34157
22.05000,34438
22.05833,34641
22.06667,34765
22.07500,34809
22.08333,34774
22.09167,34661
22.10000,34472
22.10833,34208
22.11667,33871
22.12500,33466
22.13333,32994
22.14167,32460
22.15000,31867
22.15833,31221
22.16667,30525
22.17500,29785
22.18333,29004
22.19167,28189
22.20000,27343
22.20833,26472
22.21667,25580
22.22500,24672
22.23333,23754
22.24167,22828
22.25000,21900
22.25833,20973
22.26667,20050
22.27500,19136
22.28333,18234
22.29167,17347
22.30000,16477
22.30833,15626
22.31667,14797
22.32500,13991
22.33333,13211
22.34167,12456
22.35000,11730
22.35833,11031
22.36667,10361
22.37500,9720
22.38333,9107
22.39167,8523
22.40000,7969
22.40833,7443
22.41667,6945
22.42500,6474
22.43333,6030
22.44167,5613
22.45000,5220
22.45833,4851
22.46667,4506
22.47500,4183
22.48333,3881
22.49167,3600
22.50000,3338
22.50833,3095
22.51667,2869
22.52500,2659
22.53333,2465
22.54167,2285
22.55000,2119
22.55833,1965
22.56667,1823
22.57500,1692
22.58333,1571
22.59167,1460
22.60000,1358
22.60833,1264
22.61667,1178
22.62500,1098
22.63333,1026
22.64167,959
22.65000,898
22.65833,841
22.66667,790
22.67500,742
22.68333,698
22.69167,658
22.70000,621
22.70833,587
22.71667,556
22.72500,527
22.73333,501
22.74167,477
22.75000,455
22.75833,434
22.76667,415
22.77500,398
22.78333,382
22.79167,367
22.80000,353
22.80833,340
22.81667,328
22.82500,317
22.83333,307
22.84167,297
22.85000,288
22.85833,280
22.86667,272
22.87500,264
22.88333,257
22.89167,251
22.90000,245
22.90833,239
22.91667,234
22.92500,229
22.93333,224
22.94167,219
22.95000,215
22.95833,211
22.96667,207
22.97500,203
22.98333,199
22.99167,196
23.00000,193
23.00833,190
23.01667,187
23.02500,184
23.03333,182
23.04167,179
23.05000,177
23.05833,174
23.06667,172
23.07500,169
23.08333,167
23.09167,165
23.10000,163
23.10833,161
23.11667,160
23.12500,158
23.13333,156
23.14167,154
23.15000,153
23.15833,151
23.16667,150
23.17500,148
23.18333,146
23.19167,145
23.20000,143
23.20833,142
23.21667,141
23.22500,139
23.23333,138
23.24167,136
23.25000,135
23.25833,133
23.26667,132
23.27500,131
23.28333,130
23.29167,128
23.30000,127
23.30833,125
23.31667,124
23.32500,123
23.33333,121
23.34167,120
23.35000,119
23.35833,118
23.36667,117
23.37500,116
23.38333,114
23.39167,113
23.40000,112
23.40833,110
23.41667,109
23.42500,108
23.43333,107
23.44167,106
23.45000,106
23.45833,105
23.46667,104
23.47500,103
23.48333,102
23.49167,101
23.50000,99
23.50833,98
23.51667,97
23.52500,96
23.53333,96
23.54167,95
23.55000,94
23.55833,93
23.56667,92
23.57500,91
23.58333,90
23.59167,89
23.60000,89
23.60833,88
23.61667,87
23.62500,86
23.63333,86
23.64167,85
23.65000,84
23.65833,84
23.66667,83
23.67500,82
23.68333,82
23.69167,81
23.70000,81
23.70833,80
23.71667,79
23.72500,79
23.73333,78
23.74167,78
23.75000,77
23.75833,77
23.76667,77
23.77500,76
23.78333,76
23.79167,76
23.80000,75
23.80833,74
23.81667,74
23.82500,73
23.83333,73
23.84167,73
23.85000,73
23.85833,72
23.86667,72
23.87500,71
23.88333,71
23.89167,70
23.90000,70
23.90833,70
23.91667,70
23.92500,69
23.93333,69
23.94167,68
23.95000,67
23.95833,67
23.96667,66
23.97500,66
23.98333,66
23.99167,66
24.00000,65
24.00833,65
24.01667,65
24.02500,64
24.03333,64
24.04167,64
24.05000,64
24.05833,64
24.06667,64
24.07500,64
24.08333,63
24.09167,63
24.10000,62
24.10833,62
24.11667,62
24.12500,61
24.13333,61
24.14167,60
24.15000,60
24.15833,60
24.16667,60
24.17500,60
24.18333,59
24.19167,59
24.20000,59
24.20833,59
24.21667,59
24.22500,59
24.23333,59
24.24167,60
24.25000,61
24.25833,61
24.26667,62
24.27500,62
24.28333,63
24.29167,64
24.30000,66
24.30833,67
24.31667,69
24.32500,71
24.33333,74
24.34167,76
24.35000,79
24.35833,83
24.36667,87
24.37500,92
24.38333,97
24.39167,102
24.40000,108
24.40833,115
24.41667,123
24.42500,133
24.43333,143
24.44167,154
24.45000,167
24.45833,181
24.46667,197
24.47500,216
24.48333,236
24.49167,258
24.50000,283
24.50833,311
24.51667,342
24.52500,377
24.53333,416
24.54167,458
24.55000,505
24.55833,557
24.56667,614
24.57500,677
24.58333,747
24.59167,823
24.60000,907
24.60833,1000
24.61667,1100
24.62500,1210
24.63333,1330
24.64167,1460
24.65000,1602
24.65833,1754
24.66667,1919
24.67500,2097
24.68333,2288
24.69167,2493
24.70000,2712
24.70833,2945
24.71667,3193
24.72500,3457
24.73333,3737
24.74167,4031
24.75000,4341
24.75833,4667
24.76667,5007
24.77500,5363
24.78333,5732
24.79167,6116
24.80000,6512
24.80833,6920
24.81667,7339
24.82500,7767
24.83333,8205
24.84167,8649
24.85000,9098
24.85833,9551
24.86667,10005
24.87500,10459
24.88333,10911
24.89167,11360
24.90000,11802
24.90833,12236
24.91667,12659
24.92500,13070
24.93333,13466
24.94167,13846
24.95000,14207
24.95833,14548
24.96667,14866
24.97500,15161
24.98333,15430
24.99167,15673
25.00000,15888
25.00833,16074
25.01667,16230
25.02500,16356
25.03333,16451
25.04167,16515
25.05000,16548
25.05833,16549
25.06667,16519
25.07500,16458
25.08333,16367
25.09167,16247
25.10000,16098
25.10833,15923
25.11667,15720
25.12500,15493
25.13333,15243
25.14167,14971
25.15000,14679
25.15833,14368
25.16667,14039
25.17500,13695
25.18333,13338
25.19167,12969
25.20000,12590
25.20833,12203
25.21667,11810
25.22500,11411
25.23333,11009
25.24167,10604
25.25000,10199
25.25833,9795
25.26667,9393
25.27500,8994
25.28333,8601
25.29167,8213
25.30000,7831
25.30833,7458
25.31667,7092
25.32500,6736
25.33333,6389
25.34167,6052
25.35000,5726
25.35833,5411
25.36667,5108
25.37500,4816
25.38333,4535
25.39167,4266
25.40000,4009
25.40833,3763
25.41667,3530
25.42500,3307
25.43333,3096
25.44167,2896
25.45000,2706
25.45833,2528
25.46667,2359
25.47500,2200
25.48333,2050
25.49167,1910
25.50000,1779
25.50833,1656
25.51667,1540
25.52500,1433
25.53333,1332
25.54167,1238
25.55000,1151
25.55833,1070
25.56667,994
25.57500,924
25.58333,860
25.59167,800
25.60000,745
25.60833,694
25.61667,648
25.62500,604
25.63333,564
25.64167,528
25.65000,494
25.65833,462
25.66667,434
25.67500,407
25.68333,383
25.69167,360
25.70000,339
25.70833,321
25.71667,303
25.72500,288
25.73333,273
25.74167,260
25.75000,248
25.75833,236
25.76667,225
25.77500,215
25.78333,206
25.79167,198
25.80000,190
25.80833,182
25.81667,176
25.82500,170
25.83333,164
25.84167,159
25.85000,155
25.85833,150
25.86667,146
25.87500,142
25.88333,139
25.89167,135
25.90000,132
25.90833,129
25.91667,126
25.92500,123
25.93333,120
25.94167,118
25.95000,116
25.95833,113
25.96667,111
25.97500,109
25.98333,108
25.99167,106
26.00000,104
26.00833,102
26.01667,101
26.02500,99
26.03333,97
26.04167,96
26.05000,95
26.05833,94
26.06667,93
26.07500,92
26.08333,90
26.09167,89
26.10000,88
26.10833,87
26.11667,86
26.12500,85
26.13333,84
26.14167,83
26.15000,82
26.15833,81
26.16667,80
26.17500,79
26.18333,78
26.19167,77
26.20000,76
26.20833,75
26.21667,74
26.22500,73
26.23333,73
26.24167,72
26.25000,72
26.25833,71
26.26667,71
26.27500,70
26.28333,69
26.29167,68
26.30000,67
26.30833,66
26.31667,66
26.32500,65
26.33333,64
26.34167,63
26.35000,63
26.35833,62
26.36667,62
26.37500,61
26.38333,61
26.39167,61
26.40000,61
26.40833,61
26.41667,60
26.42500,60
26.43333,59
26.44167,59
26.45000,58
26.45833,58
26.46667,58
26.47500,57
26.48333,57
26.49167,57
26.50000,56
26.50833,56
26.51667,55
26.52500,55
26.53333,55
26.54167,54
26.55000,54
26.55833,54
26.56667,54
26.57500,54
26.58333,54
26.59167,53
26.60000,53
26.60833,53
26.61667,53
26.62500,53
26.63333,52
26.64167,52
26.65000,52
26.65833,51
26.66667,52
26.67500,52
26.68333,52
26.69167,52
26.70000,52
26.70833,51
26.71667,51
26.72500,50
26.73333,50
26.74167,50
26.75000,50
26.75833,50
26.76667,49
26.77500,49
26.78333,49
26.79167,49
26.80000,49
26.80833,49
26.81667,48
26.82500,47
26.83333,46
26.84167,46
26.85000,45
26.85833,44
26.86667,44
26.87500,44
26.88333,44
26.89167,44
26.90000,44
26.90833,44
26.91667,43
26.92500,43
26.93333,43
26.94167,43
26.95000,42
26.95833,42
26.96667,42
26.97500,41
26.98333,41
26.99167,40
27.00000,40
27.00833,39
27.01667,39
27.02500,38
27.03333,38
27.04167,37
27.05000,37
27.05833,37
27.06667,37
27.07500,36
27.08333,36
27.09167,35
27.10000,34
27.10833,34
27.11667,34
27.12500,34
27.13333,34
27.14167,33
27.15000,33
27.15833,33
27.16667,32
27.17500,32
27.18333,31
27.19167,31
27.20000,31
27.20833,30
27.21667,30
27.22500,30
27.23333,29
27.24167,29
27.25000,29
27.25833,29
27.26667,29
27.27500,29
27.28333,29
27.29167,28
27.30000,28
27.30833,28
27.31667,28
27.32500,28
27.33333,28
27.34167,28
27.35000,28
27.35833,28
27.36667,27
27.37500,27
27.38333,26
27.39167,26
27.40000,26
27.40833,26
27.41667,26
27.42500,26
27.43333,25
27.44167,25
27.45000,24
27.45833,24
27.46667,25
27.47500,25
27.48333,25
27.49167,25
27.50000,25
27.50833,24
27.51667,24
27.52500,24
27.53333,24
27.54167,24
27.55000,24
27.55833,24
27.56667,23
27.57500,23
27.58333,23
27.59167,23
27.60000,23
27.60833,22
27.61667,22
27.62500,22
27.63333,22
27.64167,22
27.65000,21
27.65833,21
27.66667,21
27.67500,20
27.68333,20
27.69167,20
27.70000,20
27.70833,20
27.71667,19
27.72500,19
27.73333,18
27.74167,18
27.75000,18
27.75833,18
27.76667,18
27.77500,18
27.78333,18
27.79167,17
27.80000,16
27.80833,16
27.81667,15
27.82500,15
27.83333,14
27.84167,14
27.85000,13
27.85833,12
27.86667,12
27.87500,11
27.88333,10
27.89167,9
27.90000,9
27.90833,8
27.91667,7
27.92500,6
27.93333,5
27.94167,4
27.95000,3
27.95833,2
27.96667,1
27.97500,-1
27.98333,-3
27.99167,-4
28.00000,-6
28.00833,-8
28.01667,-10
28.02500,-12
28.03333,-14
28.04167,-16
28.05000,-18
28.05833,-20
28.06667,-22
28.07500,-25
28.08333,-27
28.09167,-30
28.10000,-33
28.10833,-36
28.11667,-39
28.12500,-42
28.13333,-45
28.14167,-48
28.15000,-50
28.15833,-53
28.16667,-56
28.17500,-59
28.18333,-63
28.19167,-66
28.20000,-69
28.20833,-73
28.21667,-76
28.22500,-79
28.23333,-83
28.24167,-86
28.25000,-89
28.25833,-92
28.26667,-95
28.27500,-98
28.28333,-101
28.29167,-104
28.30000,-107
28.30833,-110
28.31667,-112
28.32500,-115
28.33333,-118
28.34167,-120
28.35000,-123
28.35833,-125
28.36667,-127
28.37500,-129
28.38333,-131
28.39167,-132
28.40000,-134
28.40833,-135
28.41667,-136
28.42500,-137
28.43333,-138
28.44167,-139
28.45000,-139
28.45833,-139
28.46667,-140
28.47500,-140
28.48333,-140
28.49167,-139
28.50000,-139
28.50833,-138
28.51667,-137
28.52500,-136
28.53333,-135
28.54167,-133
28.55000,-132
28.55833,-130
28.56667,-128
28.57500,-127
28.58333,-125
28.59167,-123
28.60000,-120
28.60833,-118
28.61667,-115
28.62500,-113
28.63333,-111
28.64167,-108
28.65000,-106
28.65833,-104
28.66667,-101
28.67500,-99
28.68333,-96
28.69167,-94
28.70000,-91
28.70833,-88
28.71667,-85
28.72500,-83
28.73333,-80
28.74167,-77
28.75000,-75
28.75833,-72
28.76667,-69
28.77500,-66
28.78333,-64
28.79167,-61
28.80000,-59
28.80833,-56
28.81667,-54
28.82500,-52
28.83333,-50
28.84167,-48
28.85000,-46
28.85833,-44
28.86667,-42
28.87500,-41
28.88333,-39
28.89167,-37
28.90000,-36
28.90833,-34
28.91667,-32
28.92500,-31
28.93333,-29
28.94167,-28
28.95000,-27
28.95833,-25
28.96667,-24
28.97500,-23
28.98333,-22
28.99167,-21
29.00000,-20
29.00833,-19
29.01667,-18
29.02500,-17
29.03333,-16
29.04167,-15
29.05000,-15
29.05833,-14
29.06667,-13
29.07500,-13
29.08333,-12
29.09167,-11
29.10000,-11
29.10833,-11
29.11667,-10
29.12500,-10
29.13333,-9
29.14167,-9
29.15000,-8
29.15833,-8
29.16667,-7
29.17500,-7
29.18333,-7
29.19167,-6
29.20000,-6
29.20833,-6
29.21667,-5
29.22500,-5
29.23333,-5
29.24167,-4
29.25000,-4
29.25833,-4
29.26667,-4
29.27500,-4
29.28333,-4
29.29167,-4
29.30000,-4
29.30833,-4
29.31667,-3
29.32500,-3
29.33333,-3
29.34167,-3
29.35000,-3
29.35833,-3
29.36667,-3
29.37500,-3
29.38333,-3
29.39167,-3
29.40000,-3
29.40833,-3
29.41667,-3
29.42500,-4
29.43333,-4
29.44167,-4
29.45000,-3
29.45833,-3
29.46667,-3
29.47500,-3
29.48333,-3
29.49167,-3
29.50000,-3
29.50833,-4
29.51667,-4
29.52500,-5
29.53333,-5
29.54167,-6
29.55000,-6
29.55833,-6
29.56667,-6
29.57500,-7
29.58333,-8
29.59167,-8
29.60000,-8
29.60833,-8
29.61667,-8
29.62500,-9
29.63333,-9
29.64167,-9
29.65000,-10
29.65833,-10
29.66667,-10
29.67500,-11
29.68333,-11
29.69167,-12
29.70000,-13
29.70833,-13
29.71667,-14
29.72500,-15
29.73333,-15
29.74167,-16
29.75000,-17
29.75833,-18
29.76667,-18
29.77500,-19
29.78333,-20
29.79167,-22
29.80000,-23
29.80833,-24
29.81667,-24
29.82500,-25
29.83333,-26
29.84167,-27
29.85000,-28
29.85833,-29
29.86667,-30
29.87500,-30
29.88333,-31
29.89167,-32
29.90000,-33
29.90833,-34
29.91667,-35
29.92500,-37
29.93333,-38
29.94167,-39
29.95000,-40
29.95833,-41
29.96667,-42
29.97500,-44
29.98333,-45
29.99167,-46
30.00000,-47
30.00833,-48
30.01667,-49
30.02500,-50
30.03333,-51
30.04167,-52
30.05000,-53
30.05833,-54
30.06667,-55
30.07500,-56
30.08333,-57
30.09167,-58
30.10000,-59
30.10833,-60
30.11667,-60
30.12500,-61
30.13333,-62
30.14167,-63
30.15000,-63
30.15833,-63
30.16667,-63
30.17500,-64
30.18333,-64
30.19167,-64
30.20000,-64
30.20833,-64
30.21667,-64
30.22500,-63
30.23333,-63
30.24167,-63
30.25000,-63
30.25833,-62
30.26667,-62
30.27500,-61
30.28333,-61
30.29167,-60
30.30000,-60
30.30833,-60
30.31667,-60
30.32500,-59
30.33333,-59
30.34167,-58
30.35000,-57
30.35833,-56
30.36667,-55
30.37500,-55
30.38333,-54
30.39167,-53
30.40000,-52
30.40833,-51
30.41667,-51
30.42500,-50
30.43333,-49
30.44167,-48
30.45000,-47
30.45833,-46
30.46667,-44
30.47500,-43
30.48333,-42
30.49167,-41
30.50000,-41
30.50833,-40
30.51667,-39
30.52500,-38
30.53333,-37
30.54167,-37
30.55000,-35
30.55833,-34
30.56667,-33
30.57500,-32
30.58333,-32
30.59167,-31
30.60000,-31
30.60833,-30
30.61667,-29
30.62500,-28
30.63333,-27
30.64167,-27
30.65000,-26
30.65833,-25
30.66667,-25
30.67500,-24
30.68333,-23
30.69167,-23
30.70000,-22
30.70833,-22
30.71667,-21
30.72500,-21
30.73333,-20
30.74167,-20
30.75000,-20
30.75833,-20
30.76667,-19
30.77500,-19
30.78333,-19
30.79167,-18
30.80000,-18
30.80833,-17
30.81667,-17
30.82500,-16
30.83333,-16
30.84167,-15
30.85000,-15
30.85833,-15
30.86667,-15
30.87500,-15
30.88333,-14
30.89167,-14
30.90000,-14
30.90833,-14
30.91667,-14
30.92500,-13
30.93333,-13
30.94167,-14
30.95000,-14
30.95833,-14
30.96667,-14
30.97500,-14
30.98333,-13
30.99167,-13
31.00000,-12
31.00833,-12
31.01667,-12
31.02500,-12
31.03333,-12
31.04167,-11
31.05000,-11
31.05833,-11
31.06667,-11
31.07500,-11
31.08333,-11
31.09167,-10
31.10000,-10
31.10833,-11
31.11667,-11
31.12500,-11
31.13333,-12
31.14167,-12
31.15000,-12
31.15833,-13
31.16667,-12
31.17500,-12
31.18333,-12
31.19167,-12
31.20000,-12
31.20833,-12
31.21667,-12
31.22500,-12
31.23333,-12
31.24167,-12
31.25000,-12
31.25833,-12
31.26667,-12
31.27500,-12
31.28333,-11
31.29167,-11
31.30000,-11
31.30833,-11
31.31667,-11
31.32500,-11
31.33333,-11
31.34167,-11
31.35000,-11
31.35833,-11
31.36667,-11
31.37500,-11
31.38333,-11
31.39167,-11
31.40000,-11
31.40833,-11
31.41667,-11
31.42500,-11
31.43333,-11
31.44167,-11
31.45000,-11
31.45833,-11
31.46667,-11
31.47500,-11
31.48333,-11
31.49167,-11
31.50000,-11
31.50833,-11
31.51667,-11
31.52500,-11
31.53333,-11
31.54167,-11
31.55000,-11
31.55833,-11
31.56667,-11
31.57500,-11
31.58333,-11
31.59167,-11
31.60000,-11
31.60833,-11
31.61667,-11
31.62500,-12
31.63333,-11
31.64167,-12
31.65000,-12
31.65833,-11
31.66667,-11
31.67500,-11
31.68333,-11
31.69167,-11
31.70000,-11
31.70833,-11
31.71667,-11
31.72500,-11
31.73333,-10
31.74167,-10
31.75000,-10
31.75833,-10
31.76667,-11
31.77500,-11
31.78333,-11
31.79167,-11
31.80000,-10
31.80833,-10
31.81667,-10
31.82500,-10
31.83333,-11
31.84167,-11
31.85000,-11
31.85833,-12
31.86667,-12
31.87500,-12
31.88333,-12
31.89167,-12
31.90000,-12
31.90833,-12
31.91667,-12
31.92500,-12
31.93333,-12
31.94167,-12
31.95000,-11
31.95833,-11
31.96667,-11
31.97500,-11
31.98333,-12
31.99167,-12
32.00000,-12
32.00833,-13
32.01667,-13
32.02500,-13
32.03333,-12
32.04167,-12
32.05000,-12
32.05833,-12
32.06667,-12
32.07500,-12
32.08333,-12
32.09167,-12
32.10000,-12
32.10833,-12
32.11667,-12
32.12500,-12
32.13333,-12
32.14167,-12
32.15000,-12
32.15833,-12
32.16667,-12
32.17500,-12
32.18333,-12
32.19167,-12
32.20000,-13
32.20833,-13
32.21667,-13
32.22500,-13
32.23333,-13
32.24167,-13
32.25000,-13
32.25833,-13
32.26667,-13
32.27500,-12
32.28333,-12
32.29167,-12
32.30000,-12
32.30833,-12
32.31667,-12
32.32500,-12
32.33333,-12
32.34167,-12
32.35000,-12
32.35833,-12
32.36667,-12
32.37500,-12
32.38333,-13
32.39167,-13
32.40000,-13
32.40833,-13
32.41667,-13
32.42500,-13
32.43333,-13
32.44167,-13
32.45000,-13
32.45833,-13
32.46667,-13
32.47500,-13
32.48333,-13
32.49167,-12
32.50000,-12
32.50833,-12
32.51667,-12
32.52500,-12
32.53333,-12
32.54167,-12
32.55000,-12
32.55833,-12
32.56667,-12
32.57500,-12
32.58333,-12
32.59167,-13
32.60000,-13
32.60833,-12
32.61667,-12
32.62500,-13
32.63333,-13
32.64167,-13
32.65000,-12
32.65833,-12
32.66667,-12
32.67500,-12
32.68333,-12
32.69167,-12
32.70000,-12
32.70833,-12
32.71667,-12
32.72500,-13
32.73333,-13
32.74167,-13
32.75000,-12
32.75833,-12
32.76667,-12
32.77500,-12
32.78333,-12
32.79167,-12
32.80000,-12
32.80833,-12
32.81667,-12
32.82500,-13
32.83333,-13
32.84167,-13
32.85000,-12
32.85833,-12
32.86667,-12
32.87500,-12
32.88333,-12
32.89167,-12
32.90000,-13
32.90833,-13
32.91667,-13
32.92500,-14
32.93333,-14
32.94167,-13
32.95000,-14
32.95833,-13
32.96667,-13
32.97500,-13
32.98333,-13
32.99167,-13
33.00000,-13
33.00833,-13
33.01667,-13
33.02500,-13
33.03333,-14
33.04167,-14
33.05000,-14
33.05833,-15
33.06667,-15
33.07500,-15
33.08333,-15
33.09167,-14
33.10000,-14
33.10833,-13
33.11667,-13
33.12500,-13
33.13333,-13
33.14167,-14
33.15000,-13
33.15833,-13
33.16667,-13
33.17500,-13
33.18333,-13
33.19167,-13
33.20000,-14
33.20833,-14
33.21667,-14
33.22500,-14
33.23333,-13
33.24167,-14
33.25000,-13
33.25833,-14
33.26667,-14
33.27500,-14
33.28333,-14
33.29167,-14
33.30000,-13
33.30833,-13
33.31667,-13
33.32500,-13
33.33333,-13
33.34167,-13
33.35000,-13
33.35833,-13
33.36667,-14
33.37500,-14
33.38333,-14
33.39167,-13
33.40000,-13
33.40833,-13
33.41667,-14
33.42500,-14
33.43333,-14
33.44167,-14
33.45000,-14
33.45833,-13
33.46667,-13
33.47500,-13
33.48333,-13
33.49167,-13
33.50000,-13
33.50833,-13
33.51667,-13
33.52500,-13
33.53333,-12
33.54167,-13
33.55000,-13
33.55833,-13
33.56667,-13
33.57500,-13
33.58333,-14
33.59167,-14
33.60000,-14
33.60833,-13
33.61667,-13
33.62500,-13
33.63333,-13
33.64167,-13
33.65000,-13
33.65833,-14
33.66667,-14
33.67500,-14
33.68333,-14
33.69167,-14
33.70000,-14
33.70833,-14
33.71667,-14
33.72500,-14
33.73333,-14
33.74167,-14
33.75000,-13
33.75833,-13
33.76667,-14
33.77500,-14
33.78333,-14
33.79167,-14
33.80000,-14
33.80833,-14
33.81667,-14
33.82500,-14
33.83333,-14
33.84167,-14
33.85000,-15
33.85833,-15
33.86667,-15
33.87500,-15
33.88333,-15
33.89167,-14
33.90000,-14
33.90833,-13
33.91667,-13
33.92500,-13
33.93333,-13
33.94167,-14
33.95000,-14
33.95833,-14
33.96667,-14
33.97500,-14
33.98333,-14
33.99167,-14
34.00000,-13
34.00833,-13
34.01667,-14
34.02500,-14
34.03333,-14
34.04167,-14
34.05000,-14
34.05833,-14
34.06667,-14
34.07500,-14
34.08333,-14
34.09167,-14
34.10000,-14
34.10833,-14
34.11667,-14
34.12500,-14
34.13333,-15
34.14167,-15
34.15000,-15
34.15833,-15
34.16667,-15
34.17500,-14
34.18333,-14
34.19167,-14
34.20000,-14
34.20833,-14
34.21667,-14
34.22500,-14
34.23333,-14
34.24167,-14
34.25000,-14
34.25833,-14
34.26667,-14
34.27500,-14
34.28333,-14
34.29167,-14
34.30000,-14
34.30833,-14
34.31667,-14
34.32500,-14
34.33333,-14
34.34167,-14
34.35000,-14
34.35833,-14
34.36667,-14
34.37500,-14
34.38333,-13
34.39167,-14
34.40000,-14
34.40833,-14
34.41667,-15
34.42500,-15
34.43333,-14
34.44167,-15
34.45000,-15
34.45833,-15
34.46667,-15
34.47500,-15
34.48333,-15
34.49167,-15
34.50000,-15
34.50833,-15
34.51667,-15
34.52500,-16
34.53333,-15
34.54167,-15
34.55000,-15
34.55833,-15
34.56667,-15
34.57500,-15
34.58333,-14
34.59167,-14
34.60000,-14
34.60833,-14
34.61667,-14
34.62500,-14
34.63333,-14
34.64167,-15
34.65000,-15
34.65833,-15
34.66667,-15
34.67500,-15
34.68333,-15
34.69167,-15
34.70000,-14
34.70833,-14
34.71667,-14
34.72500,-14
34.73333,-14
34.74167,-14
34.75000,-14
34.75833,-15
34.76667,-15
34.77500,-15
34.78333,-15
34.79167,-15
34.80000,-15
34.80833,-15
34.81667,-15
34.82500,-15
34.83333,-16
34.84167,-16
34.85000,-16
34.85833,-16
34.86667,-16
34.87500,-15
34.88333,-16
34.89167,-16
34.90000,-16
34.90833,-16
34.91667,-16
34.92500,-16
34.93333,-16
34.94167,-16
34.95000,-16
34.95833,-16
34.96667,-16
34.97500,-17
34.98333,-16
34.99167,-16
35.00000,-16
35.00833,-16
35.01667,-16
35.02500,-16
35.03333,-16
35.04167,-16
35.05000,-16
35.05833,-15
35.06667,-15
35.07500,-15
35.08333,-15
35.09167,-15
35.10000,-15
35.10833,-15
35.11667,-15
35.12500,-15
35.13333,-15
35.14167,-15
35.15000,-15
35.15833,-15
35.16667,-15
35.17500,-15
35.18333,-15
35.19167,-15
35.20000,-15
35.20833,-15
35.21667,-15
35.22500,-15
35.23333,-15
35.24167,-15
35.25000,-16
35.25833,-16
35.26667,-16
35.27500,-16
35.28333,-16
35.29167,-16
35.30000,-16
35.30833,-16
35.31667,-16
35.32500,-16
35.33333,-16
35.34167,-16
35.35000,-16
35.35833,-16
35.36667,-16
35.37500,-16
35.38333,-16
35.39167,-16
35.40000,-17
35.40833,-16
35.41667,-17
35.42500,-17
35.43333,-17
35.44167,-16
35.45000,-16
35.45833,-16
35.46667,-16
35.47500,-16
35.48333,-16
35.49167,-16
35.50000,-16
35.50833,-16
35.51667,-16
35.52500,-16
35.53333,-16
35.54167,-16
35.55000,-16
35.55833,-16
35.56667,-16
35.57500,-16
35.58333,-16
35.59167,-16
35.60000,-16
35.60833,-16
35.61667,-16
35.62500,-16
35.63333,-16
35.64167,-16
35.65000,-16
35.65833,-16
35.66667,-16
35.67500,-15
35.68333,-15
35.69167,-16
35.70000,-16
35.70833,-16
35.71667,-16
35.72500,-16
35.73333,-17
35.74167,-17
35.75000,-17
35.75833,-17
35.76667,-17
35.77500,-17
35.78333,-17
35.79167,-17
35.80000,-16
35.80833,-16
35.81667,-16
35.82500,-16
35.83333,-16
35.84167,-16
35.85000,-16
35.85833,-15
35.86667,-15
35.87500,-16
35.88333,-15
35.89167,-15
35.90000,-15
35.90833,-15
35.91667,-15
35.92500,-16
35.93333,-16
35.94167,-16
35.95000,-16
35.95833,-16
35.96667,-16
35.97500,-17
35.98333,-17
35.99167,-17
36.00000,-17
36.00833,-17
36.01667,-17
36.02500,-17
36.03333,-17
36.04167,-17
36.05000,-16
36.05833,-16
36.06667,-16
36.07500,-16
36.08333,-16
36.09167,-16
36.10000,-16
36.10833,-16
36.11667,-16
36.12500,-16
36.13333,-16
36.14167,-16
36.15000,-16
36.15833,-16
36.16667,-16
36.17500,-16
36.18333,-16
36.19167,-17
36.20000,-17
36.20833,-17
36.21667,-17
36.22500,-17
36.23333,-17
36.24167,-17
36.25000,-18
36.25833,-17
36.26667,-17
36.27500,-17
36.28333,-16
36.29167,-16
36.30000,-16
36.30833,-16
36.31667,-16
36.32500,-17
36.33333,-17
36.34167,-17
36.35000,-17
36.35833,-17
36.36667,-17
36.37500,-17
36.38333,-17
36.39167,-17
36.40000,-17
36.40833,-17
36.41667,-17
36.42500,-17
36.43333,-17
36.44167,-17
36.45000,-17
36.45833,-17
36.46667,-17
36.47500,-17
36.48333,-17
36.49167,-17
36.50000,-17
36.50833,-17
36.51667,-17
36.52500,-17
36.53333,-17
36.54167,-17
36.55000,-17
36.55833,-17
36.56667,-17
36.57500,-17
36.58333,-17
36.59167,-17
36.60000,-17
36.60833,-17
36.61667,-17
36.62500,-17
36.63333,-17
36.64167,-17
36.65000,-17
36.65833,-18
36.66667,-18
36.67500,-18
36.68333,-18
36.69167,-17
36.70000,-17
36.70833,-17
36.71667,-17
36.72500,-17
36.73333,-17
36.74167,-16
36.75000,-16
36.75833,-16
36.76667,-16
36.77500,-17
36.78333,-17
36.79167,-17
36.80000,-17
36.80833,-17
36.81667,-17
36.82500,-18
36.83333,-18
36.84167,-18
36.85000,-17
36.85833,-17
36.86667,-17
36.87500,-17
36.88333,-17
36.89167,-17
36.90000,-17
36.90833,-17
36.91667,-17
36.92500,-17
36.93333,-17
36.94167,-17
36.95000,-17
36.95833,-17
36.96667,-17
36.97500,-17
36.98333,-17
36.99167,-17
37.00000,-17
37.00833,-17
37.01667,-17
37.02500,-17
37.03333,-17
37.04167,-17
37.05000,-17
37.05833,-17
37.06667,-17
37.07500,-17
37.08333,-17
37.09167,-16
37.10000,-16
37.10833,-16
37.11667,-16
37.12500,-16
37.13333,-16
37.14167,-16
37.15000,-16
37.15833,-16
37.16667,-16
37.17500,-16
37.18333,-16
37.19167,-16
37.20000,-16
37.20833,-17
37.21667,-17
37.22500,-18
37.23333,-18
37.24167,-18
37.25000,-18
37.25833,-18
37.26667,-17
37.27500,-17
37.28333,-17
37.29167,-17
37.30000,-17
37.30833,-17
37.31667,-16
37.32500,-16
37.33333,-16
37.34167,-16
37.35000,-16
37.35833,-16
37.36667,-16
37.37500,-17
37.38333,-17
37.39167,-17
37.40000,-17
37.40833,-17
37.41667,-17
37.42500,-17
37.43333,-17
37.44167,-18
37.45000,-18
37.45833,-18
37.46667,-18
37.47500,-18
37.48333,-18
37.49167,-17
37.50000,-17
37.50833,-17
37.51667,-17
37.52500,-17
37.53333,-17
37.54167,-17
37.55000,-17
37.55833,-17
37.56667,-17
37.57500,-17
37.58333,-17
37.59167,-17
37.60000,-17
37.60833,-17
37.61667,-17
37.62500,-17
37.63333,-18
37.64167,-18
37.65000,-17
37.65833,-17
37.66667,-17
37.67500,-17
37.68333,-17
37.69167,-17
37.70000,-17
37.70833,-17
37.71667,-17
37.72500,-17
37.73333,-18
37.74167,-18
37.75000,-18
37.75833,-19
37.76667,-19
37.77500,-18
37.78333,-18
37.79167,-18
37.80000,-18
37.80833,-18
37.81667,-18
37.82500,-18
37.83333,-18
37.84167,-18
37.85000,-17
37.85833,-17
37.86667,-17
37.87500,-17
37.88333,-17
37.89167,-17
37.90000,-18
37.90833,-18
37.91667,-18
37.92500,-18
37.93333,-18
37.94167,-18
37.95000,-18
37.95833,-18
37.96667,-18
37.97500,-18
37.98333,-18
37.99167,-18
38.00000,-17
38.00833,-17
38.01667,-17
38.02500,-17
38.03333,-17
38.04167,-18
38.05000,-18
38.05833,-18
38.06667,-18
38.07500,-18
38.08333,-18
38.09167,-18
38.10000,-18
38.10833,-18
38.11667,-17
38.12500,-17
38.13333,-17
38.14167,-17
38.15000,-17
38.15833,-17
38.16667,-17
38.17500,-16
38.18333,-16
38.19167,-17
38.20000,-17
38.20833,-17
38.21667,-17
38.22500,-17
38.23333,-17
38.24167,-17
38.25000,-16
38.25833,-17
38.26667,-17
38.27500,-17
38.28333,-17
38.29167,-17
38.30000,-17
38.30833,-18
38.31667,-18
38.32500,-18
38.33333,-18
38.34167,-17
38.35000,-17
38.35833,-17
38.36667,-17
38.37500,-17
38.38333,-17
38.39167,-17
38.40000,-17
38.40833,-17
38.41667,-17
38.42500,-17
38.43333,-18
38.44167,-18
38.45000,-18
38.45833,-18
38.46667,-18
38.47500,-18
38.48333,-18
38.49167,-18
38.50000,-18
38.50833,-18
38.51667,-18
38.52500,-18
38.53333,-18
38.54167,-17
38.55000,-17
38.55833,-17
38.56667,-17
38.57500,-17
38.58333,-17
38.59167,-18
38.60000,-18
38.60833,-18
38.61667,-18
38.62500,-18
38.63333,-17
38.64167,-17
38.65000,-18
38.65833,-18
38.66667,-18
38.67500,-18
38.68333,-17
38.69167,-17
38.70000,-17
38.70833,-17
38.71667,-18
38.72500,-18
38.73333,-18
38.74167,-18
38.75000,-18
38.75833,-18
38.76667,-18
38.77500,-18
38.78333,-19
38.79167,-19
38.80000,-20
38.80833,-20
38.81667,-19
38.82500,-19
38.83333,-19
38.84167,-19
38.85000,-19
38.85833,-19
38.86667,-19
38.87500,-18
38.88333,-18
38.89167,-18
38.90000,-18
38.90833,-18
38.91667,-18
38.92500,-19
38.93333,-19
38.94167,-19
38.95000,-19
38.95833,-19
38.96667,-19
38.97500,-19
38.98333,-19
38.99167,-19
39.00000,-19
39.00833,-18
39.01667,-18
39.02500,-18
39.03333,-19
39.04167,-18
39.05000,-18
39.05833,-19
39.06667,-19
39.07500,-19
39.08333,-19
39.09167,-19
39.10000,-19
39.10833,-19
39.11667,-19
39.12500,-19
39.13333,-19
39.14167,-19
39.15000,-19
39.15833,-20
39.16667,-19
39.17500,-19
39.18333,-19
39.19167,-19
39.20000,-19
39.20833,-19
39.21667,-20
39.22500,-20
39.23333,-19
39.24167,-19
39.25000,-19
39.25833,-19
39.26667,-19
39.27500,-19
39.28333,-19
39.29167,-19
39.30000,-19
39.30833,-19
39.31667,-19
39.32500,-19
39.33333,-19
39.34167,-19
39.35000,-19
39.35833,-19
39.36667,-19
39.37500,-19
39.38333,-19
39.39167,-19
39.40000,-19
39.40833,-19
39.41667,-19
39.42500,-19
39.43333,-19
39.44167,-19
39.45000,-19
39.45833,-19
39.46667,-19
39.47500,-19
39.48333,-19
39.49167,-19
39.50000,-19
39.50833,-19
39.51667,-19
39.52500,-19
39.53333,-19
39.54167,-19
39.55000,-19
39.55833,-19
39.56667,-19
39.57500,-19
39.58333,-19
39.59167,-19
39.60000,-19
39.60833,-19
39.61667,-19
39.62500,-19
39.63333,-19
39.64167,-20
39.65000,-20
39.65833,-20
39.66667,-20
39.67500,-20
39.68333,-20
39.69167,-19
39.70000,-19
39.70833,-19
39.71667,-19
39.72500,-19
39.73333,-19
39.74167,-18
39.75000,-18
39.75833,-18
39.76667,-18
39.77500,-18
39.78333,-18
39.79167,-18
39.80000,-18
39.80833,-18
39.81667,-18
39.82500,-18
39.83333,-18
39.84167,-18
39.85000,-18
39.85833,-18
39.86667,-18
39.87500,-18
39.88333,-18
39.89167,-19
39.90000,-19
39.90833,-19
39.91667,-19
39.92500,-20
39.93333,-20
39.94167,-20
39.95000,-20
39.95833,-20
39.96667,-20
39.97500,-20
39.98333,-20
39.99167,-20
40.00000,-20

