[Header]
Application Name,LabSolutions
Version,5.97 SP1
Data File Name,C:\Users\cremerlab\Desktop\griffin\2021-03-31_NC_glucose_glycerol_acetate_calibration\calibration_batch_422021_010_010.lcd
Output Date,4/3/2021
Output Time,2:25:54 AM

[File Information]
Type,Data File
Generated,4/3/2021 1:45:34 AM
Generated by,System Administrator
Modified,4/3/2021 2:25:54 AM
Modified by,System Administrator

[Sample Information]
Operator Name,System Administrator
Acquired,4/3/2021 1:45:53 AM
Sample Type,1:Standard
Level,1
Sample Name,2021-04-02_NC_glucose_glycerol_acetate_calibration_01mM
Sample ID,010
ISTD Amount1,1
ISTD Amount2,1
ISTD Amount3,1
ISTD Amount4,1
ISTD Amount5,1
ISTD Amount6,1
ISTD Amount7,1
ISTD Amount8,1
ISTD Amount9,1
ISTD Amount10,1
ISTD Amount11,1
ISTD Amount12,1
ISTD Amount13,1
ISTD Amount14,1
ISTD Amount15,1
ISTD Amount16,1
ISTD Amount17,1
ISTD Amount18,1
ISTD Amount19,1
ISTD Amount20,1
ISTD Amount21,1
ISTD Amount22,1
ISTD Amount23,1
ISTD Amount24,1
ISTD Amount25,1
ISTD Amount26,1
ISTD Amount27,1
ISTD Amount28,1
ISTD Amount29,1
ISTD Amount30,1
ISTD Amount31,1
ISTD Amount32,1
Sample Amount,1
Dilution Factor,1
Vial#,10
Injection Volume,20

[Original Files]
Data File,C:\Users\cremerlab\Desktop\griffin\2021-03-31_NC_glucose_glycerol_acetate_calibration\calibration_batch_422021_010_010.lcd
Method File,C:\LabSolutions\Data\Project1\organicacidsetc2.lcm
Batch File,C:\Users\cremerlab\Desktop\griffin\2021-03-31_NC_glucose_glycerol_acetate_calibration\calibration_batch.lcb
Report Format File,c:\LabSolutions\System\DEFAULT.lsr

[File Description]


[Configuration]
Instrument Name,HPLC-PC-Instrument1
Instrument #,1
Line #,1
# of Detectors,2
Detector ID,Detector A,Detector B
Detector Name,Detector A,Detector B
# of Channels,1,1

[Peak Table(Detector A)]
# of Peaks,0

[Peak Table(Detector B)]
# of Peaks,5
Peak#,R.Time,I.Time,F.Time,Area,Height,A/H,Conc.,Mark,ID#,Name,k',Plate #,Plate Ht.,Tailing,Resolution,Sep.Factor,Area Ratio,Height Ratio,Conc. %,Norm Conc.
1,11.061,10.758,12.475,1198251,68986,17.370,0.000,   ,,,0.000,10730,13.980,1.282,0.000,0.000,0,0,0.000,0.000
2,15.105,14.117,18.325,3243665,116677,27.800,0.000,S  ,,,0.366,7146,20.990,1.002,7.083,0.000,0,0,0.000,0.000
3,15.615,15.517,15.958,23082,1404,16.438,0.000,T  ,,,0.412,27875,5.381,2.126,0.936,1.126,0,0,0.000,0.000
4,22.076,21.508,22.842,38387,1438,26.690,0.000,   ,,,0.996,15538,9.654,1.088,11.938,2.419,0,0,0.000,0.000
5,25.072,24.508,25.783,19486,678,28.737,0.000,   ,,,1.267,16998,8.825,1.064,4.055,1.272,0,0,0.000,0.000

[LC Chromatogram(Detector B-Ch1)]
Interval(msec),500
# of Points,4801
Start Time(min),0.000
End Time(min),40.000
Intensity Units,mV
Intensity Multiplier,0.001
R.Time (min),Intensity
0.00000,-1
0.00833,-1
0.01667,-0
0.02500,0
0.03333,0
0.04167,0
0.05000,0
0.05833,0
0.06667,0
0.07500,0
0.08333,1
0.09167,1
0.10000,1
0.10833,1
0.11667,1
0.12500,1
0.13333,1
0.14167,1
0.15000,1
0.15833,1
0.16667,1
0.17500,1
0.18333,1
0.19167,1
0.20000,1
0.20833,0
0.21667,0
0.22500,0
0.23333,1
0.24167,1
0.25000,2
0.25833,2
0.26667,2
0.27500,2
0.28333,1
0.29167,1
0.30000,1
0.30833,1
0.31667,1
0.32500,1
0.33333,0
0.34167,-0
0.35000,-0
0.35833,-0
0.36667,0
0.37500,0
0.38333,1
0.39167,1
0.40000,0
0.40833,0
0.41667,0
0.42500,0
0.43333,0
0.44167,0
0.45000,0
0.45833,0
0.46667,0
0.47500,0
0.48333,1
0.49167,1
0.50000,1
0.50833,1
0.51667,1
0.52500,1
0.53333,1
0.54167,1
0.55000,1
0.55833,1
0.56667,1
0.57500,1
0.58333,1
0.59167,1
0.60000,1
0.60833,1
0.61667,1
0.62500,1
0.63333,1
0.64167,1
0.65000,1
0.65833,0
0.66667,0
0.67500,0
0.68333,0
0.69167,0
0.70000,0
0.70833,-0
0.71667,-0
0.72500,-1
0.73333,-1
0.74167,-1
0.75000,-1
0.75833,-0
0.76667,-0
0.77500,-0
0.78333,-0
0.79167,0
0.80000,0
0.80833,-0
0.81667,-0
0.82500,0
0.83333,0
0.84167,0
0.85000,1
0.85833,1
0.86667,0
0.87500,0
0.88333,0
0.89167,1
0.90000,1
0.90833,2
0.91667,2
0.92500,2
0.93333,2
0.94167,2
0.95000,2
0.95833,2
0.96667,2
0.97500,2
0.98333,2
0.99167,1
1.00000,1
1.00833,1
1.01667,1
1.02500,1
1.03333,1
1.04167,1
1.05000,1
1.05833,1
1.06667,1
1.07500,1
1.08333,1
1.09167,1
1.10000,2
1.10833,2
1.11667,2
1.12500,2
1.13333,1
1.14167,1
1.15000,1
1.15833,1
1.16667,1
1.17500,1
1.18333,1
1.19167,2
1.20000,1
1.20833,1
1.21667,1
1.22500,1
1.23333,1
1.24167,1
1.25000,2
1.25833,2
1.26667,1
1.27500,1
1.28333,1
1.29167,1
1.30000,1
1.30833,1
1.31667,1
1.32500,1
1.33333,1
1.34167,1
1.35000,1
1.35833,1
1.36667,1
1.37500,1
1.38333,1
1.39167,1
1.40000,1
1.40833,1
1.41667,1
1.42500,1
1.43333,1
1.44167,1
1.45000,1
1.45833,1
1.46667,0
1.47500,1
1.48333,0
1.49167,0
1.50000,0
1.50833,0
1.51667,0
1.52500,0
1.53333,0
1.54167,0
1.55000,0
1.55833,0
1.56667,-0
1.57500,0
1.58333,0
1.59167,1
1.60000,1
1.60833,1
1.61667,1
1.62500,0
1.63333,1
1.64167,1
1.65000,1
1.65833,1
1.66667,1
1.67500,0
1.68333,0
1.69167,0
1.70000,0
1.70833,0
1.71667,0
1.72500,0
1.73333,0
1.74167,1
1.75000,1
1.75833,1
1.76667,1
1.77500,1
1.78333,1
1.79167,1
1.80000,1
1.80833,1
1.81667,1
1.82500,1
1.83333,0
1.84167,0
1.85000,0
1.85833,0
1.86667,1
1.87500,1
1.88333,1
1.89167,1
1.90000,1
1.90833,1
1.91667,1
1.92500,1
1.93333,1
1.94167,1
1.95000,1
1.95833,0
1.96667,0
1.97500,0
1.98333,0
1.99167,0
2.00000,0
2.00833,1
2.01667,1
2.02500,1
2.03333,1
2.04167,1
2.05000,0
2.05833,-0
2.06667,-0
2.07500,-0
2.08333,-0
2.09167,-0
2.10000,-0
2.10833,-0
2.11667,-0
2.12500,-0
2.13333,-0
2.14167,-0
2.15000,-0
2.15833,-0
2.16667,-0
2.17500,-0
2.18333,0
2.19167,0
2.20000,1
2.20833,1
2.21667,1
2.22500,0
2.23333,0
2.24167,0
2.25000,0
2.25833,0
2.26667,0
2.27500,0
2.28333,0
2.29167,0
2.30000,0
2.30833,0
2.31667,0
2.32500,0
2.33333,0
2.34167,0
2.35000,0
2.35833,-0
2.36667,-0
2.37500,-1
2.38333,-1
2.39167,-1
2.40000,-1
2.40833,-1
2.41667,-0
2.42500,-0
2.43333,-0
2.44167,0
2.45000,-0
2.45833,-0
2.46667,-1
2.47500,-1
2.48333,-1
2.49167,-1
2.50000,-1
2.50833,-2
2.51667,-2
2.52500,-2
2.53333,-2
2.54167,-2
2.55000,-2
2.55833,-1
2.56667,-1
2.57500,-1
2.58333,-1
2.59167,-1
2.60000,-0
2.60833,-0
2.61667,-0
2.62500,-0
2.63333,-0
2.64167,-0
2.65000,-1
2.65833,-1
2.66667,-1
2.67500,-1
2.68333,-1
2.69167,-1
2.70000,-1
2.70833,-1
2.71667,-1
2.72500,-1
2.73333,-1
2.74167,-1
2.75000,-1
2.75833,-1
2.76667,-1
2.77500,-1
2.78333,-1
2.79167,-1
2.80000,-0
2.80833,-0
2.81667,-0
2.82500,-0
2.83333,-0
2.84167,-0
2.85000,-0
2.85833,-0
2.86667,-1
2.87500,-1
2.88333,-1
2.89167,-1
2.90000,-1
2.90833,-1
2.91667,-1
2.92500,-1
2.93333,-1
2.94167,-1
2.95000,-1
2.95833,-1
2.96667,-1
2.97500,-1
2.98333,-1
2.99167,-1
3.00000,-0
3.00833,-1
3.01667,-1
3.02500,-1
3.03333,-1
3.04167,-1
3.05000,-1
3.05833,-1
3.06667,-1
3.07500,-0
3.08333,-0
3.09167,-1
3.10000,-1
3.10833,-1
3.11667,-1
3.12500,-1
3.13333,-1
3.14167,-1
3.15000,-1
3.15833,-1
3.16667,-1
3.17500,-1
3.18333,-1
3.19167,-1
3.20000,-1
3.20833,-0
3.21667,-0
3.22500,-0
3.23333,-0
3.24167,-0
3.25000,-0
3.25833,-1
3.26667,-1
3.27500,-1
3.28333,-1
3.29167,-1
3.30000,-1
3.30833,-1
3.31667,-1
3.32500,-1
3.33333,-1
3.34167,-1
3.35000,-1
3.35833,-1
3.36667,-1
3.37500,-0
3.38333,-0
3.39167,-0
3.40000,-1
3.40833,-1
3.41667,-1
3.42500,-1
3.43333,-1
3.44167,-1
3.45000,-1
3.45833,-0
3.46667,-1
3.47500,-1
3.48333,-1
3.49167,-1
3.50000,-0
3.50833,0
3.51667,0
3.52500,0
3.53333,0
3.54167,0
3.55000,0
3.55833,1
3.56667,1
3.57500,1
3.58333,0
3.59167,0
3.60000,-0
3.60833,-0
3.61667,-0
3.62500,-0
3.63333,-1
3.64167,-1
3.65000,-1
3.65833,-1
3.66667,-1
3.67500,-1
3.68333,-1
3.69167,-1
3.70000,-1
3.70833,-1
3.71667,-2
3.72500,-2
3.73333,-1
3.74167,-1
3.75000,-1
3.75833,-1
3.76667,-1
3.77500,-1
3.78333,-1
3.79167,-1
3.80000,-2
3.80833,-2
3.81667,-2
3.82500,-2
3.83333,-1
3.84167,-1
3.85000,-0
3.85833,-1
3.86667,-1
3.87500,-0
3.88333,-0
3.89167,-0
3.90000,-1
3.90833,-1
3.91667,-1
3.92500,-2
3.93333,-2
3.94167,-2
3.95000,-2
3.95833,-2
3.96667,-2
3.97500,-1
3.98333,-1
3.99167,-1
4.00000,-1
4.00833,-1
4.01667,-1
4.02500,-2
4.03333,-2
4.04167,-2
4.05000,-2
4.05833,-2
4.06667,-2
4.07500,-2
4.08333,-2
4.09167,-1
4.10000,-1
4.10833,-1
4.11667,-1
4.12500,-1
4.13333,-1
4.14167,-1
4.15000,-2
4.15833,-2
4.16667,-2
4.17500,-2
4.18333,-2
4.19167,-2
4.20000,-2
4.20833,-2
4.21667,-2
4.22500,-2
4.23333,-2
4.24167,-2
4.25000,-2
4.25833,-1
4.26667,-2
4.27500,-2
4.28333,-1
4.29167,-1
4.30000,-1
4.30833,-1
4.31667,-1
4.32500,-1
4.33333,-1
4.34167,-1
4.35000,-1
4.35833,-2
4.36667,-2
4.37500,-2
4.38333,-2
4.39167,-2
4.40000,-1
4.40833,-1
4.41667,-1
4.42500,-1
4.43333,-2
4.44167,-2
4.45000,-2
4.45833,-1
4.46667,-1
4.47500,-1
4.48333,-1
4.49167,-2
4.50000,-2
4.50833,-1
4.51667,-1
4.52500,-1
4.53333,-1
4.54167,-1
4.55000,-1
4.55833,-1
4.56667,-1
4.57500,-1
4.58333,-1
4.59167,-1
4.60000,-1
4.60833,-1
4.61667,-1
4.62500,-1
4.63333,-1
4.64167,-1
4.65000,-1
4.65833,-1
4.66667,-1
4.67500,-1
4.68333,-1
4.69167,-1
4.70000,-2
4.70833,-2
4.71667,-2
4.72500,-2
4.73333,-1
4.74167,-1
4.75000,-1
4.75833,-1
4.76667,-1
4.77500,-2
4.78333,-2
4.79167,-2
4.80000,-2
4.80833,-2
4.81667,-2
4.82500,-2
4.83333,-2
4.84167,-2
4.85000,-2
4.85833,-3
4.86667,-2
4.87500,-2
4.88333,-2
4.89167,-2
4.90000,-2
4.90833,-2
4.91667,-2
4.92500,-2
4.93333,-2
4.94167,-2
4.95000,-2
4.95833,-2
4.96667,-2
4.97500,-2
4.98333,-2
4.99167,-2
5.00000,-2
5.00833,-2
5.01667,-2
5.02500,-2
5.03333,-2
5.04167,-2
5.05000,-2
5.05833,-2
5.06667,-2
5.07500,-2
5.08333,-2
5.09167,-2
5.10000,-2
5.10833,-2
5.11667,-2
5.12500,-2
5.13333,-2
5.14167,-2
5.15000,-2
5.15833,-2
5.16667,-3
5.17500,-2
5.18333,-2
5.19167,-2
5.20000,-2
5.20833,-2
5.21667,-2
5.22500,-2
5.23333,-3
5.24167,-3
5.25000,-3
5.25833,-2
5.26667,-2
5.27500,-2
5.28333,-2
5.29167,-2
5.30000,-2
5.30833,-2
5.31667,-2
5.32500,-2
5.33333,-2
5.34167,-2
5.35000,-2
5.35833,-2
5.36667,-2
5.37500,-2
5.38333,-2
5.39167,-2
5.40000,-2
5.40833,-3
5.41667,-3
5.42500,-3
5.43333,-3
5.44167,-3
5.45000,-3
5.45833,-3
5.46667,-3
5.47500,-3
5.48333,-3
5.49167,-3
5.50000,-3
5.50833,-3
5.51667,-3
5.52500,-3
5.53333,-3
5.54167,-3
5.55000,-3
5.55833,-3
5.56667,-3
5.57500,-3
5.58333,-3
5.59167,-3
5.60000,-3
5.60833,-3
5.61667,-3
5.62500,-3
5.63333,-3
5.64167,-4
5.65000,-4
5.65833,-4
5.66667,-4
5.67500,-4
5.68333,-4
5.69167,-4
5.70000,-4
5.70833,-4
5.71667,-3
5.72500,-3
5.73333,-3
5.74167,-3
5.75000,-3
5.75833,-3
5.76667,-3
5.77500,-3
5.78333,-2
5.79167,-2
5.80000,-3
5.80833,-3
5.81667,-3
5.82500,-3
5.83333,-3
5.84167,-3
5.85000,-3
5.85833,-3
5.86667,-4
5.87500,-4
5.88333,-3
5.89167,-3
5.90000,-3
5.90833,-3
5.91667,-3
5.92500,-3
5.93333,-4
5.94167,-3
5.95000,-3
5.95833,-3
5.96667,-3
5.97500,-3
5.98333,-3
5.99167,-3
6.00000,-3
6.00833,-3
6.01667,-3
6.02500,-3
6.03333,-3
6.04167,-3
6.05000,-3
6.05833,-3
6.06667,-3
6.07500,-3
6.08333,-3
6.09167,-3
6.10000,-3
6.10833,-3
6.11667,-3
6.12500,-3
6.13333,-3
6.14167,-3
6.15000,-2
6.15833,-3
6.16667,-3
6.17500,-3
6.18333,-3
6.19167,-3
6.20000,-3
6.20833,-3
6.21667,-3
6.22500,-3
6.23333,-3
6.24167,-3
6.25000,-3
6.25833,-3
6.26667,-3
6.27500,-3
6.28333,-3
6.29167,-3
6.30000,-3
6.30833,-3
6.31667,-3
6.32500,-3
6.33333,-3
6.34167,-3
6.35000,-2
6.35833,-2
6.36667,-2
6.37500,-2
6.38333,-2
6.39167,-2
6.40000,-2
6.40833,-3
6.41667,-3
6.42500,-3
6.43333,-3
6.44167,-3
6.45000,-3
6.45833,-3
6.46667,-4
6.47500,-3
6.48333,-3
6.49167,-3
6.50000,-3
6.50833,-3
6.51667,-3
6.52500,-3
6.53333,-3
6.54167,-3
6.55000,-2
6.55833,-2
6.56667,-2
6.57500,-2
6.58333,-2
6.59167,-2
6.60000,-2
6.60833,-2
6.61667,-2
6.62500,-2
6.63333,-2
6.64167,-2
6.65000,-2
6.65833,-3
6.66667,-3
6.67500,-3
6.68333,-3
6.69167,-3
6.70000,-3
6.70833,-3
6.71667,-3
6.72500,-3
6.73333,-3
6.74167,-3
6.75000,-3
6.75833,-3
6.76667,-3
6.77500,-3
6.78333,-4
6.79167,-4
6.80000,-4
6.80833,-4
6.81667,-3
6.82500,-3
6.83333,-3
6.84167,-2
6.85000,-2
6.85833,-2
6.86667,-2
6.87500,-2
6.88333,-3
6.89167,-3
6.90000,-3
6.90833,-3
6.91667,-3
6.92500,-3
6.93333,-3
6.94167,-3
6.95000,-3
6.95833,-3
6.96667,-3
6.97500,-3
6.98333,-3
6.99167,-2
7.00000,-2
7.00833,-2
7.01667,-2
7.02500,-2
7.03333,-2
7.04167,-2
7.05000,-2
7.05833,-2
7.06667,-2
7.07500,-2
7.08333,-1
7.09167,-2
7.10000,-2
7.10833,-2
7.11667,-3
7.12500,-2
7.13333,-2
7.14167,-2
7.15000,-2
7.15833,-2
7.16667,-2
7.17500,-2
7.18333,-3
7.19167,-3
7.20000,-2
7.20833,-2
7.21667,-2
7.22500,-2
7.23333,-2
7.24167,-2
7.25000,-2
7.25833,-2
7.26667,-2
7.27500,-2
7.28333,-3
7.29167,-3
7.30000,-3
7.30833,-3
7.31667,-3
7.32500,-3
7.33333,-3
7.34167,-4
7.35000,-4
7.35833,-4
7.36667,-3
7.37500,-3
7.38333,-2
7.39167,-2
7.40000,-2
7.40833,-2
7.41667,-2
7.42500,-2
7.43333,-2
7.44167,-2
7.45000,-2
7.45833,-2
7.46667,-2
7.47500,-2
7.48333,-2
7.49167,-2
7.50000,-2
7.50833,-3
7.51667,-3
7.52500,-2
7.53333,-3
7.54167,-3
7.55000,-3
7.55833,-3
7.56667,-3
7.57500,-3
7.58333,-3
7.59167,-4
7.60000,-4
7.60833,-4
7.61667,-4
7.62500,-4
7.63333,-3
7.64167,-3
7.65000,-4
7.65833,-3
7.66667,-3
7.67500,-3
7.68333,-3
7.69167,-3
7.70000,-3
7.70833,-3
7.71667,-3
7.72500,-2
7.73333,-2
7.74167,-2
7.75000,-2
7.75833,-3
7.76667,-3
7.77500,-3
7.78333,-3
7.79167,-3
7.80000,-4
7.80833,-4
7.81667,-4
7.82500,-4
7.83333,-4
7.84167,-4
7.85000,-4
7.85833,-3
7.86667,-3
7.87500,-2
7.88333,-2
7.89167,-2
7.90000,-3
7.90833,-3
7.91667,-3
7.92500,-3
7.93333,-3
7.94167,-3
7.95000,-3
7.95833,-3
7.96667,-3
7.97500,-3
7.98333,-3
7.99167,-3
8.00000,-3
8.00833,-3
8.01667,-3
8.02500,-3
8.03333,-3
8.04167,-3
8.05000,-3
8.05833,-4
8.06667,-4
8.07500,-4
8.08333,-4
8.09167,-4
8.10000,-3
8.10833,-3
8.11667,-3
8.12500,-3
8.13333,-3
8.14167,-3
8.15000,-3
8.15833,-3
8.16667,-4
8.17500,-4
8.18333,-4
8.19167,-4
8.20000,-4
8.20833,-3
8.21667,-3
8.22500,-3
8.23333,-3
8.24167,-3
8.25000,-3
8.25833,-3
8.26667,-3
8.27500,-3
8.28333,-3
8.29167,-3
8.30000,-3
8.30833,-3
8.31667,-3
8.32500,-3
8.33333,-3
8.34167,-3
8.35000,-3
8.35833,-4
8.36667,-4
8.37500,-4
8.38333,-4
8.39167,-4
8.40000,-4
8.40833,-4
8.41667,-4
8.42500,-4
8.43333,-4
8.44167,-3
8.45000,-3
8.45833,-3
8.46667,-3
8.47500,-3
8.48333,-3
8.49167,-3
8.50000,-4
8.50833,-4
8.51667,-4
8.52500,-4
8.53333,-4
8.54167,-4
8.55000,-4
8.55833,-3
8.56667,-3
8.57500,-3
8.58333,-3
8.59167,-3
8.60000,-3
8.60833,-3
8.61667,-4
8.62500,-4
8.63333,-4
8.64167,-4
8.65000,-4
8.65833,-4
8.66667,-3
8.67500,-3
8.68333,-3
8.69167,-3
8.70000,-4
8.70833,-4
8.71667,-4
8.72500,-4
8.73333,-4
8.74167,-4
8.75000,-4
8.75833,-4
8.76667,-4
8.77500,-4
8.78333,-4
8.79167,-3
8.80000,-3
8.80833,-4
8.81667,-4
8.82500,-4
8.83333,-4
8.84167,-3
8.85000,-3
8.85833,-3
8.86667,-3
8.87500,-4
8.88333,-4
8.89167,-4
8.90000,-4
8.90833,-4
8.91667,-4
8.92500,-4
8.93333,-4
8.94167,-4
8.95000,-4
8.95833,-4
8.96667,-4
8.97500,-4
8.98333,-4
8.99167,-4
9.00000,-4
9.00833,-4
9.01667,-4
9.02500,-4
9.03333,-3
9.04167,-3
9.05000,-3
9.05833,-3
9.06667,-3
9.07500,-2
9.08333,-3
9.09167,-3
9.10000,-3
9.10833,-3
9.11667,-3
9.12500,-3
9.13333,-3
9.14167,-2
9.15000,-3
9.15833,-3
9.16667,-3
9.17500,-3
9.18333,-3
9.19167,-3
9.20000,-3
9.20833,-3
9.21667,-3
9.22500,-3
9.23333,-3
9.24167,-2
9.25000,-2
9.25833,-3
9.26667,-3
9.27500,-3
9.28333,-3
9.29167,-3
9.30000,-3
9.30833,-3
9.31667,-3
9.32500,-3
9.33333,-3
9.34167,-3
9.35000,-3
9.35833,-3
9.36667,-3
9.37500,-3
9.38333,-3
9.39167,-3
9.40000,-3
9.40833,-3
9.41667,-3
9.42500,-3
9.43333,-3
9.44167,-3
9.45000,-3
9.45833,-3
9.46667,-3
9.47500,-3
9.48333,-3
9.49167,-3
9.50000,-3
9.50833,-3
9.51667,-3
9.52500,-3
9.53333,-3
9.54167,-4
9.55000,-4
9.55833,-4
9.56667,-4
9.57500,-4
9.58333,-4
9.59167,-3
9.60000,-3
9.60833,-3
9.61667,-3
9.62500,-3
9.63333,-3
9.64167,-4
9.65000,-4
9.65833,-4
9.66667,-4
9.67500,-4
9.68333,-4
9.69167,-4
9.70000,-4
9.70833,-4
9.71667,-4
9.72500,-4
9.73333,-4
9.74167,-4
9.75000,-4
9.75833,-4
9.76667,-4
9.77500,-4
9.78333,-4
9.79167,-4
9.80000,-4
9.80833,-4
9.81667,-4
9.82500,-4
9.83333,-4
9.84167,-4
9.85000,-4
9.85833,-4
9.86667,-3
9.87500,-3
9.88333,-3
9.89167,-3
9.90000,-3
9.90833,-3
9.91667,-3
9.92500,-3
9.93333,-3
9.94167,-3
9.95000,-4
9.95833,-4
9.96667,-4
9.97500,-3
9.98333,-3
9.99167,-3
10.00000,-2
10.00833,-2
10.01667,-2
10.02500,-3
10.03333,-3
10.04167,-3
10.05000,-3
10.05833,-3
10.06667,-3
10.07500,-3
10.08333,-3
10.09167,-3
10.10000,-3
10.10833,-3
10.11667,-2
10.12500,-2
10.13333,-2
10.14167,-2
10.15000,-3
10.15833,-3
10.16667,-3
10.17500,-3
10.18333,-3
10.19167,-3
10.20000,-3
10.20833,-3
10.21667,-3
10.22500,-3
10.23333,-3
10.24167,-3
10.25000,-3
10.25833,-3
10.26667,-3
10.27500,-3
10.28333,-3
10.29167,-2
10.30000,-2
10.30833,-2
10.31667,-2
10.32500,-1
10.33333,-1
10.34167,-1
10.35000,-1
10.35833,-0
10.36667,-0
10.37500,0
10.38333,1
10.39167,1
10.40000,1
10.40833,1
10.41667,2
10.42500,2
10.43333,2
10.44167,2
10.45000,2
10.45833,2
10.46667,2
10.47500,2
10.48333,2
10.49167,1
10.50000,-0
10.50833,-2
10.51667,-5
10.52500,-9
10.53333,-16
10.54167,-25
10.55000,-38
10.55833,-56
10.56667,-80
10.57500,-111
10.58333,-152
10.59167,-203
10.60000,-268
10.60833,-349
10.61667,-447
10.62500,-565
10.63333,-704
10.64167,-866
10.65000,-1051
10.65833,-1260
10.66667,-1490
10.67500,-1738
10.68333,-2003
10.69167,-2276
10.70000,-2554
10.70833,-2826
10.71667,-3085
10.72500,-3318
10.73333,-3514
10.74167,-3661
10.75000,-3744
10.75833,-3752
10.76667,-3670
10.77500,-3485
10.78333,-3186
10.79167,-2759
10.80000,-2194
10.80833,-1482
10.81667,-614
10.82500,416
10.83333,1614
10.84167,2984
10.85000,4529
10.85833,6249
10.86667,8145
10.87500,10213
10.88333,12450
10.89167,14850
10.90000,17406
10.90833,20110
10.91667,22950
10.92500,25912
10.93333,28980
10.94167,32137
10.95000,35358
10.95833,38617
10.96667,41885
10.97500,45126
10.98333,48300
10.99167,51362
11.00000,54265
11.00833,56958
11.01667,59388
11.02500,61503
11.03333,63254
11.04167,64596
11.05000,65492
11.05833,65916
11.06667,65853
11.07500,65304
11.08333,64281
11.09167,62809
11.10000,60927
11.10833,58683
11.11667,56132
11.12500,53334
11.13333,50352
11.14167,47247
11.15000,44077
11.15833,40897
11.16667,37752
11.17500,34685
11.18333,31728
11.19167,28906
11.20000,26239
11.20833,23739
11.21667,21413
11.22500,19264
11.23333,17290
11.24167,15488
11.25000,13849
11.25833,12366
11.26667,11029
11.27500,9829
11.28333,8753
11.29167,7792
11.30000,6937
11.30833,6176
11.31667,5502
11.32500,4904
11.33333,4375
11.34167,3908
11.35000,3496
11.35833,3132
11.36667,2812
11.37500,2529
11.38333,2280
11.39167,2060
11.40000,1867
11.40833,1696
11.41667,1546
11.42500,1413
11.43333,1295
11.44167,1191
11.45000,1098
11.45833,1016
11.46667,942
11.47500,877
11.48333,819
11.49167,766
11.50000,719
11.50833,676
11.51667,638
11.52500,603
11.53333,572
11.54167,543
11.55000,517
11.55833,493
11.56667,471
11.57500,451
11.58333,432
11.59167,415
11.60000,399
11.60833,384
11.61667,370
11.62500,357
11.63333,345
11.64167,333
11.65000,322
11.65833,312
11.66667,303
11.67500,294
11.68333,285
11.69167,277
11.70000,270
11.70833,263
11.71667,256
11.72500,250
11.73333,244
11.74167,238
11.75000,233
11.75833,228
11.76667,223
11.77500,219
11.78333,214
11.79167,210
11.80000,206
11.80833,203
11.81667,200
11.82500,197
11.83333,194
11.84167,191
11.85000,187
11.85833,185
11.86667,182
11.87500,179
11.88333,177
11.89167,174
11.90000,172
11.90833,171
11.91667,169
11.92500,167
11.93333,165
11.94167,164
11.95000,162
11.95833,160
11.96667,158
11.97500,157
11.98333,155
11.99167,154
12.00000,153
12.00833,152
12.01667,151
12.02500,150
12.03333,148
12.04167,147
12.05000,146
12.05833,145
12.06667,144
12.07500,143
12.08333,142
12.09167,141
12.10000,140
12.10833,139
12.11667,138
12.12500,137
12.13333,137
12.14167,136
12.15000,135
12.15833,134
12.16667,133
12.17500,132
12.18333,131
12.19167,131
12.20000,130
12.20833,129
12.21667,128
12.22500,127
12.23333,127
12.24167,126
12.25000,125
12.25833,125
12.26667,124
12.27500,123
12.28333,122
12.29167,121
12.30000,120
12.30833,119
12.31667,118
12.32500,118
12.33333,117
12.34167,117
12.35000,116
12.35833,115
12.36667,115
12.37500,114
12.38333,113
12.39167,113
12.40000,113
12.40833,112
12.41667,111
12.42500,111
12.43333,110
12.44167,110
12.45000,109
12.45833,109
12.46667,108
12.47500,108
12.48333,108
12.49167,107
12.50000,107
12.50833,106
12.51667,105
12.52500,104
12.53333,104
12.54167,103
12.55000,102
12.55833,102
12.56667,101
12.57500,100
12.58333,99
12.59167,99
12.60000,99
12.60833,99
12.61667,99
12.62500,98
12.63333,97
12.64167,97
12.65000,96
12.65833,95
12.66667,94
12.67500,93
12.68333,92
12.69167,92
12.70000,92
12.70833,91
12.71667,91
12.72500,90
12.73333,89
12.74167,89
12.75000,88
12.75833,87
12.76667,87
12.77500,86
12.78333,86
12.79167,85
12.80000,84
12.80833,84
12.81667,83
12.82500,82
12.83333,81
12.84167,81
12.85000,80
12.85833,80
12.86667,79
12.87500,79
12.88333,78
12.89167,78
12.90000,77
12.90833,77
12.91667,76
12.92500,76
12.93333,75
12.94167,74
12.95000,74
12.95833,73
12.96667,73
12.97500,72
12.98333,71
12.99167,70
13.00000,70
13.00833,69
13.01667,69
13.02500,68
13.03333,68
13.04167,67
13.05000,66
13.05833,66
13.06667,64
13.07500,64
13.08333,63
13.09167,62
13.10000,62
13.10833,61
13.11667,60
13.12500,60
13.13333,59
13.14167,58
13.15000,57
13.15833,57
13.16667,56
13.17500,55
13.18333,55
13.19167,54
13.20000,54
13.20833,54
13.21667,53
13.22500,53
13.23333,52
13.24167,52
13.25000,51
13.25833,51
13.26667,50
13.27500,50
13.28333,49
13.29167,48
13.30000,48
13.30833,47
13.31667,46
13.32500,46
13.33333,45
13.34167,45
13.35000,44
13.35833,43
13.36667,43
13.37500,42
13.38333,42
13.39167,41
13.40000,41
13.40833,40
13.41667,40
13.42500,39
13.43333,39
13.44167,39
13.45000,39
13.45833,39
13.46667,39
13.47500,38
13.48333,38
13.49167,37
13.50000,37
13.50833,36
13.51667,36
13.52500,36
13.53333,36
13.54167,36
13.55000,36
13.55833,36
13.56667,36
13.57500,36
13.58333,36
13.59167,35
13.60000,35
13.60833,35
13.61667,34
13.62500,34
13.63333,34
13.64167,34
13.65000,34
13.65833,34
13.66667,34
13.67500,34
13.68333,34
13.69167,33
13.70000,34
13.70833,34
13.71667,34
13.72500,33
13.73333,33
13.74167,33
13.75000,34
13.75833,34
13.76667,34
13.77500,35
13.78333,35
13.79167,35
13.80000,35
13.80833,35
13.81667,35
13.82500,35
13.83333,35
13.84167,35
13.85000,35
13.85833,35
13.86667,35
13.87500,35
13.88333,35
13.89167,35
13.90000,36
13.90833,36
13.91667,35
13.92500,35
13.93333,35
13.94167,36
13.95000,36
13.95833,36
13.96667,37
13.97500,37
13.98333,38
13.99167,38
14.00000,38
14.00833,38
14.01667,38
14.02500,38
14.03333,39
14.04167,39
14.05000,39
14.05833,40
14.06667,40
14.07500,40
14.08333,41
14.09167,42
14.10000,43
14.10833,43
14.11667,44
14.12500,45
14.13333,47
14.14167,48
14.15000,50
14.15833,51
14.16667,53
14.17500,56
14.18333,59
14.19167,62
14.20000,67
14.20833,72
14.21667,78
14.22500,86
14.23333,95
14.24167,106
14.25000,120
14.25833,135
14.26667,154
14.27500,177
14.28333,205
14.29167,238
14.30000,278
14.30833,325
14.31667,380
14.32500,445
14.33333,521
14.34167,610
14.35000,713
14.35833,831
14.36667,967
14.37500,1121
14.38333,1297
14.39167,1496
14.40000,1719
14.40833,1968
14.41667,2243
14.42500,2548
14.43333,2884
14.44167,3251
14.45000,3651
14.45833,4084
14.46667,4553
14.47500,5057
14.48333,5597
14.49167,6173
14.50000,6787
14.50833,7437
14.51667,8125
14.52500,8849
14.53333,9610
14.54167,10408
14.55000,11242
14.55833,12112
14.56667,13018
14.57500,13959
14.58333,14934
14.59167,15943
14.60000,16985
14.60833,18059
14.61667,19166
14.62500,20303
14.63333,21472
14.64167,22671
14.65000,23899
14.65833,25156
14.66667,26442
14.67500,27755
14.68333,29096
14.69167,30464
14.70000,31858
14.70833,33279
14.71667,34725
14.72500,36196
14.73333,37692
14.74167,39213
14.75000,40758
14.75833,42327
14.76667,43921
14.77500,45537
14.78333,47177
14.79167,48840
14.80000,50526
14.80833,52234
14.81667,53964
14.82500,55717
14.83333,57491
14.84167,59287
14.85000,61105
14.85833,62944
14.86667,64804
14.87500,66684
14.88333,68585
14.89167,70506
14.90000,72446
14.90833,74406
14.91667,76385
14.92500,78381
14.93333,80395
14.94167,82426
14.95000,84472
14.95833,86532
14.96667,88605
14.97500,90689
14.98333,92783
14.99167,94882
15.00000,96985
15.00833,99085
15.01667,101175
15.02500,103245
15.03333,105283
15.04167,107269
15.05000,109179
15.05833,110979
15.06667,112630
15.07500,114084
15.08333,115283
15.09167,116167
15.10000,116671
15.10833,116732
15.11667,116290
15.12500,115298
15.13333,113719
15.14167,111537
15.15000,108753
15.15833,105390
15.16667,101493
15.17500,97121
15.18333,92352
15.19167,87273
15.20000,81977
15.20833,76557
15.21667,71107
15.22500,65709
15.23333,60440
15.24167,55361
15.25000,50524
15.25833,45966
15.26667,41713
15.27500,37778
15.28333,34166
15.29167,30873
15.30000,27890
15.30833,25202
15.31667,22792
15.32500,20641
15.33333,18728
15.34167,17033
15.35000,15535
15.35833,14216
15.36667,13057
15.37500,12042
15.38333,11156
15.39167,10385
15.40000,9717
15.40833,9140
15.41667,8645
15.42500,8223
15.43333,7868
15.44167,7570
15.45000,7323
15.45833,7123
15.46667,6964
15.47500,6841
15.48333,6750
15.49167,6686
15.50000,6646
15.50833,6626
15.51667,6623
15.52500,6633
15.53333,6654
15.54167,6684
15.55000,6718
15.55833,6756
15.56667,6794
15.57500,6829
15.58333,6862
15.59167,6889
15.60000,6910
15.60833,6922
15.61667,6925
15.62500,6917
15.63333,6898
15.64167,6867
15.65000,6825
15.65833,6770
15.66667,6702
15.67500,6622
15.68333,6530
15.69167,6427
15.70000,6313
15.70833,6188
15.71667,6054
15.72500,5910
15.73333,5760
15.74167,5602
15.75000,5438
15.75833,5269
15.76667,5096
15.77500,4919
15.78333,4740
15.79167,4561
15.80000,4380
15.80833,4201
15.81667,4023
15.82500,3847
15.83333,3674
15.84167,3504
15.85000,3337
15.85833,3175
15.86667,3018
15.87500,2866
15.88333,2719
15.89167,2577
15.90000,2442
15.90833,2312
15.91667,2188
15.92500,2070
15.93333,1957
15.94167,1851
15.95000,1750
15.95833,1655
15.96667,1565
15.97500,1481
15.98333,1402
15.99167,1328
16.00000,1259
16.00833,1194
16.01667,1133
16.02500,1077
16.03333,1024
16.04167,975
16.05000,930
16.05833,887
16.06667,848
16.07500,812
16.08333,778
16.09167,747
16.10000,719
16.10833,692
16.11667,668
16.12500,645
16.13333,624
16.14167,605
16.15000,587
16.15833,570
16.16667,554
16.17500,540
16.18333,526
16.19167,514
16.20000,502
16.20833,491
16.21667,480
16.22500,471
16.23333,462
16.24167,453
16.25000,445
16.25833,437
16.26667,430
16.27500,423
16.28333,417
16.29167,411
16.30000,406
16.30833,400
16.31667,395
16.32500,390
16.33333,385
16.34167,381
16.35000,376
16.35833,372
16.36667,368
16.37500,364
16.38333,360
16.39167,356
16.40000,353
16.40833,349
16.41667,346
16.42500,342
16.43333,339
16.44167,336
16.45000,333
16.45833,330
16.46667,328
16.47500,325
16.48333,323
16.49167,320
16.50000,317
16.50833,314
16.51667,312
16.52500,309
16.53333,306
16.54167,304
16.55000,302
16.55833,299
16.56667,297
16.57500,296
16.58333,294
16.59167,291
16.60000,289
16.60833,287
16.61667,286
16.62500,284
16.63333,282
16.64167,281
16.65000,279
16.65833,277
16.66667,276
16.67500,274
16.68333,272
16.69167,270
16.70000,268
16.70833,266
16.71667,264
16.72500,262
16.73333,261
16.74167,259
16.75000,258
16.75833,256
16.76667,255
16.77500,253
16.78333,252
16.79167,250
16.80000,249
16.80833,248
16.81667,246
16.82500,245
16.83333,243
16.84167,242
16.85000,240
16.85833,239
16.86667,237
16.87500,236
16.88333,235
16.89167,233
16.90000,232
16.90833,231
16.91667,229
16.92500,229
16.93333,228
16.94167,227
16.95000,226
16.95833,225
16.96667,224
16.97500,223
16.98333,221
16.99167,220
17.00000,219
17.00833,218
17.01667,217
17.02500,216
17.03333,215
17.04167,214
17.05000,213
17.05833,212
17.06667,211
17.07500,209
17.08333,208
17.09167,207
17.10000,206
17.10833,204
17.11667,203
17.12500,202
17.13333,201
17.14167,200
17.15000,199
17.15833,198
17.16667,197
17.17500,196
17.18333,195
17.19167,194
17.20000,194
17.20833,193
17.21667,192
17.22500,191
17.23333,190
17.24167,189
17.25000,188
17.25833,187
17.26667,186
17.27500,185
17.28333,184
17.29167,183
17.30000,182
17.30833,181
17.31667,180
17.32500,179
17.33333,178
17.34167,177
17.35000,176
17.35833,175
17.36667,173
17.37500,172
17.38333,171
17.39167,170
17.40000,170
17.40833,169
17.41667,168
17.42500,168
17.43333,167
17.44167,166
17.45000,165
17.45833,164
17.46667,163
17.47500,162
17.48333,161
17.49167,160
17.50000,159
17.50833,159
17.51667,158
17.52500,157
17.53333,156
17.54167,155
17.55000,155
17.55833,154
17.56667,153
17.57500,152
17.58333,151
17.59167,150
17.60000,149
17.60833,148
17.61667,147
17.62500,146
17.63333,145
17.64167,145
17.65000,144
17.65833,143
17.66667,142
17.67500,142
17.68333,141
17.69167,140
17.70000,139
17.70833,139
17.71667,138
17.72500,137
17.73333,136
17.74167,135
17.75000,135
17.75833,134
17.76667,133
17.77500,132
17.78333,131
17.79167,130
17.80000,129
17.80833,128
17.81667,127
17.82500,126
17.83333,125
17.84167,125
17.85000,124
17.85833,124
17.86667,123
17.87500,122
17.88333,121
17.89167,121
17.90000,121
17.90833,120
17.91667,119
17.92500,118
17.93333,118
17.94167,118
17.95000,117
17.95833,117
17.96667,116
17.97500,115
17.98333,114
17.99167,114
18.00000,113
18.00833,112
18.01667,111
18.02500,110
18.03333,110
18.04167,109
18.05000,109
18.05833,108
18.06667,107
18.07500,106
18.08333,105
18.09167,105
18.10000,105
18.10833,105
18.11667,104
18.12500,103
18.13333,102
18.14167,102
18.15000,101
18.15833,100
18.16667,100
18.17500,99
18.18333,99
18.19167,98
18.20000,98
18.20833,97
18.21667,97
18.22500,96
18.23333,96
18.24167,96
18.25000,95
18.25833,94
18.26667,93
18.27500,93
18.28333,92
18.29167,91
18.30000,91
18.30833,90
18.31667,90
18.32500,90
18.33333,89
18.34167,89
18.35000,88
18.35833,87
18.36667,87
18.37500,86
18.38333,86
18.39167,85
18.40000,85
18.40833,84
18.41667,84
18.42500,84
18.43333,83
18.44167,83
18.45000,83
18.45833,82
18.46667,82
18.47500,81
18.48333,81
18.49167,80
18.50000,80
18.50833,79
18.51667,78
18.52500,78
18.53333,77
18.54167,77
18.55000,76
18.55833,76
18.56667,76
18.57500,75
18.58333,75
18.59167,74
18.60000,74
18.60833,74
18.61667,73
18.62500,73
18.63333,72
18.64167,72
18.65000,71
18.65833,71
18.66667,71
18.67500,71
18.68333,71
18.69167,70
18.70000,70
18.70833,70
18.71667,71
18.72500,71
18.73333,71
18.74167,71
18.75000,71
18.75833,71
18.76667,72
18.77500,72
18.78333,72
18.79167,72
18.80000,72
18.80833,72
18.81667,72
18.82500,72
18.83333,72
18.84167,72
18.85000,73
18.85833,73
18.86667,74
18.87500,75
18.88333,75
18.89167,76
18.90000,76
18.90833,77
18.91667,77
18.92500,78
18.93333,78
18.94167,78
18.95000,79
18.95833,79
18.96667,79
18.97500,78
18.98333,78
18.99167,78
19.00000,78
19.00833,78
19.01667,77
19.02500,77
19.03333,77
19.04167,76
19.05000,76
19.05833,76
19.06667,75
19.07500,75
19.08333,74
19.09167,73
19.10000,73
19.10833,72
19.11667,71
19.12500,70
19.13333,69
19.14167,68
19.15000,67
19.15833,67
19.16667,66
19.17500,65
19.18333,65
19.19167,64
19.20000,63
19.20833,62
19.21667,61
19.22500,60
19.23333,59
19.24167,58
19.25000,57
19.25833,57
19.26667,56
19.27500,55
19.28333,54
19.29167,53
19.30000,53
19.30833,52
19.31667,51
19.32500,51
19.33333,50
19.34167,50
19.35000,49
19.35833,48
19.36667,48
19.37500,47
19.38333,47
19.39167,46
19.40000,46
19.40833,45
19.41667,45
19.42500,45
19.43333,44
19.44167,44
19.45000,44
19.45833,44
19.46667,44
19.47500,43
19.48333,43
19.49167,42
19.50000,42
19.50833,42
19.51667,41
19.52500,41
19.53333,41
19.54167,41
19.55000,41
19.55833,40
19.56667,40
19.57500,40
19.58333,40
19.59167,40
19.60000,39
19.60833,39
19.61667,39
19.62500,39
19.63333,38
19.64167,38
19.65000,38
19.65833,37
19.66667,36
19.67500,36
19.68333,36
19.69167,36
19.70000,36
19.70833,36
19.71667,35
19.72500,35
19.73333,35
19.74167,35
19.75000,35
19.75833,35
19.76667,35
19.77500,35
19.78333,35
19.79167,35
19.80000,35
19.80833,35
19.81667,34
19.82500,34
19.83333,34
19.84167,34
19.85000,34
19.85833,34
19.86667,34
19.87500,34
19.88333,34
19.89167,33
19.90000,33
19.90833,32
19.91667,32
19.92500,32
19.93333,32
19.94167,32
19.95000,32
19.95833,31
19.96667,31
19.97500,31
19.98333,31
19.99167,30
20.00000,30
20.00833,30
20.01667,29
20.02500,29
20.03333,29
20.04167,29
20.05000,29
20.05833,29
20.06667,28
20.07500,28
20.08333,28
20.09167,28
20.10000,28
20.10833,28
20.11667,28
20.12500,28
20.13333,27
20.14167,27
20.15000,27
20.15833,28
20.16667,28
20.17500,28
20.18333,27
20.19167,27
20.20000,27
20.20833,27
20.21667,27
20.22500,27
20.23333,27
20.24167,28
20.25000,27
20.25833,27
20.26667,27
20.27500,27
20.28333,27
20.29167,27
20.30000,26
20.30833,26
20.31667,25
20.32500,25
20.33333,24
20.34167,24
20.35000,24
20.35833,24
20.36667,24
20.37500,25
20.38333,25
20.39167,25
20.40000,24
20.40833,24
20.41667,24
20.42500,24
20.43333,23
20.44167,23
20.45000,23
20.45833,23
20.46667,23
20.47500,22
20.48333,22
20.49167,22
20.50000,22
20.50833,22
20.51667,22
20.52500,22
20.53333,22
20.54167,22
20.55000,22
20.55833,22
20.56667,23
20.57500,23
20.58333,23
20.59167,22
20.60000,22
20.60833,22
20.61667,22
20.62500,21
20.63333,21
20.64167,21
20.65000,21
20.65833,21
20.66667,21
20.67500,20
20.68333,20
20.69167,20
20.70000,20
20.70833,20
20.71667,20
20.72500,20
20.73333,20
20.74167,20
20.75000,20
20.75833,20
20.76667,20
20.77500,21
20.78333,20
20.79167,20
20.80000,19
20.80833,19
20.81667,19
20.82500,19
20.83333,19
20.84167,19
20.85000,19
20.85833,19
20.86667,18
20.87500,19
20.88333,19
20.89167,18
20.90000,18
20.90833,18
20.91667,18
20.92500,18
20.93333,18
20.94167,19
20.95000,19
20.95833,18
20.96667,18
20.97500,18
20.98333,18
20.99167,17
21.00000,17
21.00833,17
21.01667,17
21.02500,17
21.03333,17
21.04167,16
21.05000,16
21.05833,16
21.06667,16
21.07500,16
21.08333,16
21.09167,16
21.10000,16
21.10833,16
21.11667,16
21.12500,16
21.13333,16
21.14167,16
21.15000,16
21.15833,16
21.16667,15
21.17500,15
21.18333,15
21.19167,15
21.20000,15
21.20833,15
21.21667,16
21.22500,16
21.23333,16
21.24167,15
21.25000,15
21.25833,15
21.26667,15
21.27500,15
21.28333,15
21.29167,15
21.30000,15
21.30833,15
21.31667,15
21.32500,15
21.33333,15
21.34167,15
21.35000,15
21.35833,15
21.36667,15
21.37500,15
21.38333,16
21.39167,16
21.40000,16
21.40833,16
21.41667,17
21.42500,17
21.43333,17
21.44167,18
21.45000,18
21.45833,18
21.46667,18
21.47500,18
21.48333,19
21.49167,20
21.50000,21
21.50833,22
21.51667,24
21.52500,25
21.53333,26
21.54167,27
21.55000,29
21.55833,31
21.56667,33
21.57500,35
21.58333,38
21.59167,41
21.60000,44
21.60833,48
21.61667,53
21.62500,58
21.63333,63
21.64167,69
21.65000,76
21.65833,84
21.66667,92
21.67500,102
21.68333,112
21.69167,124
21.70000,136
21.70833,149
21.71667,164
21.72500,180
21.73333,198
21.74167,217
21.75000,237
21.75833,260
21.76667,283
21.77500,309
21.78333,336
21.79167,364
21.80000,394
21.80833,425
21.81667,459
21.82500,493
21.83333,530
21.84167,567
21.85000,606
21.85833,647
21.86667,688
21.87500,730
21.88333,773
21.89167,816
21.90000,859
21.90833,903
21.91667,947
21.92500,990
21.93333,1033
21.94167,1075
21.95000,1115
21.95833,1155
21.96667,1193
21.97500,1229
21.98333,1263
21.99167,1295
22.00000,1325
22.00833,1352
22.01667,1377
22.02500,1398
22.03333,1416
22.04167,1431
22.05000,1443
22.05833,1452
22.06667,1457
22.07500,1460
22.08333,1459
22.09167,1454
22.10000,1447
22.10833,1436
22.11667,1423
22.12500,1406
22.13333,1387
22.14167,1365
22.15000,1340
22.15833,1313
22.16667,1284
22.17500,1254
22.18333,1222
22.19167,1188
22.20000,1153
22.20833,1117
22.21667,1080
22.22500,1042
22.23333,1004
22.24167,966
22.25000,927
22.25833,888
22.26667,850
22.27500,812
22.28333,773
22.29167,736
22.30000,700
22.30833,664
22.31667,629
22.32500,596
22.33333,563
22.34167,532
22.35000,501
22.35833,472
22.36667,444
22.37500,417
22.38333,392
22.39167,367
22.40000,344
22.40833,322
22.41667,301
22.42500,281
22.43333,262
22.44167,244
22.45000,227
22.45833,211
22.46667,197
22.47500,183
22.48333,171
22.49167,159
22.50000,148
22.50833,138
22.51667,129
22.52500,120
22.53333,112
22.54167,104
22.55000,97
22.55833,91
22.56667,85
22.57500,79
22.58333,74
22.59167,70
22.60000,65
22.60833,61
22.61667,58
22.62500,55
22.63333,52
22.64167,49
22.65000,46
22.65833,43
22.66667,41
22.67500,39
22.68333,37
22.69167,36
22.70000,34
22.70833,33
22.71667,31
22.72500,30
22.73333,29
22.74167,28
22.75000,27
22.75833,26
22.76667,25
22.77500,25
22.78333,24
22.79167,23
22.80000,22
22.80833,22
22.81667,21
22.82500,21
22.83333,20
22.84167,20
22.85000,20
22.85833,19
22.86667,19
22.87500,18
22.88333,18
22.89167,18
22.90000,17
22.90833,17
22.91667,17
22.92500,17
22.93333,17
22.94167,16
22.95000,16
22.95833,15
22.96667,15
22.97500,15
22.98333,16
22.99167,15
23.00000,15
23.00833,15
23.01667,15
23.02500,15
23.03333,15
23.04167,15
23.05000,15
23.05833,15
23.06667,15
23.07500,15
23.08333,14
23.09167,14
23.10000,14
23.10833,14
23.11667,14
23.12500,14
23.13333,14
23.14167,14
23.15000,14
23.15833,14
23.16667,14
23.17500,14
23.18333,14
23.19167,14
23.20000,14
23.20833,14
23.21667,14
23.22500,13
23.23333,13
23.24167,13
23.25000,13
23.25833,13
23.26667,13
23.27500,13
23.28333,13
23.29167,13
23.30000,13
23.30833,13
23.31667,12
23.32500,12
23.33333,12
23.34167,12
23.35000,12
23.35833,12
23.36667,12
23.37500,12
23.38333,12
23.39167,12
23.40000,12
23.40833,12
23.41667,12
23.42500,12
23.43333,12
23.44167,12
23.45000,12
23.45833,12
23.46667,12
23.47500,11
23.48333,11
23.49167,11
23.50000,12
23.50833,12
23.51667,12
23.52500,12
23.53333,12
23.54167,12
23.55000,11
23.55833,11
23.56667,11
23.57500,11
23.58333,11
23.59167,11
23.60000,10
23.60833,10
23.61667,10
23.62500,11
23.63333,11
23.64167,11
23.65000,12
23.65833,11
23.66667,11
23.67500,11
23.68333,12
23.69167,12
23.70000,12
23.70833,12
23.71667,12
23.72500,11
23.73333,11
23.74167,11
23.75000,11
23.75833,11
23.76667,11
23.77500,10
23.78333,10
23.79167,11
23.80000,10
23.80833,10
23.81667,10
23.82500,10
23.83333,10
23.84167,10
23.85000,10
23.85833,10
23.86667,10
23.87500,10
23.88333,10
23.89167,10
23.90000,10
23.90833,10
23.91667,10
23.92500,11
23.93333,10
23.94167,10
23.95000,11
23.95833,11
23.96667,11
23.97500,11
23.98333,10
23.99167,10
24.00000,10
24.00833,10
24.01667,10
24.02500,10
24.03333,10
24.04167,10
24.05000,10
24.05833,10
24.06667,10
24.07500,10
24.08333,10
24.09167,10
24.10000,10
24.10833,10
24.11667,10
24.12500,9
24.13333,9
24.14167,9
24.15000,9
24.15833,9
24.16667,9
24.17500,10
24.18333,10
24.19167,10
24.20000,10
24.20833,10
24.21667,11
24.22500,11
24.23333,11
24.24167,11
24.25000,10
24.25833,10
24.26667,10
24.27500,10
24.28333,10
24.29167,10
24.30000,10
24.30833,10
24.31667,10
24.32500,10
24.33333,10
24.34167,10
24.35000,10
24.35833,10
24.36667,10
24.37500,10
24.38333,10
24.39167,11
24.40000,11
24.40833,12
24.41667,12
24.42500,12
24.43333,13
24.44167,13
24.45000,14
24.45833,14
24.46667,15
24.47500,16
24.48333,16
24.49167,17
24.50000,18
24.50833,19
24.51667,20
24.52500,21
24.53333,22
24.54167,23
24.55000,25
24.55833,27
24.56667,29
24.57500,31
24.58333,33
24.59167,36
24.60000,39
24.60833,42
24.61667,46
24.62500,50
24.63333,54
24.64167,59
24.65000,64
24.65833,70
24.66667,76
24.67500,82
24.68333,89
24.69167,97
24.70000,106
24.70833,115
24.71667,124
24.72500,134
24.73333,144
24.74167,155
24.75000,167
24.75833,179
24.76667,192
24.77500,206
24.78333,221
24.79167,236
24.80000,251
24.80833,267
24.81667,283
24.82500,300
24.83333,317
24.84167,334
24.85000,352
24.85833,370
24.86667,388
24.87500,407
24.88333,425
24.89167,444
24.90000,462
24.90833,481
24.91667,499
24.92500,517
24.93333,535
24.94167,551
24.95000,568
24.95833,583
24.96667,597
24.97500,611
24.98333,624
24.99167,637
25.00000,648
25.00833,658
25.01667,667
25.02500,675
25.03333,681
25.04167,687
25.05000,691
25.05833,694
25.06667,696
25.07500,696
25.08333,695
25.09167,692
25.10000,689
25.10833,684
25.11667,678
25.12500,670
25.13333,661
25.14167,651
25.15000,641
25.15833,630
25.16667,617
25.17500,604
25.18333,590
25.19167,576
25.20000,561
25.20833,545
25.21667,529
25.22500,513
25.23333,496
25.24167,480
25.25000,463
25.25833,446
25.26667,429
25.27500,411
25.28333,394
25.29167,378
25.30000,361
25.30833,344
25.31667,328
25.32500,312
25.33333,297
25.34167,282
25.35000,267
25.35833,253
25.36667,240
25.37500,227
25.38333,214
25.39167,202
25.40000,191
25.40833,180
25.41667,170
25.42500,160
25.43333,150
25.44167,140
25.45000,131
25.45833,123
25.46667,115
25.47500,107
25.48333,100
25.49167,94
25.50000,88
25.50833,82
25.51667,77
25.52500,72
25.53333,68
25.54167,64
25.55000,60
25.55833,56
25.56667,53
25.57500,50
25.58333,47
25.59167,44
25.60000,41
25.60833,39
25.61667,36
25.62500,34
25.63333,32
25.64167,31
25.65000,29
25.65833,28
25.66667,27
25.67500,26
25.68333,25
25.69167,24
25.70000,23
25.70833,23
25.71667,22
25.72500,21
25.73333,20
25.74167,19
25.75000,18
25.75833,18
25.76667,17
25.77500,17
25.78333,16
25.79167,16
25.80000,16
25.80833,16
25.81667,16
25.82500,16
25.83333,15
25.84167,15
25.85000,15
25.85833,15
25.86667,15
25.87500,15
25.88333,15
25.89167,15
25.90000,15
25.90833,14
25.91667,14
25.92500,14
25.93333,14
25.94167,13
25.95000,13
25.95833,13
25.96667,13
25.97500,13
25.98333,13
25.99167,13
26.00000,13
26.00833,13
26.01667,13
26.02500,13
26.03333,13
26.04167,13
26.05000,13
26.05833,13
26.06667,13
26.07500,13
26.08333,13
26.09167,13
26.10000,13
26.10833,13
26.11667,13
26.12500,13
26.13333,13
26.14167,12
26.15000,12
26.15833,12
26.16667,12
26.17500,12
26.18333,12
26.19167,13
26.20000,13
26.20833,13
26.21667,13
26.22500,13
26.23333,13
26.24167,12
26.25000,12
26.25833,12
26.26667,13
26.27500,13
26.28333,12
26.29167,12
26.30000,12
26.30833,12
26.31667,12
26.32500,12
26.33333,13
26.34167,13
26.35000,13
26.35833,13
26.36667,13
26.37500,14
26.38333,14
26.39167,14
26.40000,14
26.40833,14
26.41667,14
26.42500,13
26.43333,13
26.44167,13
26.45000,12
26.45833,13
26.46667,13
26.47500,13
26.48333,12
26.49167,12
26.50000,12
26.50833,12
26.51667,13
26.52500,13
26.53333,13
26.54167,13
26.55000,13
26.55833,13
26.56667,12
26.57500,12
26.58333,12
26.59167,13
26.60000,13
26.60833,13
26.61667,13
26.62500,13
26.63333,13
26.64167,12
26.65000,12
26.65833,12
26.66667,13
26.67500,13
26.68333,13
26.69167,13
26.70000,13
26.70833,13
26.71667,13
26.72500,13
26.73333,13
26.74167,13
26.75000,13
26.75833,13
26.76667,13
26.77500,12
26.78333,12
26.79167,12
26.80000,12
26.80833,13
26.81667,13
26.82500,13
26.83333,13
26.84167,13
26.85000,13
26.85833,13
26.86667,13
26.87500,12
26.88333,12
26.89167,12
26.90000,12
26.90833,12
26.91667,12
26.92500,12
26.93333,12
26.94167,12
26.95000,13
26.95833,13
26.96667,14
26.97500,13
26.98333,13
26.99167,13
27.00000,13
27.00833,13
27.01667,13
27.02500,13
27.03333,14
27.04167,13
27.05000,13
27.05833,13
27.06667,13
27.07500,13
27.08333,13
27.09167,13
27.10000,13
27.10833,13
27.11667,13
27.12500,13
27.13333,13
27.14167,13
27.15000,13
27.15833,13
27.16667,13
27.17500,13
27.18333,13
27.19167,13
27.20000,13
27.20833,13
27.21667,13
27.22500,13
27.23333,13
27.24167,13
27.25000,13
27.25833,13
27.26667,13
27.27500,14
27.28333,14
27.29167,14
27.30000,14
27.30833,14
27.31667,14
27.32500,14
27.33333,14
27.34167,14
27.35000,13
27.35833,13
27.36667,13
27.37500,13
27.38333,13
27.39167,13
27.40000,13
27.40833,13
27.41667,13
27.42500,13
27.43333,13
27.44167,13
27.45000,13
27.45833,12
27.46667,12
27.47500,13
27.48333,13
27.49167,13
27.50000,13
27.50833,12
27.51667,12
27.52500,12
27.53333,13
27.54167,13
27.55000,13
27.55833,13
27.56667,13
27.57500,13
27.58333,13
27.59167,14
27.60000,14
27.60833,14
27.61667,14
27.62500,14
27.63333,14
27.64167,14
27.65000,14
27.65833,14
27.66667,14
27.67500,13
27.68333,13
27.69167,13
27.70000,13
27.70833,13
27.71667,13
27.72500,13
27.73333,13
27.74167,13
27.75000,13
27.75833,12
27.76667,12
27.77500,12
27.78333,11
27.79167,11
27.80000,11
27.80833,11
27.81667,11
27.82500,10
27.83333,10
27.84167,9
27.85000,9
27.85833,8
27.86667,7
27.87500,7
27.88333,6
27.89167,5
27.90000,5
27.90833,4
27.91667,3
27.92500,2
27.93333,1
27.94167,0
27.95000,-1
27.95833,-2
27.96667,-3
27.97500,-5
27.98333,-6
27.99167,-7
28.00000,-9
28.00833,-11
28.01667,-13
28.02500,-15
28.03333,-17
28.04167,-19
28.05000,-21
28.05833,-23
28.06667,-25
28.07500,-27
28.08333,-29
28.09167,-31
28.10000,-34
28.10833,-36
28.11667,-39
28.12500,-42
28.13333,-44
28.14167,-47
28.15000,-50
28.15833,-53
28.16667,-56
28.17500,-59
28.18333,-62
28.19167,-65
28.20000,-68
28.20833,-71
28.21667,-74
28.22500,-77
28.23333,-80
28.24167,-83
28.25000,-86
28.25833,-89
28.26667,-92
28.27500,-95
28.28333,-98
28.29167,-101
28.30000,-103
28.30833,-106
28.31667,-109
28.32500,-111
28.33333,-114
28.34167,-116
28.35000,-118
28.35833,-119
28.36667,-121
28.37500,-124
28.38333,-125
28.39167,-127
28.40000,-128
28.40833,-129
28.41667,-129
28.42500,-130
28.43333,-130
28.44167,-131
28.45000,-131
28.45833,-131
28.46667,-131
28.47500,-131
28.48333,-131
28.49167,-131
28.50000,-130
28.50833,-130
28.51667,-129
28.52500,-128
28.53333,-127
28.54167,-126
28.55000,-124
28.55833,-123
28.56667,-121
28.57500,-118
28.58333,-116
28.59167,-114
28.60000,-112
28.60833,-111
28.61667,-108
28.62500,-106
28.63333,-103
28.64167,-101
28.65000,-99
28.65833,-96
28.66667,-93
28.67500,-91
28.68333,-88
28.69167,-86
28.70000,-83
28.70833,-80
28.71667,-77
28.72500,-74
28.73333,-72
28.74167,-69
28.75000,-66
28.75833,-63
28.76667,-61
28.77500,-58
28.78333,-56
28.79167,-53
28.80000,-51
28.80833,-49
28.81667,-47
28.82500,-45
28.83333,-43
28.84167,-41
28.85000,-39
28.85833,-37
28.86667,-35
28.87500,-33
28.88333,-31
28.89167,-30
28.90000,-28
28.90833,-27
28.91667,-25
28.92500,-24
28.93333,-22
28.94167,-21
28.95000,-19
28.95833,-18
28.96667,-16
28.97500,-15
28.98333,-14
28.99167,-13
29.00000,-12
29.00833,-11
29.01667,-10
29.02500,-10
29.03333,-9
29.04167,-8
29.05000,-8
29.05833,-7
29.06667,-6
29.07500,-6
29.08333,-6
29.09167,-5
29.10000,-5
29.10833,-4
29.11667,-4
29.12500,-3
29.13333,-3
29.14167,-2
29.15000,-1
29.15833,-1
29.16667,-1
29.17500,-1
29.18333,-1
29.19167,-1
29.20000,-0
29.20833,0
29.21667,1
29.22500,2
29.23333,2
29.24167,2
29.25000,2
29.25833,2
29.26667,3
29.27500,3
29.28333,3
29.29167,3
29.30000,3
29.30833,3
29.31667,3
29.32500,3
29.33333,4
29.34167,4
29.35000,4
29.35833,4
29.36667,4
29.37500,4
29.38333,5
29.39167,5
29.40000,5
29.40833,5
29.41667,5
29.42500,5
29.43333,5
29.44167,5
29.45000,5
29.45833,5
29.46667,5
29.47500,5
29.48333,5
29.49167,5
29.50000,5
29.50833,5
29.51667,4
29.52500,4
29.53333,4
29.54167,4
29.55000,4
29.55833,4
29.56667,3
29.57500,3
29.58333,3
29.59167,2
29.60000,2
29.60833,2
29.61667,1
29.62500,1
29.63333,1
29.64167,1
29.65000,1
29.65833,0
29.66667,-0
29.67500,-1
29.68333,-1
29.69167,-2
29.70000,-2
29.70833,-3
29.71667,-3
29.72500,-4
29.73333,-4
29.74167,-5
29.75000,-6
29.75833,-6
29.76667,-7
29.77500,-8
29.78333,-8
29.79167,-9
29.80000,-10
29.80833,-10
29.81667,-11
29.82500,-12
29.83333,-13
29.84167,-14
29.85000,-15
29.85833,-16
29.86667,-17
29.87500,-18
29.88333,-19
29.89167,-20
29.90000,-21
29.90833,-22
29.91667,-23
29.92500,-24
29.93333,-25
29.94167,-26
29.95000,-26
29.95833,-28
29.96667,-29
29.97500,-30
29.98333,-31
29.99167,-32
30.00000,-34
30.00833,-35
30.01667,-36
30.02500,-37
30.03333,-37
30.04167,-38
30.05000,-39
30.05833,-40
30.06667,-41
30.07500,-42
30.08333,-43
30.09167,-44
30.10000,-44
30.10833,-45
30.11667,-45
30.12500,-46
30.13333,-46
30.14167,-46
30.15000,-46
30.15833,-47
30.16667,-47
30.17500,-48
30.18333,-48
30.19167,-48
30.20000,-48
30.20833,-48
30.21667,-48
30.22500,-48
30.23333,-48
30.24167,-48
30.25000,-47
30.25833,-47
30.26667,-47
30.27500,-47
30.28333,-46
30.29167,-46
30.30000,-45
30.30833,-45
30.31667,-45
30.32500,-44
30.33333,-44
30.34167,-43
30.35000,-42
30.35833,-41
30.36667,-40
30.37500,-39
30.38333,-38
30.39167,-37
30.40000,-37
30.40833,-36
30.41667,-35
30.42500,-34
30.43333,-33
30.44167,-32
30.45000,-31
30.45833,-30
30.46667,-30
30.47500,-29
30.48333,-28
30.49167,-27
30.50000,-26
30.50833,-25
30.51667,-24
30.52500,-23
30.53333,-22
30.54167,-21
30.55000,-20
30.55833,-19
30.56667,-18
30.57500,-18
30.58333,-17
30.59167,-15
30.60000,-15
30.60833,-14
30.61667,-14
30.62500,-13
30.63333,-13
30.64167,-12
30.65000,-12
30.65833,-12
30.66667,-11
30.67500,-11
30.68333,-10
30.69167,-9
30.70000,-9
30.70833,-8
30.71667,-8
30.72500,-7
30.73333,-7
30.74167,-7
30.75000,-7
30.75833,-6
30.76667,-6
30.77500,-5
30.78333,-5
30.79167,-5
30.80000,-4
30.80833,-4
30.81667,-4
30.82500,-3
30.83333,-3
30.84167,-3
30.85000,-3
30.85833,-3
30.86667,-2
30.87500,-2
30.88333,-3
30.89167,-3
30.90000,-3
30.90833,-3
30.91667,-3
30.92500,-3
30.93333,-3
30.94167,-2
30.95000,-2
30.95833,-1
30.96667,-1
30.97500,-1
30.98333,-1
30.99167,-1
31.00000,-1
31.00833,-1
31.01667,-1
31.02500,-1
31.03333,-1
31.04167,-1
31.05000,-1
31.05833,-1
31.06667,-0
31.07500,-0
31.08333,0
31.09167,-0
31.10000,-0
31.10833,-0
31.11667,0
31.12500,0
31.13333,0
31.14167,0
31.15000,0
31.15833,0
31.16667,1
31.17500,1
31.18333,0
31.19167,1
31.20000,1
31.20833,1
31.21667,1
31.22500,1
31.23333,1
31.24167,1
31.25000,1
31.25833,1
31.26667,1
31.27500,2
31.28333,2
31.29167,2
31.30000,2
31.30833,2
31.31667,2
31.32500,2
31.33333,2
31.34167,2
31.35000,2
31.35833,2
31.36667,2
31.37500,2
31.38333,2
31.39167,3
31.40000,3
31.40833,3
31.41667,3
31.42500,3
31.43333,3
31.44167,4
31.45000,4
31.45833,4
31.46667,4
31.47500,4
31.48333,4
31.49167,4
31.50000,4
31.50833,4
31.51667,4
31.52500,4
31.53333,4
31.54167,4
31.55000,4
31.55833,4
31.56667,5
31.57500,5
31.58333,5
31.59167,6
31.60000,5
31.60833,5
31.61667,5
31.62500,5
31.63333,5
31.64167,5
31.65000,5
31.65833,5
31.66667,5
31.67500,6
31.68333,6
31.69167,5
31.70000,5
31.70833,5
31.71667,5
31.72500,5
31.73333,5
31.74167,5
31.75000,6
31.75833,6
31.76667,6
31.77500,6
31.78333,6
31.79167,6
31.80000,6
31.80833,6
31.81667,6
31.82500,6
31.83333,6
31.84167,6
31.85000,6
31.85833,6
31.86667,6
31.87500,6
31.88333,6
31.89167,6
31.90000,6
31.90833,6
31.91667,6
31.92500,6
31.93333,5
31.94167,5
31.95000,5
31.95833,6
31.96667,6
31.97500,6
31.98333,5
31.99167,5
32.00000,5
32.00833,5
32.01667,6
32.02500,6
32.03333,6
32.04167,6
32.05000,6
32.05833,6
32.06667,6
32.07500,6
32.08333,6
32.09167,6
32.10000,6
32.10833,6
32.11667,6
32.12500,6
32.13333,6
32.14167,6
32.15000,6
32.15833,6
32.16667,6
32.17500,6
32.18333,6
32.19167,6
32.20000,6
32.20833,7
32.21667,7
32.22500,6
32.23333,6
32.24167,6
32.25000,6
32.25833,6
32.26667,6
32.27500,7
32.28333,7
32.29167,6
32.30000,6
32.30833,6
32.31667,6
32.32500,6
32.33333,6
32.34167,6
32.35000,6
32.35833,6
32.36667,6
32.37500,5
32.38333,5
32.39167,5
32.40000,6
32.40833,6
32.41667,5
32.42500,5
32.43333,5
32.44167,5
32.45000,5
32.45833,6
32.46667,6
32.47500,6
32.48333,6
32.49167,6
32.50000,6
32.50833,6
32.51667,6
32.52500,6
32.53333,5
32.54167,5
32.55000,5
32.55833,5
32.56667,5
32.57500,5
32.58333,5
32.59167,5
32.60000,5
32.60833,5
32.61667,5
32.62500,5
32.63333,5
32.64167,5
32.65000,5
32.65833,4
32.66667,4
32.67500,4
32.68333,4
32.69167,4
32.70000,4
32.70833,4
32.71667,4
32.72500,5
32.73333,5
32.74167,5
32.75000,5
32.75833,5
32.76667,5
32.77500,5
32.78333,5
32.79167,4
32.80000,5
32.80833,5
32.81667,5
32.82500,5
32.83333,5
32.84167,5
32.85000,5
32.85833,5
32.86667,5
32.87500,5
32.88333,5
32.89167,5
32.90000,5
32.90833,5
32.91667,5
32.92500,5
32.93333,4
32.94167,4
32.95000,4
32.95833,4
32.96667,5
32.97500,5
32.98333,5
32.99167,5
33.00000,5
33.00833,5
33.01667,5
33.02500,5
33.03333,5
33.04167,5
33.05000,4
33.05833,4
33.06667,4
33.07500,4
33.08333,4
33.09167,4
33.10000,4
33.10833,4
33.11667,4
33.12500,5
33.13333,5
33.14167,5
33.15000,5
33.15833,5
33.16667,5
33.17500,5
33.18333,5
33.19167,4
33.20000,4
33.20833,4
33.21667,4
33.22500,4
33.23333,4
33.24167,4
33.25000,5
33.25833,5
33.26667,5
33.27500,4
33.28333,4
33.29167,4
33.30000,4
33.30833,5
33.31667,5
33.32500,5
33.33333,5
33.34167,4
33.35000,4
33.35833,4
33.36667,4
33.37500,4
33.38333,4
33.39167,4
33.40000,4
33.40833,4
33.41667,4
33.42500,4
33.43333,4
33.44167,4
33.45000,4
33.45833,4
33.46667,4
33.47500,3
33.48333,4
33.49167,4
33.50000,4
33.50833,4
33.51667,4
33.52500,4
33.53333,4
33.54167,4
33.55000,4
33.55833,4
33.56667,4
33.57500,4
33.58333,4
33.59167,4
33.60000,4
33.60833,4
33.61667,4
33.62500,4
33.63333,4
33.64167,4
33.65000,5
33.65833,5
33.66667,5
33.67500,5
33.68333,5
33.69167,5
33.70000,5
33.70833,5
33.71667,5
33.72500,5
33.73333,5
33.74167,5
33.75000,5
33.75833,5
33.76667,5
33.77500,4
33.78333,4
33.79167,4
33.80000,4
33.80833,4
33.81667,4
33.82500,4
33.83333,4
33.84167,4
33.85000,4
33.85833,4
33.86667,4
33.87500,4
33.88333,4
33.89167,4
33.90000,4
33.90833,4
33.91667,4
33.92500,4
33.93333,4
33.94167,4
33.95000,4
33.95833,4
33.96667,4
33.97500,4
33.98333,4
33.99167,4
34.00000,4
34.00833,4
34.01667,4
34.02500,4
34.03333,4
34.04167,4
34.05000,4
34.05833,4
34.06667,4
34.07500,4
34.08333,4
34.09167,4
34.10000,5
34.10833,5
34.11667,5
34.12500,5
34.13333,5
34.14167,5
34.15000,5
34.15833,5
34.16667,5
34.17500,5
34.18333,5
34.19167,5
34.20000,4
34.20833,4
34.21667,4
34.22500,5
34.23333,5
34.24167,4
34.25000,4
34.25833,4
34.26667,4
34.27500,4
34.28333,4
34.29167,4
34.30000,4
34.30833,4
34.31667,4
34.32500,5
34.33333,5
34.34167,5
34.35000,5
34.35833,5
34.36667,5
34.37500,5
34.38333,4
34.39167,4
34.40000,4
34.40833,4
34.41667,4
34.42500,4
34.43333,4
34.44167,4
34.45000,4
34.45833,5
34.46667,5
34.47500,5
34.48333,5
34.49167,5
34.50000,5
34.50833,5
34.51667,5
34.52500,5
34.53333,5
34.54167,5
34.55000,5
34.55833,5
34.56667,5
34.57500,5
34.58333,5
34.59167,4
34.60000,4
34.60833,4
34.61667,4
34.62500,4
34.63333,4
34.64167,4
34.65000,4
34.65833,4
34.66667,4
34.67500,3
34.68333,4
34.69167,4
34.70000,4
34.70833,4
34.71667,4
34.72500,4
34.73333,4
34.74167,4
34.75000,4
34.75833,4
34.76667,4
34.77500,4
34.78333,5
34.79167,5
34.80000,5
34.80833,5
34.81667,5
34.82500,5
34.83333,4
34.84167,4
34.85000,4
34.85833,4
34.86667,4
34.87500,4
34.88333,4
34.89167,3
34.90000,3
34.90833,3
34.91667,3
34.92500,3
34.93333,3
34.94167,3
34.95000,3
34.95833,3
34.96667,3
34.97500,4
34.98333,4
34.99167,4
35.00000,4
35.00833,4
35.01667,4
35.02500,4
35.03333,3
35.04167,3
35.05000,3
35.05833,3
35.06667,3
35.07500,4
35.08333,4
35.09167,3
35.10000,4
35.10833,4
35.11667,4
35.12500,4
35.13333,4
35.14167,4
35.15000,4
35.15833,4
35.16667,4
35.17500,4
35.18333,4
35.19167,4
35.20000,4
35.20833,4
35.21667,4
35.22500,4
35.23333,4
35.24167,4
35.25000,4
35.25833,4
35.26667,4
35.27500,3
35.28333,3
35.29167,3
35.30000,3
35.30833,3
35.31667,3
35.32500,3
35.33333,3
35.34167,3
35.35000,3
35.35833,3
35.36667,3
35.37500,3
35.38333,3
35.39167,3
35.40000,3
35.40833,2
35.41667,2
35.42500,2
35.43333,2
35.44167,2
35.45000,2
35.45833,2
35.46667,2
35.47500,3
35.48333,3
35.49167,2
35.50000,2
35.50833,2
35.51667,2
35.52500,2
35.53333,2
35.54167,2
35.55000,2
35.55833,2
35.56667,1
35.57500,1
35.58333,1
35.59167,2
35.60000,2
35.60833,2
35.61667,2
35.62500,2
35.63333,2
35.64167,2
35.65000,2
35.65833,2
35.66667,2
35.67500,2
35.68333,2
35.69167,2
35.70000,2
35.70833,3
35.71667,3
35.72500,3
35.73333,3
35.74167,3
35.75000,3
35.75833,3
35.76667,3
35.77500,3
35.78333,3
35.79167,3
35.80000,3
35.80833,3
35.81667,3
35.82500,3
35.83333,3
35.84167,3
35.85000,3
35.85833,3
35.86667,3
35.87500,3
35.88333,3
35.89167,3
35.90000,3
35.90833,3
35.91667,3
35.92500,3
35.93333,3
35.94167,3
35.95000,2
35.95833,2
35.96667,2
35.97500,2
35.98333,3
35.99167,3
36.00000,3
36.00833,3
36.01667,3
36.02500,3
36.03333,3
36.04167,4
36.05000,4
36.05833,4
36.06667,4
36.07500,4
36.08333,4
36.09167,4
36.10000,4
36.10833,4
36.11667,4
36.12500,3
36.13333,3
36.14167,3
36.15000,3
36.15833,3
36.16667,3
36.17500,3
36.18333,3
36.19167,2
36.20000,2
36.20833,2
36.21667,2
36.22500,2
36.23333,2
36.24167,2
36.25000,2
36.25833,2
36.26667,2
36.27500,2
36.28333,1
36.29167,1
36.30000,1
36.30833,1
36.31667,1
36.32500,1
36.33333,1
36.34167,1
36.35000,2
36.35833,2
36.36667,2
36.37500,2
36.38333,2
36.39167,3
36.40000,3
36.40833,3
36.41667,3
36.42500,3
36.43333,3
36.44167,3
36.45000,3
36.45833,3
36.46667,3
36.47500,4
36.48333,3
36.49167,4
36.50000,4
36.50833,4
36.51667,4
36.52500,3
36.53333,3
36.54167,3
36.55000,4
36.55833,3
36.56667,3
36.57500,3
36.58333,3
36.59167,3
36.60000,3
36.60833,3
36.61667,3
36.62500,3
36.63333,3
36.64167,3
36.65000,3
36.65833,3
36.66667,3
36.67500,3
36.68333,3
36.69167,3
36.70000,3
36.70833,3
36.71667,3
36.72500,3
36.73333,3
36.74167,3
36.75000,3
36.75833,3
36.76667,3
36.77500,3
36.78333,3
36.79167,3
36.80000,4
36.80833,4
36.81667,4
36.82500,4
36.83333,4
36.84167,4
36.85000,3
36.85833,3
36.86667,4
36.87500,4
36.88333,4
36.89167,4
36.90000,4
36.90833,4
36.91667,3
36.92500,3
36.93333,4
36.94167,4
36.95000,4
36.95833,4
36.96667,3
36.97500,3
36.98333,3
36.99167,3
37.00000,3
37.00833,3
37.01667,3
37.02500,3
37.03333,3
37.04167,3
37.05000,3
37.05833,3
37.06667,3
37.07500,3
37.08333,3
37.09167,4
37.10000,4
37.10833,3
37.11667,3
37.12500,3
37.13333,3
37.14167,3
37.15000,3
37.15833,3
37.16667,3
37.17500,2
37.18333,2
37.19167,2
37.20000,2
37.20833,3
37.21667,3
37.22500,3
37.23333,4
37.24167,4
37.25000,4
37.25833,3
37.26667,4
37.27500,4
37.28333,3
37.29167,3
37.30000,3
37.30833,4
37.31667,4
37.32500,4
37.33333,3
37.34167,3
37.35000,3
37.35833,3
37.36667,3
37.37500,3
37.38333,2
37.39167,2
37.40000,3
37.40833,3
37.41667,3
37.42500,3
37.43333,3
37.44167,4
37.45000,4
37.45833,4
37.46667,3
37.47500,3
37.48333,3
37.49167,3
37.50000,3
37.50833,3
37.51667,3
37.52500,3
37.53333,3
37.54167,3
37.55000,3
37.55833,3
37.56667,3
37.57500,3
37.58333,3
37.59167,3
37.60000,3
37.60833,3
37.61667,3
37.62500,3
37.63333,2
37.64167,3
37.65000,2
37.65833,2
37.66667,2
37.67500,2
37.68333,2
37.69167,2
37.70000,2
37.70833,2
37.71667,2
37.72500,2
37.73333,2
37.74167,2
37.75000,3
37.75833,2
37.76667,2
37.77500,2
37.78333,2
37.79167,2
37.80000,2
37.80833,2
37.81667,2
37.82500,2
37.83333,2
37.84167,2
37.85000,2
37.85833,2
37.86667,3
37.87500,3
37.88333,3
37.89167,3
37.90000,3
37.90833,3
37.91667,3
37.92500,4
37.93333,3
37.94167,3
37.95000,3
37.95833,4
37.96667,4
37.97500,4
37.98333,4
37.99167,4
38.00000,4
38.00833,4
38.01667,4
38.02500,4
38.03333,4
38.04167,4
38.05000,4
38.05833,4
38.06667,4
38.07500,4
38.08333,4
38.09167,5
38.10000,5
38.10833,4
38.11667,4
38.12500,4
38.13333,4
38.14167,4
38.15000,4
38.15833,5
38.16667,5
38.17500,5
38.18333,5
38.19167,5
38.20000,5
38.20833,5
38.21667,5
38.22500,6
38.23333,6
38.24167,6
38.25000,6
38.25833,6
38.26667,6
38.27500,6
38.28333,6
38.29167,6
38.30000,6
38.30833,6
38.31667,6
38.32500,6
38.33333,6
38.34167,6
38.35000,6
38.35833,6
38.36667,6
38.37500,6
38.38333,6
38.39167,6
38.40000,7
38.40833,7
38.41667,7
38.42500,7
38.43333,7
38.44167,7
38.45000,7
38.45833,7
38.46667,7
38.47500,7
38.48333,7
38.49167,7
38.50000,7
38.50833,7
38.51667,7
38.52500,7
38.53333,7
38.54167,7
38.55000,7
38.55833,7
38.56667,7
38.57500,7
38.58333,7
38.59167,7
38.60000,8
38.60833,8
38.61667,8
38.62500,7
38.63333,7
38.64167,7
38.65000,6
38.65833,6
38.66667,6
38.67500,5
38.68333,5
38.69167,5
38.70000,5
38.70833,5
38.71667,5
38.72500,5
38.73333,5
38.74167,5
38.75000,5
38.75833,5
38.76667,5
38.77500,5
38.78333,5
38.79167,5
38.80000,5
38.80833,5
38.81667,5
38.82500,5
38.83333,4
38.84167,4
38.85000,4
38.85833,3
38.86667,3
38.87500,3
38.88333,4
38.89167,4
38.90000,4
38.90833,4
38.91667,4
38.92500,4
38.93333,4
38.94167,3
38.95000,3
38.95833,3
38.96667,3
38.97500,3
38.98333,2
38.99167,2
39.00000,2
39.00833,2
39.01667,2
39.02500,1
39.03333,1
39.04167,1
39.05000,1
39.05833,2
39.06667,2
39.07500,2
39.08333,2
39.09167,2
39.10000,3
39.10833,3
39.11667,3
39.12500,3
39.13333,3
39.14167,3
39.15000,2
39.15833,2
39.16667,1
39.17500,1
39.18333,1
39.19167,1
39.20000,1
39.20833,0
39.21667,0
39.22500,-0
39.23333,0
39.24167,0
39.25000,1
39.25833,1
39.26667,1
39.27500,2
39.28333,2
39.29167,2
39.30000,2
39.30833,1
39.31667,1
39.32500,1
39.33333,1
39.34167,1
39.35000,1
39.35833,1
39.36667,1
39.37500,1
39.38333,1
39.39167,1
39.40000,1
39.40833,1
39.41667,1
39.42500,1
39.43333,1
39.44167,1
39.45000,1
39.45833,1
39.46667,1
39.47500,1
39.48333,1
39.49167,1
39.50000,1
39.50833,2
39.51667,2
39.52500,2
39.53333,2
39.54167,2
39.55000,1
39.55833,1
39.56667,1
39.57500,1
39.58333,1
39.59167,1
39.60000,1
39.60833,1
39.61667,1
39.62500,1
39.63333,1
39.64167,1
39.65000,1
39.65833,1
39.66667,1
39.67500,1
39.68333,1
39.69167,1
39.70000,1
39.70833,1
39.71667,1
39.72500,1
39.73333,1
39.74167,1
39.75000,1
39.75833,1
39.76667,0
39.77500,0
39.78333,0
39.79167,1
39.80000,1
39.80833,1
39.81667,1
39.82500,1
39.83333,2
39.84167,2
39.85000,2
39.85833,1
39.86667,1
39.87500,1
39.88333,1
39.89167,1
39.90000,1
39.90833,1
39.91667,1
39.92500,1
39.93333,1
39.94167,1
39.95000,1
39.95833,1
39.96667,0
39.97500,0
39.98333,0
39.99167,0
40.00000,1

