[Header]
Application Name,LabSolutions
Version,5.97 SP1
Data File Name,C:\Users\cremerlab\Desktop\griffin\2021-03-31_NC_glucose_glycerol_acetate_calibration\calibration_batch_422021_008_008.lcd
Output Date,4/3/2021
Output Time,1:05:12 AM

[File Information]
Type,Data File
Generated,4/3/2021 12:24:52 AM
Generated by,System Administrator
Modified,4/3/2021 1:05:12 AM
Modified by,System Administrator

[Sample Information]
Operator Name,System Administrator
Acquired,4/3/2021 12:25:11 AM
Sample Type,1:Standard
Level,8
Sample Name,2021-04-02_NC_glucose_glycerol_acetate_calibration_03mM
Sample ID,008
ISTD Amount1,1
ISTD Amount2,1
ISTD Amount3,1
ISTD Amount4,1
ISTD Amount5,1
ISTD Amount6,1
ISTD Amount7,1
ISTD Amount8,1
ISTD Amount9,1
ISTD Amount10,1
ISTD Amount11,1
ISTD Amount12,1
ISTD Amount13,1
ISTD Amount14,1
ISTD Amount15,1
ISTD Amount16,1
ISTD Amount17,1
ISTD Amount18,1
ISTD Amount19,1
ISTD Amount20,1
ISTD Amount21,1
ISTD Amount22,1
ISTD Amount23,1
ISTD Amount24,1
ISTD Amount25,1
ISTD Amount26,1
ISTD Amount27,1
ISTD Amount28,1
ISTD Amount29,1
ISTD Amount30,1
ISTD Amount31,1
ISTD Amount32,1
Sample Amount,1
Dilution Factor,1
Vial#,8
Injection Volume,20

[Original Files]
Data File,C:\Users\cremerlab\Desktop\griffin\2021-03-31_NC_glucose_glycerol_acetate_calibration\calibration_batch_422021_008_008.lcd
Method File,C:\LabSolutions\Data\Project1\organicacidsetc2.lcm
Batch File,C:\Users\cremerlab\Desktop\griffin\2021-03-31_NC_glucose_glycerol_acetate_calibration\calibration_batch.lcb
Report Format File,c:\LabSolutions\System\DEFAULT.lsr

[File Description]


[Configuration]
Instrument Name,HPLC-PC-Instrument1
Instrument #,1
Line #,1
# of Detectors,2
Detector ID,Detector A,Detector B
Detector Name,Detector A,Detector B
# of Channels,1,1

[Peak Table(Detector A)]
# of Peaks,0

[Peak Table(Detector B)]
# of Peaks,5
Peak#,R.Time,I.Time,F.Time,Area,Height,A/H,Conc.,Mark,ID#,Name,k',Plate #,Plate Ht.,Tailing,Resolution,Sep.Factor,Area Ratio,Height Ratio,Conc. %,Norm Conc.
1,11.054,10.750,12.392,1112851,64041,17.377,24.226,   ,,,0.000,10668,14.061,1.311,0.000,0.000,0,0,0.000,0.000
2,15.081,14.117,15.417,2875671,109850,26.178,62.601,   ,,,0.364,7234,20.736,0.000,7.082,0.000,0,0,0.000,0.000
3,15.640,15.417,18.317,431553,17268,24.991,9.395, V ,,,0.415,7229,20.749,0.000,0.774,1.139,0,0,0.000,0.000
4,22.067,21.425,23.000,114707,4262,26.915,2.497,   ,,,0.996,15437,9.717,1.090,8.889,2.402,0,0,0.000,0.000
5,25.060,24.408,25.883,58889,2019,29.161,1.282,   ,,,1.267,16755,8.952,1.061,4.031,1.272,0,0,0.000,0.000

[LC Chromatogram(Detector B-Ch1)]
Interval(msec),500
# of Points,4801
Start Time(min),0.000
End Time(min),40.000
Intensity Units,mV
Intensity Multiplier,0.001
R.Time (min),Intensity
0.00000,-0
0.00833,-0
0.01667,0
0.02500,0
0.03333,-0
0.04167,-0
0.05000,-1
0.05833,-1
0.06667,-1
0.07500,-1
0.08333,-1
0.09167,-1
0.10000,-1
0.10833,-1
0.11667,-1
0.12500,-1
0.13333,-1
0.14167,-1
0.15000,-1
0.15833,-1
0.16667,-1
0.17500,-1
0.18333,-2
0.19167,-2
0.20000,-1
0.20833,-1
0.21667,-0
0.22500,-0
0.23333,0
0.24167,-0
0.25000,-0
0.25833,-0
0.26667,-0
0.27500,-0
0.28333,-0
0.29167,-1
0.30000,-1
0.30833,-1
0.31667,-0
0.32500,-0
0.33333,-0
0.34167,-1
0.35000,-1
0.35833,-1
0.36667,-1
0.37500,-1
0.38333,-1
0.39167,-1
0.40000,-1
0.40833,-1
0.41667,-1
0.42500,-1
0.43333,-1
0.44167,-1
0.45000,-1
0.45833,-1
0.46667,-1
0.47500,-2
0.48333,-2
0.49167,-1
0.50000,-1
0.50833,-1
0.51667,-1
0.52500,-1
0.53333,-0
0.54167,-0
0.55000,-1
0.55833,-1
0.56667,-1
0.57500,-1
0.58333,-1
0.59167,-1
0.60000,-1
0.60833,-1
0.61667,-1
0.62500,-1
0.63333,-2
0.64167,-2
0.65000,-2
0.65833,-2
0.66667,-2
0.67500,-2
0.68333,-2
0.69167,-2
0.70000,-2
0.70833,-2
0.71667,-2
0.72500,-2
0.73333,-3
0.74167,-3
0.75000,-3
0.75833,-3
0.76667,-3
0.77500,-3
0.78333,-3
0.79167,-2
0.80000,-2
0.80833,-2
0.81667,-2
0.82500,-2
0.83333,-2
0.84167,-1
0.85000,-1
0.85833,-1
0.86667,-1
0.87500,-1
0.88333,-1
0.89167,-1
0.90000,-1
0.90833,-1
0.91667,-1
0.92500,-1
0.93333,-2
0.94167,-2
0.95000,-2
0.95833,-1
0.96667,-1
0.97500,-1
0.98333,-1
0.99167,-1
1.00000,-1
1.00833,-1
1.01667,-1
1.02500,-1
1.03333,-1
1.04167,-1
1.05000,-1
1.05833,-1
1.06667,-1
1.07500,-1
1.08333,-1
1.09167,-1
1.10000,-1
1.10833,-1
1.11667,-1
1.12500,-1
1.13333,-1
1.14167,-2
1.15000,-2
1.15833,-2
1.16667,-2
1.17500,-2
1.18333,-2
1.19167,-2
1.20000,-2
1.20833,-2
1.21667,-2
1.22500,-2
1.23333,-1
1.24167,-1
1.25000,-1
1.25833,-1
1.26667,-1
1.27500,-1
1.28333,-1
1.29167,-0
1.30000,-0
1.30833,-1
1.31667,-1
1.32500,-0
1.33333,-0
1.34167,-0
1.35000,-0
1.35833,-0
1.36667,-0
1.37500,-0
1.38333,-0
1.39167,-0
1.40000,-0
1.40833,-1
1.41667,-0
1.42500,-0
1.43333,-0
1.44167,-0
1.45000,-0
1.45833,-1
1.46667,-1
1.47500,-1
1.48333,-1
1.49167,-0
1.50000,-0
1.50833,-0
1.51667,-1
1.52500,-1
1.53333,-0
1.54167,-0
1.55000,-1
1.55833,-1
1.56667,-1
1.57500,-1
1.58333,-1
1.59167,-1
1.60000,-1
1.60833,-1
1.61667,-1
1.62500,-2
1.63333,-2
1.64167,-1
1.65000,-1
1.65833,-1
1.66667,-1
1.67500,-0
1.68333,-1
1.69167,-1
1.70000,-1
1.70833,-1
1.71667,-1
1.72500,-1
1.73333,-1
1.74167,-1
1.75000,-1
1.75833,-1
1.76667,-1
1.77500,-1
1.78333,-1
1.79167,-1
1.80000,-1
1.80833,-1
1.81667,-1
1.82500,-1
1.83333,-1
1.84167,-2
1.85000,-2
1.85833,-2
1.86667,-2
1.87500,-2
1.88333,-2
1.89167,-2
1.90000,-2
1.90833,-2
1.91667,-2
1.92500,-2
1.93333,-1
1.94167,-1
1.95000,-1
1.95833,-1
1.96667,-1
1.97500,-1
1.98333,-2
1.99167,-2
2.00000,-1
2.00833,-1
2.01667,-1
2.02500,-1
2.03333,-1
2.04167,-1
2.05000,-1
2.05833,-1
2.06667,-2
2.07500,-1
2.08333,-1
2.09167,-2
2.10000,-2
2.10833,-2
2.11667,-2
2.12500,-2
2.13333,-2
2.14167,-3
2.15000,-3
2.15833,-3
2.16667,-3
2.17500,-3
2.18333,-3
2.19167,-3
2.20000,-3
2.20833,-3
2.21667,-3
2.22500,-3
2.23333,-3
2.24167,-3
2.25000,-3
2.25833,-3
2.26667,-3
2.27500,-3
2.28333,-3
2.29167,-4
2.30000,-4
2.30833,-4
2.31667,-4
2.32500,-4
2.33333,-4
2.34167,-4
2.35000,-4
2.35833,-4
2.36667,-4
2.37500,-4
2.38333,-4
2.39167,-4
2.40000,-4
2.40833,-3
2.41667,-3
2.42500,-3
2.43333,-4
2.44167,-4
2.45000,-4
2.45833,-4
2.46667,-4
2.47500,-4
2.48333,-4
2.49167,-4
2.50000,-3
2.50833,-3
2.51667,-4
2.52500,-4
2.53333,-5
2.54167,-5
2.55000,-5
2.55833,-5
2.56667,-4
2.57500,-4
2.58333,-5
2.59167,-4
2.60000,-4
2.60833,-4
2.61667,-5
2.62500,-5
2.63333,-5
2.64167,-5
2.65000,-5
2.65833,-5
2.66667,-5
2.67500,-5
2.68333,-5
2.69167,-5
2.70000,-5
2.70833,-5
2.71667,-5
2.72500,-6
2.73333,-6
2.74167,-6
2.75000,-6
2.75833,-6
2.76667,-5
2.77500,-5
2.78333,-5
2.79167,-5
2.80000,-5
2.80833,-4
2.81667,-4
2.82500,-5
2.83333,-5
2.84167,-5
2.85000,-5
2.85833,-5
2.86667,-5
2.87500,-5
2.88333,-5
2.89167,-5
2.90000,-5
2.90833,-5
2.91667,-5
2.92500,-5
2.93333,-5
2.94167,-5
2.95000,-5
2.95833,-5
2.96667,-5
2.97500,-5
2.98333,-5
2.99167,-5
3.00000,-5
3.00833,-5
3.01667,-5
3.02500,-5
3.03333,-5
3.04167,-5
3.05000,-5
3.05833,-5
3.06667,-5
3.07500,-5
3.08333,-5
3.09167,-5
3.10000,-5
3.10833,-5
3.11667,-5
3.12500,-5
3.13333,-5
3.14167,-5
3.15000,-5
3.15833,-5
3.16667,-5
3.17500,-5
3.18333,-5
3.19167,-5
3.20000,-5
3.20833,-5
3.21667,-6
3.22500,-5
3.23333,-5
3.24167,-6
3.25000,-6
3.25833,-5
3.26667,-5
3.27500,-5
3.28333,-5
3.29167,-6
3.30000,-6
3.30833,-6
3.31667,-6
3.32500,-6
3.33333,-6
3.34167,-6
3.35000,-6
3.35833,-6
3.36667,-6
3.37500,-6
3.38333,-6
3.39167,-6
3.40000,-5
3.40833,-5
3.41667,-5
3.42500,-5
3.43333,-5
3.44167,-5
3.45000,-5
3.45833,-5
3.46667,-5
3.47500,-5
3.48333,-5
3.49167,-6
3.50000,-6
3.50833,-6
3.51667,-5
3.52500,-5
3.53333,-5
3.54167,-5
3.55000,-5
3.55833,-5
3.56667,-5
3.57500,-5
3.58333,-5
3.59167,-5
3.60000,-5
3.60833,-5
3.61667,-5
3.62500,-5
3.63333,-4
3.64167,-4
3.65000,-4
3.65833,-4
3.66667,-4
3.67500,-4
3.68333,-5
3.69167,-5
3.70000,-5
3.70833,-5
3.71667,-4
3.72500,-4
3.73333,-4
3.74167,-4
3.75000,-5
3.75833,-5
3.76667,-5
3.77500,-5
3.78333,-4
3.79167,-4
3.80000,-4
3.80833,-4
3.81667,-4
3.82500,-4
3.83333,-5
3.84167,-5
3.85000,-5
3.85833,-5
3.86667,-5
3.87500,-5
3.88333,-5
3.89167,-5
3.90000,-4
3.90833,-4
3.91667,-4
3.92500,-4
3.93333,-4
3.94167,-4
3.95000,-4
3.95833,-4
3.96667,-4
3.97500,-3
3.98333,-4
3.99167,-4
4.00000,-4
4.00833,-4
4.01667,-4
4.02500,-4
4.03333,-5
4.04167,-5
4.05000,-5
4.05833,-5
4.06667,-5
4.07500,-5
4.08333,-5
4.09167,-5
4.10000,-5
4.10833,-5
4.11667,-5
4.12500,-6
4.13333,-5
4.14167,-5
4.15000,-5
4.15833,-5
4.16667,-5
4.17500,-4
4.18333,-4
4.19167,-4
4.20000,-4
4.20833,-4
4.21667,-4
4.22500,-5
4.23333,-5
4.24167,-5
4.25000,-6
4.25833,-6
4.26667,-6
4.27500,-6
4.28333,-5
4.29167,-5
4.30000,-5
4.30833,-5
4.31667,-5
4.32500,-5
4.33333,-5
4.34167,-5
4.35000,-6
4.35833,-6
4.36667,-5
4.37500,-5
4.38333,-6
4.39167,-6
4.40000,-6
4.40833,-6
4.41667,-6
4.42500,-6
4.43333,-6
4.44167,-7
4.45000,-6
4.45833,-6
4.46667,-6
4.47500,-6
4.48333,-6
4.49167,-5
4.50000,-5
4.50833,-5
4.51667,-5
4.52500,-5
4.53333,-6
4.54167,-6
4.55000,-6
4.55833,-6
4.56667,-5
4.57500,-5
4.58333,-5
4.59167,-5
4.60000,-5
4.60833,-5
4.61667,-6
4.62500,-6
4.63333,-6
4.64167,-6
4.65000,-6
4.65833,-6
4.66667,-6
4.67500,-6
4.68333,-6
4.69167,-6
4.70000,-6
4.70833,-6
4.71667,-6
4.72500,-7
4.73333,-7
4.74167,-7
4.75000,-7
4.75833,-7
4.76667,-6
4.77500,-6
4.78333,-6
4.79167,-7
4.80000,-7
4.80833,-7
4.81667,-7
4.82500,-7
4.83333,-7
4.84167,-7
4.85000,-7
4.85833,-6
4.86667,-6
4.87500,-6
4.88333,-6
4.89167,-6
4.90000,-6
4.90833,-6
4.91667,-5
4.92500,-6
4.93333,-6
4.94167,-6
4.95000,-6
4.95833,-6
4.96667,-6
4.97500,-6
4.98333,-6
4.99167,-6
5.00000,-6
5.00833,-6
5.01667,-6
5.02500,-6
5.03333,-6
5.04167,-6
5.05000,-6
5.05833,-6
5.06667,-6
5.07500,-6
5.08333,-7
5.09167,-7
5.10000,-7
5.10833,-7
5.11667,-7
5.12500,-7
5.13333,-6
5.14167,-6
5.15000,-6
5.15833,-6
5.16667,-6
5.17500,-6
5.18333,-6
5.19167,-6
5.20000,-6
5.20833,-6
5.21667,-7
5.22500,-7
5.23333,-7
5.24167,-7
5.25000,-7
5.25833,-7
5.26667,-7
5.27500,-7
5.28333,-7
5.29167,-7
5.30000,-7
5.30833,-7
5.31667,-7
5.32500,-7
5.33333,-7
5.34167,-7
5.35000,-7
5.35833,-7
5.36667,-7
5.37500,-7
5.38333,-7
5.39167,-7
5.40000,-6
5.40833,-7
5.41667,-7
5.42500,-7
5.43333,-7
5.44167,-8
5.45000,-8
5.45833,-8
5.46667,-8
5.47500,-8
5.48333,-8
5.49167,-8
5.50000,-8
5.50833,-7
5.51667,-7
5.52500,-7
5.53333,-7
5.54167,-7
5.55000,-8
5.55833,-8
5.56667,-8
5.57500,-8
5.58333,-8
5.59167,-7
5.60000,-7
5.60833,-7
5.61667,-7
5.62500,-8
5.63333,-8
5.64167,-8
5.65000,-8
5.65833,-9
5.66667,-8
5.67500,-8
5.68333,-8
5.69167,-8
5.70000,-8
5.70833,-8
5.71667,-8
5.72500,-7
5.73333,-7
5.74167,-8
5.75000,-7
5.75833,-7
5.76667,-8
5.77500,-8
5.78333,-8
5.79167,-8
5.80000,-8
5.80833,-8
5.81667,-8
5.82500,-8
5.83333,-8
5.84167,-8
5.85000,-9
5.85833,-9
5.86667,-9
5.87500,-9
5.88333,-9
5.89167,-9
5.90000,-9
5.90833,-9
5.91667,-9
5.92500,-8
5.93333,-8
5.94167,-8
5.95000,-8
5.95833,-8
5.96667,-8
5.97500,-9
5.98333,-9
5.99167,-9
6.00000,-8
6.00833,-8
6.01667,-8
6.02500,-8
6.03333,-8
6.04167,-8
6.05000,-8
6.05833,-8
6.06667,-8
6.07500,-8
6.08333,-8
6.09167,-8
6.10000,-9
6.10833,-9
6.11667,-9
6.12500,-8
6.13333,-9
6.14167,-9
6.15000,-9
6.15833,-9
6.16667,-9
6.17500,-9
6.18333,-9
6.19167,-10
6.20000,-10
6.20833,-10
6.21667,-10
6.22500,-9
6.23333,-9
6.24167,-9
6.25000,-9
6.25833,-9
6.26667,-10
6.27500,-9
6.28333,-9
6.29167,-9
6.30000,-9
6.30833,-9
6.31667,-9
6.32500,-9
6.33333,-9
6.34167,-9
6.35000,-8
6.35833,-8
6.36667,-9
6.37500,-8
6.38333,-9
6.39167,-9
6.40000,-9
6.40833,-9
6.41667,-9
6.42500,-9
6.43333,-9
6.44167,-9
6.45000,-9
6.45833,-9
6.46667,-8
6.47500,-8
6.48333,-8
6.49167,-8
6.50000,-8
6.50833,-8
6.51667,-8
6.52500,-8
6.53333,-8
6.54167,-8
6.55000,-8
6.55833,-8
6.56667,-8
6.57500,-9
6.58333,-9
6.59167,-9
6.60000,-9
6.60833,-9
6.61667,-9
6.62500,-9
6.63333,-9
6.64167,-9
6.65000,-9
6.65833,-9
6.66667,-9
6.67500,-9
6.68333,-10
6.69167,-10
6.70000,-10
6.70833,-10
6.71667,-9
6.72500,-9
6.73333,-9
6.74167,-9
6.75000,-9
6.75833,-9
6.76667,-9
6.77500,-10
6.78333,-10
6.79167,-10
6.80000,-9
6.80833,-9
6.81667,-8
6.82500,-8
6.83333,-8
6.84167,-8
6.85000,-8
6.85833,-8
6.86667,-8
6.87500,-8
6.88333,-8
6.89167,-8
6.90000,-8
6.90833,-8
6.91667,-8
6.92500,-8
6.93333,-8
6.94167,-8
6.95000,-8
6.95833,-8
6.96667,-8
6.97500,-8
6.98333,-8
6.99167,-8
7.00000,-8
7.00833,-8
7.01667,-8
7.02500,-7
7.03333,-7
7.04167,-7
7.05000,-7
7.05833,-7
7.06667,-7
7.07500,-7
7.08333,-7
7.09167,-7
7.10000,-7
7.10833,-8
7.11667,-8
7.12500,-8
7.13333,-8
7.14167,-8
7.15000,-8
7.15833,-8
7.16667,-8
7.17500,-8
7.18333,-8
7.19167,-8
7.20000,-9
7.20833,-9
7.21667,-9
7.22500,-9
7.23333,-9
7.24167,-8
7.25000,-8
7.25833,-8
7.26667,-9
7.27500,-9
7.28333,-9
7.29167,-9
7.30000,-9
7.30833,-10
7.31667,-10
7.32500,-10
7.33333,-10
7.34167,-10
7.35000,-10
7.35833,-10
7.36667,-9
7.37500,-9
7.38333,-9
7.39167,-9
7.40000,-10
7.40833,-10
7.41667,-10
7.42500,-11
7.43333,-11
7.44167,-11
7.45000,-11
7.45833,-10
7.46667,-10
7.47500,-10
7.48333,-9
7.49167,-9
7.50000,-9
7.50833,-9
7.51667,-9
7.52500,-9
7.53333,-9
7.54167,-9
7.55000,-9
7.55833,-10
7.56667,-10
7.57500,-10
7.58333,-10
7.59167,-9
7.60000,-9
7.60833,-8
7.61667,-9
7.62500,-9
7.63333,-9
7.64167,-9
7.65000,-9
7.65833,-9
7.66667,-9
7.67500,-10
7.68333,-10
7.69167,-10
7.70000,-10
7.70833,-10
7.71667,-10
7.72500,-9
7.73333,-9
7.74167,-8
7.75000,-8
7.75833,-8
7.76667,-8
7.77500,-8
7.78333,-8
7.79167,-8
7.80000,-8
7.80833,-8
7.81667,-8
7.82500,-8
7.83333,-8
7.84167,-9
7.85000,-9
7.85833,-9
7.86667,-9
7.87500,-9
7.88333,-9
7.89167,-9
7.90000,-9
7.90833,-9
7.91667,-9
7.92500,-9
7.93333,-9
7.94167,-9
7.95000,-9
7.95833,-9
7.96667,-10
7.97500,-10
7.98333,-10
7.99167,-9
8.00000,-9
8.00833,-9
8.01667,-9
8.02500,-9
8.03333,-9
8.04167,-9
8.05000,-9
8.05833,-10
8.06667,-10
8.07500,-10
8.08333,-10
8.09167,-10
8.10000,-10
8.10833,-10
8.11667,-10
8.12500,-10
8.13333,-10
8.14167,-10
8.15000,-9
8.15833,-9
8.16667,-9
8.17500,-9
8.18333,-9
8.19167,-9
8.20000,-9
8.20833,-9
8.21667,-9
8.22500,-9
8.23333,-10
8.24167,-10
8.25000,-10
8.25833,-11
8.26667,-11
8.27500,-10
8.28333,-10
8.29167,-10
8.30000,-10
8.30833,-10
8.31667,-10
8.32500,-9
8.33333,-9
8.34167,-9
8.35000,-9
8.35833,-9
8.36667,-9
8.37500,-9
8.38333,-9
8.39167,-9
8.40000,-9
8.40833,-9
8.41667,-9
8.42500,-10
8.43333,-10
8.44167,-10
8.45000,-10
8.45833,-10
8.46667,-9
8.47500,-9
8.48333,-8
8.49167,-9
8.50000,-9
8.50833,-9
8.51667,-9
8.52500,-10
8.53333,-10
8.54167,-10
8.55000,-10
8.55833,-10
8.56667,-10
8.57500,-10
8.58333,-10
8.59167,-10
8.60000,-10
8.60833,-10
8.61667,-10
8.62500,-10
8.63333,-10
8.64167,-10
8.65000,-10
8.65833,-10
8.66667,-10
8.67500,-9
8.68333,-9
8.69167,-9
8.70000,-9
8.70833,-9
8.71667,-9
8.72500,-9
8.73333,-9
8.74167,-10
8.75000,-10
8.75833,-10
8.76667,-10
8.77500,-10
8.78333,-9
8.79167,-9
8.80000,-9
8.80833,-9
8.81667,-10
8.82500,-10
8.83333,-10
8.84167,-10
8.85000,-10
8.85833,-10
8.86667,-10
8.87500,-10
8.88333,-10
8.89167,-10
8.90000,-10
8.90833,-10
8.91667,-10
8.92500,-10
8.93333,-10
8.94167,-10
8.95000,-9
8.95833,-9
8.96667,-9
8.97500,-9
8.98333,-10
8.99167,-10
9.00000,-10
9.00833,-10
9.01667,-10
9.02500,-10
9.03333,-10
9.04167,-10
9.05000,-10
9.05833,-11
9.06667,-11
9.07500,-11
9.08333,-11
9.09167,-11
9.10000,-10
9.10833,-10
9.11667,-10
9.12500,-10
9.13333,-11
9.14167,-11
9.15000,-11
9.15833,-12
9.16667,-12
9.17500,-12
9.18333,-12
9.19167,-11
9.20000,-11
9.20833,-10
9.21667,-10
9.22500,-10
9.23333,-11
9.24167,-11
9.25000,-11
9.25833,-11
9.26667,-12
9.27500,-12
9.28333,-12
9.29167,-11
9.30000,-11
9.30833,-11
9.31667,-10
9.32500,-10
9.33333,-10
9.34167,-10
9.35000,-11
9.35833,-11
9.36667,-11
9.37500,-11
9.38333,-11
9.39167,-11
9.40000,-11
9.40833,-11
9.41667,-11
9.42500,-11
9.43333,-11
9.44167,-10
9.45000,-10
9.45833,-10
9.46667,-10
9.47500,-10
9.48333,-10
9.49167,-10
9.50000,-10
9.50833,-10
9.51667,-10
9.52500,-10
9.53333,-10
9.54167,-9
9.55000,-9
9.55833,-9
9.56667,-9
9.57500,-9
9.58333,-9
9.59167,-9
9.60000,-9
9.60833,-10
9.61667,-10
9.62500,-10
9.63333,-10
9.64167,-10
9.65000,-11
9.65833,-11
9.66667,-10
9.67500,-10
9.68333,-10
9.69167,-10
9.70000,-9
9.70833,-9
9.71667,-10
9.72500,-10
9.73333,-10
9.74167,-10
9.75000,-11
9.75833,-11
9.76667,-10
9.77500,-10
9.78333,-10
9.79167,-10
9.80000,-10
9.80833,-10
9.81667,-10
9.82500,-9
9.83333,-9
9.84167,-9
9.85000,-10
9.85833,-10
9.86667,-10
9.87500,-10
9.88333,-10
9.89167,-10
9.90000,-10
9.90833,-10
9.91667,-10
9.92500,-10
9.93333,-11
9.94167,-11
9.95000,-11
9.95833,-11
9.96667,-11
9.97500,-10
9.98333,-10
9.99167,-10
10.00000,-10
10.00833,-10
10.01667,-10
10.02500,-10
10.03333,-10
10.04167,-10
10.05000,-9
10.05833,-10
10.06667,-10
10.07500,-10
10.08333,-10
10.09167,-11
10.10000,-11
10.10833,-11
10.11667,-11
10.12500,-11
10.13333,-10
10.14167,-10
10.15000,-10
10.15833,-10
10.16667,-10
10.17500,-10
10.18333,-10
10.19167,-11
10.20000,-11
10.20833,-11
10.21667,-10
10.22500,-10
10.23333,-10
10.24167,-10
10.25000,-10
10.25833,-10
10.26667,-10
10.27500,-9
10.28333,-9
10.29167,-9
10.30000,-9
10.30833,-9
10.31667,-9
10.32500,-9
10.33333,-9
10.34167,-9
10.35000,-9
10.35833,-8
10.36667,-8
10.37500,-8
10.38333,-7
10.39167,-7
10.40000,-7
10.40833,-7
10.41667,-7
10.42500,-6
10.43333,-6
10.44167,-6
10.45000,-6
10.45833,-6
10.46667,-6
10.47500,-6
10.48333,-7
10.49167,-7
10.50000,-9
10.50833,-11
10.51667,-14
10.52500,-20
10.53333,-28
10.54167,-39
10.55000,-54
10.55833,-75
10.56667,-101
10.57500,-136
10.58333,-181
10.59167,-239
10.60000,-310
10.60833,-397
10.61667,-503
10.62500,-629
10.63333,-776
10.64167,-946
10.65000,-1139
10.65833,-1354
10.66667,-1590
10.67500,-1842
10.68333,-2109
10.69167,-2382
10.70000,-2656
10.70833,-2921
10.71667,-3167
10.72500,-3385
10.73333,-3561
10.74167,-3683
10.75000,-3739
10.75833,-3714
10.76667,-3596
10.77500,-3373
10.78333,-3032
10.79167,-2562
10.80000,-1954
10.80833,-1198
10.81667,-286
10.82500,786
10.83333,2024
10.84167,3432
10.85000,5009
10.85833,6756
10.86667,8671
10.87500,10751
10.88333,12991
10.89167,15384
10.90000,17921
10.90833,20590
10.91667,23379
10.92500,26271
10.93333,29247
10.94167,32284
10.95000,35357
10.95833,38436
10.96667,41487
10.97500,44472
10.98333,47349
10.99167,50072
11.00000,52596
11.00833,54871
11.01667,56851
11.02500,58490
11.03333,59749
11.04167,60598
11.05000,61012
11.05833,60980
11.06667,60502
11.07500,59591
11.08333,58272
11.09167,56577
11.10000,54551
11.10833,52244
11.11667,49709
11.12500,47001
11.13333,44176
11.14167,41286
11.15000,38379
11.15833,35498
11.16667,32680
11.17500,29955
11.18333,27348
11.19167,24877
11.20000,22554
11.20833,20387
11.21667,18379
11.22500,16528
11.23333,14833
11.24167,13287
11.25000,11884
11.25833,10615
11.26667,9473
11.27500,8447
11.28333,7529
11.29167,6709
11.30000,5978
11.30833,5328
11.31667,4751
11.32500,4239
11.33333,3787
11.34167,3386
11.35000,3033
11.35833,2721
11.36667,2446
11.37500,2203
11.38333,1989
11.39167,1800
11.40000,1633
11.40833,1486
11.41667,1356
11.42500,1240
11.43333,1138
11.44167,1048
11.45000,968
11.45833,896
11.46667,832
11.47500,776
11.48333,725
11.49167,679
11.50000,638
11.50833,601
11.51667,568
11.52500,538
11.53333,510
11.54167,484
11.55000,461
11.55833,440
11.56667,420
11.57500,402
11.58333,386
11.59167,371
11.60000,356
11.60833,343
11.61667,331
11.62500,319
11.63333,309
11.64167,298
11.65000,289
11.65833,279
11.66667,271
11.67500,263
11.68333,255
11.69167,248
11.70000,241
11.70833,235
11.71667,229
11.72500,224
11.73333,218
11.74167,213
11.75000,209
11.75833,204
11.76667,199
11.77500,195
11.78333,191
11.79167,187
11.80000,184
11.80833,181
11.81667,177
11.82500,174
11.83333,171
11.84167,169
11.85000,166
11.85833,163
11.86667,161
11.87500,159
11.88333,156
11.89167,154
11.90000,152
11.90833,151
11.91667,149
11.92500,147
11.93333,146
11.94167,144
11.95000,143
11.95833,141
11.96667,139
11.97500,138
11.98333,136
11.99167,135
12.00000,134
12.00833,133
12.01667,133
12.02500,132
12.03333,131
12.04167,130
12.05000,129
12.05833,128
12.06667,127
12.07500,126
12.08333,125
12.09167,124
12.10000,123
12.10833,123
12.11667,122
12.12500,121
12.13333,120
12.14167,119
12.15000,118
12.15833,117
12.16667,116
12.17500,115
12.18333,114
12.19167,113
12.20000,112
12.20833,111
12.21667,110
12.22500,109
12.23333,109
12.24167,108
12.25000,108
12.25833,107
12.26667,107
12.27500,106
12.28333,105
12.29167,104
12.30000,104
12.30833,103
12.31667,102
12.32500,102
12.33333,101
12.34167,100
12.35000,99
12.35833,98
12.36667,97
12.37500,97
12.38333,97
12.39167,96
12.40000,96
12.40833,95
12.41667,94
12.42500,94
12.43333,93
12.44167,93
12.45000,92
12.45833,92
12.46667,91
12.47500,91
12.48333,91
12.49167,90
12.50000,90
12.50833,89
12.51667,88
12.52500,87
12.53333,86
12.54167,86
12.55000,86
12.55833,85
12.56667,84
12.57500,83
12.58333,83
12.59167,82
12.60000,82
12.60833,81
12.61667,81
12.62500,80
12.63333,80
12.64167,80
12.65000,79
12.65833,79
12.66667,79
12.67500,78
12.68333,77
12.69167,77
12.70000,76
12.70833,76
12.71667,75
12.72500,75
12.73333,74
12.74167,73
12.75000,73
12.75833,73
12.76667,72
12.77500,72
12.78333,71
12.79167,71
12.80000,70
12.80833,70
12.81667,69
12.82500,68
12.83333,68
12.84167,67
12.85000,67
12.85833,66
12.86667,66
12.87500,65
12.88333,65
12.89167,64
12.90000,64
12.90833,64
12.91667,63
12.92500,63
12.93333,63
12.94167,63
12.95000,62
12.95833,62
12.96667,61
12.97500,61
12.98333,61
12.99167,60
13.00000,60
13.00833,60
13.01667,59
13.02500,59
13.03333,59
13.04167,58
13.05000,58
13.05833,58
13.06667,57
13.07500,57
13.08333,56
13.09167,56
13.10000,55
13.10833,55
13.11667,54
13.12500,54
13.13333,53
13.14167,53
13.15000,52
13.15833,52
13.16667,51
13.17500,51
13.18333,50
13.19167,50
13.20000,49
13.20833,49
13.21667,48
13.22500,48
13.23333,47
13.24167,46
13.25000,46
13.25833,46
13.26667,45
13.27500,45
13.28333,44
13.29167,43
13.30000,42
13.30833,42
13.31667,41
13.32500,40
13.33333,40
13.34167,39
13.35000,39
13.35833,38
13.36667,38
13.37500,37
13.38333,36
13.39167,36
13.40000,35
13.40833,34
13.41667,33
13.42500,32
13.43333,32
13.44167,31
13.45000,30
13.45833,30
13.46667,29
13.47500,28
13.48333,28
13.49167,27
13.50000,27
13.50833,26
13.51667,26
13.52500,26
13.53333,26
13.54167,25
13.55000,25
13.55833,24
13.56667,24
13.57500,23
13.58333,23
13.59167,23
13.60000,23
13.60833,22
13.61667,22
13.62500,21
13.63333,21
13.64167,20
13.65000,21
13.65833,21
13.66667,21
13.67500,21
13.68333,21
13.69167,20
13.70000,20
13.70833,20
13.71667,20
13.72500,20
13.73333,20
13.74167,20
13.75000,20
13.75833,20
13.76667,20
13.77500,20
13.78333,20
13.79167,20
13.80000,20
13.80833,20
13.81667,20
13.82500,20
13.83333,20
13.84167,21
13.85000,21
13.85833,21
13.86667,21
13.87500,21
13.88333,21
13.89167,21
13.90000,21
13.90833,22
13.91667,22
13.92500,22
13.93333,23
13.94167,23
13.95000,23
13.95833,23
13.96667,23
13.97500,23
13.98333,24
13.99167,25
14.00000,25
14.00833,26
14.01667,26
14.02500,26
14.03333,26
14.04167,27
14.05000,27
14.05833,27
14.06667,28
14.07500,29
14.08333,30
14.09167,31
14.10000,31
14.10833,32
14.11667,33
14.12500,34
14.13333,35
14.14167,36
14.15000,38
14.15833,40
14.16667,43
14.17500,45
14.18333,49
14.19167,53
14.20000,58
14.20833,65
14.21667,72
14.22500,81
14.23333,92
14.24167,104
14.25000,119
14.25833,137
14.26667,160
14.27500,186
14.28333,218
14.29167,256
14.30000,301
14.30833,354
14.31667,417
14.32500,490
14.33333,575
14.34167,675
14.35000,790
14.35833,923
14.36667,1074
14.37500,1244
14.38333,1437
14.39167,1654
14.40000,1896
14.40833,2164
14.41667,2462
14.42500,2789
14.43333,3147
14.44167,3538
14.45000,3962
14.45833,4420
14.46667,4914
14.47500,5444
14.48333,6010
14.49167,6612
14.50000,7251
14.50833,7926
14.51667,8639
14.52500,9387
14.53333,10173
14.54167,10994
14.55000,11851
14.55833,12743
14.56667,13670
14.57500,14631
14.58333,15625
14.59167,16653
14.60000,17713
14.60833,18805
14.61667,19928
14.62500,21082
14.63333,22265
14.64167,23478
14.65000,24719
14.65833,25989
14.66667,27286
14.67500,28610
14.68333,29960
14.69167,31337
14.70000,32739
14.70833,34167
14.71667,35620
14.72500,37096
14.73333,38597
14.74167,40121
14.75000,41668
14.75833,43239
14.76667,44832
14.77500,46448
14.78333,48085
14.79167,49745
14.80000,51426
14.80833,53129
14.81667,54853
14.82500,56598
14.83333,58363
14.84167,60149
14.85000,61954
14.85833,63779
14.86667,65622
14.87500,67484
14.88333,69365
14.89167,71262
14.90000,73177
14.90833,75109
14.91667,77055
14.92500,79016
14.93333,80990
14.94167,82975
14.95000,84971
14.95833,86974
14.96667,88982
14.97500,90991
14.98333,92997
14.99167,94992
15.00000,96967
15.00833,98910
15.01667,100802
15.02500,102620
15.03333,104335
15.04167,105910
15.05000,107298
15.05833,108449
15.06667,109305
15.07500,109807
15.08333,109894
15.09167,109514
15.10000,108620
15.10833,107178
15.11667,105172
15.12500,102602
15.13333,99490
15.14167,95876
15.15000,91815
15.15833,87376
15.16667,82641
15.17500,77695
15.18333,72627
15.19167,67522
15.20000,62461
15.20833,57512
15.21667,52737
15.22500,48185
15.23333,43891
15.24167,39881
15.25000,36171
15.25833,32766
15.26667,29664
15.27500,26860
15.28333,24340
15.29167,22090
15.30000,20093
15.30833,18332
15.31667,16787
15.32500,15441
15.33333,14279
15.34167,13283
15.35000,12439
15.35833,11733
15.36667,11155
15.37500,10692
15.38333,10335
15.39167,10075
15.40000,9904
15.40833,9814
15.41667,9798
15.42500,9851
15.43333,9965
15.44167,10136
15.45000,10358
15.45833,10624
15.46667,10930
15.47500,11270
15.48333,11639
15.49167,12031
15.50000,12440
15.50833,12861
15.51667,13288
15.52500,13717
15.53333,14141
15.54167,14556
15.55000,14957
15.55833,15339
15.56667,15697
15.57500,16028
15.58333,16327
15.59167,16591
15.60000,16817
15.60833,17004
15.61667,17149
15.62500,17250
15.63333,17307
15.64167,17319
15.65000,17286
15.65833,17208
15.66667,17087
15.67500,16924
15.68333,16719
15.69167,16476
15.70000,16197
15.70833,15883
15.71667,15538
15.72500,15165
15.73333,14767
15.74167,14347
15.75000,13907
15.75833,13452
15.76667,12984
15.77500,12506
15.78333,12021
15.79167,11533
15.80000,11043
15.80833,10554
15.81667,10069
15.82500,9589
15.83333,9117
15.84167,8654
15.85000,8202
15.85833,7762
15.86667,7336
15.87500,6923
15.88333,6525
15.89167,6143
15.90000,5776
15.90833,5426
15.91667,5092
15.92500,4775
15.93333,4474
15.94167,4189
15.95000,3920
15.95833,3667
15.96667,3428
15.97500,3204
15.98333,2995
15.99167,2799
16.00000,2615
16.00833,2444
16.01667,2285
16.02500,2137
16.03333,2000
16.04167,1873
16.05000,1755
16.05833,1646
16.06667,1545
16.07500,1452
16.08333,1366
16.09167,1286
16.10000,1213
16.10833,1146
16.11667,1084
16.12500,1027
16.13333,975
16.14167,926
16.15000,882
16.15833,841
16.16667,803
16.17500,768
16.18333,736
16.19167,707
16.20000,681
16.20833,656
16.21667,633
16.22500,611
16.23333,591
16.24167,573
16.25000,555
16.25833,539
16.26667,524
16.27500,510
16.28333,498
16.29167,486
16.30000,476
16.30833,466
16.31667,456
16.32500,447
16.33333,438
16.34167,430
16.35000,422
16.35833,415
16.36667,408
16.37500,401
16.38333,395
16.39167,389
16.40000,384
16.40833,379
16.41667,374
16.42500,369
16.43333,364
16.44167,359
16.45000,355
16.45833,350
16.46667,346
16.47500,342
16.48333,338
16.49167,335
16.50000,331
16.50833,328
16.51667,325
16.52500,322
16.53333,319
16.54167,317
16.55000,314
16.55833,311
16.56667,308
16.57500,306
16.58333,303
16.59167,300
16.60000,298
16.60833,295
16.61667,293
16.62500,291
16.63333,289
16.64167,286
16.65000,284
16.65833,282
16.66667,280
16.67500,278
16.68333,276
16.69167,274
16.70000,272
16.70833,271
16.71667,269
16.72500,268
16.73333,266
16.74167,265
16.75000,263
16.75833,261
16.76667,259
16.77500,257
16.78333,255
16.79167,253
16.80000,252
16.80833,250
16.81667,249
16.82500,248
16.83333,246
16.84167,245
16.85000,243
16.85833,242
16.86667,240
16.87500,238
16.88333,237
16.89167,236
16.90000,234
16.90833,233
16.91667,232
16.92500,230
16.93333,229
16.94167,228
16.95000,226
16.95833,225
16.96667,224
16.97500,223
16.98333,222
16.99167,220
17.00000,219
17.00833,218
17.01667,217
17.02500,216
17.03333,214
17.04167,213
17.05000,212
17.05833,210
17.06667,209
17.07500,207
17.08333,206
17.09167,205
17.10000,204
17.10833,203
17.11667,202
17.12500,200
17.13333,200
17.14167,199
17.15000,198
17.15833,197
17.16667,195
17.17500,194
17.18333,193
17.19167,193
17.20000,191
17.20833,190
17.21667,189
17.22500,189
17.23333,188
17.24167,187
17.25000,186
17.25833,185
17.26667,184
17.27500,183
17.28333,181
17.29167,180
17.30000,179
17.30833,178
17.31667,177
17.32500,176
17.33333,175
17.34167,174
17.35000,173
17.35833,172
17.36667,171
17.37500,170
17.38333,169
17.39167,168
17.40000,167
17.40833,167
17.41667,166
17.42500,164
17.43333,163
17.44167,162
17.45000,161
17.45833,160
17.46667,159
17.47500,158
17.48333,157
17.49167,157
17.50000,156
17.50833,155
17.51667,154
17.52500,153
17.53333,152
17.54167,151
17.55000,150
17.55833,149
17.56667,148
17.57500,147
17.58333,146
17.59167,145
17.60000,144
17.60833,143
17.61667,143
17.62500,142
17.63333,141
17.64167,140
17.65000,139
17.65833,139
17.66667,138
17.67500,137
17.68333,136
17.69167,135
17.70000,134
17.70833,134
17.71667,133
17.72500,132
17.73333,131
17.74167,130
17.75000,129
17.75833,129
17.76667,128
17.77500,126
17.78333,125
17.79167,125
17.80000,124
17.80833,124
17.81667,123
17.82500,122
17.83333,122
17.84167,121
17.85000,120
17.85833,119
17.86667,118
17.87500,117
17.88333,117
17.89167,116
17.90000,115
17.90833,114
17.91667,113
17.92500,112
17.93333,111
17.94167,111
17.95000,110
17.95833,110
17.96667,109
17.97500,109
17.98333,108
17.99167,107
18.00000,106
18.00833,106
18.01667,105
18.02500,105
18.03333,104
18.04167,103
18.05000,103
18.05833,102
18.06667,101
18.07500,100
18.08333,99
18.09167,98
18.10000,98
18.10833,97
18.11667,97
18.12500,96
18.13333,96
18.14167,95
18.15000,94
18.15833,93
18.16667,92
18.17500,91
18.18333,91
18.19167,90
18.20000,89
18.20833,89
18.21667,88
18.22500,88
18.23333,87
18.24167,87
18.25000,86
18.25833,86
18.26667,85
18.27500,84
18.28333,84
18.29167,83
18.30000,83
18.30833,82
18.31667,82
18.32500,82
18.33333,81
18.34167,81
18.35000,80
18.35833,80
18.36667,79
18.37500,78
18.38333,78
18.39167,77
18.40000,77
18.40833,76
18.41667,76
18.42500,75
18.43333,74
18.44167,74
18.45000,73
18.45833,72
18.46667,72
18.47500,71
18.48333,71
18.49167,71
18.50000,71
18.50833,70
18.51667,69
18.52500,69
18.53333,68
18.54167,67
18.55000,67
18.55833,66
18.56667,66
18.57500,66
18.58333,66
18.59167,66
18.60000,66
18.60833,65
18.61667,65
18.62500,65
18.63333,64
18.64167,64
18.65000,64
18.65833,64
18.66667,64
18.67500,64
18.68333,64
18.69167,63
18.70000,63
18.70833,63
18.71667,63
18.72500,63
18.73333,63
18.74167,63
18.75000,64
18.75833,64
18.76667,64
18.77500,64
18.78333,64
18.79167,65
18.80000,65
18.80833,66
18.81667,66
18.82500,67
18.83333,67
18.84167,68
18.85000,68
18.85833,69
18.86667,70
18.87500,70
18.88333,71
18.89167,72
18.90000,73
18.90833,73
18.91667,73
18.92500,73
18.93333,74
18.94167,74
18.95000,75
18.95833,75
18.96667,75
18.97500,75
18.98333,74
18.99167,74
19.00000,74
19.00833,74
19.01667,73
19.02500,73
19.03333,73
19.04167,73
19.05000,72
19.05833,71
19.06667,71
19.07500,70
19.08333,69
19.09167,68
19.10000,67
19.10833,66
19.11667,65
19.12500,64
19.13333,63
19.14167,62
19.15000,61
19.15833,60
19.16667,59
19.17500,57
19.18333,56
19.19167,55
19.20000,54
19.20833,52
19.21667,52
19.22500,51
19.23333,50
19.24167,49
19.25000,48
19.25833,47
19.26667,46
19.27500,45
19.28333,44
19.29167,44
19.30000,43
19.30833,42
19.31667,41
19.32500,40
19.33333,40
19.34167,39
19.35000,38
19.35833,38
19.36667,37
19.37500,37
19.38333,36
19.39167,36
19.40000,35
19.40833,35
19.41667,35
19.42500,34
19.43333,34
19.44167,33
19.45000,33
19.45833,33
19.46667,33
19.47500,32
19.48333,32
19.49167,31
19.50000,31
19.50833,31
19.51667,30
19.52500,30
19.53333,30
19.54167,29
19.55000,29
19.55833,28
19.56667,28
19.57500,28
19.58333,27
19.59167,27
19.60000,27
19.60833,27
19.61667,26
19.62500,26
19.63333,26
19.64167,25
19.65000,25
19.65833,26
19.66667,25
19.67500,25
19.68333,25
19.69167,25
19.70000,25
19.70833,24
19.71667,24
19.72500,24
19.73333,24
19.74167,23
19.75000,23
19.75833,23
19.76667,23
19.77500,23
19.78333,23
19.79167,22
19.80000,22
19.80833,22
19.81667,21
19.82500,21
19.83333,21
19.84167,21
19.85000,21
19.85833,20
19.86667,20
19.87500,20
19.88333,19
19.89167,19
19.90000,19
19.90833,19
19.91667,19
19.92500,19
19.93333,19
19.94167,19
19.95000,18
19.95833,18
19.96667,18
19.97500,18
19.98333,17
19.99167,17
20.00000,17
20.00833,17
20.01667,17
20.02500,17
20.03333,16
20.04167,16
20.05000,16
20.05833,16
20.06667,16
20.07500,16
20.08333,16
20.09167,16
20.10000,16
20.10833,16
20.11667,16
20.12500,16
20.13333,17
20.14167,16
20.15000,16
20.15833,16
20.16667,15
20.17500,15
20.18333,14
20.19167,14
20.20000,14
20.20833,13
20.21667,13
20.22500,13
20.23333,13
20.24167,13
20.25000,13
20.25833,13
20.26667,13
20.27500,13
20.28333,13
20.29167,13
20.30000,12
20.30833,12
20.31667,12
20.32500,12
20.33333,12
20.34167,12
20.35000,12
20.35833,12
20.36667,11
20.37500,11
20.38333,11
20.39167,11
20.40000,11
20.40833,11
20.41667,11
20.42500,11
20.43333,11
20.44167,11
20.45000,11
20.45833,10
20.46667,10
20.47500,10
20.48333,10
20.49167,10
20.50000,10
20.50833,10
20.51667,10
20.52500,9
20.53333,9
20.54167,9
20.55000,9
20.55833,9
20.56667,9
20.57500,9
20.58333,9
20.59167,9
20.60000,9
20.60833,9
20.61667,9
20.62500,8
20.63333,8
20.64167,8
20.65000,8
20.65833,8
20.66667,8
20.67500,8
20.68333,8
20.69167,8
20.70000,7
20.70833,7
20.71667,7
20.72500,7
20.73333,7
20.74167,7
20.75000,6
20.75833,6
20.76667,6
20.77500,6
20.78333,6
20.79167,6
20.80000,6
20.80833,6
20.81667,6
20.82500,6
20.83333,5
20.84167,5
20.85000,5
20.85833,5
20.86667,5
20.87500,5
20.88333,4
20.89167,4
20.90000,5
20.90833,5
20.91667,5
20.92500,5
20.93333,4
20.94167,4
20.95000,4
20.95833,4
20.96667,3
20.97500,3
20.98333,3
20.99167,3
21.00000,3
21.00833,3
21.01667,3
21.02500,3
21.03333,3
21.04167,3
21.05000,3
21.05833,2
21.06667,2
21.07500,2
21.08333,2
21.09167,2
21.10000,2
21.10833,2
21.11667,1
21.12500,1
21.13333,1
21.14167,1
21.15000,1
21.15833,1
21.16667,1
21.17500,0
21.18333,0
21.19167,1
21.20000,1
21.20833,1
21.21667,1
21.22500,1
21.23333,1
21.24167,1
21.25000,1
21.25833,1
21.26667,1
21.27500,1
21.28333,1
21.29167,1
21.30000,1
21.30833,1
21.31667,1
21.32500,1
21.33333,1
21.34167,2
21.35000,2
21.35833,3
21.36667,3
21.37500,3
21.38333,4
21.39167,4
21.40000,5
21.40833,6
21.41667,7
21.42500,7
21.43333,9
21.44167,10
21.45000,11
21.45833,13
21.46667,15
21.47500,16
21.48333,18
21.49167,20
21.50000,23
21.50833,26
21.51667,30
21.52500,34
21.53333,38
21.54167,43
21.55000,49
21.55833,56
21.56667,63
21.57500,71
21.58333,80
21.59167,91
21.60000,102
21.60833,116
21.61667,131
21.62500,147
21.63333,165
21.64167,186
21.65000,208
21.65833,233
21.66667,261
21.67500,291
21.68333,325
21.69167,361
21.70000,402
21.70833,446
21.71667,495
21.72500,547
21.73333,604
21.74167,665
21.75000,730
21.75833,800
21.76667,875
21.77500,955
21.78333,1040
21.79167,1129
21.80000,1223
21.80833,1322
21.81667,1425
21.82500,1533
21.83333,1645
21.84167,1760
21.85000,1879
21.85833,2001
21.86667,2125
21.87500,2251
21.88333,2378
21.89167,2507
21.90000,2636
21.90833,2764
21.91667,2892
21.92500,3017
21.93333,3141
21.94167,3261
21.95000,3378
21.95833,3490
21.96667,3596
21.97500,3697
21.98333,3791
21.99167,3878
22.00000,3958
22.00833,4029
22.01667,4092
22.02500,4146
22.03333,4190
22.04167,4225
22.05000,4251
22.05833,4266
22.06667,4272
22.07500,4268
22.08333,4255
22.09167,4232
22.10000,4200
22.10833,4160
22.11667,4111
22.12500,4053
22.13333,3989
22.14167,3916
22.15000,3838
22.15833,3753
22.16667,3662
22.17500,3567
22.18333,3467
22.19167,3363
22.20000,3256
22.20833,3147
22.21667,3036
22.22500,2923
22.23333,2809
22.24167,2695
22.25000,2580
22.25833,2467
22.26667,2354
22.27500,2244
22.28333,2134
22.29167,2027
22.30000,1922
22.30833,1820
22.31667,1721
22.32500,1625
22.33333,1532
22.34167,1442
22.35000,1356
22.35833,1273
22.36667,1194
22.37500,1118
22.38333,1046
22.39167,978
22.40000,913
22.40833,851
22.41667,793
22.42500,738
22.43333,687
22.44167,638
22.45000,593
22.45833,551
22.46667,511
22.47500,473
22.48333,438
22.49167,406
22.50000,375
22.50833,347
22.51667,321
22.52500,297
22.53333,275
22.54167,255
22.55000,236
22.55833,218
22.56667,202
22.57500,187
22.58333,174
22.59167,161
22.60000,149
22.60833,139
22.61667,129
22.62500,119
22.63333,111
22.64167,103
22.65000,97
22.65833,90
22.66667,84
22.67500,79
22.68333,74
22.69167,69
22.70000,65
22.70833,61
22.71667,58
22.72500,55
22.73333,51
22.74167,48
22.75000,45
22.75833,43
22.76667,41
22.77500,39
22.78333,37
22.79167,35
22.80000,33
22.80833,32
22.81667,31
22.82500,29
22.83333,28
22.84167,27
22.85000,26
22.85833,25
22.86667,25
22.87500,24
22.88333,23
22.89167,22
22.90000,22
22.90833,21
22.91667,20
22.92500,19
22.93333,18
22.94167,18
22.95000,17
22.95833,17
22.96667,16
22.97500,15
22.98333,15
22.99167,15
23.00000,15
23.00833,14
23.01667,14
23.02500,14
23.03333,14
23.04167,14
23.05000,13
23.05833,13
23.06667,13
23.07500,12
23.08333,12
23.09167,12
23.10000,11
23.10833,10
23.11667,10
23.12500,10
23.13333,10
23.14167,9
23.15000,9
23.15833,9
23.16667,8
23.17500,8
23.18333,8
23.19167,8
23.20000,9
23.20833,8
23.21667,8
23.22500,7
23.23333,7
23.24167,7
23.25000,7
23.25833,7
23.26667,7
23.27500,7
23.28333,7
23.29167,7
23.30000,7
23.30833,7
23.31667,7
23.32500,6
23.33333,6
23.34167,6
23.35000,5
23.35833,5
23.36667,5
23.37500,4
23.38333,4
23.39167,4
23.40000,3
23.40833,3
23.41667,3
23.42500,3
23.43333,3
23.44167,3
23.45000,2
23.45833,2
23.46667,2
23.47500,2
23.48333,2
23.49167,2
23.50000,2
23.50833,2
23.51667,2
23.52500,2
23.53333,2
23.54167,1
23.55000,1
23.55833,1
23.56667,1
23.57500,1
23.58333,1
23.59167,1
23.60000,1
23.60833,1
23.61667,0
23.62500,0
23.63333,0
23.64167,0
23.65000,0
23.65833,-0
23.66667,-0
23.67500,-1
23.68333,-1
23.69167,-1
23.70000,-1
23.70833,-1
23.71667,-0
23.72500,-1
23.73333,-1
23.74167,-1
23.75000,-1
23.75833,-1
23.76667,-1
23.77500,-1
23.78333,-2
23.79167,-2
23.80000,-2
23.80833,-1
23.81667,-1
23.82500,-1
23.83333,-1
23.84167,-1
23.85000,-1
23.85833,-1
23.86667,-1
23.87500,-1
23.88333,-1
23.89167,-1
23.90000,-1
23.90833,-1
23.91667,-1
23.92500,-1
23.93333,-1
23.94167,-1
23.95000,-1
23.95833,-1
23.96667,-1
23.97500,-1
23.98333,-2
23.99167,-2
24.00000,-2
24.00833,-3
24.01667,-3
24.02500,-3
24.03333,-3
24.04167,-3
24.05000,-3
24.05833,-3
24.06667,-3
24.07500,-3
24.08333,-3
24.09167,-3
24.10000,-3
24.10833,-3
24.11667,-3
24.12500,-3
24.13333,-3
24.14167,-4
24.15000,-4
24.15833,-4
24.16667,-4
24.17500,-4
24.18333,-4
24.19167,-4
24.20000,-4
24.20833,-4
24.21667,-4
24.22500,-4
24.23333,-4
24.24167,-4
24.25000,-4
24.25833,-3
24.26667,-3
24.27500,-3
24.28333,-3
24.29167,-3
24.30000,-3
24.30833,-3
24.31667,-3
24.32500,-3
24.33333,-2
24.34167,-1
24.35000,-1
24.35833,-0
24.36667,-0
24.37500,0
24.38333,1
24.39167,1
24.40000,2
24.40833,3
24.41667,4
24.42500,5
24.43333,6
24.44167,7
24.45000,9
24.45833,11
24.46667,13
24.47500,15
24.48333,17
24.49167,20
24.50000,23
24.50833,27
24.51667,30
24.52500,35
24.53333,40
24.54167,45
24.55000,50
24.55833,56
24.56667,63
24.57500,71
24.58333,80
24.59167,89
24.60000,99
24.60833,111
24.61667,123
24.62500,136
24.63333,150
24.64167,166
24.65000,183
24.65833,201
24.66667,221
24.67500,243
24.68333,266
24.69167,290
24.70000,317
24.70833,345
24.71667,374
24.72500,406
24.73333,440
24.74167,475
24.75000,512
24.75833,551
24.76667,592
24.77500,634
24.78333,678
24.79167,724
24.80000,772
24.80833,820
24.81667,871
24.82500,923
24.83333,975
24.84167,1029
24.85000,1083
24.85833,1137
24.86667,1192
24.87500,1247
24.88333,1302
24.89167,1357
24.90000,1411
24.90833,1465
24.91667,1517
24.92500,1568
24.93333,1617
24.94167,1664
24.95000,1710
24.95833,1752
24.96667,1793
24.97500,1830
24.98333,1865
24.99167,1897
25.00000,1925
25.00833,1951
25.01667,1972
25.02500,1990
25.03333,2004
25.04167,2014
25.05000,2021
25.05833,2024
25.06667,2023
25.07500,2018
25.08333,2009
25.09167,1997
25.10000,1981
25.10833,1961
25.11667,1937
25.12500,1911
25.13333,1881
25.14167,1849
25.15000,1814
25.15833,1777
25.16667,1738
25.17500,1696
25.18333,1652
25.19167,1607
25.20000,1560
25.20833,1512
25.21667,1464
25.22500,1415
25.23333,1365
25.24167,1315
25.25000,1265
25.25833,1214
25.26667,1164
25.27500,1114
25.28333,1065
25.29167,1016
25.30000,968
25.30833,921
25.31667,875
25.32500,830
25.33333,787
25.34167,744
25.35000,703
25.35833,664
25.36667,626
25.37500,590
25.38333,555
25.39167,521
25.40000,488
25.40833,457
25.41667,428
25.42500,400
25.43333,374
25.44167,349
25.45000,325
25.45833,303
25.46667,282
25.47500,262
25.48333,243
25.49167,225
25.50000,209
25.50833,193
25.51667,179
25.52500,166
25.53333,153
25.54167,142
25.55000,132
25.55833,122
25.56667,112
25.57500,103
25.58333,95
25.59167,88
25.60000,81
25.60833,75
25.61667,69
25.62500,64
25.63333,59
25.64167,55
25.65000,51
25.65833,47
25.66667,43
25.67500,40
25.68333,36
25.69167,34
25.70000,31
25.70833,29
25.71667,27
25.72500,25
25.73333,23
25.74167,22
25.75000,20
25.75833,19
25.76667,17
25.77500,17
25.78333,16
25.79167,15
25.80000,14
25.80833,13
25.81667,12
25.82500,10
25.83333,10
25.84167,9
25.85000,8
25.85833,8
25.86667,7
25.87500,7
25.88333,7
25.89167,7
25.90000,6
25.90833,6
25.91667,6
25.92500,6
25.93333,5
25.94167,5
25.95000,5
25.95833,4
25.96667,4
25.97500,4
25.98333,3
25.99167,3
26.00000,3
26.00833,3
26.01667,2
26.02500,2
26.03333,2
26.04167,2
26.05000,2
26.05833,2
26.06667,2
26.07500,2
26.08333,2
26.09167,2
26.10000,2
26.10833,1
26.11667,1
26.12500,1
26.13333,0
26.14167,0
26.15000,-0
26.15833,0
26.16667,0
26.17500,1
26.18333,1
26.19167,1
26.20000,1
26.20833,1
26.21667,0
26.22500,0
26.23333,0
26.24167,0
26.25000,-0
26.25833,-0
26.26667,-1
26.27500,-1
26.28333,-1
26.29167,-1
26.30000,-1
26.30833,-1
26.31667,-1
26.32500,-1
26.33333,-1
26.34167,-1
26.35000,-1
26.35833,-1
26.36667,-1
26.37500,-1
26.38333,-2
26.39167,-2
26.40000,-2
26.40833,-3
26.41667,-3
26.42500,-3
26.43333,-3
26.44167,-3
26.45000,-3
26.45833,-3
26.46667,-3
26.47500,-3
26.48333,-3
26.49167,-3
26.50000,-3
26.50833,-3
26.51667,-3
26.52500,-3
26.53333,-3
26.54167,-2
26.55000,-2
26.55833,-2
26.56667,-2
26.57500,-2
26.58333,-2
26.59167,-2
26.60000,-2
26.60833,-2
26.61667,-2
26.62500,-2
26.63333,-3
26.64167,-3
26.65000,-3
26.65833,-4
26.66667,-4
26.67500,-3
26.68333,-3
26.69167,-4
26.70000,-4
26.70833,-3
26.71667,-3
26.72500,-3
26.73333,-3
26.74167,-3
26.75000,-2
26.75833,-2
26.76667,-2
26.77500,-2
26.78333,-2
26.79167,-2
26.80000,-2
26.80833,-2
26.81667,-3
26.82500,-3
26.83333,-3
26.84167,-3
26.85000,-3
26.85833,-3
26.86667,-3
26.87500,-3
26.88333,-3
26.89167,-3
26.90000,-3
26.90833,-3
26.91667,-4
26.92500,-4
26.93333,-4
26.94167,-4
26.95000,-4
26.95833,-4
26.96667,-4
26.97500,-4
26.98333,-4
26.99167,-4
27.00000,-4
27.00833,-4
27.01667,-4
27.02500,-4
27.03333,-4
27.04167,-4
27.05000,-4
27.05833,-5
27.06667,-5
27.07500,-5
27.08333,-5
27.09167,-5
27.10000,-5
27.10833,-5
27.11667,-5
27.12500,-5
27.13333,-5
27.14167,-5
27.15000,-5
27.15833,-5
27.16667,-5
27.17500,-5
27.18333,-5
27.19167,-5
27.20000,-5
27.20833,-5
27.21667,-5
27.22500,-5
27.23333,-5
27.24167,-4
27.25000,-4
27.25833,-5
27.26667,-5
27.27500,-4
27.28333,-5
27.29167,-4
27.30000,-4
27.30833,-4
27.31667,-4
27.32500,-4
27.33333,-5
27.34167,-5
27.35000,-5
27.35833,-5
27.36667,-4
27.37500,-4
27.38333,-4
27.39167,-5
27.40000,-5
27.40833,-4
27.41667,-4
27.42500,-4
27.43333,-4
27.44167,-4
27.45000,-4
27.45833,-4
27.46667,-4
27.47500,-4
27.48333,-5
27.49167,-5
27.50000,-5
27.50833,-5
27.51667,-5
27.52500,-5
27.53333,-5
27.54167,-5
27.55000,-5
27.55833,-4
27.56667,-4
27.57500,-5
27.58333,-5
27.59167,-4
27.60000,-4
27.60833,-4
27.61667,-5
27.62500,-5
27.63333,-5
27.64167,-5
27.65000,-5
27.65833,-5
27.66667,-5
27.67500,-5
27.68333,-5
27.69167,-5
27.70000,-5
27.70833,-5
27.71667,-5
27.72500,-5
27.73333,-6
27.74167,-6
27.75000,-6
27.75833,-6
27.76667,-6
27.77500,-6
27.78333,-7
27.79167,-8
27.80000,-8
27.80833,-8
27.81667,-9
27.82500,-9
27.83333,-10
27.84167,-10
27.85000,-10
27.85833,-11
27.86667,-11
27.87500,-12
27.88333,-12
27.89167,-13
27.90000,-14
27.90833,-15
27.91667,-16
27.92500,-17
27.93333,-18
27.94167,-20
27.95000,-21
27.95833,-22
27.96667,-23
27.97500,-25
27.98333,-26
27.99167,-28
28.00000,-30
28.00833,-31
28.01667,-33
28.02500,-35
28.03333,-37
28.04167,-39
28.05000,-41
28.05833,-43
28.06667,-45
28.07500,-47
28.08333,-49
28.09167,-52
28.10000,-54
28.10833,-57
28.11667,-59
28.12500,-62
28.13333,-65
28.14167,-68
28.15000,-71
28.15833,-74
28.16667,-77
28.17500,-80
28.18333,-83
28.19167,-86
28.20000,-89
28.20833,-93
28.21667,-95
28.22500,-98
28.23333,-100
28.24167,-103
28.25000,-106
28.25833,-109
28.26667,-112
28.27500,-115
28.28333,-118
28.29167,-121
28.30000,-123
28.30833,-126
28.31667,-129
28.32500,-131
28.33333,-134
28.34167,-136
28.35000,-138
28.35833,-140
28.36667,-141
28.37500,-143
28.38333,-144
28.39167,-145
28.40000,-145
28.40833,-146
28.41667,-147
28.42500,-147
28.43333,-148
28.44167,-148
28.45000,-148
28.45833,-148
28.46667,-148
28.47500,-148
28.48333,-148
28.49167,-147
28.50000,-147
28.50833,-146
28.51667,-145
28.52500,-143
28.53333,-142
28.54167,-141
28.55000,-139
28.55833,-138
28.56667,-136
28.57500,-134
28.58333,-132
28.59167,-130
28.60000,-127
28.60833,-125
28.61667,-123
28.62500,-120
28.63333,-118
28.64167,-116
28.65000,-113
28.65833,-111
28.66667,-108
28.67500,-106
28.68333,-103
28.69167,-100
28.70000,-98
28.70833,-95
28.71667,-92
28.72500,-90
28.73333,-87
28.74167,-84
28.75000,-82
28.75833,-79
28.76667,-77
28.77500,-75
28.78333,-73
28.79167,-70
28.80000,-68
28.80833,-65
28.81667,-63
28.82500,-61
28.83333,-59
28.84167,-56
28.85000,-55
28.85833,-53
28.86667,-51
28.87500,-50
28.88333,-48
28.89167,-47
28.90000,-46
28.90833,-45
28.91667,-43
28.92500,-42
28.93333,-40
28.94167,-39
28.95000,-38
28.95833,-36
28.96667,-35
28.97500,-34
28.98333,-33
28.99167,-32
29.00000,-31
29.00833,-30
29.01667,-29
29.02500,-28
29.03333,-27
29.04167,-26
29.05000,-25
29.05833,-25
29.06667,-24
29.07500,-24
29.08333,-24
29.09167,-23
29.10000,-23
29.10833,-23
29.11667,-22
29.12500,-22
29.13333,-21
29.14167,-21
29.15000,-20
29.15833,-20
29.16667,-19
29.17500,-19
29.18333,-19
29.19167,-19
29.20000,-19
29.20833,-19
29.21667,-19
29.22500,-19
29.23333,-18
29.24167,-18
29.25000,-18
29.25833,-18
29.26667,-18
29.27500,-18
29.28333,-18
29.29167,-17
29.30000,-17
29.30833,-17
29.31667,-17
29.32500,-17
29.33333,-17
29.34167,-17
29.35000,-17
29.35833,-17
29.36667,-17
29.37500,-17
29.38333,-17
29.39167,-17
29.40000,-17
29.40833,-16
29.41667,-16
29.42500,-16
29.43333,-15
29.44167,-15
29.45000,-15
29.45833,-15
29.46667,-15
29.47500,-15
29.48333,-15
29.49167,-16
29.50000,-16
29.50833,-16
29.51667,-16
29.52500,-16
29.53333,-16
29.54167,-16
29.55000,-17
29.55833,-17
29.56667,-18
29.57500,-18
29.58333,-18
29.59167,-19
29.60000,-19
29.60833,-19
29.61667,-19
29.62500,-19
29.63333,-20
29.64167,-20
29.65000,-21
29.65833,-22
29.66667,-22
29.67500,-22
29.68333,-22
29.69167,-23
29.70000,-23
29.70833,-24
29.71667,-25
29.72500,-25
29.73333,-26
29.74167,-26
29.75000,-27
29.75833,-28
29.76667,-28
29.77500,-29
29.78333,-30
29.79167,-31
29.80000,-32
29.80833,-33
29.81667,-33
29.82500,-34
29.83333,-35
29.84167,-36
29.85000,-36
29.85833,-37
29.86667,-38
29.87500,-39
29.88333,-41
29.89167,-42
29.90000,-43
29.90833,-44
29.91667,-44
29.92500,-45
29.93333,-46
29.94167,-47
29.95000,-48
29.95833,-49
29.96667,-51
29.97500,-52
29.98333,-53
29.99167,-54
30.00000,-55
30.00833,-56
30.01667,-57
30.02500,-58
30.03333,-59
30.04167,-60
30.05000,-61
30.05833,-62
30.06667,-63
30.07500,-64
30.08333,-65
30.09167,-65
30.10000,-66
30.10833,-67
30.11667,-67
30.12500,-68
30.13333,-68
30.14167,-68
30.15000,-68
30.15833,-68
30.16667,-68
30.17500,-68
30.18333,-68
30.19167,-68
30.20000,-68
30.20833,-69
30.21667,-69
30.22500,-69
30.23333,-69
30.24167,-69
30.25000,-68
30.25833,-68
30.26667,-67
30.27500,-67
30.28333,-66
30.29167,-66
30.30000,-65
30.30833,-64
30.31667,-64
30.32500,-63
30.33333,-62
30.34167,-62
30.35000,-61
30.35833,-60
30.36667,-59
30.37500,-59
30.38333,-58
30.39167,-58
30.40000,-57
30.40833,-56
30.41667,-55
30.42500,-54
30.43333,-53
30.44167,-52
30.45000,-51
30.45833,-50
30.46667,-49
30.47500,-48
30.48333,-47
30.49167,-46
30.50000,-45
30.50833,-44
30.51667,-44
30.52500,-43
30.53333,-42
30.54167,-41
30.55000,-40
30.55833,-39
30.56667,-38
30.57500,-38
30.58333,-37
30.59167,-35
30.60000,-35
30.60833,-34
30.61667,-33
30.62500,-33
30.63333,-32
30.64167,-32
30.65000,-32
30.65833,-31
30.66667,-31
30.67500,-30
30.68333,-30
30.69167,-29
30.70000,-28
30.70833,-28
30.71667,-27
30.72500,-27
30.73333,-26
30.74167,-26
30.75000,-25
30.75833,-25
30.76667,-26
30.77500,-25
30.78333,-25
30.79167,-25
30.80000,-25
30.80833,-25
30.81667,-25
30.82500,-24
30.83333,-24
30.84167,-24
30.85000,-23
30.85833,-23
30.86667,-23
30.87500,-23
30.88333,-22
30.89167,-22
30.90000,-22
30.90833,-22
30.91667,-22
30.92500,-22
30.93333,-22
30.94167,-22
30.95000,-22
30.95833,-22
30.96667,-22
30.97500,-21
30.98333,-21
30.99167,-21
31.00000,-21
31.00833,-21
31.01667,-21
31.02500,-21
31.03333,-21
31.04167,-21
31.05000,-22
31.05833,-22
31.06667,-22
31.07500,-22
31.08333,-21
31.09167,-21
31.10000,-21
31.10833,-21
31.11667,-21
31.12500,-21
31.13333,-21
31.14167,-21
31.15000,-21
31.15833,-21
31.16667,-21
31.17500,-21
31.18333,-21
31.19167,-21
31.20000,-20
31.20833,-20
31.21667,-20
31.22500,-19
31.23333,-19
31.24167,-19
31.25000,-19
31.25833,-19
31.26667,-19
31.27500,-20
31.28333,-20
31.29167,-20
31.30000,-19
31.30833,-19
31.31667,-19
31.32500,-19
31.33333,-19
31.34167,-19
31.35000,-19
31.35833,-19
31.36667,-19
31.37500,-19
31.38333,-19
31.39167,-19
31.40000,-18
31.40833,-18
31.41667,-18
31.42500,-18
31.43333,-18
31.44167,-19
31.45000,-19
31.45833,-19
31.46667,-19
31.47500,-19
31.48333,-19
31.49167,-19
31.50000,-19
31.50833,-19
31.51667,-18
31.52500,-18
31.53333,-18
31.54167,-18
31.55000,-18
31.55833,-18
31.56667,-18
31.57500,-18
31.58333,-17
31.59167,-17
31.60000,-17
31.60833,-17
31.61667,-17
31.62500,-17
31.63333,-17
31.64167,-17
31.65000,-17
31.65833,-17
31.66667,-17
31.67500,-18
31.68333,-18
31.69167,-18
31.70000,-18
31.70833,-18
31.71667,-18
31.72500,-18
31.73333,-17
31.74167,-17
31.75000,-17
31.75833,-18
31.76667,-18
31.77500,-18
31.78333,-18
31.79167,-18
31.80000,-18
31.80833,-18
31.81667,-17
31.82500,-17
31.83333,-17
31.84167,-17
31.85000,-17
31.85833,-17
31.86667,-17
31.87500,-17
31.88333,-17
31.89167,-17
31.90000,-17
31.90833,-17
31.91667,-17
31.92500,-17
31.93333,-17
31.94167,-17
31.95000,-17
31.95833,-17
31.96667,-16
31.97500,-16
31.98333,-15
31.99167,-15
32.00000,-16
32.00833,-16
32.01667,-16
32.02500,-17
32.03333,-17
32.04167,-17
32.05000,-17
32.05833,-16
32.06667,-16
32.07500,-16
32.08333,-17
32.09167,-17
32.10000,-17
32.10833,-17
32.11667,-17
32.12500,-17
32.13333,-17
32.14167,-17
32.15000,-17
32.15833,-17
32.16667,-16
32.17500,-17
32.18333,-17
32.19167,-17
32.20000,-17
32.20833,-18
32.21667,-18
32.22500,-18
32.23333,-18
32.24167,-18
32.25000,-17
32.25833,-17
32.26667,-17
32.27500,-17
32.28333,-17
32.29167,-17
32.30000,-17
32.30833,-17
32.31667,-17
32.32500,-17
32.33333,-17
32.34167,-17
32.35000,-17
32.35833,-17
32.36667,-17
32.37500,-17
32.38333,-17
32.39167,-18
32.40000,-18
32.40833,-18
32.41667,-18
32.42500,-17
32.43333,-17
32.44167,-17
32.45000,-17
32.45833,-17
32.46667,-17
32.47500,-18
32.48333,-17
32.49167,-17
32.50000,-17
32.50833,-17
32.51667,-17
32.52500,-17
32.53333,-17
32.54167,-17
32.55000,-17
32.55833,-17
32.56667,-17
32.57500,-17
32.58333,-18
32.59167,-18
32.60000,-17
32.60833,-17
32.61667,-17
32.62500,-17
32.63333,-17
32.64167,-17
32.65000,-17
32.65833,-17
32.66667,-17
32.67500,-17
32.68333,-17
32.69167,-17
32.70000,-17
32.70833,-17
32.71667,-16
32.72500,-16
32.73333,-16
32.74167,-17
32.75000,-17
32.75833,-17
32.76667,-16
32.77500,-17
32.78333,-17
32.79167,-18
32.80000,-18
32.80833,-18
32.81667,-17
32.82500,-17
32.83333,-17
32.84167,-17
32.85000,-17
32.85833,-17
32.86667,-17
32.87500,-17
32.88333,-17
32.89167,-17
32.90000,-17
32.90833,-16
32.91667,-16
32.92500,-16
32.93333,-16
32.94167,-16
32.95000,-16
32.95833,-16
32.96667,-17
32.97500,-17
32.98333,-17
32.99167,-17
33.00000,-17
33.00833,-17
33.01667,-17
33.02500,-17
33.03333,-16
33.04167,-16
33.05000,-16
33.05833,-16
33.06667,-16
33.07500,-16
33.08333,-17
33.09167,-17
33.10000,-17
33.10833,-16
33.11667,-16
33.12500,-16
33.13333,-16
33.14167,-16
33.15000,-17
33.15833,-17
33.16667,-16
33.17500,-16
33.18333,-16
33.19167,-17
33.20000,-17
33.20833,-17
33.21667,-17
33.22500,-17
33.23333,-17
33.24167,-17
33.25000,-17
33.25833,-17
33.26667,-17
33.27500,-17
33.28333,-17
33.29167,-17
33.30000,-17
33.30833,-17
33.31667,-17
33.32500,-17
33.33333,-17
33.34167,-16
33.35000,-16
33.35833,-16
33.36667,-16
33.37500,-17
33.38333,-17
33.39167,-17
33.40000,-17
33.40833,-17
33.41667,-17
33.42500,-17
33.43333,-17
33.44167,-17
33.45000,-16
33.45833,-16
33.46667,-16
33.47500,-16
33.48333,-16
33.49167,-16
33.50000,-16
33.50833,-17
33.51667,-16
33.52500,-16
33.53333,-16
33.54167,-16
33.55000,-17
33.55833,-17
33.56667,-17
33.57500,-17
33.58333,-17
33.59167,-17
33.60000,-17
33.60833,-17
33.61667,-17
33.62500,-17
33.63333,-17
33.64167,-17
33.65000,-17
33.65833,-17
33.66667,-17
33.67500,-17
33.68333,-17
33.69167,-17
33.70000,-17
33.70833,-17
33.71667,-17
33.72500,-17
33.73333,-17
33.74167,-17
33.75000,-16
33.75833,-16
33.76667,-16
33.77500,-16
33.78333,-16
33.79167,-16
33.80000,-16
33.80833,-16
33.81667,-16
33.82500,-16
33.83333,-16
33.84167,-16
33.85000,-16
33.85833,-15
33.86667,-15
33.87500,-15
33.88333,-15
33.89167,-15
33.90000,-16
33.90833,-16
33.91667,-16
33.92500,-16
33.93333,-16
33.94167,-16
33.95000,-16
33.95833,-16
33.96667,-16
33.97500,-16
33.98333,-16
33.99167,-15
34.00000,-16
34.00833,-15
34.01667,-15
34.02500,-16
34.03333,-16
34.04167,-16
34.05000,-15
34.05833,-15
34.06667,-15
34.07500,-15
34.08333,-15
34.09167,-15
34.10000,-15
34.10833,-15
34.11667,-15
34.12500,-14
34.13333,-14
34.14167,-14
34.15000,-14
34.15833,-14
34.16667,-14
34.17500,-14
34.18333,-14
34.19167,-13
34.20000,-14
34.20833,-14
34.21667,-14
34.22500,-15
34.23333,-15
34.24167,-14
34.25000,-14
34.25833,-14
34.26667,-13
34.27500,-13
34.28333,-13
34.29167,-13
34.30000,-13
34.30833,-13
34.31667,-14
34.32500,-14
34.33333,-14
34.34167,-14
34.35000,-15
34.35833,-15
34.36667,-15
34.37500,-16
34.38333,-16
34.39167,-16
34.40000,-15
34.40833,-15
34.41667,-15
34.42500,-14
34.43333,-14
34.44167,-14
34.45000,-13
34.45833,-13
34.46667,-13
34.47500,-13
34.48333,-13
34.49167,-13
34.50000,-13
34.50833,-13
34.51667,-14
34.52500,-14
34.53333,-14
34.54167,-14
34.55000,-14
34.55833,-14
34.56667,-14
34.57500,-14
34.58333,-14
34.59167,-14
34.60000,-14
34.60833,-14
34.61667,-14
34.62500,-14
34.63333,-14
34.64167,-14
34.65000,-13
34.65833,-14
34.66667,-14
34.67500,-14
34.68333,-14
34.69167,-14
34.70000,-14
34.70833,-14
34.71667,-15
34.72500,-14
34.73333,-14
34.74167,-14
34.75000,-14
34.75833,-14
34.76667,-14
34.77500,-15
34.78333,-15
34.79167,-15
34.80000,-15
34.80833,-15
34.81667,-15
34.82500,-16
34.83333,-15
34.84167,-15
34.85000,-15
34.85833,-15
34.86667,-15
34.87500,-15
34.88333,-14
34.89167,-14
34.90000,-14
34.90833,-14
34.91667,-15
34.92500,-15
34.93333,-15
34.94167,-15
34.95000,-15
34.95833,-15
34.96667,-15
34.97500,-15
34.98333,-15
34.99167,-15
35.00000,-15
35.00833,-14
35.01667,-14
35.02500,-15
35.03333,-15
35.04167,-15
35.05000,-15
35.05833,-15
35.06667,-15
35.07500,-15
35.08333,-14
35.09167,-14
35.10000,-14
35.10833,-14
35.11667,-14
35.12500,-14
35.13333,-14
35.14167,-15
35.15000,-15
35.15833,-15
35.16667,-15
35.17500,-16
35.18333,-16
35.19167,-16
35.20000,-16
35.20833,-16
35.21667,-15
35.22500,-15
35.23333,-15
35.24167,-14
35.25000,-14
35.25833,-14
35.26667,-14
35.27500,-14
35.28333,-14
35.29167,-14
35.30000,-14
35.30833,-14
35.31667,-14
35.32500,-14
35.33333,-14
35.34167,-14
35.35000,-14
35.35833,-14
35.36667,-14
35.37500,-14
35.38333,-14
35.39167,-14
35.40000,-14
35.40833,-14
35.41667,-14
35.42500,-14
35.43333,-14
35.44167,-14
35.45000,-14
35.45833,-14
35.46667,-14
35.47500,-14
35.48333,-14
35.49167,-14
35.50000,-15
35.50833,-14
35.51667,-14
35.52500,-14
35.53333,-14
35.54167,-14
35.55000,-14
35.55833,-15
35.56667,-15
35.57500,-15
35.58333,-15
35.59167,-15
35.60000,-15
35.60833,-15
35.61667,-15
35.62500,-15
35.63333,-15
35.64167,-15
35.65000,-16
35.65833,-16
35.66667,-15
35.67500,-15
35.68333,-15
35.69167,-15
35.70000,-14
35.70833,-14
35.71667,-14
35.72500,-14
35.73333,-15
35.74167,-14
35.75000,-14
35.75833,-14
35.76667,-14
35.77500,-14
35.78333,-14
35.79167,-14
35.80000,-15
35.80833,-15
35.81667,-15
35.82500,-14
35.83333,-14
35.84167,-14
35.85000,-15
35.85833,-14
35.86667,-14
35.87500,-14
35.88333,-14
35.89167,-15
35.90000,-15
35.90833,-15
35.91667,-15
35.92500,-15
35.93333,-15
35.94167,-15
35.95000,-15
35.95833,-15
35.96667,-16
35.97500,-16
35.98333,-17
35.99167,-17
36.00000,-17
36.00833,-17
36.01667,-17
36.02500,-16
36.03333,-16
36.04167,-16
36.05000,-16
36.05833,-16
36.06667,-16
36.07500,-16
36.08333,-16
36.09167,-17
36.10000,-17
36.10833,-16
36.11667,-17
36.12500,-16
36.13333,-16
36.14167,-16
36.15000,-16
36.15833,-17
36.16667,-17
36.17500,-17
36.18333,-17
36.19167,-17
36.20000,-17
36.20833,-17
36.21667,-17
36.22500,-17
36.23333,-17
36.24167,-18
36.25000,-18
36.25833,-18
36.26667,-17
36.27500,-17
36.28333,-17
36.29167,-17
36.30000,-17
36.30833,-17
36.31667,-17
36.32500,-17
36.33333,-17
36.34167,-17
36.35000,-17
36.35833,-17
36.36667,-17
36.37500,-17
36.38333,-16
36.39167,-16
36.40000,-16
36.40833,-16
36.41667,-16
36.42500,-16
36.43333,-16
36.44167,-16
36.45000,-16
36.45833,-16
36.46667,-16
36.47500,-16
36.48333,-16
36.49167,-17
36.50000,-17
36.50833,-17
36.51667,-17
36.52500,-17
36.53333,-17
36.54167,-17
36.55000,-17
36.55833,-16
36.56667,-16
36.57500,-16
36.58333,-16
36.59167,-16
36.60000,-16
36.60833,-16
36.61667,-16
36.62500,-16
36.63333,-16
36.64167,-16
36.65000,-16
36.65833,-16
36.66667,-15
36.67500,-15
36.68333,-15
36.69167,-15
36.70000,-15
36.70833,-15
36.71667,-15
36.72500,-15
36.73333,-15
36.74167,-15
36.75000,-15
36.75833,-14
36.76667,-14
36.77500,-15
36.78333,-15
36.79167,-15
36.80000,-15
36.80833,-15
36.81667,-14
36.82500,-14
36.83333,-14
36.84167,-14
36.85000,-13
36.85833,-13
36.86667,-13
36.87500,-13
36.88333,-13
36.89167,-14
36.90000,-13
36.90833,-13
36.91667,-13
36.92500,-14
36.93333,-14
36.94167,-14
36.95000,-14
36.95833,-14
36.96667,-14
36.97500,-14
36.98333,-14
36.99167,-14
37.00000,-14
37.00833,-14
37.01667,-14
37.02500,-14
37.03333,-14
37.04167,-14
37.05000,-14
37.05833,-14
37.06667,-14
37.07500,-14
37.08333,-14
37.09167,-14
37.10000,-14
37.10833,-14
37.11667,-14
37.12500,-14
37.13333,-14
37.14167,-14
37.15000,-14
37.15833,-14
37.16667,-14
37.17500,-14
37.18333,-14
37.19167,-14
37.20000,-14
37.20833,-14
37.21667,-15
37.22500,-15
37.23333,-15
37.24167,-15
37.25000,-15
37.25833,-14
37.26667,-14
37.27500,-14
37.28333,-13
37.29167,-13
37.30000,-13
37.30833,-13
37.31667,-13
37.32500,-13
37.33333,-13
37.34167,-13
37.35000,-14
37.35833,-14
37.36667,-14
37.37500,-13
37.38333,-13
37.39167,-13
37.40000,-13
37.40833,-13
37.41667,-14
37.42500,-14
37.43333,-14
37.44167,-14
37.45000,-14
37.45833,-14
37.46667,-14
37.47500,-14
37.48333,-15
37.49167,-15
37.50000,-15
37.50833,-15
37.51667,-15
37.52500,-15
37.53333,-14
37.54167,-14
37.55000,-14
37.55833,-14
37.56667,-15
37.57500,-15
37.58333,-15
37.59167,-15
37.60000,-15
37.60833,-15
37.61667,-16
37.62500,-16
37.63333,-15
37.64167,-15
37.65000,-15
37.65833,-15
37.66667,-15
37.67500,-15
37.68333,-15
37.69167,-16
37.70000,-16
37.70833,-16
37.71667,-15
37.72500,-15
37.73333,-15
37.74167,-15
37.75000,-15
37.75833,-16
37.76667,-15
37.77500,-15
37.78333,-15
37.79167,-15
37.80000,-15
37.80833,-15
37.81667,-15
37.82500,-15
37.83333,-15
37.84167,-15
37.85000,-15
37.85833,-15
37.86667,-16
37.87500,-16
37.88333,-16
37.89167,-16
37.90000,-16
37.90833,-16
37.91667,-16
37.92500,-16
37.93333,-15
37.94167,-15
37.95000,-15
37.95833,-15
37.96667,-15
37.97500,-15
37.98333,-15
37.99167,-15
38.00000,-15
38.00833,-14
38.01667,-14
38.02500,-14
38.03333,-14
38.04167,-14
38.05000,-14
38.05833,-14
38.06667,-14
38.07500,-14
38.08333,-13
38.09167,-13
38.10000,-13
38.10833,-13
38.11667,-13
38.12500,-13
38.13333,-13
38.14167,-13
38.15000,-13
38.15833,-13
38.16667,-14
38.17500,-14
38.18333,-14
38.19167,-13
38.20000,-13
38.20833,-13
38.21667,-13
38.22500,-12
38.23333,-12
38.24167,-12
38.25000,-12
38.25833,-12
38.26667,-12
38.27500,-12
38.28333,-12
38.29167,-12
38.30000,-12
38.30833,-11
38.31667,-11
38.32500,-11
38.33333,-10
38.34167,-10
38.35000,-10
38.35833,-10
38.36667,-11
38.37500,-11
38.38333,-11
38.39167,-11
38.40000,-11
38.40833,-11
38.41667,-11
38.42500,-11
38.43333,-11
38.44167,-11
38.45000,-11
38.45833,-10
38.46667,-10
38.47500,-10
38.48333,-10
38.49167,-10
38.50000,-10
38.50833,-10
38.51667,-10
38.52500,-10
38.53333,-10
38.54167,-10
38.55000,-10
38.55833,-10
38.56667,-10
38.57500,-11
38.58333,-11
38.59167,-10
38.60000,-10
38.60833,-10
38.61667,-10
38.62500,-10
38.63333,-11
38.64167,-11
38.65000,-11
38.65833,-11
38.66667,-11
38.67500,-11
38.68333,-12
38.69167,-12
38.70000,-12
38.70833,-12
38.71667,-12
38.72500,-12
38.73333,-13
38.74167,-13
38.75000,-13
38.75833,-13
38.76667,-13
38.77500,-13
38.78333,-13
38.79167,-13
38.80000,-13
38.80833,-13
38.81667,-13
38.82500,-13
38.83333,-13
38.84167,-13
38.85000,-13
38.85833,-13
38.86667,-13
38.87500,-12
38.88333,-12
38.89167,-12
38.90000,-12
38.90833,-13
38.91667,-13
38.92500,-14
38.93333,-14
38.94167,-14
38.95000,-14
38.95833,-14
38.96667,-14
38.97500,-14
38.98333,-14
38.99167,-14
39.00000,-14
39.00833,-14
39.01667,-14
39.02500,-13
39.03333,-14
39.04167,-14
39.05000,-14
39.05833,-14
39.06667,-14
39.07500,-14
39.08333,-14
39.09167,-14
39.10000,-14
39.10833,-14
39.11667,-14
39.12500,-15
39.13333,-15
39.14167,-16
39.15000,-16
39.15833,-15
39.16667,-15
39.17500,-15
39.18333,-15
39.19167,-15
39.20000,-15
39.20833,-15
39.21667,-15
39.22500,-15
39.23333,-15
39.24167,-15
39.25000,-15
39.25833,-15
39.26667,-15
39.27500,-15
39.28333,-15
39.29167,-15
39.30000,-16
39.30833,-16
39.31667,-16
39.32500,-16
39.33333,-16
39.34167,-16
39.35000,-16
39.35833,-16
39.36667,-16
39.37500,-16
39.38333,-16
39.39167,-16
39.40000,-16
39.40833,-16
39.41667,-16
39.42500,-16
39.43333,-16
39.44167,-16
39.45000,-16
39.45833,-16
39.46667,-16
39.47500,-16
39.48333,-16
39.49167,-16
39.50000,-16
39.50833,-16
39.51667,-16
39.52500,-17
39.53333,-17
39.54167,-17
39.55000,-17
39.55833,-17
39.56667,-16
39.57500,-16
39.58333,-16
39.59167,-16
39.60000,-16
39.60833,-16
39.61667,-16
39.62500,-16
39.63333,-16
39.64167,-16
39.65000,-16
39.65833,-16
39.66667,-17
39.67500,-17
39.68333,-18
39.69167,-18
39.70000,-18
39.70833,-18
39.71667,-17
39.72500,-17
39.73333,-17
39.74167,-17
39.75000,-17
39.75833,-17
39.76667,-17
39.77500,-17
39.78333,-17
39.79167,-17
39.80000,-17
39.80833,-17
39.81667,-16
39.82500,-16
39.83333,-16
39.84167,-16
39.85000,-16
39.85833,-16
39.86667,-16
39.87500,-16
39.88333,-16
39.89167,-15
39.90000,-15
39.90833,-15
39.91667,-16
39.92500,-16
39.93333,-16
39.94167,-16
39.95000,-16
39.95833,-16
39.96667,-16
39.97500,-16
39.98333,-16
39.99167,-16
40.00000,-16

