[Header]
Application Name,LabSolutions
Version,5.97 SP1
Data File Name,C:\Users\cremerlab\Desktop\griffin\2021-03-31_NC_glucose_glycerol_acetate_calibration\calibration_batch_422021_007_007.lcd
Output Date,4/3/2021
Output Time,12:24:51 AM

[File Information]
Type,Data File
Generated,4/2/2021 11:44:31 PM
Generated by,System Administrator
Modified,4/3/2021 12:24:51 AM
Modified by,System Administrator

[Sample Information]
Operator Name,System Administrator
Acquired,4/2/2021 11:44:50 PM
Sample Type,1:Standard
Level,7
Sample Name,2021-04-02_NC_glucose_glycerol_acetate_calibration_05mM
Sample ID,007
ISTD Amount1,1
ISTD Amount2,1
ISTD Amount3,1
ISTD Amount4,1
ISTD Amount5,1
ISTD Amount6,1
ISTD Amount7,1
ISTD Amount8,1
ISTD Amount9,1
ISTD Amount10,1
ISTD Amount11,1
ISTD Amount12,1
ISTD Amount13,1
ISTD Amount14,1
ISTD Amount15,1
ISTD Amount16,1
ISTD Amount17,1
ISTD Amount18,1
ISTD Amount19,1
ISTD Amount20,1
ISTD Amount21,1
ISTD Amount22,1
ISTD Amount23,1
ISTD Amount24,1
ISTD Amount25,1
ISTD Amount26,1
ISTD Amount27,1
ISTD Amount28,1
ISTD Amount29,1
ISTD Amount30,1
ISTD Amount31,1
ISTD Amount32,1
Sample Amount,1
Dilution Factor,1
Vial#,7
Injection Volume,20

[Original Files]
Data File,C:\Users\cremerlab\Desktop\griffin\2021-03-31_NC_glucose_glycerol_acetate_calibration\calibration_batch_422021_007_007.lcd
Method File,C:\LabSolutions\Data\Project1\organicacidsetc2.lcm
Batch File,C:\Users\cremerlab\Desktop\griffin\2021-03-31_NC_glucose_glycerol_acetate_calibration\calibration_batch.lcb
Report Format File,c:\LabSolutions\System\DEFAULT.lsr

[File Description]


[Configuration]
Instrument Name,HPLC-PC-Instrument1
Instrument #,1
Line #,1
# of Detectors,2
Detector ID,Detector A,Detector B
Detector Name,Detector A,Detector B
# of Channels,1,1

[Peak Table(Detector A)]
# of Peaks,0

[Peak Table(Detector B)]
# of Peaks,5
Peak#,R.Time,I.Time,F.Time,Area,Height,A/H,Conc.,Mark,ID#,Name,k',Plate #,Plate Ht.,Tailing,Resolution,Sep.Factor,Area Ratio,Height Ratio,Conc. %,Norm Conc.
1,11.052,10.758,12.433,1042132,59211,17.600,22.265,   ,,,0.000,10588,14.166,1.366,0.000,0.000,0,0,0.000,0.000
2,15.064,14.108,15.375,2653129,102958,25.769,56.684,   ,,,0.363,7355,20.395,0.000,7.087,0.000,0,0,0.000,0.000
3,15.646,15.375,18.450,696205,27776,25.065,14.874, V ,,,0.416,8641,17.359,0.000,0.845,1.145,0,0,0.000,0.000
4,22.070,21.400,23.092,190846,7075,26.974,4.077,   ,,,0.997,15404,9.738,1.090,9.280,2.398,0,0,0.000,0.000
5,25.060,24.383,25.983,98271,3357,29.272,2.100,   ,,,1.267,16738,8.962,1.063,4.024,1.271,0,0,0.000,0.000

[LC Chromatogram(Detector B-Ch1)]
Interval(msec),500
# of Points,4801
Start Time(min),0.000
End Time(min),40.000
Intensity Units,mV
Intensity Multiplier,0.001
R.Time (min),Intensity
0.00000,0
0.00833,0
0.01667,-0
0.02500,-0
0.03333,-1
0.04167,-1
0.05000,-1
0.05833,-1
0.06667,-1
0.07500,-1
0.08333,-0
0.09167,-0
0.10000,-1
0.10833,-1
0.11667,-1
0.12500,-0
0.13333,-0
0.14167,0
0.15000,0
0.15833,0
0.16667,-0
0.17500,-0
0.18333,-0
0.19167,-0
0.20000,-0
0.20833,0
0.21667,0
0.22500,1
0.23333,1
0.24167,1
0.25000,1
0.25833,0
0.26667,-0
0.27500,-0
0.28333,-0
0.29167,-0
0.30000,-0
0.30833,-0
0.31667,-0
0.32500,-0
0.33333,-0
0.34167,-0
0.35000,-1
0.35833,-1
0.36667,-1
0.37500,-1
0.38333,-0
0.39167,-0
0.40000,0
0.40833,0
0.41667,0
0.42500,0
0.43333,0
0.44167,0
0.45000,0
0.45833,0
0.46667,0
0.47500,0
0.48333,-0
0.49167,-0
0.50000,-0
0.50833,-0
0.51667,-0
0.52500,-1
0.53333,-1
0.54167,-1
0.55000,-0
0.55833,0
0.56667,0
0.57500,0
0.58333,0
0.59167,1
0.60000,1
0.60833,1
0.61667,1
0.62500,0
0.63333,0
0.64167,0
0.65000,-0
0.65833,-1
0.66667,-1
0.67500,-1
0.68333,-2
0.69167,-2
0.70000,-2
0.70833,-2
0.71667,-2
0.72500,-1
0.73333,-1
0.74167,-1
0.75000,-1
0.75833,-1
0.76667,-1
0.77500,-1
0.78333,-1
0.79167,-1
0.80000,-0
0.80833,-0
0.81667,-0
0.82500,-0
0.83333,-0
0.84167,-0
0.85000,-0
0.85833,-0
0.86667,-1
0.87500,-1
0.88333,-1
0.89167,-1
0.90000,-1
0.90833,-1
0.91667,-1
0.92500,-1
0.93333,-1
0.94167,-1
0.95000,-1
0.95833,-1
0.96667,-0
0.97500,-0
0.98333,-0
0.99167,-0
1.00000,-0
1.00833,-0
1.01667,-0
1.02500,-0
1.03333,-0
1.04167,-0
1.05000,-1
1.05833,-1
1.06667,-1
1.07500,-1
1.08333,-1
1.09167,-1
1.10000,-1
1.10833,-1
1.11667,-1
1.12500,-1
1.13333,-0
1.14167,-0
1.15000,0
1.15833,0
1.16667,0
1.17500,0
1.18333,0
1.19167,0
1.20000,0
1.20833,-0
1.21667,-0
1.22500,0
1.23333,0
1.24167,0
1.25000,0
1.25833,0
1.26667,-0
1.27500,-0
1.28333,-1
1.29167,-1
1.30000,-1
1.30833,-1
1.31667,-1
1.32500,-1
1.33333,-1
1.34167,-1
1.35000,-1
1.35833,-1
1.36667,-2
1.37500,-2
1.38333,-2
1.39167,-2
1.40000,-2
1.40833,-2
1.41667,-2
1.42500,-2
1.43333,-1
1.44167,-1
1.45000,-1
1.45833,-1
1.46667,-1
1.47500,-0
1.48333,0
1.49167,-0
1.50000,-0
1.50833,-0
1.51667,-1
1.52500,-1
1.53333,-1
1.54167,-1
1.55000,-1
1.55833,-1
1.56667,-0
1.57500,-0
1.58333,-0
1.59167,-0
1.60000,-1
1.60833,-0
1.61667,-0
1.62500,-0
1.63333,-1
1.64167,-1
1.65000,-1
1.65833,-1
1.66667,-1
1.67500,-1
1.68333,-1
1.69167,-1
1.70000,-1
1.70833,-1
1.71667,-1
1.72500,-1
1.73333,-2
1.74167,-2
1.75000,-2
1.75833,-1
1.76667,-1
1.77500,-1
1.78333,-1
1.79167,-1
1.80000,-1
1.80833,-1
1.81667,-1
1.82500,-1
1.83333,-1
1.84167,-1
1.85000,-1
1.85833,-1
1.86667,-0
1.87500,-0
1.88333,-1
1.89167,-1
1.90000,-1
1.90833,-1
1.91667,-1
1.92500,-1
1.93333,-1
1.94167,-1
1.95000,-1
1.95833,-0
1.96667,-1
1.97500,-1
1.98333,-1
1.99167,-1
2.00000,-1
2.00833,-1
2.01667,-1
2.02500,-1
2.03333,-1
2.04167,-1
2.05000,-1
2.05833,-1
2.06667,-1
2.07500,-1
2.08333,-0
2.09167,-0
2.10000,-0
2.10833,0
2.11667,0
2.12500,-0
2.13333,-0
2.14167,-0
2.15000,-0
2.15833,-0
2.16667,-1
2.17500,-1
2.18333,-1
2.19167,-1
2.20000,-1
2.20833,-1
2.21667,-1
2.22500,-1
2.23333,-1
2.24167,-1
2.25000,-1
2.25833,-0
2.26667,-0
2.27500,-0
2.28333,-0
2.29167,-0
2.30000,-0
2.30833,-0
2.31667,-0
2.32500,-0
2.33333,-0
2.34167,-0
2.35000,-0
2.35833,-1
2.36667,-1
2.37500,-1
2.38333,-1
2.39167,-1
2.40000,-1
2.40833,-1
2.41667,-1
2.42500,-1
2.43333,-1
2.44167,-1
2.45000,-1
2.45833,-1
2.46667,-2
2.47500,-2
2.48333,-2
2.49167,-2
2.50000,-2
2.50833,-2
2.51667,-2
2.52500,-2
2.53333,-2
2.54167,-2
2.55000,-2
2.55833,-2
2.56667,-2
2.57500,-1
2.58333,-2
2.59167,-2
2.60000,-2
2.60833,-2
2.61667,-2
2.62500,-2
2.63333,-2
2.64167,-2
2.65000,-2
2.65833,-2
2.66667,-2
2.67500,-1
2.68333,-1
2.69167,-1
2.70000,-1
2.70833,-2
2.71667,-2
2.72500,-2
2.73333,-2
2.74167,-2
2.75000,-2
2.75833,-2
2.76667,-2
2.77500,-2
2.78333,-2
2.79167,-2
2.80000,-2
2.80833,-2
2.81667,-2
2.82500,-2
2.83333,-2
2.84167,-2
2.85000,-2
2.85833,-2
2.86667,-2
2.87500,-1
2.88333,-1
2.89167,-1
2.90000,-1
2.90833,-2
2.91667,-2
2.92500,-1
2.93333,-1
2.94167,-2
2.95000,-2
2.95833,-2
2.96667,-2
2.97500,-2
2.98333,-2
2.99167,-2
3.00000,-2
3.00833,-1
3.01667,-1
3.02500,-1
3.03333,-1
3.04167,-1
3.05000,-1
3.05833,-1
3.06667,-1
3.07500,-2
3.08333,-2
3.09167,-2
3.10000,-2
3.10833,-1
3.11667,-1
3.12500,-1
3.13333,-1
3.14167,-1
3.15000,-2
3.15833,-2
3.16667,-1
3.17500,-2
3.18333,-2
3.19167,-2
3.20000,-2
3.20833,-2
3.21667,-2
3.22500,-2
3.23333,-1
3.24167,-1
3.25000,-1
3.25833,-1
3.26667,-1
3.27500,-1
3.28333,-1
3.29167,-2
3.30000,-2
3.30833,-2
3.31667,-2
3.32500,-2
3.33333,-2
3.34167,-3
3.35000,-3
3.35833,-3
3.36667,-3
3.37500,-2
3.38333,-2
3.39167,-2
3.40000,-2
3.40833,-2
3.41667,-2
3.42500,-2
3.43333,-2
3.44167,-2
3.45000,-2
3.45833,-2
3.46667,-2
3.47500,-1
3.48333,-1
3.49167,-1
3.50000,-1
3.50833,-1
3.51667,-1
3.52500,-1
3.53333,-1
3.54167,-1
3.55000,-1
3.55833,-1
3.56667,-1
3.57500,-1
3.58333,-1
3.59167,-2
3.60000,-1
3.60833,-1
3.61667,-1
3.62500,-2
3.63333,-2
3.64167,-2
3.65000,-2
3.65833,-2
3.66667,-2
3.67500,-2
3.68333,-2
3.69167,-2
3.70000,-1
3.70833,-1
3.71667,-2
3.72500,-2
3.73333,-2
3.74167,-2
3.75000,-2
3.75833,-1
3.76667,-1
3.77500,-1
3.78333,-2
3.79167,-2
3.80000,-2
3.80833,-2
3.81667,-3
3.82500,-2
3.83333,-2
3.84167,-1
3.85000,-1
3.85833,-2
3.86667,-1
3.87500,-1
3.88333,-2
3.89167,-2
3.90000,-2
3.90833,-2
3.91667,-2
3.92500,-2
3.93333,-2
3.94167,-2
3.95000,-3
3.95833,-3
3.96667,-2
3.97500,-2
3.98333,-2
3.99167,-3
4.00000,-3
4.00833,-3
4.01667,-2
4.02500,-2
4.03333,-3
4.04167,-3
4.05000,-3
4.05833,-3
4.06667,-3
4.07500,-3
4.08333,-3
4.09167,-3
4.10000,-3
4.10833,-3
4.11667,-2
4.12500,-2
4.13333,-2
4.14167,-3
4.15000,-3
4.15833,-3
4.16667,-3
4.17500,-3
4.18333,-3
4.19167,-3
4.20000,-2
4.20833,-2
4.21667,-2
4.22500,-2
4.23333,-2
4.24167,-3
4.25000,-2
4.25833,-2
4.26667,-2
4.27500,-2
4.28333,-3
4.29167,-2
4.30000,-2
4.30833,-2
4.31667,-2
4.32500,-2
4.33333,-2
4.34167,-2
4.35000,-2
4.35833,-2
4.36667,-2
4.37500,-2
4.38333,-2
4.39167,-2
4.40000,-2
4.40833,-2
4.41667,-2
4.42500,-2
4.43333,-3
4.44167,-3
4.45000,-3
4.45833,-3
4.46667,-3
4.47500,-2
4.48333,-2
4.49167,-2
4.50000,-2
4.50833,-2
4.51667,-2
4.52500,-2
4.53333,-2
4.54167,-2
4.55000,-3
4.55833,-2
4.56667,-2
4.57500,-2
4.58333,-1
4.59167,-2
4.60000,-2
4.60833,-3
4.61667,-3
4.62500,-3
4.63333,-2
4.64167,-2
4.65000,-2
4.65833,-2
4.66667,-2
4.67500,-2
4.68333,-2
4.69167,-3
4.70000,-3
4.70833,-2
4.71667,-2
4.72500,-2
4.73333,-2
4.74167,-2
4.75000,-2
4.75833,-2
4.76667,-2
4.77500,-2
4.78333,-2
4.79167,-2
4.80000,-2
4.80833,-2
4.81667,-2
4.82500,-2
4.83333,-1
4.84167,-1
4.85000,-1
4.85833,-1
4.86667,-1
4.87500,-1
4.88333,-1
4.89167,-2
4.90000,-2
4.90833,-2
4.91667,-2
4.92500,-2
4.93333,-2
4.94167,-2
4.95000,-2
4.95833,-1
4.96667,-1
4.97500,-1
4.98333,-2
4.99167,-2
5.00000,-2
5.00833,-2
5.01667,-1
5.02500,-1
5.03333,-1
5.04167,-1
5.05000,-1
5.05833,-1
5.06667,-1
5.07500,-2
5.08333,-2
5.09167,-2
5.10000,-2
5.10833,-2
5.11667,-2
5.12500,-2
5.13333,-2
5.14167,-2
5.15000,-2
5.15833,-2
5.16667,-2
5.17500,-2
5.18333,-2
5.19167,-2
5.20000,-2
5.20833,-2
5.21667,-2
5.22500,-2
5.23333,-2
5.24167,-2
5.25000,-2
5.25833,-2
5.26667,-1
5.27500,-1
5.28333,-1
5.29167,-1
5.30000,-1
5.30833,-1
5.31667,-1
5.32500,-1
5.33333,-1
5.34167,-1
5.35000,-2
5.35833,-2
5.36667,-2
5.37500,-2
5.38333,-3
5.39167,-3
5.40000,-3
5.40833,-2
5.41667,-2
5.42500,-2
5.43333,-2
5.44167,-2
5.45000,-2
5.45833,-2
5.46667,-2
5.47500,-2
5.48333,-2
5.49167,-2
5.50000,-2
5.50833,-2
5.51667,-3
5.52500,-3
5.53333,-3
5.54167,-3
5.55000,-2
5.55833,-2
5.56667,-2
5.57500,-2
5.58333,-3
5.59167,-3
5.60000,-3
5.60833,-3
5.61667,-3
5.62500,-3
5.63333,-3
5.64167,-3
5.65000,-3
5.65833,-3
5.66667,-3
5.67500,-2
5.68333,-2
5.69167,-2
5.70000,-2
5.70833,-2
5.71667,-2
5.72500,-2
5.73333,-2
5.74167,-2
5.75000,-2
5.75833,-2
5.76667,-2
5.77500,-2
5.78333,-2
5.79167,-2
5.80000,-2
5.80833,-3
5.81667,-3
5.82500,-3
5.83333,-3
5.84167,-3
5.85000,-3
5.85833,-3
5.86667,-3
5.87500,-3
5.88333,-3
5.89167,-3
5.90000,-3
5.90833,-3
5.91667,-3
5.92500,-2
5.93333,-2
5.94167,-2
5.95000,-2
5.95833,-2
5.96667,-2
5.97500,-2
5.98333,-2
5.99167,-2
6.00000,-3
6.00833,-3
6.01667,-3
6.02500,-2
6.03333,-2
6.04167,-3
6.05000,-3
6.05833,-3
6.06667,-3
6.07500,-3
6.08333,-3
6.09167,-2
6.10000,-2
6.10833,-2
6.11667,-2
6.12500,-2
6.13333,-2
6.14167,-1
6.15000,-1
6.15833,-1
6.16667,-1
6.17500,-1
6.18333,-1
6.19167,-2
6.20000,-2
6.20833,-2
6.21667,-2
6.22500,-2
6.23333,-2
6.24167,-2
6.25000,-2
6.25833,-2
6.26667,-2
6.27500,-2
6.28333,-2
6.29167,-2
6.30000,-2
6.30833,-2
6.31667,-3
6.32500,-3
6.33333,-2
6.34167,-2
6.35000,-2
6.35833,-2
6.36667,-2
6.37500,-2
6.38333,-2
6.39167,-3
6.40000,-3
6.40833,-3
6.41667,-3
6.42500,-3
6.43333,-3
6.44167,-3
6.45000,-3
6.45833,-3
6.46667,-3
6.47500,-3
6.48333,-2
6.49167,-2
6.50000,-2
6.50833,-2
6.51667,-2
6.52500,-2
6.53333,-2
6.54167,-2
6.55000,-1
6.55833,-1
6.56667,-1
6.57500,-1
6.58333,-2
6.59167,-2
6.60000,-2
6.60833,-2
6.61667,-2
6.62500,-2
6.63333,-2
6.64167,-2
6.65000,-2
6.65833,-1
6.66667,-1
6.67500,-2
6.68333,-2
6.69167,-2
6.70000,-2
6.70833,-2
6.71667,-2
6.72500,-2
6.73333,-2
6.74167,-2
6.75000,-2
6.75833,-2
6.76667,-2
6.77500,-2
6.78333,-2
6.79167,-1
6.80000,-2
6.80833,-2
6.81667,-2
6.82500,-2
6.83333,-2
6.84167,-1
6.85000,-1
6.85833,-1
6.86667,-1
6.87500,-1
6.88333,-0
6.89167,-0
6.90000,-0
6.90833,-0
6.91667,-0
6.92500,-0
6.93333,-0
6.94167,-0
6.95000,-1
6.95833,-1
6.96667,-1
6.97500,-1
6.98333,-1
6.99167,-0
7.00000,-0
7.00833,-1
7.01667,-1
7.02500,-1
7.03333,-1
7.04167,-1
7.05000,-1
7.05833,-1
7.06667,-1
7.07500,-1
7.08333,-1
7.09167,-1
7.10000,-1
7.10833,-1
7.11667,-1
7.12500,-1
7.13333,-1
7.14167,-1
7.15000,-1
7.15833,-1
7.16667,-1
7.17500,-2
7.18333,-2
7.19167,-2
7.20000,-2
7.20833,-2
7.21667,-2
7.22500,-2
7.23333,-1
7.24167,-1
7.25000,-1
7.25833,-1
7.26667,-2
7.27500,-2
7.28333,-2
7.29167,-2
7.30000,-2
7.30833,-2
7.31667,-2
7.32500,-2
7.33333,-2
7.34167,-2
7.35000,-2
7.35833,-2
7.36667,-1
7.37500,-1
7.38333,-1
7.39167,-1
7.40000,-1
7.40833,-1
7.41667,-1
7.42500,-1
7.43333,-1
7.44167,-1
7.45000,-1
7.45833,-1
7.46667,-0
7.47500,-0
7.48333,-1
7.49167,-1
7.50000,-1
7.50833,-2
7.51667,-2
7.52500,-2
7.53333,-2
7.54167,-2
7.55000,-2
7.55833,-2
7.56667,-2
7.57500,-1
7.58333,-1
7.59167,-1
7.60000,-1
7.60833,-1
7.61667,-2
7.62500,-2
7.63333,-2
7.64167,-2
7.65000,-2
7.65833,-2
7.66667,-1
7.67500,-1
7.68333,-1
7.69167,-1
7.70000,-1
7.70833,-1
7.71667,-2
7.72500,-2
7.73333,-2
7.74167,-1
7.75000,-1
7.75833,-1
7.76667,-1
7.77500,-1
7.78333,-1
7.79167,-1
7.80000,-1
7.80833,-1
7.81667,-1
7.82500,-1
7.83333,-1
7.84167,-0
7.85000,0
7.85833,0
7.86667,-0
7.87500,-0
7.88333,-0
7.89167,-0
7.90000,-0
7.90833,-0
7.91667,-1
7.92500,-1
7.93333,-1
7.94167,-1
7.95000,-1
7.95833,-1
7.96667,-1
7.97500,-0
7.98333,-0
7.99167,-0
8.00000,-0
8.00833,-1
8.01667,-1
8.02500,-1
8.03333,-1
8.04167,-1
8.05000,-2
8.05833,-1
8.06667,-1
8.07500,-1
8.08333,-2
8.09167,-2
8.10000,-2
8.10833,-2
8.11667,-1
8.12500,-1
8.13333,-1
8.14167,-1
8.15000,-2
8.15833,-1
8.16667,-1
8.17500,-1
8.18333,-1
8.19167,-2
8.20000,-2
8.20833,-1
8.21667,-1
8.22500,-1
8.23333,-1
8.24167,-1
8.25000,-1
8.25833,-2
8.26667,-1
8.27500,-1
8.28333,-1
8.29167,-1
8.30000,-1
8.30833,-1
8.31667,-1
8.32500,-1
8.33333,-1
8.34167,-1
8.35000,-1
8.35833,-1
8.36667,-1
8.37500,-1
8.38333,-1
8.39167,-1
8.40000,-1
8.40833,-1
8.41667,-1
8.42500,-1
8.43333,-1
8.44167,-1
8.45000,-1
8.45833,-1
8.46667,-1
8.47500,-1
8.48333,-1
8.49167,-2
8.50000,-2
8.50833,-3
8.51667,-3
8.52500,-2
8.53333,-2
8.54167,-2
8.55000,-2
8.55833,-2
8.56667,-2
8.57500,-2
8.58333,-2
8.59167,-2
8.60000,-2
8.60833,-2
8.61667,-2
8.62500,-2
8.63333,-1
8.64167,-1
8.65000,-1
8.65833,-1
8.66667,-1
8.67500,-1
8.68333,-1
8.69167,-1
8.70000,-1
8.70833,-1
8.71667,-1
8.72500,-1
8.73333,-1
8.74167,-1
8.75000,-1
8.75833,-1
8.76667,-1
8.77500,-1
8.78333,-1
8.79167,-1
8.80000,-1
8.80833,-1
8.81667,-1
8.82500,-1
8.83333,-1
8.84167,-1
8.85000,-1
8.85833,-2
8.86667,-2
8.87500,-2
8.88333,-3
8.89167,-3
8.90000,-2
8.90833,-3
8.91667,-3
8.92500,-3
8.93333,-3
8.94167,-3
8.95000,-3
8.95833,-3
8.96667,-2
8.97500,-2
8.98333,-2
8.99167,-2
9.00000,-1
9.00833,-2
9.01667,-1
9.02500,-1
9.03333,-1
9.04167,-1
9.05000,-2
9.05833,-2
9.06667,-2
9.07500,-2
9.08333,-2
9.09167,-2
9.10000,-2
9.10833,-2
9.11667,-2
9.12500,-2
9.13333,-2
9.14167,-2
9.15000,-2
9.15833,-2
9.16667,-2
9.17500,-2
9.18333,-2
9.19167,-2
9.20000,-2
9.20833,-2
9.21667,-2
9.22500,-2
9.23333,-2
9.24167,-1
9.25000,-1
9.25833,-1
9.26667,-1
9.27500,-1
9.28333,-1
9.29167,-1
9.30000,-1
9.30833,-2
9.31667,-2
9.32500,-2
9.33333,-2
9.34167,-2
9.35000,-2
9.35833,-2
9.36667,-2
9.37500,-1
9.38333,-1
9.39167,-1
9.40000,-1
9.40833,-1
9.41667,-1
9.42500,-1
9.43333,-1
9.44167,-1
9.45000,-1
9.45833,-1
9.46667,-1
9.47500,-1
9.48333,-1
9.49167,-1
9.50000,-1
9.50833,-1
9.51667,-1
9.52500,-1
9.53333,-1
9.54167,-1
9.55000,-1
9.55833,-2
9.56667,-2
9.57500,-2
9.58333,-1
9.59167,-1
9.60000,-1
9.60833,-1
9.61667,-1
9.62500,-1
9.63333,-1
9.64167,-1
9.65000,-1
9.65833,-1
9.66667,-1
9.67500,-1
9.68333,-1
9.69167,-2
9.70000,-2
9.70833,-2
9.71667,-2
9.72500,-2
9.73333,-2
9.74167,-2
9.75000,-2
9.75833,-2
9.76667,-2
9.77500,-2
9.78333,-2
9.79167,-2
9.80000,-2
9.80833,-2
9.81667,-2
9.82500,-2
9.83333,-2
9.84167,-2
9.85000,-2
9.85833,-1
9.86667,-1
9.87500,-1
9.88333,-1
9.89167,-1
9.90000,-1
9.90833,-1
9.91667,-1
9.92500,-1
9.93333,-1
9.94167,-1
9.95000,-1
9.95833,-0
9.96667,-0
9.97500,0
9.98333,0
9.99167,-0
10.00000,-1
10.00833,-1
10.01667,-1
10.02500,-1
10.03333,-1
10.04167,-1
10.05000,-1
10.05833,-1
10.06667,-1
10.07500,-1
10.08333,-1
10.09167,-1
10.10000,-0
10.10833,-0
10.11667,-0
10.12500,-1
10.13333,-1
10.14167,-0
10.15000,-0
10.15833,-0
10.16667,0
10.17500,0
10.18333,0
10.19167,0
10.20000,0
10.20833,0
10.21667,0
10.22500,0
10.23333,0
10.24167,1
10.25000,1
10.25833,1
10.26667,1
10.27500,1
10.28333,1
10.29167,0
10.30000,1
10.30833,1
10.31667,1
10.32500,1
10.33333,1
10.34167,2
10.35000,2
10.35833,2
10.36667,2
10.37500,2
10.38333,2
10.39167,3
10.40000,3
10.40833,3
10.41667,3
10.42500,4
10.43333,4
10.44167,5
10.45000,5
10.45833,5
10.46667,4
10.47500,4
10.48333,4
10.49167,4
10.50000,2
10.50833,0
10.51667,-3
10.52500,-8
10.53333,-15
10.54167,-25
10.55000,-38
10.55833,-56
10.56667,-80
10.57500,-112
10.58333,-153
10.59167,-205
10.60000,-270
10.60833,-351
10.61667,-449
10.62500,-567
10.63333,-705
10.64167,-865
10.65000,-1048
10.65833,-1253
10.66667,-1479
10.67500,-1723
10.68333,-1982
10.69167,-2250
10.70000,-2522
10.70833,-2788
10.71667,-3041
10.72500,-3269
10.73333,-3461
10.74167,-3605
10.75000,-3688
10.75833,-3699
10.76667,-3623
10.77500,-3449
10.78333,-3164
10.79167,-2758
10.80000,-2220
10.80833,-1541
10.81667,-714
10.82500,268
10.83333,1409
10.84167,2714
10.85000,4182
10.85833,5816
10.86667,7612
10.87500,9568
10.88333,11677
10.89167,13934
10.90000,16328
10.90833,18848
10.91667,21481
10.92500,24209
10.93333,27014
10.94167,29872
10.95000,32757
10.95833,35640
10.96667,38487
10.97500,41262
10.98333,43924
10.99167,46431
11.00000,48740
11.00833,50806
11.01667,52587
11.02500,54045
11.03333,55145
11.04167,55862
11.05000,56179
11.05833,56089
11.06667,55595
11.07500,54711
11.08333,53462
11.09167,51879
11.10000,50004
11.10833,47881
11.11667,45559
11.12500,43087
11.13333,40514
11.14167,37886
11.15000,35246
11.15833,32630
11.16667,30072
11.17500,27598
11.18333,25229
11.19167,22982
11.20000,20867
11.20833,18891
11.21667,17056
11.22500,15363
11.23333,13809
11.24167,12389
11.25000,11099
11.25833,9929
11.26667,8873
11.27500,7923
11.28333,7071
11.29167,6309
11.30000,5628
11.30833,5022
11.31667,4482
11.32500,4003
11.33333,3579
11.34167,3204
11.35000,2871
11.35833,2578
11.36667,2319
11.37500,2089
11.38333,1887
11.39167,1709
11.40000,1551
11.40833,1411
11.41667,1288
11.42500,1179
11.43333,1083
11.44167,998
11.45000,922
11.45833,855
11.46667,794
11.47500,741
11.48333,692
11.49167,649
11.50000,611
11.50833,576
11.51667,545
11.52500,516
11.53333,490
11.54167,466
11.55000,444
11.55833,424
11.56667,406
11.57500,389
11.58333,374
11.59167,360
11.60000,347
11.60833,334
11.61667,323
11.62500,312
11.63333,301
11.64167,292
11.65000,283
11.65833,274
11.66667,266
11.67500,259
11.68333,252
11.69167,245
11.70000,238
11.70833,233
11.71667,227
11.72500,221
11.73333,216
11.74167,211
11.75000,207
11.75833,203
11.76667,199
11.77500,195
11.78333,191
11.79167,188
11.80000,184
11.80833,181
11.81667,178
11.82500,175
11.83333,172
11.84167,169
11.85000,167
11.85833,164
11.86667,162
11.87500,160
11.88333,158
11.89167,156
11.90000,155
11.90833,153
11.91667,151
11.92500,150
11.93333,148
11.94167,147
11.95000,145
11.95833,144
11.96667,142
11.97500,141
11.98333,140
11.99167,139
12.00000,138
12.00833,137
12.01667,137
12.02500,136
12.03333,135
12.04167,134
12.05000,133
12.05833,131
12.06667,130
12.07500,130
12.08333,128
12.09167,127
12.10000,126
12.10833,125
12.11667,124
12.12500,123
12.13333,122
12.14167,121
12.15000,121
12.15833,120
12.16667,120
12.17500,119
12.18333,118
12.19167,117
12.20000,117
12.20833,116
12.21667,115
12.22500,114
12.23333,113
12.24167,112
12.25000,111
12.25833,110
12.26667,110
12.27500,109
12.28333,108
12.29167,107
12.30000,107
12.30833,106
12.31667,105
12.32500,105
12.33333,104
12.34167,103
12.35000,103
12.35833,102
12.36667,102
12.37500,101
12.38333,101
12.39167,100
12.40000,99
12.40833,99
12.41667,99
12.42500,98
12.43333,98
12.44167,98
12.45000,97
12.45833,97
12.46667,96
12.47500,96
12.48333,96
12.49167,95
12.50000,95
12.50833,94
12.51667,93
12.52500,93
12.53333,93
12.54167,92
12.55000,92
12.55833,91
12.56667,90
12.57500,90
12.58333,89
12.59167,89
12.60000,89
12.60833,88
12.61667,88
12.62500,87
12.63333,87
12.64167,86
12.65000,86
12.65833,85
12.66667,85
12.67500,85
12.68333,84
12.69167,84
12.70000,84
12.70833,83
12.71667,83
12.72500,83
12.73333,83
12.74167,82
12.75000,82
12.75833,81
12.76667,80
12.77500,79
12.78333,79
12.79167,78
12.80000,78
12.80833,78
12.81667,77
12.82500,77
12.83333,77
12.84167,77
12.85000,76
12.85833,76
12.86667,76
12.87500,76
12.88333,76
12.89167,76
12.90000,76
12.90833,75
12.91667,74
12.92500,74
12.93333,74
12.94167,74
12.95000,74
12.95833,74
12.96667,74
12.97500,74
12.98333,74
12.99167,73
13.00000,73
13.00833,73
13.01667,72
13.02500,72
13.03333,72
13.04167,71
13.05000,71
13.05833,71
13.06667,71
13.07500,71
13.08333,71
13.09167,71
13.10000,71
13.10833,71
13.11667,71
13.12500,70
13.13333,70
13.14167,69
13.15000,68
13.15833,68
13.16667,68
13.17500,68
13.18333,67
13.19167,67
13.20000,66
13.20833,65
13.21667,65
13.22500,64
13.23333,63
13.24167,63
13.25000,62
13.25833,62
13.26667,62
13.27500,61
13.28333,61
13.29167,60
13.30000,60
13.30833,59
13.31667,59
13.32500,58
13.33333,57
13.34167,56
13.35000,55
13.35833,54
13.36667,54
13.37500,53
13.38333,52
13.39167,51
13.40000,49
13.40833,49
13.41667,48
13.42500,47
13.43333,46
13.44167,46
13.45000,45
13.45833,45
13.46667,44
13.47500,44
13.48333,43
13.49167,42
13.50000,41
13.50833,41
13.51667,40
13.52500,40
13.53333,39
13.54167,38
13.55000,38
13.55833,37
13.56667,36
13.57500,35
13.58333,35
13.59167,34
13.60000,34
13.60833,33
13.61667,33
13.62500,32
13.63333,32
13.64167,32
13.65000,31
13.65833,31
13.66667,31
13.67500,31
13.68333,31
13.69167,30
13.70000,30
13.70833,30
13.71667,30
13.72500,30
13.73333,30
13.74167,30
13.75000,29
13.75833,29
13.76667,29
13.77500,30
13.78333,30
13.79167,30
13.80000,30
13.80833,30
13.81667,30
13.82500,30
13.83333,30
13.84167,30
13.85000,30
13.85833,30
13.86667,30
13.87500,30
13.88333,30
13.89167,30
13.90000,30
13.90833,30
13.91667,30
13.92500,30
13.93333,30
13.94167,31
13.95000,31
13.95833,31
13.96667,31
13.97500,31
13.98333,31
13.99167,31
14.00000,32
14.00833,32
14.01667,33
14.02500,33
14.03333,33
14.04167,34
14.05000,35
14.05833,35
14.06667,36
14.07500,37
14.08333,37
14.09167,38
14.10000,38
14.10833,39
14.11667,40
14.12500,41
14.13333,43
14.14167,44
14.15000,46
14.15833,48
14.16667,51
14.17500,53
14.18333,57
14.19167,61
14.20000,65
14.20833,71
14.21667,77
14.22500,86
14.23333,96
14.24167,108
14.25000,123
14.25833,140
14.26667,161
14.27500,186
14.28333,217
14.29167,253
14.30000,296
14.30833,347
14.31667,407
14.32500,478
14.33333,561
14.34167,657
14.35000,767
14.35833,895
14.36667,1039
14.37500,1204
14.38333,1389
14.39167,1599
14.40000,1833
14.40833,2094
14.41667,2382
14.42500,2700
14.43333,3049
14.44167,3430
14.45000,3843
14.45833,4290
14.46667,4771
14.47500,5289
14.48333,5841
14.49167,6430
14.50000,7055
14.50833,7717
14.51667,8415
14.52500,9149
14.53333,9919
14.54167,10725
14.55000,11567
14.55833,12443
14.56667,13354
14.57500,14298
14.58333,15276
14.59167,16287
14.60000,17329
14.60833,18404
14.61667,19509
14.62500,20644
14.63333,21809
14.64167,23003
14.65000,24224
14.65833,25474
14.66667,26751
14.67500,28054
14.68333,29384
14.69167,30739
14.70000,32119
14.70833,33524
14.71667,34954
14.72500,36406
14.73333,37883
14.74167,39382
14.75000,40904
14.75833,42448
14.76667,44014
14.77500,45602
14.78333,47211
14.79167,48841
14.80000,50491
14.80833,52162
14.81667,53852
14.82500,55562
14.83333,57291
14.84167,59038
14.85000,60804
14.85833,62587
14.86667,64387
14.87500,66205
14.88333,68038
14.89167,69886
14.90000,71748
14.90833,73623
14.91667,75509
14.92500,77406
14.93333,79311
14.94167,81222
14.95000,83136
14.95833,85050
14.96667,86958
14.97500,88855
14.98333,90731
14.99167,92575
15.00000,94369
15.00833,96092
15.01667,97716
15.02500,99206
15.03333,100521
15.04167,101611
15.05000,102426
15.05833,102910
15.06667,103007
15.07500,102669
15.08333,101851
15.09167,100523
15.10000,98669
15.10833,96289
15.11667,93403
15.12500,90045
15.13333,86268
15.14167,82136
15.15000,77724
15.15833,73111
15.16667,68380
15.17500,63611
15.18333,58876
15.19167,54244
15.20000,49770
15.20833,45500
15.21667,41470
15.22500,37704
15.23333,34217
15.24167,31017
15.25000,28103
15.25833,25469
15.26667,23105
15.27500,20999
15.28333,19136
15.29167,17500
15.30000,16076
15.30833,14849
15.31667,13803
15.32500,12924
15.33333,12201
15.34167,11622
15.35000,11177
15.35833,10856
15.36667,10651
15.37500,10556
15.38333,10563
15.39167,10666
15.40000,10860
15.40833,11140
15.41667,11498
15.42500,11931
15.43333,12433
15.44167,12998
15.45000,13621
15.45833,14295
15.46667,15014
15.47500,15771
15.48333,16559
15.49167,17372
15.50000,18201
15.50833,19039
15.51667,19878
15.52500,20710
15.53333,21527
15.54167,22323
15.55000,23088
15.55833,23816
15.56667,24500
15.57500,25133
15.58333,25711
15.59167,26227
15.60000,26677
15.60833,27057
15.61667,27364
15.62500,27596
15.63333,27752
15.64167,27830
15.65000,27831
15.65833,27756
15.66667,27605
15.67500,27381
15.68333,27087
15.69167,26726
15.70000,26302
15.70833,25820
15.71667,25283
15.72500,24697
15.73333,24067
15.74167,23397
15.75000,22694
15.75833,21962
15.76667,21207
15.77500,20434
15.78333,19647
15.79167,18852
15.80000,18053
15.80833,17254
15.81667,16459
15.82500,15671
15.83333,14895
15.84167,14133
15.85000,13388
15.85833,12662
15.86667,11957
15.87500,11274
15.88333,10616
15.89167,9983
15.90000,9376
15.90833,8795
15.91667,8241
15.92500,7714
15.93333,7214
15.94167,6740
15.95000,6292
15.95833,5869
15.96667,5472
15.97500,5098
15.98333,4749
15.99167,4421
16.00000,4116
16.00833,3831
16.01667,3566
16.02500,3319
16.03333,3090
16.04167,2878
16.05000,2681
16.05833,2498
16.06667,2330
16.07500,2175
16.08333,2032
16.09167,1900
16.10000,1779
16.10833,1667
16.11667,1564
16.12500,1469
16.13333,1382
16.14167,1302
16.15000,1229
16.15833,1162
16.16667,1100
16.17500,1043
16.18333,990
16.19167,943
16.20000,898
16.20833,858
16.21667,820
16.22500,786
16.23333,755
16.24167,726
16.25000,699
16.25833,675
16.26667,652
16.27500,631
16.28333,612
16.29167,593
16.30000,577
16.30833,561
16.31667,546
16.32500,532
16.33333,519
16.34167,507
16.35000,495
16.35833,484
16.36667,474
16.37500,465
16.38333,456
16.39167,447
16.40000,440
16.40833,433
16.41667,426
16.42500,419
16.43333,413
16.44167,407
16.45000,400
16.45833,395
16.46667,389
16.47500,384
16.48333,380
16.49167,375
16.50000,371
16.50833,366
16.51667,362
16.52500,358
16.53333,354
16.54167,351
16.55000,348
16.55833,345
16.56667,341
16.57500,338
16.58333,335
16.59167,332
16.60000,330
16.60833,327
16.61667,324
16.62500,321
16.63333,319
16.64167,316
16.65000,313
16.65833,311
16.66667,308
16.67500,306
16.68333,304
16.69167,302
16.70000,300
16.70833,298
16.71667,296
16.72500,293
16.73333,291
16.74167,289
16.75000,287
16.75833,285
16.76667,283
16.77500,282
16.78333,280
16.79167,278
16.80000,276
16.80833,275
16.81667,273
16.82500,272
16.83333,271
16.84167,269
16.85000,267
16.85833,265
16.86667,264
16.87500,262
16.88333,260
16.89167,259
16.90000,257
16.90833,256
16.91667,254
16.92500,252
16.93333,251
16.94167,249
16.95000,248
16.95833,246
16.96667,245
16.97500,243
16.98333,242
16.99167,240
17.00000,239
17.00833,238
17.01667,236
17.02500,235
17.03333,233
17.04167,232
17.05000,230
17.05833,229
17.06667,227
17.07500,226
17.08333,225
17.09167,224
17.10000,223
17.10833,221
17.11667,220
17.12500,219
17.13333,218
17.14167,216
17.15000,215
17.15833,214
17.16667,213
17.17500,211
17.18333,210
17.19167,209
17.20000,208
17.20833,207
17.21667,206
17.22500,205
17.23333,204
17.24167,202
17.25000,201
17.25833,200
17.26667,199
17.27500,198
17.28333,197
17.29167,196
17.30000,195
17.30833,193
17.31667,192
17.32500,191
17.33333,190
17.34167,189
17.35000,188
17.35833,187
17.36667,186
17.37500,185
17.38333,184
17.39167,182
17.40000,181
17.40833,180
17.41667,180
17.42500,179
17.43333,178
17.44167,177
17.45000,176
17.45833,175
17.46667,174
17.47500,174
17.48333,173
17.49167,172
17.50000,171
17.50833,170
17.51667,169
17.52500,167
17.53333,166
17.54167,165
17.55000,164
17.55833,163
17.56667,162
17.57500,161
17.58333,160
17.59167,160
17.60000,159
17.60833,158
17.61667,157
17.62500,156
17.63333,155
17.64167,154
17.65000,153
17.65833,152
17.66667,152
17.67500,151
17.68333,150
17.69167,149
17.70000,149
17.70833,148
17.71667,147
17.72500,146
17.73333,145
17.74167,144
17.75000,143
17.75833,143
17.76667,142
17.77500,141
17.78333,140
17.79167,140
17.80000,139
17.80833,138
17.81667,137
17.82500,136
17.83333,136
17.84167,135
17.85000,134
17.85833,133
17.86667,132
17.87500,131
17.88333,131
17.89167,130
17.90000,129
17.90833,128
17.91667,128
17.92500,127
17.93333,126
17.94167,126
17.95000,125
17.95833,124
17.96667,124
17.97500,123
17.98333,122
17.99167,121
18.00000,121
18.00833,120
18.01667,119
18.02500,119
18.03333,118
18.04167,118
18.05000,117
18.05833,116
18.06667,115
18.07500,115
18.08333,114
18.09167,114
18.10000,113
18.10833,112
18.11667,112
18.12500,111
18.13333,110
18.14167,110
18.15000,109
18.15833,108
18.16667,107
18.17500,106
18.18333,106
18.19167,105
18.20000,105
18.20833,104
18.21667,104
18.22500,103
18.23333,102
18.24167,102
18.25000,101
18.25833,100
18.26667,99
18.27500,99
18.28333,99
18.29167,98
18.30000,98
18.30833,97
18.31667,96
18.32500,96
18.33333,95
18.34167,94
18.35000,93
18.35833,93
18.36667,92
18.37500,92
18.38333,91
18.39167,90
18.40000,89
18.40833,88
18.41667,88
18.42500,88
18.43333,87
18.44167,86
18.45000,86
18.45833,86
18.46667,86
18.47500,85
18.48333,85
18.49167,84
18.50000,84
18.50833,84
18.51667,83
18.52500,83
18.53333,83
18.54167,82
18.55000,82
18.55833,81
18.56667,81
18.57500,80
18.58333,80
18.59167,79
18.60000,79
18.60833,78
18.61667,78
18.62500,78
18.63333,77
18.64167,77
18.65000,77
18.65833,76
18.66667,76
18.67500,76
18.68333,75
18.69167,75
18.70000,75
18.70833,75
18.71667,75
18.72500,75
18.73333,75
18.74167,75
18.75000,76
18.75833,76
18.76667,76
18.77500,77
18.78333,77
18.79167,78
18.80000,79
18.80833,79
18.81667,80
18.82500,81
18.83333,81
18.84167,82
18.85000,82
18.85833,83
18.86667,84
18.87500,84
18.88333,85
18.89167,86
18.90000,86
18.90833,87
18.91667,87
18.92500,88
18.93333,88
18.94167,89
18.95000,89
18.95833,89
18.96667,90
18.97500,90
18.98333,90
18.99167,90
19.00000,90
19.00833,90
19.01667,89
19.02500,89
19.03333,88
19.04167,88
19.05000,87
19.05833,86
19.06667,85
19.07500,84
19.08333,83
19.09167,83
19.10000,82
19.10833,81
19.11667,80
19.12500,78
19.13333,77
19.14167,75
19.15000,74
19.15833,73
19.16667,72
19.17500,71
19.18333,69
19.19167,68
19.20000,67
19.20833,65
19.21667,64
19.22500,63
19.23333,62
19.24167,60
19.25000,60
19.25833,59
19.26667,59
19.27500,58
19.28333,56
19.29167,55
19.30000,55
19.30833,54
19.31667,53
19.32500,52
19.33333,51
19.34167,50
19.35000,49
19.35833,49
19.36667,48
19.37500,47
19.38333,47
19.39167,46
19.40000,46
19.40833,45
19.41667,45
19.42500,45
19.43333,44
19.44167,44
19.45000,44
19.45833,43
19.46667,43
19.47500,43
19.48333,42
19.49167,42
19.50000,41
19.50833,41
19.51667,41
19.52500,40
19.53333,40
19.54167,40
19.55000,39
19.55833,38
19.56667,38
19.57500,38
19.58333,37
19.59167,37
19.60000,37
19.60833,37
19.61667,37
19.62500,37
19.63333,37
19.64167,37
19.65000,36
19.65833,36
19.66667,36
19.67500,35
19.68333,35
19.69167,35
19.70000,34
19.70833,34
19.71667,34
19.72500,34
19.73333,34
19.74167,34
19.75000,33
19.75833,33
19.76667,33
19.77500,33
19.78333,32
19.79167,32
19.80000,32
19.80833,32
19.81667,32
19.82500,31
19.83333,31
19.84167,31
19.85000,31
19.85833,31
19.86667,31
19.87500,30
19.88333,30
19.89167,30
19.90000,29
19.90833,29
19.91667,29
19.92500,29
19.93333,28
19.94167,28
19.95000,28
19.95833,29
19.96667,29
19.97500,29
19.98333,29
19.99167,29
20.00000,29
20.00833,28
20.01667,28
20.02500,27
20.03333,27
20.04167,26
20.05000,26
20.05833,27
20.06667,27
20.07500,27
20.08333,26
20.09167,26
20.10000,26
20.10833,26
20.11667,26
20.12500,25
20.13333,25
20.14167,25
20.15000,25
20.15833,24
20.16667,24
20.17500,24
20.18333,24
20.19167,23
20.20000,23
20.20833,23
20.21667,23
20.22500,23
20.23333,23
20.24167,23
20.25000,23
20.25833,23
20.26667,23
20.27500,23
20.28333,23
20.29167,22
20.30000,22
20.30833,22
20.31667,22
20.32500,22
20.33333,22
20.34167,21
20.35000,21
20.35833,21
20.36667,21
20.37500,21
20.38333,21
20.39167,21
20.40000,20
20.40833,20
20.41667,20
20.42500,20
20.43333,20
20.44167,20
20.45000,20
20.45833,20
20.46667,20
20.47500,20
20.48333,20
20.49167,20
20.50000,19
20.50833,19
20.51667,19
20.52500,18
20.53333,18
20.54167,18
20.55000,18
20.55833,18
20.56667,18
20.57500,18
20.58333,18
20.59167,17
20.60000,17
20.60833,17
20.61667,17
20.62500,16
20.63333,17
20.64167,17
20.65000,17
20.65833,17
20.66667,17
20.67500,17
20.68333,17
20.69167,17
20.70000,17
20.70833,17
20.71667,17
20.72500,17
20.73333,17
20.74167,17
20.75000,17
20.75833,17
20.76667,16
20.77500,16
20.78333,16
20.79167,15
20.80000,15
20.80833,16
20.81667,16
20.82500,16
20.83333,16
20.84167,16
20.85000,15
20.85833,15
20.86667,15
20.87500,15
20.88333,15
20.89167,15
20.90000,15
20.90833,15
20.91667,15
20.92500,14
20.93333,14
20.94167,13
20.95000,13
20.95833,13
20.96667,13
20.97500,13
20.98333,13
20.99167,13
21.00000,13
21.00833,12
21.01667,12
21.02500,12
21.03333,12
21.04167,12
21.05000,12
21.05833,13
21.06667,13
21.07500,13
21.08333,13
21.09167,13
21.10000,13
21.10833,13
21.11667,12
21.12500,12
21.13333,12
21.14167,12
21.15000,12
21.15833,12
21.16667,12
21.17500,12
21.18333,12
21.19167,11
21.20000,12
21.20833,11
21.21667,12
21.22500,12
21.23333,12
21.24167,12
21.25000,12
21.25833,13
21.26667,12
21.27500,12
21.28333,12
21.29167,12
21.30000,13
21.30833,13
21.31667,14
21.32500,14
21.33333,14
21.34167,14
21.35000,14
21.35833,14
21.36667,14
21.37500,15
21.38333,15
21.39167,16
21.40000,17
21.40833,18
21.41667,19
21.42500,20
21.43333,22
21.44167,24
21.45000,26
21.45833,28
21.46667,31
21.47500,34
21.48333,37
21.49167,41
21.50000,45
21.50833,51
21.51667,57
21.52500,63
21.53333,71
21.54167,79
21.55000,88
21.55833,99
21.56667,110
21.57500,124
21.58333,138
21.59167,155
21.60000,174
21.60833,196
21.61667,220
21.62500,246
21.63333,276
21.64167,309
21.65000,346
21.65833,386
21.66667,431
21.67500,480
21.68333,534
21.69167,594
21.70000,660
21.70833,732
21.71667,810
21.72500,895
21.73333,987
21.74167,1086
21.75000,1192
21.75833,1307
21.76667,1429
21.77500,1559
21.78333,1697
21.79167,1843
21.80000,1997
21.80833,2159
21.81667,2328
21.82500,2505
21.83333,2688
21.84167,2878
21.85000,3073
21.85833,3274
21.86667,3479
21.87500,3687
21.88333,3898
21.89167,4112
21.90000,4326
21.90833,4540
21.91667,4752
21.92500,4962
21.93333,5167
21.94167,5368
21.95000,5563
21.95833,5750
21.96667,5929
21.97500,6099
21.98333,6258
21.99167,6405
22.00000,6541
22.00833,6663
22.01667,6772
22.02500,6866
22.03333,6944
22.04167,7007
22.05000,7054
22.05833,7084
22.06667,7099
22.07500,7097
22.08333,7080
22.09167,7046
22.10000,6997
22.10833,6934
22.11667,6856
22.12500,6765
22.13333,6661
22.14167,6544
22.15000,6417
22.15833,6279
22.16667,6131
22.17500,5975
22.18333,5811
22.19167,5641
22.20000,5465
22.20833,5285
22.21667,5101
22.22500,4915
22.23333,4726
22.24167,4537
22.25000,4348
22.25833,4159
22.26667,3972
22.27500,3787
22.28333,3605
22.29167,3426
22.30000,3251
22.30833,3080
22.31667,2913
22.32500,2752
22.33333,2597
22.34167,2446
22.35000,2302
22.35833,2164
22.36667,2031
22.37500,1904
22.38333,1782
22.39167,1667
22.40000,1557
22.40833,1452
22.41667,1354
22.42500,1262
22.43333,1175
22.44167,1093
22.45000,1017
22.45833,945
22.46667,877
22.47500,814
22.48333,755
22.49167,701
22.50000,650
22.50833,603
22.51667,559
22.52500,518
22.53333,480
22.54167,445
22.55000,413
22.55833,383
22.56667,356
22.57500,330
22.58333,307
22.59167,286
22.60000,266
22.60833,248
22.61667,231
22.62500,216
22.63333,201
22.64167,189
22.65000,177
22.65833,166
22.66667,156
22.67500,147
22.68333,138
22.69167,130
22.70000,123
22.70833,117
22.71667,111
22.72500,106
22.73333,101
22.74167,96
22.75000,92
22.75833,88
22.76667,83
22.77500,80
22.78333,76
22.79167,73
22.80000,70
22.80833,68
22.81667,66
22.82500,64
22.83333,62
22.84167,60
22.85000,58
22.85833,56
22.86667,55
22.87500,54
22.88333,53
22.89167,51
22.90000,50
22.90833,49
22.91667,48
22.92500,47
22.93333,46
22.94167,45
22.95000,45
22.95833,44
22.96667,43
22.97500,42
22.98333,41
22.99167,41
23.00000,40
23.00833,40
23.01667,39
23.02500,39
23.03333,38
23.04167,37
23.05000,36
23.05833,36
23.06667,35
23.07500,35
23.08333,35
23.09167,34
23.10000,34
23.10833,33
23.11667,33
23.12500,32
23.13333,32
23.14167,32
23.15000,32
23.15833,31
23.16667,30
23.17500,30
23.18333,30
23.19167,30
23.20000,29
23.20833,29
23.21667,29
23.22500,29
23.23333,28
23.24167,28
23.25000,28
23.25833,28
23.26667,28
23.27500,27
23.28333,27
23.29167,27
23.30000,26
23.30833,26
23.31667,26
23.32500,25
23.33333,25
23.34167,25
23.35000,24
23.35833,24
23.36667,24
23.37500,24
23.38333,24
23.39167,24
23.40000,24
23.40833,24
23.41667,24
23.42500,23
23.43333,23
23.44167,23
23.45000,23
23.45833,22
23.46667,22
23.47500,22
23.48333,22
23.49167,21
23.50000,21
23.50833,21
23.51667,21
23.52500,20
23.53333,20
23.54167,20
23.55000,20
23.55833,20
23.56667,19
23.57500,19
23.58333,18
23.59167,18
23.60000,18
23.60833,18
23.61667,18
23.62500,18
23.63333,18
23.64167,17
23.65000,17
23.65833,17
23.66667,17
23.67500,17
23.68333,17
23.69167,17
23.70000,17
23.70833,16
23.71667,16
23.72500,16
23.73333,16
23.74167,16
23.75000,16
23.75833,16
23.76667,16
23.77500,16
23.78333,16
23.79167,15
23.80000,15
23.80833,15
23.81667,15
23.82500,15
23.83333,14
23.84167,14
23.85000,14
23.85833,14
23.86667,14
23.87500,14
23.88333,15
23.89167,15
23.90000,15
23.90833,14
23.91667,14
23.92500,13
23.93333,13
23.94167,13
23.95000,13
23.95833,13
23.96667,13
23.97500,13
23.98333,13
23.99167,13
24.00000,13
24.00833,13
24.01667,13
24.02500,13
24.03333,13
24.04167,13
24.05000,13
24.05833,13
24.06667,13
24.07500,12
24.08333,12
24.09167,11
24.10000,11
24.10833,11
24.11667,11
24.12500,11
24.13333,11
24.14167,11
24.15000,11
24.15833,11
24.16667,11
24.17500,11
24.18333,11
24.19167,11
24.20000,11
24.20833,11
24.21667,11
24.22500,11
24.23333,11
24.24167,12
24.25000,12
24.25833,12
24.26667,12
24.27500,12
24.28333,12
24.29167,13
24.30000,13
24.30833,13
24.31667,14
24.32500,14
24.33333,14
24.34167,15
24.35000,15
24.35833,16
24.36667,17
24.37500,18
24.38333,19
24.39167,20
24.40000,21
24.40833,23
24.41667,24
24.42500,26
24.43333,28
24.44167,30
24.45000,33
24.45833,36
24.46667,39
24.47500,43
24.48333,47
24.49167,52
24.50000,57
24.50833,62
24.51667,68
24.52500,76
24.53333,84
24.54167,92
24.55000,102
24.55833,112
24.56667,124
24.57500,137
24.58333,151
24.59167,166
24.60000,183
24.60833,202
24.61667,222
24.62500,244
24.63333,268
24.64167,294
24.65000,322
24.65833,353
24.66667,386
24.67500,421
24.68333,459
24.69167,500
24.70000,544
24.70833,591
24.71667,640
24.72500,693
24.73333,748
24.74167,807
24.75000,869
24.75833,934
24.76667,1002
24.77500,1073
24.78333,1147
24.79167,1223
24.80000,1302
24.80833,1383
24.81667,1467
24.82500,1553
24.83333,1640
24.84167,1729
24.85000,1819
24.85833,1910
24.86667,2001
24.87500,2093
24.88333,2184
24.89167,2275
24.90000,2365
24.90833,2454
24.91667,2540
24.92500,2624
24.93333,2706
24.94167,2784
24.95000,2860
24.95833,2931
24.96667,2998
24.97500,3061
24.98333,3118
24.99167,3170
25.00000,3217
25.00833,3258
25.01667,3294
25.02500,3323
25.03333,3346
25.04167,3362
25.05000,3373
25.05833,3378
25.06667,3376
25.07500,3367
25.08333,3352
25.09167,3331
25.10000,3303
25.10833,3271
25.11667,3232
25.12500,3189
25.13333,3140
25.14167,3086
25.15000,3028
25.15833,2966
25.16667,2900
25.17500,2831
25.18333,2759
25.19167,2684
25.20000,2607
25.20833,2528
25.21667,2447
25.22500,2364
25.23333,2281
25.24167,2198
25.25000,2114
25.25833,2030
25.26667,1947
25.27500,1865
25.28333,1783
25.29167,1703
25.30000,1624
25.30833,1546
25.31667,1470
25.32500,1396
25.33333,1323
25.34167,1253
25.35000,1185
25.35833,1119
25.36667,1056
25.37500,995
25.38333,937
25.39167,881
25.40000,827
25.40833,777
25.41667,728
25.42500,682
25.43333,638
25.44167,596
25.45000,557
25.45833,520
25.46667,485
25.47500,453
25.48333,422
25.49167,393
25.50000,365
25.50833,340
25.51667,316
25.52500,293
25.53333,273
25.54167,253
25.55000,236
25.55833,219
25.56667,204
25.57500,190
25.58333,177
25.59167,165
25.60000,153
25.60833,143
25.61667,133
25.62500,124
25.63333,116
25.64167,108
25.65000,101
25.65833,95
25.66667,89
25.67500,83
25.68333,78
25.69167,74
25.70000,70
25.70833,66
25.71667,63
25.72500,60
25.73333,57
25.74167,54
25.75000,51
25.75833,49
25.76667,47
25.77500,45
25.78333,43
25.79167,41
25.80000,40
25.80833,38
25.81667,37
25.82500,36
25.83333,35
25.84167,34
25.85000,33
25.85833,32
25.86667,31
25.87500,30
25.88333,29
25.89167,29
25.90000,28
25.90833,27
25.91667,27
25.92500,26
25.93333,25
25.94167,24
25.95000,24
25.95833,23
25.96667,22
25.97500,22
25.98333,22
25.99167,22
26.00000,22
26.00833,22
26.01667,21
26.02500,21
26.03333,21
26.04167,21
26.05000,20
26.05833,20
26.06667,20
26.07500,20
26.08333,19
26.09167,19
26.10000,19
26.10833,19
26.11667,19
26.12500,19
26.13333,19
26.14167,18
26.15000,18
26.15833,18
26.16667,18
26.17500,18
26.18333,18
26.19167,18
26.20000,18
26.20833,18
26.21667,17
26.22500,17
26.23333,16
26.24167,16
26.25000,16
26.25833,15
26.26667,16
26.27500,16
26.28333,16
26.29167,16
26.30000,16
26.30833,16
26.31667,16
26.32500,16
26.33333,16
26.34167,16
26.35000,15
26.35833,15
26.36667,15
26.37500,15
26.38333,15
26.39167,15
26.40000,15
26.40833,15
26.41667,14
26.42500,14
26.43333,14
26.44167,14
26.45000,14
26.45833,14
26.46667,13
26.47500,13
26.48333,13
26.49167,13
26.50000,13
26.50833,13
26.51667,13
26.52500,13
26.53333,13
26.54167,13
26.55000,13
26.55833,13
26.56667,13
26.57500,13
26.58333,13
26.59167,13
26.60000,13
26.60833,13
26.61667,13
26.62500,13
26.63333,13
26.64167,13
26.65000,13
26.65833,14
26.66667,13
26.67500,13
26.68333,13
26.69167,13
26.70000,13
26.70833,13
26.71667,13
26.72500,13
26.73333,13
26.74167,13
26.75000,13
26.75833,13
26.76667,13
26.77500,13
26.78333,13
26.79167,13
26.80000,13
26.80833,13
26.81667,13
26.82500,13
26.83333,13
26.84167,13
26.85000,13
26.85833,13
26.86667,13
26.87500,12
26.88333,13
26.89167,13
26.90000,12
26.90833,12
26.91667,12
26.92500,12
26.93333,12
26.94167,12
26.95000,12
26.95833,11
26.96667,11
26.97500,11
26.98333,11
26.99167,10
27.00000,10
27.00833,10
27.01667,10
27.02500,11
27.03333,11
27.04167,11
27.05000,11
27.05833,11
27.06667,10
27.07500,10
27.08333,10
27.09167,10
27.10000,10
27.10833,10
27.11667,10
27.12500,10
27.13333,10
27.14167,9
27.15000,9
27.15833,9
27.16667,9
27.17500,9
27.18333,9
27.19167,10
27.20000,10
27.20833,10
27.21667,10
27.22500,10
27.23333,10
27.24167,10
27.25000,10
27.25833,10
27.26667,10
27.27500,10
27.28333,10
27.29167,10
27.30000,10
27.30833,10
27.31667,10
27.32500,10
27.33333,9
27.34167,9
27.35000,9
27.35833,9
27.36667,9
27.37500,9
27.38333,9
27.39167,9
27.40000,9
27.40833,9
27.41667,9
27.42500,9
27.43333,9
27.44167,9
27.45000,9
27.45833,9
27.46667,9
27.47500,9
27.48333,9
27.49167,9
27.50000,9
27.50833,9
27.51667,9
27.52500,9
27.53333,9
27.54167,9
27.55000,9
27.55833,8
27.56667,9
27.57500,9
27.58333,9
27.59167,9
27.60000,9
27.60833,9
27.61667,9
27.62500,9
27.63333,9
27.64167,9
27.65000,9
27.65833,9
27.66667,8
27.67500,8
27.68333,9
27.69167,8
27.70000,8
27.70833,8
27.71667,8
27.72500,7
27.73333,7
27.74167,7
27.75000,7
27.75833,6
27.76667,6
27.77500,6
27.78333,6
27.79167,6
27.80000,6
27.80833,5
27.81667,5
27.82500,5
27.83333,4
27.84167,4
27.85000,3
27.85833,3
27.86667,2
27.87500,1
27.88333,1
27.89167,-0
27.90000,-1
27.90833,-1
27.91667,-2
27.92500,-3
27.93333,-4
27.94167,-5
27.95000,-6
27.95833,-7
27.96667,-9
27.97500,-10
27.98333,-11
27.99167,-12
28.00000,-14
28.00833,-16
28.01667,-18
28.02500,-19
28.03333,-21
28.04167,-23
28.05000,-25
28.05833,-27
28.06667,-30
28.07500,-32
28.08333,-34
28.09167,-36
28.10000,-39
28.10833,-41
28.11667,-44
28.12500,-47
28.13333,-49
28.14167,-52
28.15000,-55
28.15833,-58
28.16667,-61
28.17500,-64
28.18333,-67
28.19167,-70
28.20000,-73
28.20833,-76
28.21667,-79
28.22500,-82
28.23333,-85
28.24167,-88
28.25000,-91
28.25833,-95
28.26667,-98
28.27500,-101
28.28333,-103
28.29167,-106
28.30000,-108
28.30833,-111
28.31667,-113
28.32500,-116
28.33333,-118
28.34167,-120
28.35000,-122
28.35833,-124
28.36667,-127
28.37500,-129
28.38333,-130
28.39167,-132
28.40000,-133
28.40833,-134
28.41667,-135
28.42500,-135
28.43333,-136
28.44167,-137
28.45000,-137
28.45833,-137
28.46667,-136
28.47500,-136
28.48333,-135
28.49167,-134
28.50000,-133
28.50833,-132
28.51667,-131
28.52500,-130
28.53333,-129
28.54167,-128
28.55000,-127
28.55833,-126
28.56667,-124
28.57500,-123
28.58333,-121
28.59167,-118
28.60000,-116
28.60833,-114
28.61667,-112
28.62500,-109
28.63333,-107
28.64167,-105
28.65000,-102
28.65833,-99
28.66667,-97
28.67500,-94
28.68333,-92
28.69167,-89
28.70000,-87
28.70833,-84
28.71667,-82
28.72500,-79
28.73333,-77
28.74167,-74
28.75000,-72
28.75833,-69
28.76667,-67
28.77500,-64
28.78333,-61
28.79167,-59
28.80000,-57
28.80833,-55
28.81667,-52
28.82500,-50
28.83333,-48
28.84167,-46
28.85000,-44
28.85833,-43
28.86667,-41
28.87500,-39
28.88333,-37
28.89167,-35
28.90000,-34
28.90833,-32
28.91667,-30
28.92500,-29
28.93333,-28
28.94167,-26
28.95000,-25
28.95833,-24
28.96667,-23
28.97500,-22
28.98333,-21
28.99167,-20
29.00000,-19
29.00833,-19
29.01667,-18
29.02500,-17
29.03333,-16
29.04167,-15
29.05000,-15
29.05833,-14
29.06667,-13
29.07500,-13
29.08333,-12
29.09167,-11
29.10000,-11
29.10833,-10
29.11667,-9
29.12500,-9
29.13333,-8
29.14167,-7
29.15000,-7
29.15833,-7
29.16667,-7
29.17500,-6
29.18333,-6
29.19167,-6
29.20000,-6
29.20833,-6
29.21667,-6
29.22500,-5
29.23333,-5
29.24167,-5
29.25000,-5
29.25833,-5
29.26667,-4
29.27500,-4
29.28333,-4
29.29167,-4
29.30000,-4
29.30833,-4
29.31667,-4
29.32500,-3
29.33333,-3
29.34167,-3
29.35000,-3
29.35833,-3
29.36667,-3
29.37500,-4
29.38333,-4
29.39167,-4
29.40000,-4
29.40833,-4
29.41667,-3
29.42500,-3
29.43333,-3
29.44167,-2
29.45000,-3
29.45833,-3
29.46667,-3
29.47500,-3
29.48333,-3
29.49167,-3
29.50000,-3
29.50833,-3
29.51667,-3
29.52500,-3
29.53333,-4
29.54167,-4
29.55000,-4
29.55833,-4
29.56667,-4
29.57500,-5
29.58333,-5
29.59167,-5
29.60000,-5
29.60833,-5
29.61667,-6
29.62500,-6
29.63333,-7
29.64167,-7
29.65000,-7
29.65833,-8
29.66667,-8
29.67500,-8
29.68333,-9
29.69167,-9
29.70000,-10
29.70833,-11
29.71667,-12
29.72500,-12
29.73333,-13
29.74167,-13
29.75000,-14
29.75833,-14
29.76667,-15
29.77500,-16
29.78333,-16
29.79167,-17
29.80000,-18
29.80833,-19
29.81667,-19
29.82500,-20
29.83333,-21
29.84167,-22
29.85000,-23
29.85833,-24
29.86667,-25
29.87500,-26
29.88333,-28
29.89167,-29
29.90000,-30
29.90833,-30
29.91667,-32
29.92500,-33
29.93333,-34
29.94167,-35
29.95000,-36
29.95833,-37
29.96667,-38
29.97500,-39
29.98333,-40
29.99167,-41
30.00000,-42
30.00833,-42
30.01667,-43
30.02500,-44
30.03333,-45
30.04167,-47
30.05000,-47
30.05833,-48
30.06667,-48
30.07500,-49
30.08333,-50
30.09167,-51
30.10000,-51
30.10833,-52
30.11667,-53
30.12500,-53
30.13333,-54
30.14167,-54
30.15000,-55
30.15833,-55
30.16667,-55
30.17500,-56
30.18333,-56
30.19167,-56
30.20000,-56
30.20833,-56
30.21667,-56
30.22500,-56
30.23333,-56
30.24167,-56
30.25000,-55
30.25833,-54
30.26667,-54
30.27500,-53
30.28333,-53
30.29167,-52
30.30000,-52
30.30833,-51
30.31667,-51
30.32500,-50
30.33333,-50
30.34167,-50
30.35000,-49
30.35833,-48
30.36667,-47
30.37500,-46
30.38333,-45
30.39167,-45
30.40000,-44
30.40833,-43
30.41667,-43
30.42500,-42
30.43333,-41
30.44167,-40
30.45000,-40
30.45833,-38
30.46667,-37
30.47500,-36
30.48333,-35
30.49167,-34
30.50000,-33
30.50833,-33
30.51667,-32
30.52500,-31
30.53333,-30
30.54167,-29
30.55000,-28
30.55833,-27
30.56667,-26
30.57500,-25
30.58333,-24
30.59167,-24
30.60000,-23
30.60833,-22
30.61667,-22
30.62500,-21
30.63333,-21
30.64167,-20
30.65000,-20
30.65833,-20
30.66667,-19
30.67500,-18
30.68333,-18
30.69167,-17
30.70000,-17
30.70833,-16
30.71667,-15
30.72500,-15
30.73333,-14
30.74167,-13
30.75000,-13
30.75833,-12
30.76667,-12
30.77500,-12
30.78333,-12
30.79167,-12
30.80000,-12
30.80833,-12
30.81667,-12
30.82500,-12
30.83333,-12
30.84167,-12
30.85000,-12
30.85833,-11
30.86667,-11
30.87500,-11
30.88333,-11
30.89167,-10
30.90000,-10
30.90833,-10
30.91667,-10
30.92500,-10
30.93333,-10
30.94167,-10
30.95000,-10
30.95833,-10
30.96667,-10
30.97500,-10
30.98333,-10
30.99167,-10
31.00000,-10
31.00833,-10
31.01667,-10
31.02500,-10
31.03333,-10
31.04167,-9
31.05000,-9
31.05833,-9
31.06667,-8
31.07500,-8
31.08333,-8
31.09167,-8
31.10000,-8
31.10833,-8
31.11667,-8
31.12500,-8
31.13333,-8
31.14167,-8
31.15000,-9
31.15833,-9
31.16667,-9
31.17500,-8
31.18333,-8
31.19167,-8
31.20000,-8
31.20833,-8
31.21667,-8
31.22500,-8
31.23333,-8
31.24167,-8
31.25000,-8
31.25833,-8
31.26667,-8
31.27500,-7
31.28333,-7
31.29167,-7
31.30000,-7
31.30833,-7
31.31667,-7
31.32500,-7
31.33333,-7
31.34167,-6
31.35000,-6
31.35833,-6
31.36667,-6
31.37500,-6
31.38333,-6
31.39167,-6
31.40000,-6
31.40833,-6
31.41667,-7
31.42500,-7
31.43333,-6
31.44167,-6
31.45000,-6
31.45833,-6
31.46667,-6
31.47500,-6
31.48333,-6
31.49167,-6
31.50000,-5
31.50833,-5
31.51667,-5
31.52500,-5
31.53333,-5
31.54167,-4
31.55000,-4
31.55833,-4
31.56667,-4
31.57500,-4
31.58333,-5
31.59167,-4
31.60000,-4
31.60833,-4
31.61667,-5
31.62500,-5
31.63333,-5
31.64167,-4
31.65000,-5
31.65833,-4
31.66667,-4
31.67500,-4
31.68333,-4
31.69167,-4
31.70000,-4
31.70833,-4
31.71667,-3
31.72500,-3
31.73333,-3
31.74167,-4
31.75000,-4
31.75833,-4
31.76667,-4
31.77500,-4
31.78333,-4
31.79167,-5
31.80000,-5
31.80833,-5
31.81667,-5
31.82500,-4
31.83333,-4
31.84167,-4
31.85000,-5
31.85833,-5
31.86667,-5
31.87500,-5
31.88333,-5
31.89167,-5
31.90000,-5
31.90833,-5
31.91667,-5
31.92500,-5
31.93333,-4
31.94167,-4
31.95000,-4
31.95833,-4
31.96667,-4
31.97500,-4
31.98333,-4
31.99167,-4
32.00000,-4
32.00833,-4
32.01667,-4
32.02500,-4
32.03333,-4
32.04167,-4
32.05000,-4
32.05833,-4
32.06667,-3
32.07500,-3
32.08333,-4
32.09167,-3
32.10000,-3
32.10833,-3
32.11667,-3
32.12500,-3
32.13333,-3
32.14167,-3
32.15000,-3
32.15833,-3
32.16667,-3
32.17500,-4
32.18333,-4
32.19167,-4
32.20000,-5
32.20833,-5
32.21667,-5
32.22500,-5
32.23333,-5
32.24167,-5
32.25000,-4
32.25833,-4
32.26667,-4
32.27500,-4
32.28333,-4
32.29167,-4
32.30000,-4
32.30833,-4
32.31667,-4
32.32500,-4
32.33333,-4
32.34167,-3
32.35000,-3
32.35833,-3
32.36667,-3
32.37500,-3
32.38333,-3
32.39167,-3
32.40000,-4
32.40833,-4
32.41667,-4
32.42500,-4
32.43333,-4
32.44167,-4
32.45000,-4
32.45833,-4
32.46667,-4
32.47500,-4
32.48333,-4
32.49167,-4
32.50000,-4
32.50833,-4
32.51667,-4
32.52500,-4
32.53333,-4
32.54167,-4
32.55000,-4
32.55833,-4
32.56667,-3
32.57500,-3
32.58333,-3
32.59167,-3
32.60000,-3
32.60833,-3
32.61667,-4
32.62500,-4
32.63333,-5
32.64167,-4
32.65000,-4
32.65833,-4
32.66667,-4
32.67500,-4
32.68333,-4
32.69167,-4
32.70000,-4
32.70833,-4
32.71667,-4
32.72500,-4
32.73333,-4
32.74167,-4
32.75000,-4
32.75833,-4
32.76667,-4
32.77500,-4
32.78333,-3
32.79167,-3
32.80000,-3
32.80833,-3
32.81667,-4
32.82500,-4
32.83333,-4
32.84167,-5
32.85000,-5
32.85833,-5
32.86667,-4
32.87500,-4
32.88333,-4
32.89167,-4
32.90000,-4
32.90833,-5
32.91667,-5
32.92500,-4
32.93333,-4
32.94167,-4
32.95000,-4
32.95833,-5
32.96667,-5
32.97500,-5
32.98333,-5
32.99167,-4
33.00000,-5
33.00833,-5
33.01667,-5
33.02500,-5
33.03333,-5
33.04167,-5
33.05000,-5
33.05833,-5
33.06667,-5
33.07500,-5
33.08333,-5
33.09167,-5
33.10000,-5
33.10833,-5
33.11667,-5
33.12500,-5
33.13333,-5
33.14167,-5
33.15000,-5
33.15833,-4
33.16667,-5
33.17500,-5
33.18333,-5
33.19167,-5
33.20000,-5
33.20833,-5
33.21667,-4
33.22500,-4
33.23333,-4
33.24167,-4
33.25000,-4
33.25833,-4
33.26667,-4
33.27500,-5
33.28333,-5
33.29167,-5
33.30000,-6
33.30833,-6
33.31667,-5
33.32500,-5
33.33333,-4
33.34167,-4
33.35000,-4
33.35833,-4
33.36667,-4
33.37500,-4
33.38333,-5
33.39167,-5
33.40000,-5
33.40833,-5
33.41667,-5
33.42500,-5
33.43333,-5
33.44167,-5
33.45000,-4
33.45833,-4
33.46667,-4
33.47500,-4
33.48333,-4
33.49167,-5
33.50000,-5
33.50833,-5
33.51667,-5
33.52500,-5
33.53333,-5
33.54167,-5
33.55000,-5
33.55833,-5
33.56667,-5
33.57500,-5
33.58333,-5
33.59167,-5
33.60000,-5
33.60833,-5
33.61667,-5
33.62500,-5
33.63333,-5
33.64167,-5
33.65000,-4
33.65833,-4
33.66667,-5
33.67500,-4
33.68333,-5
33.69167,-5
33.70000,-5
33.70833,-5
33.71667,-5
33.72500,-5
33.73333,-5
33.74167,-5
33.75000,-5
33.75833,-5
33.76667,-5
33.77500,-5
33.78333,-5
33.79167,-5
33.80000,-5
33.80833,-5
33.81667,-5
33.82500,-5
33.83333,-5
33.84167,-5
33.85000,-4
33.85833,-4
33.86667,-4
33.87500,-4
33.88333,-4
33.89167,-5
33.90000,-5
33.90833,-5
33.91667,-5
33.92500,-5
33.93333,-5
33.94167,-5
33.95000,-4
33.95833,-4
33.96667,-4
33.97500,-4
33.98333,-4
33.99167,-4
34.00000,-4
34.00833,-4
34.01667,-4
34.02500,-4
34.03333,-5
34.04167,-5
34.05000,-5
34.05833,-5
34.06667,-5
34.07500,-5
34.08333,-5
34.09167,-6
34.10000,-6
34.10833,-5
34.11667,-5
34.12500,-5
34.13333,-5
34.14167,-5
34.15000,-5
34.15833,-5
34.16667,-5
34.17500,-5
34.18333,-5
34.19167,-5
34.20000,-5
34.20833,-5
34.21667,-5
34.22500,-5
34.23333,-5
34.24167,-5
34.25000,-5
34.25833,-5
34.26667,-5
34.27500,-5
34.28333,-5
34.29167,-5
34.30000,-5
34.30833,-5
34.31667,-5
34.32500,-5
34.33333,-5
34.34167,-5
34.35000,-5
34.35833,-5
34.36667,-5
34.37500,-6
34.38333,-6
34.39167,-6
34.40000,-6
34.40833,-6
34.41667,-6
34.42500,-6
34.43333,-6
34.44167,-6
34.45000,-6
34.45833,-6
34.46667,-6
34.47500,-6
34.48333,-6
34.49167,-6
34.50000,-6
34.50833,-6
34.51667,-6
34.52500,-5
34.53333,-5
34.54167,-6
34.55000,-6
34.55833,-6
34.56667,-6
34.57500,-5
34.58333,-5
34.59167,-6
34.60000,-6
34.60833,-6
34.61667,-5
34.62500,-5
34.63333,-5
34.64167,-5
34.65000,-5
34.65833,-5
34.66667,-5
34.67500,-6
34.68333,-6
34.69167,-5
34.70000,-5
34.70833,-5
34.71667,-5
34.72500,-5
34.73333,-5
34.74167,-5
34.75000,-5
34.75833,-5
34.76667,-5
34.77500,-5
34.78333,-5
34.79167,-5
34.80000,-4
34.80833,-4
34.81667,-5
34.82500,-5
34.83333,-5
34.84167,-5
34.85000,-5
34.85833,-5
34.86667,-5
34.87500,-5
34.88333,-5
34.89167,-5
34.90000,-5
34.90833,-5
34.91667,-5
34.92500,-5
34.93333,-5
34.94167,-5
34.95000,-5
34.95833,-5
34.96667,-5
34.97500,-5
34.98333,-5
34.99167,-4
35.00000,-4
35.00833,-4
35.01667,-5
35.02500,-5
35.03333,-5
35.04167,-5
35.05000,-5
35.05833,-5
35.06667,-5
35.07500,-5
35.08333,-5
35.09167,-5
35.10000,-5
35.10833,-4
35.11667,-4
35.12500,-4
35.13333,-4
35.14167,-5
35.15000,-5
35.15833,-5
35.16667,-5
35.17500,-5
35.18333,-5
35.19167,-5
35.20000,-5
35.20833,-5
35.21667,-5
35.22500,-5
35.23333,-5
35.24167,-5
35.25000,-5
35.25833,-5
35.26667,-5
35.27500,-5
35.28333,-6
35.29167,-6
35.30000,-6
35.30833,-6
35.31667,-5
35.32500,-5
35.33333,-5
35.34167,-5
35.35000,-5
35.35833,-5
35.36667,-4
35.37500,-5
35.38333,-5
35.39167,-5
35.40000,-5
35.40833,-5
35.41667,-5
35.42500,-5
35.43333,-4
35.44167,-4
35.45000,-4
35.45833,-4
35.46667,-4
35.47500,-4
35.48333,-4
35.49167,-4
35.50000,-4
35.50833,-4
35.51667,-4
35.52500,-4
35.53333,-4
35.54167,-4
35.55000,-4
35.55833,-4
35.56667,-4
35.57500,-4
35.58333,-4
35.59167,-4
35.60000,-4
35.60833,-4
35.61667,-4
35.62500,-4
35.63333,-4
35.64167,-4
35.65000,-4
35.65833,-4
35.66667,-4
35.67500,-4
35.68333,-4
35.69167,-4
35.70000,-4
35.70833,-5
35.71667,-4
35.72500,-4
35.73333,-4
35.74167,-4
35.75000,-4
35.75833,-4
35.76667,-5
35.77500,-5
35.78333,-5
35.79167,-5
35.80000,-5
35.80833,-5
35.81667,-4
35.82500,-4
35.83333,-4
35.84167,-4
35.85000,-4
35.85833,-4
35.86667,-4
35.87500,-4
35.88333,-4
35.89167,-4
35.90000,-4
35.90833,-4
35.91667,-4
35.92500,-4
35.93333,-4
35.94167,-4
35.95000,-4
35.95833,-3
35.96667,-3
35.97500,-4
35.98333,-4
35.99167,-4
36.00000,-4
36.00833,-4
36.01667,-4
36.02500,-4
36.03333,-4
36.04167,-4
36.05000,-4
36.05833,-4
36.06667,-4
36.07500,-4
36.08333,-5
36.09167,-4
36.10000,-4
36.10833,-4
36.11667,-5
36.12500,-5
36.13333,-4
36.14167,-4
36.15000,-4
36.15833,-5
36.16667,-5
36.17500,-5
36.18333,-5
36.19167,-5
36.20000,-5
36.20833,-5
36.21667,-5
36.22500,-5
36.23333,-5
36.24167,-5
36.25000,-5
36.25833,-5
36.26667,-5
36.27500,-5
36.28333,-5
36.29167,-5
36.30000,-5
36.30833,-5
36.31667,-5
36.32500,-5
36.33333,-5
36.34167,-5
36.35000,-5
36.35833,-5
36.36667,-5
36.37500,-5
36.38333,-5
36.39167,-5
36.40000,-4
36.40833,-4
36.41667,-4
36.42500,-4
36.43333,-4
36.44167,-4
36.45000,-4
36.45833,-3
36.46667,-3
36.47500,-3
36.48333,-3
36.49167,-3
36.50000,-3
36.50833,-3
36.51667,-3
36.52500,-4
36.53333,-4
36.54167,-4
36.55000,-4
36.55833,-4
36.56667,-4
36.57500,-4
36.58333,-4
36.59167,-4
36.60000,-4
36.60833,-4
36.61667,-4
36.62500,-3
36.63333,-3
36.64167,-3
36.65000,-3
36.65833,-3
36.66667,-2
36.67500,-2
36.68333,-2
36.69167,-3
36.70000,-3
36.70833,-3
36.71667,-3
36.72500,-3
36.73333,-3
36.74167,-3
36.75000,-3
36.75833,-2
36.76667,-2
36.77500,-2
36.78333,-2
36.79167,-2
36.80000,-2
36.80833,-2
36.81667,-2
36.82500,-2
36.83333,-2
36.84167,-2
36.85000,-2
36.85833,-2
36.86667,-2
36.87500,-2
36.88333,-2
36.89167,-2
36.90000,-2
36.90833,-1
36.91667,-1
36.92500,-2
36.93333,-2
36.94167,-2
36.95000,-2
36.95833,-2
36.96667,-2
36.97500,-1
36.98333,-2
36.99167,-2
37.00000,-2
37.00833,-2
37.01667,-2
37.02500,-2
37.03333,-1
37.04167,-1
37.05000,-1
37.05833,-1
37.06667,-1
37.07500,-1
37.08333,-1
37.09167,-2
37.10000,-2
37.10833,-3
37.11667,-3
37.12500,-3
37.13333,-3
37.14167,-3
37.15000,-2
37.15833,-2
37.16667,-2
37.17500,-2
37.18333,-2
37.19167,-2
37.20000,-2
37.20833,-2
37.21667,-2
37.22500,-2
37.23333,-2
37.24167,-2
37.25000,-2
37.25833,-2
37.26667,-2
37.27500,-2
37.28333,-2
37.29167,-2
37.30000,-3
37.30833,-3
37.31667,-3
37.32500,-3
37.33333,-3
37.34167,-3
37.35000,-3
37.35833,-3
37.36667,-3
37.37500,-2
37.38333,-2
37.39167,-2
37.40000,-2
37.40833,-3
37.41667,-3
37.42500,-3
37.43333,-4
37.44167,-4
37.45000,-3
37.45833,-3
37.46667,-3
37.47500,-3
37.48333,-3
37.49167,-3
37.50000,-3
37.50833,-3
37.51667,-3
37.52500,-3
37.53333,-4
37.54167,-4
37.55000,-4
37.55833,-4
37.56667,-4
37.57500,-4
37.58333,-4
37.59167,-4
37.60000,-4
37.60833,-4
37.61667,-3
37.62500,-3
37.63333,-4
37.64167,-4
37.65000,-3
37.65833,-3
37.66667,-3
37.67500,-3
37.68333,-3
37.69167,-4
37.70000,-4
37.70833,-4
37.71667,-4
37.72500,-4
37.73333,-4
37.74167,-4
37.75000,-4
37.75833,-3
37.76667,-3
37.77500,-3
37.78333,-3
37.79167,-3
37.80000,-3
37.80833,-3
37.81667,-3
37.82500,-3
37.83333,-3
37.84167,-3
37.85000,-3
37.85833,-3
37.86667,-3
37.87500,-3
37.88333,-4
37.89167,-4
37.90000,-4
37.90833,-4
37.91667,-4
37.92500,-3
37.93333,-3
37.94167,-3
37.95000,-3
37.95833,-3
37.96667,-3
37.97500,-3
37.98333,-3
37.99167,-3
38.00000,-3
38.00833,-3
38.01667,-3
38.02500,-3
38.03333,-3
38.04167,-3
38.05000,-3
38.05833,-3
38.06667,-3
38.07500,-4
38.08333,-4
38.09167,-4
38.10000,-3
38.10833,-3
38.11667,-3
38.12500,-3
38.13333,-3
38.14167,-3
38.15000,-2
38.15833,-2
38.16667,-2
38.17500,-2
38.18333,-2
38.19167,-2
38.20000,-2
38.20833,-2
38.21667,-2
38.22500,-2
38.23333,-2
38.24167,-2
38.25000,-2
38.25833,-2
38.26667,-2
38.27500,-1
38.28333,-1
38.29167,-1
38.30000,-1
38.30833,-1
38.31667,-0
38.32500,-0
38.33333,-0
38.34167,-1
38.35000,-1
38.35833,-1
38.36667,-0
38.37500,-0
38.38333,-0
38.39167,0
38.40000,0
38.40833,0
38.41667,1
38.42500,0
38.43333,1
38.44167,1
38.45000,1
38.45833,0
38.46667,-0
38.47500,-0
38.48333,-0
38.49167,0
38.50000,0
38.50833,0
38.51667,0
38.52500,0
38.53333,0
38.54167,0
38.55000,1
38.55833,1
38.56667,1
38.57500,1
38.58333,1
38.59167,1
38.60000,0
38.60833,0
38.61667,0
38.62500,1
38.63333,1
38.64167,1
38.65000,0
38.65833,0
38.66667,0
38.67500,-0
38.68333,-0
38.69167,-1
38.70000,-1
38.70833,-1
38.71667,-1
38.72500,-1
38.73333,-1
38.74167,-1
38.75000,-1
38.75833,-1
38.76667,-2
38.77500,-2
38.78333,-2
38.79167,-2
38.80000,-2
38.80833,-3
38.81667,-3
38.82500,-3
38.83333,-3
38.84167,-3
38.85000,-3
38.85833,-3
38.86667,-3
38.87500,-3
38.88333,-3
38.89167,-2
38.90000,-2
38.90833,-2
38.91667,-2
38.92500,-2
38.93333,-2
38.94167,-2
38.95000,-2
38.95833,-2
38.96667,-2
38.97500,-2
38.98333,-2
38.99167,-3
39.00000,-3
39.00833,-4
39.01667,-4
39.02500,-4
39.03333,-4
39.04167,-4
39.05000,-4
39.05833,-3
39.06667,-3
39.07500,-3
39.08333,-3
39.09167,-3
39.10000,-3
39.10833,-3
39.11667,-3
39.12500,-3
39.13333,-3
39.14167,-3
39.15000,-3
39.15833,-3
39.16667,-3
39.17500,-3
39.18333,-3
39.19167,-3
39.20000,-3
39.20833,-3
39.21667,-3
39.22500,-3
39.23333,-3
39.24167,-3
39.25000,-3
39.25833,-3
39.26667,-3
39.27500,-3
39.28333,-3
39.29167,-3
39.30000,-3
39.30833,-3
39.31667,-3
39.32500,-3
39.33333,-3
39.34167,-3
39.35000,-3
39.35833,-3
39.36667,-3
39.37500,-3
39.38333,-3
39.39167,-3
39.40000,-3
39.40833,-3
39.41667,-2
39.42500,-2
39.43333,-2
39.44167,-1
39.45000,-2
39.45833,-2
39.46667,-2
39.47500,-3
39.48333,-2
39.49167,-2
39.50000,-2
39.50833,-2
39.51667,-1
39.52500,-2
39.53333,-1
39.54167,-2
39.55000,-2
39.55833,-1
39.56667,-1
39.57500,-1
39.58333,-1
39.59167,-1
39.60000,-2
39.60833,-2
39.61667,-3
39.62500,-3
39.63333,-3
39.64167,-3
39.65000,-2
39.65833,-2
39.66667,-2
39.67500,-2
39.68333,-2
39.69167,-2
39.70000,-2
39.70833,-2
39.71667,-2
39.72500,-2
39.73333,-2
39.74167,-2
39.75000,-2
39.75833,-2
39.76667,-2
39.77500,-2
39.78333,-2
39.79167,-2
39.80000,-2
39.80833,-2
39.81667,-2
39.82500,-2
39.83333,-2
39.84167,-2
39.85000,-2
39.85833,-3
39.86667,-3
39.87500,-3
39.88333,-3
39.89167,-3
39.90000,-3
39.90833,-3
39.91667,-3
39.92500,-3
39.93333,-3
39.94167,-3
39.95000,-3
39.95833,-3
39.96667,-3
39.97500,-3
39.98333,-3
39.99167,-4
40.00000,-4

