[Header]
Application Name,LabSolutions
Version,5.97 SP1
Data File Name,C:\Users\cremerlab\Desktop\griffin\2021-03-31_NC_glucose_glycerol_acetate_calibration\calibration_batch_422021_002_002.lcd
Output Date,4/2/2021
Output Time,9:03:10 PM

[File Information]
Type,Data File
Generated,4/2/2021 8:22:51 PM
Generated by,System Administrator
Modified,4/2/2021 9:03:10 PM
Modified by,System Administrator

[Sample Information]
Operator Name,System Administrator
Acquired,4/2/2021 8:23:10 PM
Sample Type,1:Standard
Level,2
Sample Name,2021-04-02_NC_glucose_glycerol_acetate_calibration_30mM
Sample ID,002
ISTD Amount1,1
ISTD Amount2,1
ISTD Amount3,1
ISTD Amount4,1
ISTD Amount5,1
ISTD Amount6,1
ISTD Amount7,1
ISTD Amount8,1
ISTD Amount9,1
ISTD Amount10,1
ISTD Amount11,1
ISTD Amount12,1
ISTD Amount13,1
ISTD Amount14,1
ISTD Amount15,1
ISTD Amount16,1
ISTD Amount17,1
ISTD Amount18,1
ISTD Amount19,1
ISTD Amount20,1
ISTD Amount21,1
ISTD Amount22,1
ISTD Amount23,1
ISTD Amount24,1
ISTD Amount25,1
ISTD Amount26,1
ISTD Amount27,1
ISTD Amount28,1
ISTD Amount29,1
ISTD Amount30,1
ISTD Amount31,1
ISTD Amount32,1
Sample Amount,1
Dilution Factor,1
Vial#,2
Injection Volume,20

[Original Files]
Data File,C:\Users\cremerlab\Desktop\griffin\2021-03-31_NC_glucose_glycerol_acetate_calibration\calibration_batch_422021_002_002.lcd
Method File,C:\LabSolutions\Data\Project1\organicacidsetc2.lcm
Batch File,C:\Users\cremerlab\Desktop\griffin\2021-03-31_NC_glucose_glycerol_acetate_calibration\calibration_batch.lcb
Report Format File,c:\LabSolutions\System\DEFAULT.lsr

[File Description]


[Configuration]
Instrument Name,HPLC-PC-Instrument1
Instrument #,1
Line #,1
# of Detectors,2
Detector ID,Detector A,Detector B
Detector Name,Detector A,Detector B
# of Channels,1,1

[Peak Table(Detector A)]
# of Peaks,0

[Peak Table(Detector B)]
# of Peaks,5
Peak#,R.Time,I.Time,F.Time,Area,Height,A/H,Conc.,Mark,ID#,Name,k',Plate #,Plate Ht.,Tailing,Resolution,Sep.Factor,Area Ratio,Height Ratio,Conc. %,Norm Conc.
1,11.158,10.900,11.692,147330,6618,22.263,0.000,   ,,,0.000,6407,23.411,1.609,0.000,0.000,0,0,0.000,0.000
2,13.246,12.817,13.792,2674,91,29.229,0.000,   ,,,0.187,4488,33.423,1.078,3.097,0.000,0,0,0.000,0.000
3,15.651,14.925,18.658,3834922,157889,24.289,0.000,   ,,,0.403,9759,15.371,1.151,3.375,2.151,0,0,0.000,0.000
4,22.075,21.275,23.783,1137066,41850,27.170,0.000,   ,,,0.978,15379,9.754,1.092,9.548,2.430,0,0,0.000,0.000
5,25.052,24.258,26.458,585375,19847,29.495,0.000,   ,,,1.245,16619,9.026,1.079,3.998,1.273,0,0,0.000,0.000

[LC Chromatogram(Detector B-Ch1)]
Interval(msec),500
# of Points,4801
Start Time(min),0.000
End Time(min),40.000
Intensity Units,mV
Intensity Multiplier,0.001
R.Time (min),Intensity
0.00000,-1
0.00833,-1
0.01667,-0
0.02500,-0
0.03333,-1
0.04167,-1
0.05000,-1
0.05833,-1
0.06667,-1
0.07500,-0
0.08333,-0
0.09167,-0
0.10000,-1
0.10833,-0
0.11667,-0
0.12500,-0
0.13333,-0
0.14167,-0
0.15000,0
0.15833,0
0.16667,0
0.17500,0
0.18333,1
0.19167,1
0.20000,1
0.20833,1
0.21667,1
0.22500,1
0.23333,1
0.24167,1
0.25000,1
0.25833,0
0.26667,-0
0.27500,-0
0.28333,-0
0.29167,-1
0.30000,-0
0.30833,-0
0.31667,-0
0.32500,-0
0.33333,-0
0.34167,-0
0.35000,-0
0.35833,-0
0.36667,0
0.37500,-0
0.38333,-0
0.39167,-0
0.40000,-0
0.40833,0
0.41667,0
0.42500,1
0.43333,1
0.44167,1
0.45000,1
0.45833,1
0.46667,1
0.47500,1
0.48333,1
0.49167,1
0.50000,1
0.50833,1
0.51667,0
0.52500,0
0.53333,0
0.54167,0
0.55000,0
0.55833,1
0.56667,1
0.57500,1
0.58333,2
0.59167,1
0.60000,1
0.60833,1
0.61667,1
0.62500,1
0.63333,1
0.64167,1
0.65000,1
0.65833,1
0.66667,1
0.67500,0
0.68333,-0
0.69167,-0
0.70000,-0
0.70833,-0
0.71667,0
0.72500,0
0.73333,0
0.74167,0
0.75000,0
0.75833,-0
0.76667,-0
0.77500,-1
0.78333,-1
0.79167,-1
0.80000,-1
0.80833,-1
0.81667,-0
0.82500,-0
0.83333,0
0.84167,0
0.85000,0
0.85833,0
0.86667,0
0.87500,1
0.88333,0
0.89167,0
0.90000,0
0.90833,0
0.91667,0
0.92500,1
0.93333,1
0.94167,1
0.95000,1
0.95833,1
0.96667,1
0.97500,1
0.98333,1
0.99167,1
1.00000,1
1.00833,2
1.01667,2
1.02500,2
1.03333,2
1.04167,2
1.05000,2
1.05833,1
1.06667,1
1.07500,0
1.08333,0
1.09167,0
1.10000,1
1.10833,1
1.11667,1
1.12500,1
1.13333,1
1.14167,1
1.15000,1
1.15833,1
1.16667,1
1.17500,1
1.18333,1
1.19167,2
1.20000,2
1.20833,2
1.21667,2
1.22500,2
1.23333,3
1.24167,3
1.25000,3
1.25833,3
1.26667,2
1.27500,2
1.28333,2
1.29167,2
1.30000,1
1.30833,1
1.31667,1
1.32500,1
1.33333,2
1.34167,2
1.35000,2
1.35833,2
1.36667,2
1.37500,2
1.38333,2
1.39167,3
1.40000,2
1.40833,2
1.41667,2
1.42500,2
1.43333,2
1.44167,2
1.45000,2
1.45833,2
1.46667,2
1.47500,2
1.48333,2
1.49167,2
1.50000,2
1.50833,3
1.51667,3
1.52500,3
1.53333,3
1.54167,3
1.55000,3
1.55833,2
1.56667,2
1.57500,2
1.58333,3
1.59167,3
1.60000,3
1.60833,3
1.61667,3
1.62500,3
1.63333,3
1.64167,3
1.65000,3
1.65833,3
1.66667,3
1.67500,3
1.68333,3
1.69167,2
1.70000,2
1.70833,2
1.71667,2
1.72500,2
1.73333,2
1.74167,2
1.75000,2
1.75833,2
1.76667,2
1.77500,2
1.78333,2
1.79167,2
1.80000,2
1.80833,2
1.81667,2
1.82500,3
1.83333,3
1.84167,3
1.85000,3
1.85833,3
1.86667,3
1.87500,3
1.88333,3
1.89167,3
1.90000,2
1.90833,2
1.91667,2
1.92500,2
1.93333,2
1.94167,2
1.95000,2
1.95833,2
1.96667,3
1.97500,3
1.98333,3
1.99167,2
2.00000,2
2.00833,2
2.01667,2
2.02500,2
2.03333,2
2.04167,2
2.05000,2
2.05833,3
2.06667,3
2.07500,3
2.08333,3
2.09167,2
2.10000,2
2.10833,2
2.11667,2
2.12500,2
2.13333,2
2.14167,2
2.15000,2
2.15833,2
2.16667,2
2.17500,2
2.18333,2
2.19167,2
2.20000,2
2.20833,2
2.21667,2
2.22500,3
2.23333,3
2.24167,2
2.25000,2
2.25833,2
2.26667,2
2.27500,3
2.28333,3
2.29167,3
2.30000,3
2.30833,3
2.31667,2
2.32500,2
2.33333,2
2.34167,2
2.35000,2
2.35833,2
2.36667,2
2.37500,2
2.38333,3
2.39167,3
2.40000,3
2.40833,3
2.41667,3
2.42500,3
2.43333,3
2.44167,3
2.45000,3
2.45833,3
2.46667,3
2.47500,2
2.48333,2
2.49167,3
2.50000,3
2.50833,3
2.51667,3
2.52500,3
2.53333,3
2.54167,2
2.55000,2
2.55833,2
2.56667,2
2.57500,2
2.58333,2
2.59167,2
2.60000,2
2.60833,2
2.61667,2
2.62500,2
2.63333,2
2.64167,2
2.65000,2
2.65833,2
2.66667,2
2.67500,2
2.68333,2
2.69167,2
2.70000,2
2.70833,3
2.71667,3
2.72500,3
2.73333,2
2.74167,2
2.75000,3
2.75833,3
2.76667,3
2.77500,3
2.78333,4
2.79167,3
2.80000,3
2.80833,3
2.81667,3
2.82500,3
2.83333,3
2.84167,3
2.85000,3
2.85833,3
2.86667,3
2.87500,3
2.88333,3
2.89167,3
2.90000,3
2.90833,3
2.91667,3
2.92500,3
2.93333,3
2.94167,3
2.95000,3
2.95833,3
2.96667,3
2.97500,3
2.98333,3
2.99167,3
3.00000,3
3.00833,3
3.01667,3
3.02500,3
3.03333,3
3.04167,4
3.05000,4
3.05833,4
3.06667,4
3.07500,4
3.08333,4
3.09167,4
3.10000,4
3.10833,3
3.11667,3
3.12500,3
3.13333,3
3.14167,3
3.15000,4
3.15833,4
3.16667,4
3.17500,3
3.18333,3
3.19167,4
3.20000,4
3.20833,3
3.21667,3
3.22500,4
3.23333,4
3.24167,3
3.25000,3
3.25833,3
3.26667,3
3.27500,3
3.28333,3
3.29167,4
3.30000,4
3.30833,4
3.31667,4
3.32500,3
3.33333,3
3.34167,3
3.35000,3
3.35833,3
3.36667,3
3.37500,3
3.38333,4
3.39167,4
3.40000,3
3.40833,4
3.41667,4
3.42500,4
3.43333,4
3.44167,3
3.45000,3
3.45833,3
3.46667,3
3.47500,3
3.48333,4
3.49167,4
3.50000,4
3.50833,4
3.51667,4
3.52500,4
3.53333,4
3.54167,4
3.55000,4
3.55833,4
3.56667,4
3.57500,4
3.58333,4
3.59167,4
3.60000,4
3.60833,4
3.61667,4
3.62500,4
3.63333,4
3.64167,4
3.65000,5
3.65833,5
3.66667,5
3.67500,4
3.68333,4
3.69167,5
3.70000,5
3.70833,5
3.71667,5
3.72500,5
3.73333,5
3.74167,5
3.75000,5
3.75833,4
3.76667,4
3.77500,4
3.78333,4
3.79167,4
3.80000,4
3.80833,4
3.81667,4
3.82500,4
3.83333,4
3.84167,4
3.85000,4
3.85833,4
3.86667,4
3.87500,4
3.88333,4
3.89167,4
3.90000,4
3.90833,5
3.91667,5
3.92500,5
3.93333,5
3.94167,6
3.95000,6
3.95833,6
3.96667,5
3.97500,5
3.98333,5
3.99167,5
4.00000,5
4.00833,5
4.01667,5
4.02500,5
4.03333,5
4.04167,5
4.05000,5
4.05833,5
4.06667,5
4.07500,5
4.08333,5
4.09167,5
4.10000,6
4.10833,6
4.11667,5
4.12500,5
4.13333,5
4.14167,5
4.15000,5
4.15833,5
4.16667,5
4.17500,5
4.18333,5
4.19167,5
4.20000,6
4.20833,5
4.21667,5
4.22500,5
4.23333,5
4.24167,5
4.25000,5
4.25833,5
4.26667,5
4.27500,5
4.28333,5
4.29167,5
4.30000,5
4.30833,5
4.31667,5
4.32500,5
4.33333,5
4.34167,5
4.35000,5
4.35833,5
4.36667,5
4.37500,5
4.38333,5
4.39167,5
4.40000,5
4.40833,5
4.41667,5
4.42500,5
4.43333,5
4.44167,5
4.45000,4
4.45833,4
4.46667,4
4.47500,4
4.48333,5
4.49167,5
4.50000,5
4.50833,5
4.51667,5
4.52500,5
4.53333,5
4.54167,5
4.55000,5
4.55833,5
4.56667,5
4.57500,5
4.58333,5
4.59167,5
4.60000,5
4.60833,5
4.61667,5
4.62500,5
4.63333,5
4.64167,5
4.65000,5
4.65833,6
4.66667,6
4.67500,5
4.68333,5
4.69167,5
4.70000,5
4.70833,5
4.71667,5
4.72500,5
4.73333,5
4.74167,5
4.75000,5
4.75833,6
4.76667,6
4.77500,6
4.78333,6
4.79167,5
4.80000,5
4.80833,5
4.81667,5
4.82500,5
4.83333,5
4.84167,5
4.85000,5
4.85833,5
4.86667,5
4.87500,6
4.88333,6
4.89167,6
4.90000,6
4.90833,6
4.91667,5
4.92500,5
4.93333,5
4.94167,5
4.95000,6
4.95833,5
4.96667,5
4.97500,5
4.98333,5
4.99167,5
5.00000,5
5.00833,5
5.01667,6
5.02500,6
5.03333,5
5.04167,5
5.05000,5
5.05833,5
5.06667,5
5.07500,5
5.08333,5
5.09167,5
5.10000,5
5.10833,5
5.11667,5
5.12500,6
5.13333,6
5.14167,6
5.15000,6
5.15833,6
5.16667,6
5.17500,6
5.18333,5
5.19167,5
5.20000,5
5.20833,5
5.21667,6
5.22500,6
5.23333,5
5.24167,5
5.25000,5
5.25833,5
5.26667,6
5.27500,5
5.28333,5
5.29167,5
5.30000,5
5.30833,5
5.31667,5
5.32500,5
5.33333,5
5.34167,5
5.35000,5
5.35833,5
5.36667,5
5.37500,5
5.38333,5
5.39167,5
5.40000,5
5.40833,6
5.41667,5
5.42500,5
5.43333,5
5.44167,5
5.45000,5
5.45833,5
5.46667,5
5.47500,5
5.48333,5
5.49167,5
5.50000,5
5.50833,5
5.51667,5
5.52500,5
5.53333,5
5.54167,5
5.55000,5
5.55833,5
5.56667,5
5.57500,5
5.58333,5
5.59167,5
5.60000,5
5.60833,5
5.61667,6
5.62500,6
5.63333,6
5.64167,6
5.65000,5
5.65833,5
5.66667,5
5.67500,5
5.68333,5
5.69167,5
5.70000,5
5.70833,6
5.71667,6
5.72500,6
5.73333,6
5.74167,6
5.75000,6
5.75833,6
5.76667,6
5.77500,5
5.78333,5
5.79167,5
5.80000,5
5.80833,5
5.81667,5
5.82500,5
5.83333,5
5.84167,5
5.85000,4
5.85833,5
5.86667,5
5.87500,5
5.88333,5
5.89167,6
5.90000,6
5.90833,6
5.91667,7
5.92500,7
5.93333,7
5.94167,6
5.95000,6
5.95833,6
5.96667,5
5.97500,5
5.98333,6
5.99167,6
6.00000,6
6.00833,6
6.01667,6
6.02500,6
6.03333,6
6.04167,6
6.05000,6
6.05833,6
6.06667,6
6.07500,6
6.08333,6
6.09167,6
6.10000,6
6.10833,6
6.11667,6
6.12500,6
6.13333,5
6.14167,5
6.15000,5
6.15833,5
6.16667,5
6.17500,6
6.18333,6
6.19167,6
6.20000,6
6.20833,7
6.21667,7
6.22500,7
6.23333,7
6.24167,7
6.25000,6
6.25833,6
6.26667,6
6.27500,6
6.28333,6
6.29167,6
6.30000,6
6.30833,6
6.31667,6
6.32500,6
6.33333,6
6.34167,6
6.35000,6
6.35833,5
6.36667,5
6.37500,5
6.38333,6
6.39167,6
6.40000,6
6.40833,6
6.41667,6
6.42500,6
6.43333,6
6.44167,6
6.45000,6
6.45833,6
6.46667,6
6.47500,6
6.48333,6
6.49167,6
6.50000,6
6.50833,6
6.51667,6
6.52500,6
6.53333,6
6.54167,6
6.55000,6
6.55833,6
6.56667,5
6.57500,5
6.58333,5
6.59167,5
6.60000,5
6.60833,5
6.61667,5
6.62500,5
6.63333,6
6.64167,6
6.65000,6
6.65833,6
6.66667,6
6.67500,5
6.68333,5
6.69167,6
6.70000,6
6.70833,6
6.71667,6
6.72500,6
6.73333,6
6.74167,6
6.75000,5
6.75833,5
6.76667,5
6.77500,5
6.78333,4
6.79167,5
6.80000,5
6.80833,6
6.81667,6
6.82500,7
6.83333,7
6.84167,7
6.85000,7
6.85833,7
6.86667,7
6.87500,7
6.88333,6
6.89167,6
6.90000,6
6.90833,6
6.91667,6
6.92500,6
6.93333,6
6.94167,6
6.95000,6
6.95833,6
6.96667,6
6.97500,6
6.98333,5
6.99167,6
7.00000,6
7.00833,6
7.01667,6
7.02500,6
7.03333,6
7.04167,6
7.05000,6
7.05833,5
7.06667,5
7.07500,5
7.08333,5
7.09167,4
7.10000,5
7.10833,5
7.11667,5
7.12500,6
7.13333,6
7.14167,6
7.15000,6
7.15833,6
7.16667,6
7.17500,6
7.18333,6
7.19167,6
7.20000,6
7.20833,6
7.21667,6
7.22500,6
7.23333,6
7.24167,6
7.25000,6
7.25833,6
7.26667,6
7.27500,6
7.28333,6
7.29167,6
7.30000,7
7.30833,7
7.31667,7
7.32500,7
7.33333,7
7.34167,7
7.35000,7
7.35833,6
7.36667,6
7.37500,6
7.38333,5
7.39167,5
7.40000,6
7.40833,6
7.41667,6
7.42500,6
7.43333,6
7.44167,6
7.45000,5
7.45833,6
7.46667,6
7.47500,6
7.48333,6
7.49167,6
7.50000,5
7.50833,5
7.51667,6
7.52500,5
7.53333,5
7.54167,5
7.55000,5
7.55833,5
7.56667,6
7.57500,6
7.58333,6
7.59167,7
7.60000,6
7.60833,6
7.61667,6
7.62500,6
7.63333,5
7.64167,5
7.65000,5
7.65833,5
7.66667,5
7.67500,6
7.68333,6
7.69167,6
7.70000,6
7.70833,5
7.71667,5
7.72500,5
7.73333,5
7.74167,5
7.75000,6
7.75833,6
7.76667,6
7.77500,5
7.78333,5
7.79167,6
7.80000,6
7.80833,6
7.81667,6
7.82500,6
7.83333,6
7.84167,6
7.85000,6
7.85833,6
7.86667,6
7.87500,6
7.88333,6
7.89167,6
7.90000,6
7.90833,6
7.91667,6
7.92500,6
7.93333,5
7.94167,6
7.95000,6
7.95833,6
7.96667,6
7.97500,5
7.98333,5
7.99167,5
8.00000,5
8.00833,5
8.01667,5
8.02500,6
8.03333,6
8.04167,5
8.05000,5
8.05833,5
8.06667,6
8.07500,6
8.08333,6
8.09167,6
8.10000,6
8.10833,6
8.11667,6
8.12500,6
8.13333,7
8.14167,7
8.15000,7
8.15833,7
8.16667,7
8.17500,6
8.18333,6
8.19167,6
8.20000,6
8.20833,6
8.21667,6
8.22500,6
8.23333,6
8.24167,6
8.25000,6
8.25833,6
8.26667,6
8.27500,6
8.28333,6
8.29167,6
8.30000,6
8.30833,6
8.31667,6
8.32500,6
8.33333,6
8.34167,6
8.35000,6
8.35833,6
8.36667,6
8.37500,6
8.38333,6
8.39167,6
8.40000,6
8.40833,6
8.41667,6
8.42500,6
8.43333,6
8.44167,6
8.45000,6
8.45833,6
8.46667,6
8.47500,6
8.48333,6
8.49167,6
8.50000,6
8.50833,6
8.51667,6
8.52500,6
8.53333,5
8.54167,5
8.55000,5
8.55833,5
8.56667,5
8.57500,5
8.58333,6
8.59167,6
8.60000,6
8.60833,6
8.61667,6
8.62500,6
8.63333,6
8.64167,6
8.65000,6
8.65833,6
8.66667,6
8.67500,6
8.68333,6
8.69167,6
8.70000,6
8.70833,6
8.71667,6
8.72500,7
8.73333,7
8.74167,7
8.75000,7
8.75833,7
8.76667,7
8.77500,7
8.78333,7
8.79167,6
8.80000,6
8.80833,7
8.81667,6
8.82500,6
8.83333,6
8.84167,6
8.85000,6
8.85833,7
8.86667,7
8.87500,7
8.88333,6
8.89167,6
8.90000,6
8.90833,7
8.91667,7
8.92500,7
8.93333,7
8.94167,6
8.95000,6
8.95833,6
8.96667,5
8.97500,5
8.98333,5
8.99167,5
9.00000,5
9.00833,5
9.01667,5
9.02500,6
9.03333,6
9.04167,6
9.05000,6
9.05833,6
9.06667,6
9.07500,6
9.08333,6
9.09167,6
9.10000,6
9.10833,6
9.11667,6
9.12500,6
9.13333,7
9.14167,7
9.15000,7
9.15833,7
9.16667,7
9.17500,6
9.18333,6
9.19167,6
9.20000,6
9.20833,6
9.21667,6
9.22500,6
9.23333,6
9.24167,6
9.25000,6
9.25833,6
9.26667,5
9.27500,6
9.28333,6
9.29167,6
9.30000,5
9.30833,5
9.31667,5
9.32500,5
9.33333,5
9.34167,5
9.35000,5
9.35833,5
9.36667,5
9.37500,5
9.38333,5
9.39167,6
9.40000,6
9.40833,6
9.41667,6
9.42500,6
9.43333,6
9.44167,6
9.45000,6
9.45833,6
9.46667,6
9.47500,6
9.48333,6
9.49167,6
9.50000,6
9.50833,6
9.51667,6
9.52500,7
9.53333,7
9.54167,6
9.55000,6
9.55833,6
9.56667,6
9.57500,6
9.58333,7
9.59167,7
9.60000,7
9.60833,7
9.61667,7
9.62500,7
9.63333,7
9.64167,7
9.65000,7
9.65833,7
9.66667,7
9.67500,7
9.68333,6
9.69167,6
9.70000,6
9.70833,6
9.71667,6
9.72500,6
9.73333,7
9.74167,7
9.75000,7
9.75833,6
9.76667,6
9.77500,6
9.78333,6
9.79167,6
9.80000,7
9.80833,7
9.81667,7
9.82500,7
9.83333,7
9.84167,7
9.85000,7
9.85833,6
9.86667,6
9.87500,6
9.88333,6
9.89167,6
9.90000,6
9.90833,6
9.91667,6
9.92500,6
9.93333,6
9.94167,6
9.95000,6
9.95833,6
9.96667,6
9.97500,6
9.98333,6
9.99167,6
10.00000,6
10.00833,6
10.01667,6
10.02500,6
10.03333,6
10.04167,6
10.05000,6
10.05833,6
10.06667,6
10.07500,6
10.08333,6
10.09167,6
10.10000,6
10.10833,6
10.11667,7
10.12500,6
10.13333,6
10.14167,6
10.15000,6
10.15833,7
10.16667,7
10.17500,7
10.18333,7
10.19167,7
10.20000,7
10.20833,7
10.21667,7
10.22500,7
10.23333,7
10.24167,7
10.25000,7
10.25833,8
10.26667,8
10.27500,8
10.28333,8
10.29167,9
10.30000,9
10.30833,9
10.31667,9
10.32500,8
10.33333,8
10.34167,8
10.35000,8
10.35833,8
10.36667,7
10.37500,7
10.38333,7
10.39167,7
10.40000,7
10.40833,7
10.41667,7
10.42500,7
10.43333,7
10.44167,8
10.45000,8
10.45833,8
10.46667,8
10.47500,7
10.48333,7
10.49167,6
10.50000,6
10.50833,5
10.51667,3
10.52500,1
10.53333,-2
10.54167,-6
10.55000,-11
10.55833,-18
10.56667,-28
10.57500,-40
10.58333,-57
10.59167,-79
10.60000,-106
10.60833,-140
10.61667,-183
10.62500,-235
10.63333,-299
10.64167,-375
10.65000,-467
10.65833,-575
10.66667,-700
10.67500,-844
10.68333,-1008
10.69167,-1192
10.70000,-1398
10.70833,-1624
10.71667,-1870
10.72500,-2134
10.73333,-2416
10.74167,-2713
10.75000,-3022
10.75833,-3340
10.76667,-3665
10.77500,-3992
10.78333,-4317
10.79167,-4637
10.80000,-4947
10.80833,-5244
10.81667,-5524
10.82500,-5783
10.83333,-6019
10.84167,-6228
10.85000,-6408
10.85833,-6556
10.86667,-6669
10.87500,-6746
10.88333,-6786
10.89167,-6786
10.90000,-6747
10.90833,-6666
10.91667,-6543
10.92500,-6379
10.93333,-6174
10.94167,-5928
10.95000,-5644
10.95833,-5323
10.96667,-4969
10.97500,-4584
10.98333,-4174
10.99167,-3742
11.00000,-3295
11.00833,-2837
11.01667,-2374
11.02500,-1913
11.03333,-1458
11.04167,-1017
11.05000,-594
11.05833,-192
11.06667,182
11.07500,526
11.08333,837
11.09167,1114
11.10000,1354
11.10833,1558
11.11667,1726
11.12500,1858
11.13333,1957
11.14167,2025
11.15000,2063
11.15833,2075
11.16667,2063
11.17500,2031
11.18333,1982
11.19167,1918
11.20000,1842
11.20833,1757
11.21667,1666
11.22500,1569
11.23333,1471
11.24167,1371
11.25000,1273
11.25833,1176
11.26667,1082
11.27500,992
11.28333,906
11.29167,824
11.30000,748
11.30833,677
11.31667,611
11.32500,550
11.33333,494
11.34167,443
11.35000,396
11.35833,353
11.36667,315
11.37500,280
11.38333,248
11.39167,221
11.40000,195
11.40833,173
11.41667,153
11.42500,135
11.43333,120
11.44167,106
11.45000,94
11.45833,83
11.46667,73
11.47500,65
11.48333,58
11.49167,52
11.50000,46
11.50833,41
11.51667,36
11.52500,32
11.53333,28
11.54167,25
11.55000,23
11.55833,21
11.56667,19
11.57500,17
11.58333,16
11.59167,14
11.60000,12
11.60833,11
11.61667,10
11.62500,10
11.63333,10
11.64167,9
11.65000,8
11.65833,7
11.66667,7
11.67500,6
11.68333,6
11.69167,5
11.70000,5
11.70833,5
11.71667,5
11.72500,5
11.73333,5
11.74167,5
11.75000,5
11.75833,5
11.76667,5
11.77500,5
11.78333,6
11.79167,6
11.80000,7
11.80833,8
11.81667,9
11.82500,10
11.83333,10
11.84167,11
11.85000,12
11.85833,13
11.86667,14
11.87500,15
11.88333,16
11.89167,16
11.90000,17
11.90833,18
11.91667,19
11.92500,19
11.93333,19
11.94167,20
11.95000,21
11.95833,21
11.96667,22
11.97500,22
11.98333,22
11.99167,23
12.00000,23
12.00833,23
12.01667,23
12.02500,23
12.03333,22
12.04167,22
12.05000,22
12.05833,22
12.06667,22
12.07500,22
12.08333,21
12.09167,21
12.10000,20
12.10833,20
12.11667,20
12.12500,19
12.13333,19
12.14167,18
12.15000,18
12.15833,17
12.16667,17
12.17500,17
12.18333,16
12.19167,16
12.20000,15
12.20833,14
12.21667,14
12.22500,13
12.23333,13
12.24167,12
12.25000,12
12.25833,11
12.26667,11
12.27500,10
12.28333,10
12.29167,9
12.30000,9
12.30833,8
12.31667,8
12.32500,8
12.33333,8
12.34167,7
12.35000,7
12.35833,7
12.36667,7
12.37500,7
12.38333,7
12.39167,7
12.40000,7
12.40833,6
12.41667,6
12.42500,6
12.43333,6
12.44167,6
12.45000,6
12.45833,5
12.46667,5
12.47500,6
12.48333,5
12.49167,5
12.50000,5
12.50833,5
12.51667,5
12.52500,5
12.53333,5
12.54167,5
12.55000,5
12.55833,5
12.56667,5
12.57500,5
12.58333,5
12.59167,5
12.60000,5
12.60833,6
12.61667,6
12.62500,6
12.63333,6
12.64167,6
12.65000,7
12.65833,7
12.66667,7
12.67500,7
12.68333,7
12.69167,8
12.70000,8
12.70833,8
12.71667,9
12.72500,10
12.73333,10
12.74167,11
12.75000,12
12.75833,13
12.76667,13
12.77500,14
12.78333,14
12.79167,15
12.80000,17
12.80833,18
12.81667,20
12.82500,21
12.83333,22
12.84167,23
12.85000,25
12.85833,27
12.86667,29
12.87500,31
12.88333,33
12.89167,36
12.90000,38
12.90833,41
12.91667,43
12.92500,45
12.93333,47
12.94167,49
12.95000,52
12.95833,54
12.96667,56
12.97500,59
12.98333,61
12.99167,63
13.00000,66
13.00833,68
13.01667,70
13.02500,72
13.03333,75
13.04167,77
13.05000,79
13.05833,80
13.06667,82
13.07500,84
13.08333,85
13.09167,87
13.10000,89
13.10833,90
13.11667,92
13.12500,93
13.13333,95
13.14167,96
13.15000,97
13.15833,98
13.16667,100
13.17500,101
13.18333,102
13.19167,103
13.20000,103
13.20833,104
13.21667,104
13.22500,104
13.23333,105
13.24167,105
13.25000,105
13.25833,105
13.26667,104
13.27500,104
13.28333,103
13.29167,102
13.30000,101
13.30833,100
13.31667,98
13.32500,97
13.33333,95
13.34167,94
13.35000,92
13.35833,90
13.36667,88
13.37500,85
13.38333,83
13.39167,81
13.40000,79
13.40833,76
13.41667,74
13.42500,71
13.43333,68
13.44167,66
13.45000,63
13.45833,60
13.46667,58
13.47500,56
13.48333,54
13.49167,51
13.50000,49
13.50833,46
13.51667,44
13.52500,42
13.53333,40
13.54167,39
13.55000,37
13.55833,36
13.56667,34
13.57500,32
13.58333,30
13.59167,28
13.60000,26
13.60833,24
13.61667,23
13.62500,22
13.63333,20
13.64167,19
13.65000,18
13.65833,17
13.66667,16
13.67500,15
13.68333,15
13.69167,14
13.70000,13
13.70833,12
13.71667,11
13.72500,10
13.73333,10
13.74167,9
13.75000,8
13.75833,8
13.76667,7
13.77500,6
13.78333,6
13.79167,6
13.80000,6
13.80833,5
13.81667,5
13.82500,4
13.83333,4
13.84167,4
13.85000,3
13.85833,3
13.86667,3
13.87500,3
13.88333,3
13.89167,3
13.90000,3
13.90833,3
13.91667,3
13.92500,4
13.93333,4
13.94167,3
13.95000,3
13.95833,2
13.96667,2
13.97500,2
13.98333,2
13.99167,1
14.00000,1
14.00833,1
14.01667,1
14.02500,0
14.03333,0
14.04167,-0
14.05000,-1
14.05833,-1
14.06667,-1
14.07500,-1
14.08333,-1
14.09167,-1
14.10000,-1
14.10833,-2
14.11667,-2
14.12500,-2
14.13333,-2
14.14167,-2
14.15000,-2
14.15833,-2
14.16667,-2
14.17500,-1
14.18333,-1
14.19167,-2
14.20000,-2
14.20833,-2
14.21667,-2
14.22500,-2
14.23333,-2
14.24167,-2
14.25000,-2
14.25833,-2
14.26667,-2
14.27500,-2
14.28333,-2
14.29167,-2
14.30000,-2
14.30833,-2
14.31667,-1
14.32500,-1
14.33333,-1
14.34167,-2
14.35000,-2
14.35833,-2
14.36667,-2
14.37500,-2
14.38333,-2
14.39167,-2
14.40000,-2
14.40833,-1
14.41667,-1
14.42500,-2
14.43333,-1
14.44167,-2
14.45000,-2
14.45833,-2
14.46667,-2
14.47500,-2
14.48333,-2
14.49167,-2
14.50000,-2
14.50833,-2
14.51667,-2
14.52500,-2
14.53333,-2
14.54167,-2
14.55000,-1
14.55833,-1
14.56667,-1
14.57500,-1
14.58333,-1
14.59167,-1
14.60000,-1
14.60833,-1
14.61667,-1
14.62500,-0
14.63333,-0
14.64167,0
14.65000,0
14.65833,-0
14.66667,-0
14.67500,0
14.68333,0
14.69167,0
14.70000,0
14.70833,0
14.71667,0
14.72500,0
14.73333,1
14.74167,1
14.75000,1
14.75833,2
14.76667,2
14.77500,2
14.78333,2
14.79167,2
14.80000,2
14.80833,2
14.81667,2
14.82500,2
14.83333,2
14.84167,2
14.85000,3
14.85833,3
14.86667,3
14.87500,3
14.88333,4
14.89167,5
14.90000,5
14.90833,6
14.91667,7
14.92500,8
14.93333,9
14.94167,10
14.95000,12
14.95833,13
14.96667,15
14.97500,17
14.98333,19
14.99167,22
15.00000,24
15.00833,28
15.01667,32
15.02500,38
15.03333,44
15.04167,51
15.05000,60
15.05833,70
15.06667,82
15.07500,96
15.08333,112
15.09167,132
15.10000,155
15.10833,183
15.11667,216
15.12500,255
15.13333,301
15.14167,357
15.15000,423
15.15833,502
15.16667,595
15.17500,707
15.18333,839
15.19167,997
15.20000,1183
15.20833,1403
15.21667,1661
15.22500,1965
15.23333,2320
15.24167,2735
15.25000,3218
15.25833,3778
15.26667,4425
15.27500,5170
15.28333,6023
15.29167,6996
15.30000,8102
15.30833,9352
15.31667,10762
15.32500,12342
15.33333,14105
15.34167,16064
15.35000,18231
15.35833,20615
15.36667,23225
15.37500,26070
15.38333,29156
15.39167,32486
15.40000,36062
15.40833,39882
15.41667,43943
15.42500,48238
15.43333,52755
15.44167,57483
15.45000,62405
15.45833,67498
15.46667,72741
15.47500,78107
15.48333,83566
15.49167,89086
15.50000,94631
15.50833,100167
15.51667,105654
15.52500,111055
15.53333,116329
15.54167,121437
15.55000,126339
15.55833,130998
15.56667,135378
15.57500,139444
15.58333,143166
15.59167,146514
15.60000,149465
15.60833,151996
15.61667,154092
15.62500,155738
15.63333,156927
15.64167,157654
15.65000,157920
15.65833,157730
15.66667,157091
15.67500,156016
15.68333,154521
15.69167,152626
15.70000,150353
15.70833,147725
15.71667,144770
15.72500,141515
15.73333,137991
15.74167,134227
15.75000,130255
15.75833,126105
15.76667,121808
15.77500,117395
15.78333,112893
15.79167,108332
15.80000,103738
15.80833,99136
15.81667,94549
15.82500,90000
15.83333,85508
15.84167,81091
15.85000,76764
15.85833,72541
15.86667,68435
15.87500,64457
15.88333,60614
15.89167,56914
15.90000,53361
15.90833,49960
15.91667,46712
15.92500,43618
15.93333,40680
15.94167,37895
15.95000,35261
15.95833,32777
15.96667,30437
15.97500,28239
15.98333,26178
15.99167,24248
16.00000,22445
16.00833,20763
16.01667,19196
16.02500,17739
16.03333,16387
16.04167,15133
16.05000,13972
16.05833,12898
16.06667,11907
16.07500,10993
16.08333,10150
16.09167,9374
16.10000,8660
16.10833,8003
16.11667,7401
16.12500,6848
16.13333,6341
16.14167,5876
16.15000,5449
16.15833,5059
16.16667,4701
16.17500,4374
16.18333,4075
16.19167,3801
16.20000,3550
16.20833,3320
16.21667,3109
16.22500,2917
16.23333,2741
16.24167,2579
16.25000,2430
16.25833,2295
16.26667,2170
16.27500,2055
16.28333,1950
16.29167,1854
16.30000,1765
16.30833,1683
16.31667,1608
16.32500,1538
16.33333,1474
16.34167,1414
16.35000,1359
16.35833,1308
16.36667,1261
16.37500,1217
16.38333,1176
16.39167,1139
16.40000,1103
16.40833,1070
16.41667,1039
16.42500,1011
16.43333,983
16.44167,958
16.45000,934
16.45833,912
16.46667,891
16.47500,871
16.48333,853
16.49167,836
16.50000,819
16.50833,804
16.51667,789
16.52500,775
16.53333,761
16.54167,749
16.55000,737
16.55833,726
16.56667,715
16.57500,705
16.58333,695
16.59167,686
16.60000,677
16.60833,669
16.61667,660
16.62500,652
16.63333,644
16.64167,636
16.65000,629
16.65833,622
16.66667,615
16.67500,608
16.68333,601
16.69167,595
16.70000,588
16.70833,583
16.71667,577
16.72500,571
16.73333,565
16.74167,560
16.75000,555
16.75833,550
16.76667,545
16.77500,540
16.78333,535
16.79167,530
16.80000,525
16.80833,520
16.81667,515
16.82500,510
16.83333,506
16.84167,501
16.85000,496
16.85833,492
16.86667,487
16.87500,483
16.88333,478
16.89167,474
16.90000,470
16.90833,465
16.91667,461
16.92500,456
16.93333,452
16.94167,448
16.95000,443
16.95833,439
16.96667,435
16.97500,431
16.98333,427
16.99167,423
17.00000,419
17.00833,415
17.01667,411
17.02500,407
17.03333,404
17.04167,400
17.05000,397
17.05833,392
17.06667,388
17.07500,384
17.08333,381
17.09167,378
17.10000,374
17.10833,371
17.11667,368
17.12500,364
17.13333,361
17.14167,358
17.15000,355
17.15833,352
17.16667,349
17.17500,346
17.18333,343
17.19167,340
17.20000,337
17.20833,334
17.21667,331
17.22500,329
17.23333,327
17.24167,324
17.25000,321
17.25833,319
17.26667,316
17.27500,314
17.28333,311
17.29167,309
17.30000,307
17.30833,305
17.31667,302
17.32500,300
17.33333,298
17.34167,296
17.35000,294
17.35833,292
17.36667,290
17.37500,288
17.38333,286
17.39167,284
17.40000,282
17.40833,280
17.41667,279
17.42500,277
17.43333,275
17.44167,274
17.45000,272
17.45833,271
17.46667,269
17.47500,268
17.48333,266
17.49167,264
17.50000,263
17.50833,261
17.51667,260
17.52500,258
17.53333,257
17.54167,256
17.55000,254
17.55833,253
17.56667,251
17.57500,250
17.58333,249
17.59167,248
17.60000,247
17.60833,246
17.61667,245
17.62500,244
17.63333,242
17.64167,241
17.65000,240
17.65833,239
17.66667,237
17.67500,236
17.68333,235
17.69167,234
17.70000,233
17.70833,232
17.71667,231
17.72500,230
17.73333,229
17.74167,228
17.75000,227
17.75833,226
17.76667,225
17.77500,224
17.78333,223
17.79167,222
17.80000,221
17.80833,220
17.81667,219
17.82500,217
17.83333,216
17.84167,215
17.85000,214
17.85833,213
17.86667,212
17.87500,211
17.88333,210
17.89167,209
17.90000,208
17.90833,207
17.91667,206
17.92500,206
17.93333,205
17.94167,204
17.95000,202
17.95833,201
17.96667,200
17.97500,199
17.98333,198
17.99167,197
18.00000,196
18.00833,195
18.01667,195
18.02500,194
18.03333,193
18.04167,192
18.05000,191
18.05833,190
18.06667,189
18.07500,188
18.08333,187
18.09167,186
18.10000,185
18.10833,184
18.11667,184
18.12500,183
18.13333,182
18.14167,181
18.15000,180
18.15833,179
18.16667,178
18.17500,177
18.18333,176
18.19167,175
18.20000,173
18.20833,173
18.21667,172
18.22500,172
18.23333,171
18.24167,170
18.25000,169
18.25833,168
18.26667,167
18.27500,166
18.28333,166
18.29167,165
18.30000,163
18.30833,163
18.31667,162
18.32500,161
18.33333,160
18.34167,158
18.35000,157
18.35833,156
18.36667,155
18.37500,154
18.38333,153
18.39167,153
18.40000,152
18.40833,152
18.41667,151
18.42500,150
18.43333,149
18.44167,149
18.45000,148
18.45833,148
18.46667,147
18.47500,146
18.48333,145
18.49167,144
18.50000,143
18.50833,142
18.51667,141
18.52500,140
18.53333,140
18.54167,139
18.55000,139
18.55833,138
18.56667,137
18.57500,137
18.58333,136
18.59167,135
18.60000,134
18.60833,134
18.61667,133
18.62500,133
18.63333,132
18.64167,131
18.65000,131
18.65833,130
18.66667,130
18.67500,131
18.68333,130
18.69167,130
18.70000,131
18.70833,130
18.71667,130
18.72500,130
18.73333,130
18.74167,130
18.75000,130
18.75833,130
18.76667,131
18.77500,131
18.78333,132
18.79167,133
18.80000,133
18.80833,134
18.81667,134
18.82500,135
18.83333,136
18.84167,136
18.85000,137
18.85833,138
18.86667,139
18.87500,139
18.88333,141
18.89167,142
18.90000,142
18.90833,143
18.91667,144
18.92500,145
18.93333,146
18.94167,147
18.95000,147
18.95833,147
18.96667,147
18.97500,147
18.98333,147
18.99167,147
19.00000,147
19.00833,147
19.01667,147
19.02500,146
19.03333,145
19.04167,144
19.05000,143
19.05833,142
19.06667,142
19.07500,141
19.08333,139
19.09167,138
19.10000,136
19.10833,135
19.11667,133
19.12500,131
19.13333,129
19.14167,127
19.15000,125
19.15833,123
19.16667,122
19.17500,120
19.18333,119
19.19167,118
19.20000,116
19.20833,114
19.21667,113
19.22500,111
19.23333,109
19.24167,108
19.25000,106
19.25833,105
19.26667,104
19.27500,102
19.28333,101
19.29167,100
19.30000,99
19.30833,98
19.31667,96
19.32500,95
19.33333,94
19.34167,93
19.35000,92
19.35833,91
19.36667,90
19.37500,89
19.38333,88
19.39167,87
19.40000,87
19.40833,86
19.41667,86
19.42500,85
19.43333,85
19.44167,84
19.45000,84
19.45833,83
19.46667,82
19.47500,82
19.48333,82
19.49167,81
19.50000,81
19.50833,81
19.51667,80
19.52500,79
19.53333,79
19.54167,78
19.55000,78
19.55833,78
19.56667,77
19.57500,77
19.58333,76
19.59167,76
19.60000,75
19.60833,75
19.61667,75
19.62500,74
19.63333,74
19.64167,74
19.65000,73
19.65833,73
19.66667,73
19.67500,72
19.68333,72
19.69167,72
19.70000,72
19.70833,71
19.71667,71
19.72500,71
19.73333,70
19.74167,70
19.75000,69
19.75833,69
19.76667,69
19.77500,69
19.78333,68
19.79167,68
19.80000,68
19.80833,67
19.81667,67
19.82500,67
19.83333,67
19.84167,66
19.85000,66
19.85833,66
19.86667,66
19.87500,66
19.88333,65
19.89167,65
19.90000,65
19.90833,65
19.91667,64
19.92500,64
19.93333,64
19.94167,63
19.95000,63
19.95833,63
19.96667,62
19.97500,62
19.98333,62
19.99167,62
20.00000,61
20.00833,61
20.01667,61
20.02500,61
20.03333,61
20.04167,61
20.05000,60
20.05833,60
20.06667,60
20.07500,60
20.08333,60
20.09167,60
20.10000,60
20.10833,60
20.11667,60
20.12500,60
20.13333,60
20.14167,59
20.15000,59
20.15833,59
20.16667,59
20.17500,58
20.18333,58
20.19167,57
20.20000,57
20.20833,57
20.21667,57
20.22500,57
20.23333,56
20.24167,56
20.25000,56
20.25833,55
20.26667,55
20.27500,54
20.28333,54
20.29167,54
20.30000,54
20.30833,54
20.31667,54
20.32500,54
20.33333,54
20.34167,54
20.35000,53
20.35833,53
20.36667,53
20.37500,53
20.38333,53
20.39167,52
20.40000,52
20.40833,52
20.41667,52
20.42500,52
20.43333,52
20.44167,52
20.45000,51
20.45833,51
20.46667,51
20.47500,51
20.48333,51
20.49167,50
20.50000,50
20.50833,50
20.51667,50
20.52500,50
20.53333,50
20.54167,49
20.55000,49
20.55833,49
20.56667,49
20.57500,49
20.58333,48
20.59167,48
20.60000,48
20.60833,48
20.61667,48
20.62500,47
20.63333,47
20.64167,47
20.65000,47
20.65833,47
20.66667,46
20.67500,46
20.68333,46
20.69167,46
20.70000,46
20.70833,46
20.71667,46
20.72500,46
20.73333,46
20.74167,46
20.75000,46
20.75833,45
20.76667,45
20.77500,45
20.78333,45
20.79167,44
20.80000,44
20.80833,44
20.81667,44
20.82500,43
20.83333,43
20.84167,43
20.85000,42
20.85833,43
20.86667,43
20.87500,43
20.88333,42
20.89167,42
20.90000,42
20.90833,42
20.91667,42
20.92500,42
20.93333,42
20.94167,42
20.95000,42
20.95833,42
20.96667,42
20.97500,42
20.98333,42
20.99167,41
21.00000,41
21.00833,41
21.01667,40
21.02500,40
21.03333,40
21.04167,40
21.05000,40
21.05833,39
21.06667,39
21.07500,40
21.08333,39
21.09167,39
21.10000,39
21.10833,39
21.11667,39
21.12500,39
21.13333,39
21.14167,40
21.15000,40
21.15833,40
21.16667,40
21.17500,40
21.18333,40
21.19167,39
21.20000,40
21.20833,40
21.21667,41
21.22500,41
21.23333,41
21.24167,41
21.25000,41
21.25833,41
21.26667,42
21.27500,43
21.28333,43
21.29167,44
21.30000,45
21.30833,47
21.31667,49
21.32500,51
21.33333,53
21.34167,55
21.35000,58
21.35833,61
21.36667,64
21.37500,67
21.38333,71
21.39167,76
21.40000,81
21.40833,88
21.41667,95
21.42500,103
21.43333,113
21.44167,123
21.45000,135
21.45833,148
21.46667,163
21.47500,180
21.48333,199
21.49167,220
21.50000,245
21.50833,273
21.51667,305
21.52500,341
21.53333,381
21.54167,427
21.55000,479
21.55833,537
21.56667,602
21.57500,676
21.58333,760
21.59167,853
21.60000,959
21.60833,1077
21.61667,1209
21.62500,1357
21.63333,1522
21.64167,1706
21.65000,1910
21.65833,2137
21.66667,2389
21.67500,2667
21.68333,2972
21.69167,3308
21.70000,3677
21.70833,4080
21.71667,4519
21.72500,4997
21.73333,5514
21.74167,6073
21.75000,6676
21.75833,7323
21.76667,8015
21.77500,8754
21.78333,9540
21.79167,10373
21.80000,11253
21.80833,12180
21.81667,13152
21.82500,14167
21.83333,15224
21.84167,16320
21.85000,17452
21.85833,18616
21.86667,19810
21.87500,21027
21.88333,22263
21.89167,23514
21.90000,24773
21.90833,26034
21.91667,27291
21.92500,28538
21.93333,29766
21.94167,30971
21.95000,32143
21.95833,33278
21.96667,34367
21.97500,35405
21.98333,36383
21.99167,37298
22.00000,38143
22.00833,38912
22.01667,39602
22.02500,40207
22.03333,40725
22.04167,41152
22.05000,41485
22.05833,41725
22.06667,41868
22.07500,41916
22.08333,41868
22.09167,41727
22.10000,41493
22.10833,41170
22.11667,40759
22.12500,40266
22.13333,39693
22.14167,39045
22.15000,38327
22.15833,37545
22.16667,36703
22.17500,35808
22.18333,34865
22.19167,33880
22.20000,32860
22.20833,31808
22.21667,30733
22.22500,29639
22.23333,28532
22.24167,27417
22.25000,26299
22.25833,25183
22.26667,24073
22.27500,22974
22.28333,21889
22.29167,20822
22.30000,19776
22.30833,18754
22.31667,17758
22.32500,16790
22.33333,15853
22.34167,14947
22.35000,14074
22.35833,13236
22.36667,12431
22.37500,11662
22.38333,10927
22.39167,10228
22.40000,9563
22.40833,8932
22.41667,8335
22.42500,7771
22.43333,7240
22.44167,6739
22.45000,6268
22.45833,5827
22.46667,5414
22.47500,5027
22.48333,4666
22.49167,4329
22.50000,4016
22.50833,3725
22.51667,3454
22.52500,3203
22.53333,2970
22.54167,2755
22.55000,2556
22.55833,2372
22.56667,2202
22.57500,2046
22.58333,1901
22.59167,1768
22.60000,1646
22.60833,1534
22.61667,1430
22.62500,1336
22.63333,1249
22.64167,1169
22.65000,1095
22.65833,1028
22.66667,966
22.67500,909
22.68333,857
22.69167,809
22.70000,765
22.70833,724
22.71667,687
22.72500,653
22.73333,622
22.74167,593
22.75000,566
22.75833,542
22.76667,519
22.77500,498
22.78333,479
22.79167,461
22.80000,444
22.80833,429
22.81667,415
22.82500,402
22.83333,389
22.84167,377
22.85000,367
22.85833,357
22.86667,347
22.87500,339
22.88333,331
22.89167,323
22.90000,316
22.90833,309
22.91667,303
22.92500,297
22.93333,291
22.94167,286
22.95000,281
22.95833,276
22.96667,272
22.97500,267
22.98333,263
22.99167,259
23.00000,255
23.00833,252
23.01667,248
23.02500,244
23.03333,241
23.04167,239
23.05000,236
23.05833,233
23.06667,230
23.07500,228
23.08333,225
23.09167,222
23.10000,220
23.10833,217
23.11667,215
23.12500,213
23.13333,210
23.14167,208
23.15000,206
23.15833,204
23.16667,202
23.17500,200
23.18333,198
23.19167,196
23.20000,195
23.20833,193
23.21667,191
23.22500,189
23.23333,187
23.24167,185
23.25000,184
23.25833,182
23.26667,181
23.27500,179
23.28333,178
23.29167,176
23.30000,175
23.30833,174
23.31667,173
23.32500,171
23.33333,169
23.34167,167
23.35000,166
23.35833,164
23.36667,163
23.37500,161
23.38333,160
23.39167,159
23.40000,158
23.40833,157
23.41667,155
23.42500,154
23.43333,153
23.44167,152
23.45000,150
23.45833,149
23.46667,148
23.47500,146
23.48333,145
23.49167,143
23.50000,142
23.50833,141
23.51667,140
23.52500,139
23.53333,138
23.54167,137
23.55000,135
23.55833,135
23.56667,134
23.57500,133
23.58333,132
23.59167,131
23.60000,130
23.60833,129
23.61667,128
23.62500,127
23.63333,126
23.64167,125
23.65000,125
23.65833,124
23.66667,124
23.67500,123
23.68333,122
23.69167,121
23.70000,121
23.70833,120
23.71667,120
23.72500,119
23.73333,118
23.74167,117
23.75000,116
23.75833,116
23.76667,115
23.77500,115
23.78333,115
23.79167,114
23.80000,114
23.80833,113
23.81667,113
23.82500,112
23.83333,112
23.84167,111
23.85000,111
23.85833,110
23.86667,110
23.87500,110
23.88333,109
23.89167,109
23.90000,108
23.90833,108
23.91667,108
23.92500,107
23.93333,107
23.94167,107
23.95000,107
23.95833,106
23.96667,106
23.97500,105
23.98333,104
23.99167,103
24.00000,102
24.00833,101
24.01667,101
24.02500,101
24.03333,101
24.04167,101
24.05000,100
24.05833,100
24.06667,99
24.07500,99
24.08333,98
24.09167,98
24.10000,98
24.10833,98
24.11667,97
24.12500,97
24.13333,97
24.14167,97
24.15000,96
24.15833,96
24.16667,96
24.17500,96
24.18333,96
24.19167,96
24.20000,95
24.20833,95
24.21667,95
24.22500,96
24.23333,96
24.24167,97
24.25000,97
24.25833,98
24.26667,99
24.27500,100
24.28333,101
24.29167,102
24.30000,104
24.30833,106
24.31667,108
24.32500,111
24.33333,113
24.34167,117
24.35000,121
24.35833,125
24.36667,130
24.37500,135
24.38333,142
24.39167,149
24.40000,157
24.40833,166
24.41667,176
24.42500,187
24.43333,199
24.44167,213
24.45000,229
24.45833,246
24.46667,266
24.47500,288
24.48333,312
24.49167,339
24.50000,370
24.50833,403
24.51667,441
24.52500,482
24.53333,529
24.54167,581
24.55000,638
24.55833,702
24.56667,772
24.57500,849
24.58333,934
24.59167,1027
24.60000,1130
24.60833,1242
24.61667,1365
24.62500,1499
24.63333,1644
24.64167,1802
24.65000,1974
24.65833,2160
24.66667,2361
24.67500,2578
24.68333,2810
24.69167,3060
24.70000,3327
24.70833,3611
24.71667,3914
24.72500,4235
24.73333,4575
24.74167,4935
24.75000,5313
24.75833,5709
24.76667,6123
24.77500,6555
24.78333,7005
24.79167,7471
24.80000,7952
24.80833,8448
24.81667,8956
24.82500,9477
24.83333,10006
24.84167,10544
24.85000,11087
24.85833,11635
24.86667,12183
24.87500,12731
24.88333,13276
24.89167,13816
24.90000,14348
24.90833,14869
24.91667,15377
24.92500,15870
24.93333,16343
24.94167,16797
24.95000,17227
24.95833,17632
24.96667,18009
24.97500,18357
24.98333,18674
24.99167,18958
25.00000,19209
25.00833,19424
25.01667,19602
25.02500,19744
25.03333,19848
25.04167,19914
25.05000,19943
25.05833,19934
25.06667,19887
25.07500,19804
25.08333,19685
25.09167,19532
25.10000,19344
25.10833,19124
25.11667,18873
25.12500,18593
25.13333,18285
25.14167,17951
25.15000,17594
25.15833,17215
25.16667,16816
25.17500,16399
25.18333,15967
25.19167,15521
25.20000,15063
25.20833,14596
25.21667,14121
25.22500,13641
25.23333,13157
25.24167,12672
25.25000,12186
25.25833,11702
25.26667,11220
25.27500,10743
25.28333,10272
25.29167,9808
25.30000,9352
25.30833,8906
25.31667,8469
25.32500,8044
25.33333,7630
25.34167,7228
25.35000,6839
25.35833,6464
25.36667,6102
25.37500,5753
25.38333,5419
25.39167,5099
25.40000,4793
25.40833,4502
25.41667,4224
25.42500,3959
25.43333,3708
25.44167,3470
25.45000,3245
25.45833,3032
25.46667,2831
25.47500,2642
25.48333,2465
25.49167,2298
25.50000,2141
25.50833,1994
25.51667,1857
25.52500,1729
25.53333,1610
25.54167,1499
25.55000,1396
25.55833,1300
25.56667,1211
25.57500,1128
25.58333,1052
25.59167,981
25.60000,915
25.60833,854
25.61667,798
25.62500,747
25.63333,699
25.64167,655
25.65000,615
25.65833,578
25.66667,543
25.67500,512
25.68333,483
25.69167,456
25.70000,432
25.70833,409
25.71667,388
25.72500,369
25.73333,351
25.74167,335
25.75000,321
25.75833,307
25.76667,295
25.77500,283
25.78333,272
25.79167,262
25.80000,253
25.80833,245
25.81667,237
25.82500,229
25.83333,222
25.84167,216
25.85000,211
25.85833,206
25.86667,201
25.87500,196
25.88333,192
25.89167,188
25.90000,184
25.90833,180
25.91667,177
25.92500,174
25.93333,171
25.94167,168
25.95000,165
25.95833,163
25.96667,160
25.97500,157
25.98333,155
25.99167,152
26.00000,150
26.00833,148
26.01667,147
26.02500,145
26.03333,143
26.04167,141
26.05000,140
26.05833,138
26.06667,136
26.07500,135
26.08333,134
26.09167,132
26.10000,131
26.10833,129
26.11667,128
26.12500,126
26.13333,124
26.14167,123
26.15000,122
26.15833,120
26.16667,120
26.17500,119
26.18333,118
26.19167,117
26.20000,116
26.20833,115
26.21667,114
26.22500,112
26.23333,111
26.24167,110
26.25000,109
26.25833,108
26.26667,108
26.27500,107
26.28333,106
26.29167,106
26.30000,105
26.30833,104
26.31667,103
26.32500,102
26.33333,102
26.34167,101
26.35000,101
26.35833,101
26.36667,100
26.37500,100
26.38333,99
26.39167,98
26.40000,98
26.40833,97
26.41667,96
26.42500,96
26.43333,95
26.44167,95
26.45000,94
26.45833,94
26.46667,94
26.47500,93
26.48333,93
26.49167,92
26.50000,92
26.50833,92
26.51667,91
26.52500,91
26.53333,91
26.54167,91
26.55000,91
26.55833,91
26.56667,90
26.57500,90
26.58333,90
26.59167,89
26.60000,89
26.60833,88
26.61667,88
26.62500,88
26.63333,88
26.64167,88
26.65000,87
26.65833,87
26.66667,87
26.67500,87
26.68333,87
26.69167,87
26.70000,86
26.70833,86
26.71667,86
26.72500,85
26.73333,85
26.74167,85
26.75000,84
26.75833,84
26.76667,83
26.77500,83
26.78333,83
26.79167,83
26.80000,83
26.80833,82
26.81667,82
26.82500,82
26.83333,81
26.84167,81
26.85000,80
26.85833,80
26.86667,80
26.87500,79
26.88333,79
26.89167,78
26.90000,77
26.90833,77
26.91667,77
26.92500,76
26.93333,76
26.94167,75
26.95000,75
26.95833,74
26.96667,73
26.97500,73
26.98333,72
26.99167,71
27.00000,71
27.00833,71
27.01667,71
27.02500,70
27.03333,70
27.04167,69
27.05000,68
27.05833,68
27.06667,68
27.07500,67
27.08333,67
27.09167,67
27.10000,67
27.10833,66
27.11667,66
27.12500,65
27.13333,65
27.14167,64
27.15000,64
27.15833,64
27.16667,63
27.17500,63
27.18333,63
27.19167,63
27.20000,62
27.20833,62
27.21667,62
27.22500,61
27.23333,61
27.24167,61
27.25000,60
27.25833,60
27.26667,59
27.27500,59
27.28333,59
27.29167,58
27.30000,58
27.30833,58
27.31667,58
27.32500,58
27.33333,58
27.34167,58
27.35000,58
27.35833,58
27.36667,57
27.37500,57
27.38333,57
27.39167,56
27.40000,56
27.40833,55
27.41667,55
27.42500,54
27.43333,54
27.44167,54
27.45000,54
27.45833,54
27.46667,54
27.47500,54
27.48333,54
27.49167,54
27.50000,53
27.50833,53
27.51667,53
27.52500,53
27.53333,53
27.54167,52
27.55000,52
27.55833,52
27.56667,52
27.57500,52
27.58333,51
27.59167,51
27.60000,51
27.60833,51
27.61667,51
27.62500,51
27.63333,51
27.64167,51
27.65000,50
27.65833,50
27.66667,50
27.67500,49
27.68333,49
27.69167,49
27.70000,49
27.70833,49
27.71667,48
27.72500,48
27.73333,48
27.74167,48
27.75000,48
27.75833,48
27.76667,47
27.77500,47
27.78333,47
27.79167,46
27.80000,46
27.80833,45
27.81667,45
27.82500,45
27.83333,44
27.84167,44
27.85000,43
27.85833,42
27.86667,41
27.87500,41
27.88333,40
27.89167,39
27.90000,38
27.90833,37
27.91667,36
27.92500,35
27.93333,34
27.94167,33
27.95000,31
27.95833,30
27.96667,28
27.97500,26
27.98333,25
27.99167,23
28.00000,22
28.00833,20
28.01667,18
28.02500,16
28.03333,14
28.04167,12
28.05000,10
28.05833,8
28.06667,5
28.07500,3
28.08333,0
28.09167,-2
28.10000,-5
28.10833,-7
28.11667,-10
28.12500,-13
28.13333,-16
28.14167,-19
28.15000,-22
28.15833,-25
28.16667,-28
28.17500,-31
28.18333,-35
28.19167,-38
28.20000,-41
28.20833,-45
28.21667,-49
28.22500,-52
28.23333,-56
28.24167,-59
28.25000,-63
28.25833,-67
28.26667,-70
28.27500,-73
28.28333,-77
28.29167,-80
28.30000,-83
28.30833,-86
28.31667,-88
28.32500,-91
28.33333,-94
28.34167,-96
28.35000,-99
28.35833,-101
28.36667,-103
28.37500,-105
28.38333,-107
28.39167,-109
28.40000,-110
28.40833,-111
28.41667,-112
28.42500,-113
28.43333,-113
28.44167,-114
28.45000,-114
28.45833,-114
28.46667,-114
28.47500,-114
28.48333,-114
28.49167,-114
28.50000,-113
28.50833,-113
28.51667,-112
28.52500,-111
28.53333,-109
28.54167,-108
28.55000,-106
28.55833,-105
28.56667,-103
28.57500,-101
28.58333,-99
28.59167,-97
28.60000,-95
28.60833,-93
28.61667,-91
28.62500,-88
28.63333,-86
28.64167,-83
28.65000,-81
28.65833,-78
28.66667,-75
28.67500,-73
28.68333,-70
28.69167,-67
28.70000,-64
28.70833,-62
28.71667,-59
28.72500,-56
28.73333,-54
28.74167,-51
28.75000,-48
28.75833,-45
28.76667,-41
28.77500,-39
28.78333,-36
28.79167,-34
28.80000,-32
28.80833,-29
28.81667,-27
28.82500,-25
28.83333,-23
28.84167,-20
28.85000,-18
28.85833,-16
28.86667,-14
28.87500,-12
28.88333,-10
28.89167,-9
28.90000,-7
28.90833,-6
28.91667,-4
28.92500,-3
28.93333,-2
28.94167,-0
28.95000,1
28.95833,3
28.96667,4
28.97500,5
28.98333,6
28.99167,7
29.00000,8
29.00833,9
29.01667,11
29.02500,12
29.03333,12
29.04167,13
29.05000,14
29.05833,15
29.06667,15
29.07500,16
29.08333,17
29.09167,17
29.10000,17
29.10833,18
29.11667,18
29.12500,19
29.13333,19
29.14167,19
29.15000,20
29.15833,20
29.16667,20
29.17500,21
29.18333,21
29.19167,22
29.20000,22
29.20833,22
29.21667,22
29.22500,22
29.23333,22
29.24167,23
29.25000,23
29.25833,24
29.26667,24
29.27500,24
29.28333,24
29.29167,24
29.30000,24
29.30833,24
29.31667,24
29.32500,24
29.33333,24
29.34167,24
29.35000,24
29.35833,24
29.36667,24
29.37500,24
29.38333,24
29.39167,24
29.40000,24
29.40833,24
29.41667,24
29.42500,24
29.43333,24
29.44167,24
29.45000,23
29.45833,23
29.46667,23
29.47500,23
29.48333,23
29.49167,23
29.50000,23
29.50833,22
29.51667,22
29.52500,22
29.53333,22
29.54167,21
29.55000,21
29.55833,20
29.56667,20
29.57500,20
29.58333,20
29.59167,19
29.60000,19
29.60833,19
29.61667,18
29.62500,18
29.63333,17
29.64167,17
29.65000,16
29.65833,16
29.66667,15
29.67500,15
29.68333,14
29.69167,14
29.70000,13
29.70833,12
29.71667,12
29.72500,12
29.73333,11
29.74167,10
29.75000,10
29.75833,9
29.76667,8
29.77500,8
29.78333,7
29.79167,5
29.80000,4
29.80833,3
29.81667,2
29.82500,1
29.83333,1
29.84167,-0
29.85000,-1
29.85833,-2
29.86667,-4
29.87500,-5
29.88333,-6
29.89167,-8
29.90000,-9
29.90833,-10
29.91667,-11
29.92500,-11
29.93333,-12
29.94167,-14
29.95000,-15
29.95833,-17
29.96667,-18
29.97500,-19
29.98333,-20
29.99167,-21
30.00000,-23
30.00833,-24
30.01667,-25
30.02500,-26
30.03333,-27
30.04167,-28
30.05000,-28
30.05833,-30
30.06667,-31
30.07500,-32
30.08333,-33
30.09167,-34
30.10000,-35
30.10833,-35
30.11667,-36
30.12500,-36
30.13333,-37
30.14167,-37
30.15000,-38
30.15833,-38
30.16667,-39
30.17500,-39
30.18333,-39
30.19167,-40
30.20000,-40
30.20833,-40
30.21667,-40
30.22500,-39
30.23333,-39
30.24167,-39
30.25000,-39
30.25833,-39
30.26667,-39
30.27500,-38
30.28333,-38
30.29167,-37
30.30000,-37
30.30833,-36
30.31667,-36
30.32500,-35
30.33333,-35
30.34167,-34
30.35000,-34
30.35833,-33
30.36667,-32
30.37500,-32
30.38333,-31
30.39167,-30
30.40000,-29
30.40833,-28
30.41667,-27
30.42500,-26
30.43333,-25
30.44167,-24
30.45000,-24
30.45833,-22
30.46667,-21
30.47500,-20
30.48333,-19
30.49167,-18
30.50000,-17
30.50833,-16
30.51667,-15
30.52500,-14
30.53333,-13
30.54167,-12
30.55000,-11
30.55833,-10
30.56667,-10
30.57500,-9
30.58333,-8
30.59167,-7
30.60000,-7
30.60833,-6
30.61667,-5
30.62500,-4
30.63333,-3
30.64167,-2
30.65000,-2
30.65833,-1
30.66667,-1
30.67500,-0
30.68333,0
30.69167,1
30.70000,1
30.70833,2
30.71667,3
30.72500,4
30.73333,5
30.74167,5
30.75000,5
30.75833,6
30.76667,6
30.77500,7
30.78333,7
30.79167,8
30.80000,8
30.80833,8
30.81667,8
30.82500,9
30.83333,9
30.84167,9
30.85000,9
30.85833,9
30.86667,10
30.87500,10
30.88333,11
30.89167,11
30.90000,11
30.90833,11
30.91667,11
30.92500,11
30.93333,11
30.94167,11
30.95000,11
30.95833,12
30.96667,12
30.97500,12
30.98333,12
30.99167,12
31.00000,12
31.00833,13
31.01667,13
31.02500,13
31.03333,13
31.04167,13
31.05000,12
31.05833,12
31.06667,12
31.07500,12
31.08333,12
31.09167,13
31.10000,12
31.10833,12
31.11667,12
31.12500,12
31.13333,12
31.14167,13
31.15000,13
31.15833,13
31.16667,13
31.17500,13
31.18333,13
31.19167,13
31.20000,13
31.20833,13
31.21667,13
31.22500,13
31.23333,13
31.24167,14
31.25000,14
31.25833,14
31.26667,14
31.27500,14
31.28333,13
31.29167,13
31.30000,13
31.30833,13
31.31667,13
31.32500,13
31.33333,13
31.34167,13
31.35000,13
31.35833,13
31.36667,13
31.37500,14
31.38333,13
31.39167,13
31.40000,13
31.40833,13
31.41667,13
31.42500,13
31.43333,13
31.44167,13
31.45000,13
31.45833,13
31.46667,13
31.47500,13
31.48333,13
31.49167,13
31.50000,13
31.50833,13
31.51667,13
31.52500,13
31.53333,12
31.54167,12
31.55000,12
31.55833,12
31.56667,12
31.57500,12
31.58333,12
31.59167,13
31.60000,13
31.60833,13
31.61667,13
31.62500,13
31.63333,13
31.64167,14
31.65000,13
31.65833,13
31.66667,13
31.67500,13
31.68333,13
31.69167,13
31.70000,13
31.70833,13
31.71667,13
31.72500,13
31.73333,12
31.74167,12
31.75000,13
31.75833,13
31.76667,13
31.77500,13
31.78333,13
31.79167,13
31.80000,13
31.80833,12
31.81667,13
31.82500,13
31.83333,13
31.84167,13
31.85000,13
31.85833,13
31.86667,12
31.87500,12
31.88333,12
31.89167,12
31.90000,12
31.90833,12
31.91667,11
31.92500,11
31.93333,12
31.94167,12
31.95000,12
31.95833,12
31.96667,12
31.97500,12
31.98333,12
31.99167,12
32.00000,12
32.00833,12
32.01667,12
32.02500,12
32.03333,12
32.04167,12
32.05000,12
32.05833,12
32.06667,12
32.07500,12
32.08333,12
32.09167,12
32.10000,12
32.10833,12
32.11667,11
32.12500,11
32.13333,11
32.14167,11
32.15000,11
32.15833,11
32.16667,11
32.17500,11
32.18333,11
32.19167,11
32.20000,11
32.20833,11
32.21667,11
32.22500,11
32.23333,11
32.24167,11
32.25000,11
32.25833,12
32.26667,12
32.27500,12
32.28333,12
32.29167,12
32.30000,12
32.30833,12
32.31667,12
32.32500,12
32.33333,12
32.34167,12
32.35000,11
32.35833,11
32.36667,11
32.37500,11
32.38333,12
32.39167,12
32.40000,12
32.40833,11
32.41667,11
32.42500,10
32.43333,10
32.44167,10
32.45000,10
32.45833,10
32.46667,10
32.47500,11
32.48333,11
32.49167,11
32.50000,11
32.50833,11
32.51667,11
32.52500,11
32.53333,11
32.54167,10
32.55000,10
32.55833,10
32.56667,10
32.57500,10
32.58333,10
32.59167,10
32.60000,10
32.60833,10
32.61667,10
32.62500,10
32.63333,10
32.64167,10
32.65000,10
32.65833,10
32.66667,10
32.67500,10
32.68333,10
32.69167,10
32.70000,10
32.70833,10
32.71667,10
32.72500,10
32.73333,10
32.74167,10
32.75000,10
32.75833,10
32.76667,10
32.77500,10
32.78333,10
32.79167,10
32.80000,10
32.80833,10
32.81667,10
32.82500,10
32.83333,10
32.84167,10
32.85000,11
32.85833,11
32.86667,10
32.87500,10
32.88333,10
32.89167,10
32.90000,10
32.90833,10
32.91667,10
32.92500,10
32.93333,10
32.94167,10
32.95000,10
32.95833,10
32.96667,10
32.97500,10
32.98333,11
32.99167,11
33.00000,11
33.00833,11
33.01667,11
33.02500,11
33.03333,11
33.04167,11
33.05000,11
33.05833,11
33.06667,10
33.07500,10
33.08333,9
33.09167,9
33.10000,9
33.10833,9
33.11667,9
33.12500,9
33.13333,10
33.14167,9
33.15000,9
33.15833,10
33.16667,10
33.17500,10
33.18333,10
33.19167,10
33.20000,10
33.20833,10
33.21667,10
33.22500,10
33.23333,11
33.24167,11
33.25000,11
33.25833,11
33.26667,11
33.27500,11
33.28333,11
33.29167,11
33.30000,11
33.30833,11
33.31667,11
33.32500,11
33.33333,10
33.34167,10
33.35000,10
33.35833,10
33.36667,9
33.37500,9
33.38333,9
33.39167,9
33.40000,9
33.40833,9
33.41667,10
33.42500,10
33.43333,10
33.44167,10
33.45000,10
33.45833,10
33.46667,10
33.47500,10
33.48333,9
33.49167,9
33.50000,10
33.50833,10
33.51667,10
33.52500,10
33.53333,11
33.54167,11
33.55000,11
33.55833,11
33.56667,10
33.57500,10
33.58333,10
33.59167,10
33.60000,10
33.60833,10
33.61667,10
33.62500,11
33.63333,10
33.64167,10
33.65000,10
33.65833,10
33.66667,10
33.67500,10
33.68333,10
33.69167,10
33.70000,10
33.70833,10
33.71667,10
33.72500,10
33.73333,10
33.74167,10
33.75000,11
33.75833,11
33.76667,11
33.77500,11
33.78333,11
33.79167,11
33.80000,11
33.80833,10
33.81667,10
33.82500,10
33.83333,10
33.84167,10
33.85000,10
33.85833,10
33.86667,10
33.87500,11
33.88333,11
33.89167,11
33.90000,10
33.90833,10
33.91667,10
33.92500,10
33.93333,10
33.94167,10
33.95000,10
33.95833,10
33.96667,10
33.97500,10
33.98333,10
33.99167,10
34.00000,10
34.00833,10
34.01667,10
34.02500,10
34.03333,10
34.04167,10
34.05000,10
34.05833,10
34.06667,10
34.07500,10
34.08333,10
34.09167,10
34.10000,10
34.10833,10
34.11667,10
34.12500,10
34.13333,9
34.14167,10
34.15000,10
34.15833,10
34.16667,10
34.17500,10
34.18333,10
34.19167,10
34.20000,10
34.20833,10
34.21667,10
34.22500,10
34.23333,10
34.24167,10
34.25000,11
34.25833,11
34.26667,11
34.27500,11
34.28333,11
34.29167,10
34.30000,10
34.30833,10
34.31667,10
34.32500,10
34.33333,10
34.34167,10
34.35000,11
34.35833,11
34.36667,11
34.37500,11
34.38333,11
34.39167,10
34.40000,10
34.40833,10
34.41667,10
34.42500,10
34.43333,10
34.44167,10
34.45000,10
34.45833,10
34.46667,11
34.47500,11
34.48333,11
34.49167,11
34.50000,11
34.50833,11
34.51667,11
34.52500,11
34.53333,11
34.54167,11
34.55000,11
34.55833,11
34.56667,11
34.57500,11
34.58333,11
34.59167,11
34.60000,10
34.60833,10
34.61667,10
34.62500,10
34.63333,10
34.64167,10
34.65000,10
34.65833,10
34.66667,11
34.67500,11
34.68333,11
34.69167,11
34.70000,11
34.70833,10
34.71667,10
34.72500,10
34.73333,11
34.74167,11
34.75000,11
34.75833,11
34.76667,11
34.77500,11
34.78333,10
34.79167,10
34.80000,10
34.80833,10
34.81667,10
34.82500,10
34.83333,10
34.84167,10
34.85000,10
34.85833,10
34.86667,10
34.87500,10
34.88333,10
34.89167,10
34.90000,10
34.90833,10
34.91667,10
34.92500,10
34.93333,10
34.94167,10
34.95000,10
34.95833,10
34.96667,10
34.97500,10
34.98333,10
34.99167,10
35.00000,9
35.00833,9
35.01667,9
35.02500,9
35.03333,10
35.04167,9
35.05000,9
35.05833,9
35.06667,9
35.07500,9
35.08333,9
35.09167,9
35.10000,9
35.10833,9
35.11667,9
35.12500,9
35.13333,9
35.14167,9
35.15000,9
35.15833,9
35.16667,10
35.17500,10
35.18333,10
35.19167,10
35.20000,10
35.20833,10
35.21667,10
35.22500,10
35.23333,10
35.24167,10
35.25000,10
35.25833,10
35.26667,10
35.27500,10
35.28333,10
35.29167,10
35.30000,10
35.30833,10
35.31667,10
35.32500,10
35.33333,10
35.34167,10
35.35000,10
35.35833,10
35.36667,10
35.37500,10
35.38333,10
35.39167,10
35.40000,10
35.40833,10
35.41667,10
35.42500,10
35.43333,10
35.44167,10
35.45000,10
35.45833,10
35.46667,10
35.47500,11
35.48333,11
35.49167,11
35.50000,11
35.50833,11
35.51667,10
35.52500,10
35.53333,10
35.54167,10
35.55000,10
35.55833,10
35.56667,10
35.57500,9
35.58333,9
35.59167,9
35.60000,9
35.60833,9
35.61667,10
35.62500,10
35.63333,10
35.64167,10
35.65000,9
35.65833,9
35.66667,9
35.67500,9
35.68333,9
35.69167,10
35.70000,10
35.70833,10
35.71667,10
35.72500,10
35.73333,10
35.74167,10
35.75000,10
35.75833,10
35.76667,10
35.77500,10
35.78333,11
35.79167,10
35.80000,10
35.80833,10
35.81667,10
35.82500,10
35.83333,10
35.84167,10
35.85000,10
35.85833,10
35.86667,10
35.87500,9
35.88333,9
35.89167,9
35.90000,10
35.90833,10
35.91667,10
35.92500,10
35.93333,10
35.94167,10
35.95000,10
35.95833,10
35.96667,10
35.97500,10
35.98333,10
35.99167,10
36.00000,10
36.00833,10
36.01667,9
36.02500,9
36.03333,9
36.04167,9
36.05000,9
36.05833,9
36.06667,10
36.07500,9
36.08333,9
36.09167,9
36.10000,9
36.10833,8
36.11667,8
36.12500,8
36.13333,8
36.14167,8
36.15000,9
36.15833,9
36.16667,9
36.17500,9
36.18333,9
36.19167,8
36.20000,8
36.20833,8
36.21667,8
36.22500,9
36.23333,8
36.24167,8
36.25000,8
36.25833,8
36.26667,8
36.27500,8
36.28333,9
36.29167,9
36.30000,9
36.30833,9
36.31667,9
36.32500,9
36.33333,8
36.34167,8
36.35000,8
36.35833,8
36.36667,9
36.37500,9
36.38333,8
36.39167,8
36.40000,8
36.40833,8
36.41667,8
36.42500,8
36.43333,8
36.44167,8
36.45000,8
36.45833,9
36.46667,9
36.47500,9
36.48333,9
36.49167,8
36.50000,8
36.50833,8
36.51667,9
36.52500,9
36.53333,9
36.54167,9
36.55000,9
36.55833,9
36.56667,9
36.57500,9
36.58333,9
36.59167,8
36.60000,8
36.60833,8
36.61667,8
36.62500,8
36.63333,9
36.64167,9
36.65000,10
36.65833,10
36.66667,10
36.67500,10
36.68333,10
36.69167,10
36.70000,10
36.70833,10
36.71667,10
36.72500,10
36.73333,9
36.74167,9
36.75000,9
36.75833,9
36.76667,9
36.77500,9
36.78333,9
36.79167,9
36.80000,10
36.80833,10
36.81667,10
36.82500,10
36.83333,10
36.84167,9
36.85000,9
36.85833,9
36.86667,9
36.87500,9
36.88333,9
36.89167,9
36.90000,9
36.90833,9
36.91667,9
36.92500,9
36.93333,9
36.94167,9
36.95000,8
36.95833,8
36.96667,8
36.97500,9
36.98333,9
36.99167,9
37.00000,9
37.00833,9
37.01667,8
37.02500,8
37.03333,8
37.04167,8
37.05000,9
37.05833,9
37.06667,9
37.07500,9
37.08333,9
37.09167,9
37.10000,9
37.10833,9
37.11667,9
37.12500,9
37.13333,9
37.14167,9
37.15000,9
37.15833,9
37.16667,9
37.17500,9
37.18333,9
37.19167,9
37.20000,9
37.20833,9
37.21667,9
37.22500,9
37.23333,9
37.24167,9
37.25000,9
37.25833,9
37.26667,9
37.27500,9
37.28333,9
37.29167,9
37.30000,9
37.30833,9
37.31667,9
37.32500,9
37.33333,9
37.34167,9
37.35000,8
37.35833,8
37.36667,8
37.37500,8
37.38333,8
37.39167,8
37.40000,8
37.40833,8
37.41667,8
37.42500,8
37.43333,8
37.44167,8
37.45000,8
37.45833,7
37.46667,8
37.47500,8
37.48333,8
37.49167,8
37.50000,8
37.50833,8
37.51667,8
37.52500,7
37.53333,7
37.54167,8
37.55000,7
37.55833,7
37.56667,7
37.57500,7
37.58333,7
37.59167,7
37.60000,7
37.60833,7
37.61667,8
37.62500,8
37.63333,8
37.64167,8
37.65000,8
37.65833,8
37.66667,8
37.67500,8
37.68333,8
37.69167,7
37.70000,7
37.70833,7
37.71667,8
37.72500,7
37.73333,7
37.74167,7
37.75000,7
37.75833,7
37.76667,7
37.77500,7
37.78333,7
37.79167,7
37.80000,7
37.80833,7
37.81667,7
37.82500,7
37.83333,7
37.84167,7
37.85000,7
37.85833,7
37.86667,7
37.87500,7
37.88333,7
37.89167,7
37.90000,7
37.90833,7
37.91667,7
37.92500,6
37.93333,7
37.94167,7
37.95000,7
37.95833,7
37.96667,7
37.97500,8
37.98333,8
37.99167,8
38.00000,8
38.00833,8
38.01667,8
38.02500,8
38.03333,8
38.04167,8
38.05000,7
38.05833,7
38.06667,6
38.07500,6
38.08333,6
38.09167,6
38.10000,6
38.10833,6
38.11667,6
38.12500,6
38.13333,6
38.14167,7
38.15000,6
38.15833,6
38.16667,6
38.17500,7
38.18333,7
38.19167,6
38.20000,7
38.20833,7
38.21667,7
38.22500,8
38.23333,8
38.24167,8
38.25000,7
38.25833,7
38.26667,7
38.27500,7
38.28333,7
38.29167,7
38.30000,7
38.30833,7
38.31667,7
38.32500,7
38.33333,7
38.34167,7
38.35000,7
38.35833,8
38.36667,8
38.37500,8
38.38333,8
38.39167,8
38.40000,8
38.40833,8
38.41667,8
38.42500,8
38.43333,9
38.44167,9
38.45000,9
38.45833,8
38.46667,8
38.47500,8
38.48333,8
38.49167,7
38.50000,7
38.50833,7
38.51667,8
38.52500,8
38.53333,8
38.54167,8
38.55000,8
38.55833,8
38.56667,8
38.57500,8
38.58333,8
38.59167,8
38.60000,8
38.60833,8
38.61667,7
38.62500,7
38.63333,7
38.64167,7
38.65000,6
38.65833,7
38.66667,7
38.67500,7
38.68333,7
38.69167,7
38.70000,7
38.70833,7
38.71667,7
38.72500,7
38.73333,6
38.74167,6
38.75000,6
38.75833,6
38.76667,7
38.77500,7
38.78333,7
38.79167,7
38.80000,7
38.80833,7
38.81667,6
38.82500,6
38.83333,6
38.84167,6
38.85000,6
38.85833,6
38.86667,6
38.87500,6
38.88333,6
38.89167,6
38.90000,6
38.90833,5
38.91667,5
38.92500,5
38.93333,5
38.94167,6
38.95000,6
38.95833,7
38.96667,7
38.97500,7
38.98333,7
38.99167,7
39.00000,7
39.00833,6
39.01667,6
39.02500,6
39.03333,6
39.04167,6
39.05000,6
39.05833,5
39.06667,5
39.07500,6
39.08333,6
39.09167,6
39.10000,6
39.10833,6
39.11667,6
39.12500,6
39.13333,6
39.14167,6
39.15000,6
39.15833,6
39.16667,6
39.17500,6
39.18333,6
39.19167,5
39.20000,5
39.20833,5
39.21667,4
39.22500,4
39.23333,4
39.24167,5
39.25000,5
39.25833,5
39.26667,6
39.27500,6
39.28333,6
39.29167,6
39.30000,6
39.30833,6
39.31667,6
39.32500,6
39.33333,6
39.34167,6
39.35000,6
39.35833,5
39.36667,5
39.37500,5
39.38333,4
39.39167,4
39.40000,4
39.40833,4
39.41667,5
39.42500,5
39.43333,5
39.44167,5
39.45000,5
39.45833,5
39.46667,5
39.47500,5
39.48333,5
39.49167,5
39.50000,5
39.50833,5
39.51667,5
39.52500,5
39.53333,5
39.54167,5
39.55000,5
39.55833,5
39.56667,5
39.57500,5
39.58333,5
39.59167,5
39.60000,5
39.60833,5
39.61667,5
39.62500,5
39.63333,4
39.64167,4
39.65000,4
39.65833,4
39.66667,5
39.67500,5
39.68333,5
39.69167,5
39.70000,5
39.70833,5
39.71667,5
39.72500,5
39.73333,5
39.74167,4
39.75000,4
39.75833,4
39.76667,3
39.77500,4
39.78333,4
39.79167,4
39.80000,4
39.80833,5
39.81667,5
39.82500,5
39.83333,4
39.84167,4
39.85000,4
39.85833,4
39.86667,4
39.87500,4
39.88333,4
39.89167,4
39.90000,5
39.90833,5
39.91667,5
39.92500,4
39.93333,4
39.94167,4
39.95000,4
39.95833,4
39.96667,4
39.97500,4
39.98333,3
39.99167,3
40.00000,3

