[Header]
Application Name,LabSolutions
Version,5.97 SP1
Data File Name,C:\Users\cremerlab\Desktop\griffin\2021-03-31_NC_glucose_glycerol_acetate_calibration\calibration_batch_422021_009_009.lcd
Output Date,4/3/2021
Output Time,1:45:33 AM

[File Information]
Type,Data File
Generated,4/3/2021 1:05:12 AM
Generated by,System Administrator
Modified,4/3/2021 1:45:33 AM
Modified by,System Administrator

[Sample Information]
Operator Name,System Administrator
Acquired,4/3/2021 1:05:32 AM
Sample Type,1:Standard
Level,9
Sample Name,2021-04-02_NC_glucose_glycerol_acetate_calibration_02mM
Sample ID,009
ISTD Amount1,1
ISTD Amount2,1
ISTD Amount3,1
ISTD Amount4,1
ISTD Amount5,1
ISTD Amount6,1
ISTD Amount7,1
ISTD Amount8,1
ISTD Amount9,1
ISTD Amount10,1
ISTD Amount11,1
ISTD Amount12,1
ISTD Amount13,1
ISTD Amount14,1
ISTD Amount15,1
ISTD Amount16,1
ISTD Amount17,1
ISTD Amount18,1
ISTD Amount19,1
ISTD Amount20,1
ISTD Amount21,1
ISTD Amount22,1
ISTD Amount23,1
ISTD Amount24,1
ISTD Amount25,1
ISTD Amount26,1
ISTD Amount27,1
ISTD Amount28,1
ISTD Amount29,1
ISTD Amount30,1
ISTD Amount31,1
ISTD Amount32,1
Sample Amount,1
Dilution Factor,1
Vial#,9
Injection Volume,20

[Original Files]
Data File,C:\Users\cremerlab\Desktop\griffin\2021-03-31_NC_glucose_glycerol_acetate_calibration\calibration_batch_422021_009_009.lcd
Method File,C:\LabSolutions\Data\Project1\organicacidsetc2.lcm
Batch File,C:\Users\cremerlab\Desktop\griffin\2021-03-31_NC_glucose_glycerol_acetate_calibration\calibration_batch.lcb
Report Format File,c:\LabSolutions\System\DEFAULT.lsr

[File Description]


[Configuration]
Instrument Name,HPLC-PC-Instrument1
Instrument #,1
Line #,1
# of Detectors,2
Detector ID,Detector A,Detector B
Detector Name,Detector A,Detector B
# of Channels,1,1

[Peak Table(Detector A)]
# of Peaks,0

[Peak Table(Detector B)]
# of Peaks,5
Peak#,R.Time,I.Time,F.Time,Area,Height,A/H,Conc.,Mark,ID#,Name,k',Plate #,Plate Ht.,Tailing,Resolution,Sep.Factor,Area Ratio,Height Ratio,Conc. %,Norm Conc.
1,11.059,10.758,12.875,1209071,66755,18.112,26.232,   ,,,0.000,10642,14.096,1.356,0.000,0.000,0,0,0.000,0.000
2,15.095,14.117,15.450,2988642,113295,26.379,64.842,   ,,,0.365,7183,20.882,0.000,7.073,0.000,0,0,0.000,0.000
3,15.639,15.450,18.083,296447,11943,24.821,6.432, V ,,,0.414,5380,27.882,0.000,0.695,1.135,0,0,0.000,0.000
4,22.076,21.458,22.950,75991,2829,26.862,1.649,   ,,,0.996,15474,9.693,1.088,8.238,2.406,0,0,0.000,0.000
5,25.069,24.450,25.867,38935,1340,29.059,0.845,   ,,,1.267,16807,8.925,1.062,4.035,1.272,0,0,0.000,0.000

[LC Chromatogram(Detector B-Ch1)]
Interval(msec),500
# of Points,4801
Start Time(min),0.000
End Time(min),40.000
Intensity Units,mV
Intensity Multiplier,0.001
R.Time (min),Intensity
0.00000,-1
0.00833,-1
0.01667,-0
0.02500,-0
0.03333,-0
0.04167,-1
0.05000,-1
0.05833,-1
0.06667,-1
0.07500,-1
0.08333,-0
0.09167,0
0.10000,1
0.10833,1
0.11667,1
0.12500,1
0.13333,1
0.14167,1
0.15000,1
0.15833,1
0.16667,1
0.17500,1
0.18333,1
0.19167,1
0.20000,1
0.20833,1
0.21667,1
0.22500,1
0.23333,1
0.24167,1
0.25000,1
0.25833,1
0.26667,1
0.27500,1
0.28333,0
0.29167,0
0.30000,-0
0.30833,-0
0.31667,-0
0.32500,-1
0.33333,-1
0.34167,-0
0.35000,-0
0.35833,-0
0.36667,-1
0.37500,-1
0.38333,-0
0.39167,-0
0.40000,-1
0.40833,-0
0.41667,-0
0.42500,0
0.43333,0
0.44167,0
0.45000,0
0.45833,0
0.46667,0
0.47500,0
0.48333,0
0.49167,0
0.50000,0
0.50833,0
0.51667,0
0.52500,0
0.53333,0
0.54167,0
0.55000,1
0.55833,1
0.56667,2
0.57500,2
0.58333,2
0.59167,2
0.60000,2
0.60833,2
0.61667,2
0.62500,2
0.63333,1
0.64167,1
0.65000,1
0.65833,0
0.66667,0
0.67500,-0
0.68333,-0
0.69167,0
0.70000,-0
0.70833,-0
0.71667,-0
0.72500,-1
0.73333,-1
0.74167,-1
0.75000,-1
0.75833,-1
0.76667,-1
0.77500,-0
0.78333,0
0.79167,-0
0.80000,-0
0.80833,-0
0.81667,-0
0.82500,-0
0.83333,0
0.84167,0
0.85000,0
0.85833,0
0.86667,0
0.87500,1
0.88333,1
0.89167,1
0.90000,1
0.90833,2
0.91667,1
0.92500,1
0.93333,1
0.94167,1
0.95000,1
0.95833,1
0.96667,1
0.97500,1
0.98333,0
0.99167,0
1.00000,0
1.00833,0
1.01667,0
1.02500,0
1.03333,0
1.04167,0
1.05000,0
1.05833,-0
1.06667,-0
1.07500,-1
1.08333,-1
1.09167,-0
1.10000,-0
1.10833,-0
1.11667,-0
1.12500,-1
1.13333,-0
1.14167,-0
1.15000,-1
1.15833,-1
1.16667,-1
1.17500,-1
1.18333,-1
1.19167,-0
1.20000,-0
1.20833,-0
1.21667,-1
1.22500,-1
1.23333,-1
1.24167,-0
1.25000,-0
1.25833,-0
1.26667,-0
1.27500,-0
1.28333,0
1.29167,0
1.30000,0
1.30833,0
1.31667,0
1.32500,0
1.33333,0
1.34167,0
1.35000,0
1.35833,0
1.36667,0
1.37500,0
1.38333,0
1.39167,-0
1.40000,-0
1.40833,-0
1.41667,-0
1.42500,-0
1.43333,-0
1.44167,0
1.45000,0
1.45833,0
1.46667,1
1.47500,1
1.48333,1
1.49167,0
1.50000,0
1.50833,0
1.51667,0
1.52500,0
1.53333,-0
1.54167,-0
1.55000,-0
1.55833,-0
1.56667,-1
1.57500,-1
1.58333,-1
1.59167,-1
1.60000,-1
1.60833,-1
1.61667,-1
1.62500,-1
1.63333,-1
1.64167,-0
1.65000,-0
1.65833,-0
1.66667,-0
1.67500,0
1.68333,0
1.69167,0
1.70000,0
1.70833,0
1.71667,-0
1.72500,-0
1.73333,-1
1.74167,-1
1.75000,-1
1.75833,-1
1.76667,-1
1.77500,-1
1.78333,-1
1.79167,-1
1.80000,-1
1.80833,-1
1.81667,-1
1.82500,-1
1.83333,-2
1.84167,-2
1.85000,-1
1.85833,-1
1.86667,-1
1.87500,-1
1.88333,-2
1.89167,-1
1.90000,-1
1.90833,-2
1.91667,-2
1.92500,-2
1.93333,-2
1.94167,-2
1.95000,-1
1.95833,-1
1.96667,-1
1.97500,-1
1.98333,-1
1.99167,-1
2.00000,-1
2.00833,-1
2.01667,-1
2.02500,-1
2.03333,-1
2.04167,-1
2.05000,-1
2.05833,-2
2.06667,-2
2.07500,-2
2.08333,-2
2.09167,-2
2.10000,-2
2.10833,-2
2.11667,-2
2.12500,-1
2.13333,-1
2.14167,-1
2.15000,-1
2.15833,-1
2.16667,-2
2.17500,-2
2.18333,-2
2.19167,-2
2.20000,-2
2.20833,-2
2.21667,-2
2.22500,-2
2.23333,-2
2.24167,-2
2.25000,-2
2.25833,-2
2.26667,-2
2.27500,-2
2.28333,-2
2.29167,-1
2.30000,-1
2.30833,-2
2.31667,-2
2.32500,-2
2.33333,-2
2.34167,-2
2.35000,-2
2.35833,-3
2.36667,-3
2.37500,-3
2.38333,-3
2.39167,-3
2.40000,-3
2.40833,-3
2.41667,-2
2.42500,-2
2.43333,-3
2.44167,-3
2.45000,-2
2.45833,-2
2.46667,-2
2.47500,-2
2.48333,-2
2.49167,-2
2.50000,-2
2.50833,-1
2.51667,-1
2.52500,-1
2.53333,-1
2.54167,-1
2.55000,-1
2.55833,-1
2.56667,-1
2.57500,-2
2.58333,-2
2.59167,-2
2.60000,-1
2.60833,-1
2.61667,-1
2.62500,-2
2.63333,-2
2.64167,-2
2.65000,-2
2.65833,-2
2.66667,-2
2.67500,-2
2.68333,-2
2.69167,-2
2.70000,-2
2.70833,-1
2.71667,-1
2.72500,-1
2.73333,-1
2.74167,-1
2.75000,-1
2.75833,-1
2.76667,-1
2.77500,-1
2.78333,-1
2.79167,-1
2.80000,-1
2.80833,-1
2.81667,-1
2.82500,-1
2.83333,-1
2.84167,-1
2.85000,-0
2.85833,0
2.86667,0
2.87500,0
2.88333,0
2.89167,0
2.90000,0
2.90833,-0
2.91667,-0
2.92500,-0
2.93333,-0
2.94167,-0
2.95000,-0
2.95833,-1
2.96667,-1
2.97500,-0
2.98333,-0
2.99167,0
3.00000,0
3.00833,0
3.01667,1
3.02500,1
3.03333,1
3.04167,1
3.05000,1
3.05833,1
3.06667,1
3.07500,1
3.08333,1
3.09167,1
3.10000,1
3.10833,1
3.11667,1
3.12500,1
3.13333,1
3.14167,1
3.15000,1
3.15833,1
3.16667,1
3.17500,1
3.18333,0
3.19167,0
3.20000,1
3.20833,1
3.21667,1
3.22500,1
3.23333,1
3.24167,1
3.25000,1
3.25833,1
3.26667,1
3.27500,1
3.28333,1
3.29167,1
3.30000,1
3.30833,1
3.31667,0
3.32500,0
3.33333,1
3.34167,1
3.35000,1
3.35833,0
3.36667,0
3.37500,-0
3.38333,-0
3.39167,-0
3.40000,-0
3.40833,0
3.41667,0
3.42500,0
3.43333,0
3.44167,1
3.45000,1
3.45833,1
3.46667,1
3.47500,1
3.48333,0
3.49167,-0
3.50000,-0
3.50833,0
3.51667,0
3.52500,0
3.53333,0
3.54167,0
3.55000,0
3.55833,-0
3.56667,-0
3.57500,-0
3.58333,-0
3.59167,-0
3.60000,-0
3.60833,-0
3.61667,-0
3.62500,-1
3.63333,-1
3.64167,-1
3.65000,-1
3.65833,-1
3.66667,-0
3.67500,-0
3.68333,-0
3.69167,-0
3.70000,-0
3.70833,-0
3.71667,-0
3.72500,-0
3.73333,-0
3.74167,-1
3.75000,-1
3.75833,-1
3.76667,-1
3.77500,-0
3.78333,0
3.79167,-0
3.80000,-0
3.80833,-1
3.81667,-1
3.82500,-1
3.83333,-1
3.84167,-1
3.85000,-1
3.85833,-1
3.86667,-1
3.87500,-1
3.88333,-1
3.89167,-1
3.90000,-1
3.90833,-1
3.91667,-1
3.92500,-0
3.93333,-0
3.94167,-0
3.95000,-0
3.95833,-0
3.96667,-1
3.97500,-1
3.98333,-1
3.99167,-1
4.00000,-1
4.00833,-1
4.01667,-1
4.02500,-1
4.03333,-1
4.04167,-1
4.05000,-2
4.05833,-2
4.06667,-2
4.07500,-2
4.08333,-2
4.09167,-3
4.10000,-3
4.10833,-3
4.11667,-3
4.12500,-3
4.13333,-3
4.14167,-3
4.15000,-2
4.15833,-2
4.16667,-2
4.17500,-2
4.18333,-2
4.19167,-2
4.20000,-2
4.20833,-1
4.21667,-1
4.22500,-1
4.23333,-1
4.24167,-1
4.25000,-1
4.25833,-2
4.26667,-2
4.27500,-2
4.28333,-2
4.29167,-2
4.30000,-2
4.30833,-2
4.31667,-2
4.32500,-2
4.33333,-2
4.34167,-2
4.35000,-2
4.35833,-2
4.36667,-2
4.37500,-2
4.38333,-2
4.39167,-2
4.40000,-2
4.40833,-2
4.41667,-2
4.42500,-2
4.43333,-2
4.44167,-2
4.45000,-2
4.45833,-2
4.46667,-2
4.47500,-2
4.48333,-2
4.49167,-3
4.50000,-3
4.50833,-2
4.51667,-3
4.52500,-3
4.53333,-3
4.54167,-3
4.55000,-2
4.55833,-3
4.56667,-3
4.57500,-3
4.58333,-3
4.59167,-2
4.60000,-2
4.60833,-2
4.61667,-2
4.62500,-3
4.63333,-3
4.64167,-3
4.65000,-3
4.65833,-3
4.66667,-3
4.67500,-3
4.68333,-3
4.69167,-3
4.70000,-3
4.70833,-4
4.71667,-3
4.72500,-3
4.73333,-3
4.74167,-3
4.75000,-3
4.75833,-3
4.76667,-3
4.77500,-3
4.78333,-4
4.79167,-4
4.80000,-4
4.80833,-4
4.81667,-4
4.82500,-4
4.83333,-4
4.84167,-4
4.85000,-4
4.85833,-4
4.86667,-4
4.87500,-4
4.88333,-4
4.89167,-4
4.90000,-4
4.90833,-4
4.91667,-4
4.92500,-4
4.93333,-4
4.94167,-3
4.95000,-3
4.95833,-3
4.96667,-3
4.97500,-3
4.98333,-3
4.99167,-3
5.00000,-3
5.00833,-4
5.01667,-4
5.02500,-4
5.03333,-4
5.04167,-4
5.05000,-4
5.05833,-4
5.06667,-4
5.07500,-4
5.08333,-4
5.09167,-4
5.10000,-4
5.10833,-3
5.11667,-3
5.12500,-3
5.13333,-3
5.14167,-3
5.15000,-3
5.15833,-3
5.16667,-3
5.17500,-3
5.18333,-3
5.19167,-4
5.20000,-4
5.20833,-4
5.21667,-4
5.22500,-4
5.23333,-4
5.24167,-4
5.25000,-3
5.25833,-3
5.26667,-3
5.27500,-3
5.28333,-3
5.29167,-4
5.30000,-4
5.30833,-4
5.31667,-4
5.32500,-4
5.33333,-4
5.34167,-4
5.35000,-4
5.35833,-4
5.36667,-4
5.37500,-4
5.38333,-3
5.39167,-4
5.40000,-3
5.40833,-3
5.41667,-3
5.42500,-3
5.43333,-3
5.44167,-3
5.45000,-3
5.45833,-4
5.46667,-4
5.47500,-4
5.48333,-4
5.49167,-4
5.50000,-4
5.50833,-4
5.51667,-4
5.52500,-3
5.53333,-3
5.54167,-3
5.55000,-3
5.55833,-3
5.56667,-4
5.57500,-3
5.58333,-3
5.59167,-3
5.60000,-3
5.60833,-3
5.61667,-3
5.62500,-3
5.63333,-2
5.64167,-2
5.65000,-3
5.65833,-2
5.66667,-2
5.67500,-2
5.68333,-2
5.69167,-2
5.70000,-2
5.70833,-2
5.71667,-3
5.72500,-3
5.73333,-3
5.74167,-3
5.75000,-3
5.75833,-3
5.76667,-3
5.77500,-2
5.78333,-2
5.79167,-2
5.80000,-2
5.80833,-2
5.81667,-2
5.82500,-2
5.83333,-2
5.84167,-2
5.85000,-2
5.85833,-2
5.86667,-2
5.87500,-2
5.88333,-2
5.89167,-2
5.90000,-2
5.90833,-2
5.91667,-2
5.92500,-2
5.93333,-2
5.94167,-3
5.95000,-3
5.95833,-3
5.96667,-3
5.97500,-3
5.98333,-3
5.99167,-3
6.00000,-3
6.00833,-2
6.01667,-2
6.02500,-2
6.03333,-2
6.04167,-2
6.05000,-3
6.05833,-2
6.06667,-2
6.07500,-2
6.08333,-2
6.09167,-2
6.10000,-2
6.10833,-2
6.11667,-3
6.12500,-3
6.13333,-3
6.14167,-3
6.15000,-3
6.15833,-3
6.16667,-3
6.17500,-3
6.18333,-3
6.19167,-3
6.20000,-3
6.20833,-3
6.21667,-3
6.22500,-3
6.23333,-3
6.24167,-3
6.25000,-2
6.25833,-2
6.26667,-2
6.27500,-2
6.28333,-2
6.29167,-2
6.30000,-2
6.30833,-3
6.31667,-3
6.32500,-3
6.33333,-3
6.34167,-3
6.35000,-3
6.35833,-3
6.36667,-3
6.37500,-2
6.38333,-3
6.39167,-3
6.40000,-3
6.40833,-3
6.41667,-3
6.42500,-3
6.43333,-3
6.44167,-3
6.45000,-3
6.45833,-3
6.46667,-3
6.47500,-3
6.48333,-3
6.49167,-4
6.50000,-4
6.50833,-4
6.51667,-4
6.52500,-4
6.53333,-4
6.54167,-4
6.55000,-4
6.55833,-4
6.56667,-4
6.57500,-4
6.58333,-3
6.59167,-3
6.60000,-3
6.60833,-3
6.61667,-3
6.62500,-3
6.63333,-3
6.64167,-3
6.65000,-3
6.65833,-3
6.66667,-3
6.67500,-3
6.68333,-3
6.69167,-3
6.70000,-3
6.70833,-3
6.71667,-4
6.72500,-4
6.73333,-3
6.74167,-3
6.75000,-3
6.75833,-3
6.76667,-3
6.77500,-3
6.78333,-4
6.79167,-4
6.80000,-4
6.80833,-4
6.81667,-4
6.82500,-4
6.83333,-4
6.84167,-4
6.85000,-4
6.85833,-4
6.86667,-3
6.87500,-4
6.88333,-4
6.89167,-4
6.90000,-4
6.90833,-4
6.91667,-4
6.92500,-4
6.93333,-4
6.94167,-4
6.95000,-4
6.95833,-4
6.96667,-4
6.97500,-4
6.98333,-4
6.99167,-4
7.00000,-4
7.00833,-4
7.01667,-4
7.02500,-4
7.03333,-3
7.04167,-3
7.05000,-3
7.05833,-3
7.06667,-3
7.07500,-4
7.08333,-4
7.09167,-4
7.10000,-4
7.10833,-4
7.11667,-4
7.12500,-5
7.13333,-5
7.14167,-4
7.15000,-5
7.15833,-4
7.16667,-4
7.17500,-4
7.18333,-4
7.19167,-4
7.20000,-4
7.20833,-3
7.21667,-3
7.22500,-3
7.23333,-4
7.24167,-4
7.25000,-4
7.25833,-4
7.26667,-4
7.27500,-4
7.28333,-4
7.29167,-4
7.30000,-4
7.30833,-4
7.31667,-4
7.32500,-4
7.33333,-4
7.34167,-4
7.35000,-4
7.35833,-4
7.36667,-4
7.37500,-4
7.38333,-4
7.39167,-4
7.40000,-4
7.40833,-4
7.41667,-4
7.42500,-4
7.43333,-4
7.44167,-4
7.45000,-4
7.45833,-4
7.46667,-4
7.47500,-4
7.48333,-5
7.49167,-5
7.50000,-5
7.50833,-4
7.51667,-4
7.52500,-4
7.53333,-3
7.54167,-3
7.55000,-3
7.55833,-3
7.56667,-3
7.57500,-4
7.58333,-4
7.59167,-4
7.60000,-3
7.60833,-3
7.61667,-3
7.62500,-3
7.63333,-3
7.64167,-3
7.65000,-3
7.65833,-3
7.66667,-4
7.67500,-4
7.68333,-4
7.69167,-4
7.70000,-4
7.70833,-4
7.71667,-4
7.72500,-4
7.73333,-4
7.74167,-4
7.75000,-4
7.75833,-4
7.76667,-4
7.77500,-4
7.78333,-4
7.79167,-4
7.80000,-3
7.80833,-3
7.81667,-2
7.82500,-2
7.83333,-2
7.84167,-3
7.85000,-3
7.85833,-3
7.86667,-3
7.87500,-4
7.88333,-4
7.89167,-4
7.90000,-4
7.90833,-4
7.91667,-4
7.92500,-4
7.93333,-4
7.94167,-4
7.95000,-4
7.95833,-4
7.96667,-4
7.97500,-4
7.98333,-4
7.99167,-4
8.00000,-4
8.00833,-4
8.01667,-4
8.02500,-3
8.03333,-3
8.04167,-3
8.05000,-3
8.05833,-3
8.06667,-3
8.07500,-3
8.08333,-3
8.09167,-3
8.10000,-3
8.10833,-2
8.11667,-2
8.12500,-2
8.13333,-2
8.14167,-3
8.15000,-3
8.15833,-4
8.16667,-4
8.17500,-4
8.18333,-4
8.19167,-4
8.20000,-4
8.20833,-3
8.21667,-3
8.22500,-3
8.23333,-4
8.24167,-3
8.25000,-3
8.25833,-3
8.26667,-3
8.27500,-3
8.28333,-3
8.29167,-2
8.30000,-2
8.30833,-2
8.31667,-2
8.32500,-2
8.33333,-3
8.34167,-3
8.35000,-3
8.35833,-3
8.36667,-3
8.37500,-3
8.38333,-3
8.39167,-3
8.40000,-2
8.40833,-2
8.41667,-2
8.42500,-2
8.43333,-2
8.44167,-2
8.45000,-3
8.45833,-3
8.46667,-3
8.47500,-3
8.48333,-3
8.49167,-3
8.50000,-3
8.50833,-3
8.51667,-3
8.52500,-3
8.53333,-3
8.54167,-3
8.55000,-3
8.55833,-4
8.56667,-4
8.57500,-4
8.58333,-4
8.59167,-4
8.60000,-4
8.60833,-4
8.61667,-4
8.62500,-4
8.63333,-4
8.64167,-4
8.65000,-4
8.65833,-4
8.66667,-3
8.67500,-3
8.68333,-4
8.69167,-4
8.70000,-4
8.70833,-4
8.71667,-4
8.72500,-4
8.73333,-4
8.74167,-4
8.75000,-3
8.75833,-3
8.76667,-3
8.77500,-3
8.78333,-3
8.79167,-3
8.80000,-3
8.80833,-3
8.81667,-3
8.82500,-3
8.83333,-3
8.84167,-3
8.85000,-3
8.85833,-3
8.86667,-4
8.87500,-4
8.88333,-4
8.89167,-4
8.90000,-4
8.90833,-4
8.91667,-4
8.92500,-4
8.93333,-4
8.94167,-3
8.95000,-3
8.95833,-3
8.96667,-3
8.97500,-3
8.98333,-3
8.99167,-3
9.00000,-3
9.00833,-3
9.01667,-3
9.02500,-3
9.03333,-3
9.04167,-3
9.05000,-3
9.05833,-3
9.06667,-2
9.07500,-2
9.08333,-2
9.09167,-2
9.10000,-2
9.10833,-2
9.11667,-3
9.12500,-3
9.13333,-3
9.14167,-3
9.15000,-3
9.15833,-3
9.16667,-3
9.17500,-3
9.18333,-4
9.19167,-4
9.20000,-4
9.20833,-3
9.21667,-3
9.22500,-3
9.23333,-2
9.24167,-2
9.25000,-3
9.25833,-3
9.26667,-3
9.27500,-2
9.28333,-2
9.29167,-2
9.30000,-2
9.30833,-2
9.31667,-3
9.32500,-3
9.33333,-2
9.34167,-2
9.35000,-2
9.35833,-2
9.36667,-2
9.37500,-2
9.38333,-3
9.39167,-3
9.40000,-3
9.40833,-3
9.41667,-2
9.42500,-2
9.43333,-2
9.44167,-2
9.45000,-3
9.45833,-3
9.46667,-3
9.47500,-3
9.48333,-3
9.49167,-2
9.50000,-2
9.50833,-2
9.51667,-2
9.52500,-2
9.53333,-2
9.54167,-2
9.55000,-2
9.55833,-2
9.56667,-2
9.57500,-2
9.58333,-2
9.59167,-3
9.60000,-3
9.60833,-3
9.61667,-3
9.62500,-3
9.63333,-3
9.64167,-3
9.65000,-3
9.65833,-3
9.66667,-3
9.67500,-3
9.68333,-3
9.69167,-2
9.70000,-2
9.70833,-2
9.71667,-2
9.72500,-3
9.73333,-3
9.74167,-2
9.75000,-2
9.75833,-2
9.76667,-2
9.77500,-2
9.78333,-2
9.79167,-2
9.80000,-2
9.80833,-2
9.81667,-2
9.82500,-3
9.83333,-3
9.84167,-3
9.85000,-3
9.85833,-3
9.86667,-3
9.87500,-3
9.88333,-3
9.89167,-3
9.90000,-2
9.90833,-2
9.91667,-2
9.92500,-3
9.93333,-3
9.94167,-3
9.95000,-3
9.95833,-3
9.96667,-3
9.97500,-2
9.98333,-2
9.99167,-2
10.00000,-2
10.00833,-3
10.01667,-3
10.02500,-3
10.03333,-3
10.04167,-3
10.05000,-3
10.05833,-3
10.06667,-3
10.07500,-3
10.08333,-3
10.09167,-3
10.10000,-3
10.10833,-3
10.11667,-2
10.12500,-2
10.13333,-2
10.14167,-2
10.15000,-2
10.15833,-2
10.16667,-2
10.17500,-2
10.18333,-2
10.19167,-2
10.20000,-2
10.20833,-2
10.21667,-2
10.22500,-1
10.23333,-1
10.24167,-1
10.25000,-1
10.25833,-1
10.26667,-1
10.27500,-2
10.28333,-2
10.29167,-2
10.30000,-2
10.30833,-2
10.31667,-1
10.32500,-1
10.33333,-1
10.34167,-1
10.35000,-0
10.35833,-0
10.36667,-0
10.37500,0
10.38333,0
10.39167,0
10.40000,0
10.40833,1
10.41667,1
10.42500,1
10.43333,1
10.44167,2
10.45000,2
10.45833,2
10.46667,3
10.47500,3
10.48333,3
10.49167,2
10.50000,1
10.50833,-1
10.51667,-4
10.52500,-9
10.53333,-15
10.54167,-25
10.55000,-38
10.55833,-56
10.56667,-79
10.57500,-110
10.58333,-151
10.59167,-202
10.60000,-267
10.60833,-348
10.61667,-446
10.62500,-563
10.63333,-701
10.64167,-862
10.65000,-1046
10.65833,-1253
10.66667,-1482
10.67500,-1729
10.68333,-1992
10.69167,-2264
10.70000,-2540
10.70833,-2811
10.71667,-3069
10.72500,-3301
10.73333,-3496
10.74167,-3643
10.75000,-3727
10.75833,-3737
10.76667,-3658
10.77500,-3478
10.78333,-3184
10.79167,-2764
10.80000,-2209
10.80833,-1507
10.81667,-651
10.82500,365
10.83333,1548
10.84167,2900
10.85000,4424
10.85833,6122
10.86667,7991
10.87500,10031
10.88333,12236
10.89167,14601
10.90000,17119
10.90833,19779
10.91667,22571
10.92500,25479
10.93333,28487
10.94167,31575
10.95000,34719
10.95833,37893
10.96667,41065
10.97500,44198
10.98333,47255
10.99167,50189
11.00000,52954
11.00833,55499
11.01667,57776
11.02500,59733
11.03333,61326
11.04167,62514
11.05000,63267
11.05833,63561
11.06667,63387
11.07500,62748
11.08333,61662
11.09167,60155
11.10000,58267
11.10833,56046
11.11667,53546
11.12500,50824
11.13333,47940
11.14167,44950
11.15000,41909
11.15833,38867
11.16667,35867
11.17500,32946
11.18333,30135
11.19167,27456
11.20000,24926
11.20833,22556
11.21667,20352
11.22500,18317
11.23333,16447
11.24167,14739
11.25000,13186
11.25833,11780
11.26667,10512
11.27500,9373
11.28333,8352
11.29167,7440
11.30000,6627
11.30833,5904
11.31667,5262
11.32500,4692
11.33333,4188
11.34167,3743
11.35000,3349
11.35833,3002
11.36667,2695
11.37500,2425
11.38333,2187
11.39167,1978
11.40000,1793
11.40833,1629
11.41667,1485
11.42500,1358
11.43333,1245
11.44167,1146
11.45000,1057
11.45833,978
11.46667,908
11.47500,845
11.48333,789
11.49167,739
11.50000,694
11.50833,653
11.51667,617
11.52500,583
11.53333,553
11.54167,525
11.55000,500
11.55833,477
11.56667,456
11.57500,437
11.58333,419
11.59167,402
11.60000,387
11.60833,372
11.61667,359
11.62500,346
11.63333,335
11.64167,325
11.65000,315
11.65833,305
11.66667,296
11.67500,288
11.68333,280
11.69167,272
11.70000,265
11.70833,258
11.71667,251
11.72500,245
11.73333,240
11.74167,234
11.75000,229
11.75833,224
11.76667,220
11.77500,215
11.78333,211
11.79167,207
11.80000,204
11.80833,200
11.81667,197
11.82500,193
11.83333,190
11.84167,187
11.85000,184
11.85833,181
11.86667,178
11.87500,176
11.88333,174
11.89167,172
11.90000,169
11.90833,167
11.91667,165
11.92500,164
11.93333,162
11.94167,161
11.95000,159
11.95833,158
11.96667,156
11.97500,155
11.98333,154
11.99167,153
12.00000,151
12.00833,150
12.01667,148
12.02500,147
12.03333,146
12.04167,146
12.05000,145
12.05833,144
12.06667,143
12.07500,142
12.08333,141
12.09167,140
12.10000,138
12.10833,137
12.11667,136
12.12500,135
12.13333,134
12.14167,133
12.15000,132
12.15833,132
12.16667,131
12.17500,130
12.18333,129
12.19167,129
12.20000,128
12.20833,127
12.21667,126
12.22500,126
12.23333,124
12.24167,123
12.25000,122
12.25833,121
12.26667,120
12.27500,120
12.28333,119
12.29167,118
12.30000,118
12.30833,117
12.31667,116
12.32500,115
12.33333,114
12.34167,114
12.35000,114
12.35833,113
12.36667,113
12.37500,112
12.38333,112
12.39167,111
12.40000,111
12.40833,110
12.41667,109
12.42500,109
12.43333,108
12.44167,108
12.45000,107
12.45833,106
12.46667,106
12.47500,105
12.48333,105
12.49167,104
12.50000,104
12.50833,103
12.51667,102
12.52500,102
12.53333,101
12.54167,101
12.55000,100
12.55833,100
12.56667,99
12.57500,99
12.58333,98
12.59167,97
12.60000,97
12.60833,96
12.61667,95
12.62500,95
12.63333,94
12.64167,93
12.65000,93
12.65833,92
12.66667,92
12.67500,91
12.68333,90
12.69167,90
12.70000,89
12.70833,88
12.71667,88
12.72500,87
12.73333,86
12.74167,86
12.75000,85
12.75833,84
12.76667,84
12.77500,83
12.78333,83
12.79167,82
12.80000,81
12.80833,81
12.81667,80
12.82500,79
12.83333,78
12.84167,78
12.85000,77
12.85833,77
12.86667,76
12.87500,76
12.88333,76
12.89167,76
12.90000,75
12.90833,75
12.91667,74
12.92500,74
12.93333,73
12.94167,72
12.95000,72
12.95833,72
12.96667,72
12.97500,71
12.98333,71
12.99167,70
13.00000,69
13.00833,69
13.01667,68
13.02500,67
13.03333,67
13.04167,67
13.05000,66
13.05833,66
13.06667,65
13.07500,64
13.08333,64
13.09167,63
13.10000,62
13.10833,61
13.11667,61
13.12500,61
13.13333,61
13.14167,61
13.15000,60
13.15833,60
13.16667,60
13.17500,59
13.18333,59
13.19167,58
13.20000,57
13.20833,57
13.21667,56
13.22500,55
13.23333,54
13.24167,54
13.25000,53
13.25833,52
13.26667,52
13.27500,51
13.28333,50
13.29167,50
13.30000,49
13.30833,49
13.31667,48
13.32500,48
13.33333,47
13.34167,47
13.35000,46
13.35833,46
13.36667,45
13.37500,45
13.38333,44
13.39167,44
13.40000,43
13.40833,43
13.41667,42
13.42500,42
13.43333,41
13.44167,40
13.45000,40
13.45833,40
13.46667,39
13.47500,39
13.48333,38
13.49167,37
13.50000,37
13.50833,37
13.51667,36
13.52500,36
13.53333,36
13.54167,35
13.55000,35
13.55833,35
13.56667,34
13.57500,34
13.58333,33
13.59167,33
13.60000,33
13.60833,33
13.61667,33
13.62500,33
13.63333,33
13.64167,33
13.65000,33
13.65833,32
13.66667,32
13.67500,32
13.68333,32
13.69167,32
13.70000,32
13.70833,32
13.71667,32
13.72500,32
13.73333,32
13.74167,32
13.75000,31
13.75833,31
13.76667,31
13.77500,31
13.78333,31
13.79167,31
13.80000,32
13.80833,32
13.81667,32
13.82500,32
13.83333,33
13.84167,33
13.85000,33
13.85833,33
13.86667,33
13.87500,33
13.88333,33
13.89167,33
13.90000,33
13.90833,34
13.91667,34
13.92500,34
13.93333,35
13.94167,35
13.95000,35
13.95833,36
13.96667,36
13.97500,36
13.98333,36
13.99167,36
14.00000,37
14.00833,37
14.01667,37
14.02500,37
14.03333,38
14.04167,38
14.05000,38
14.05833,39
14.06667,39
14.07500,40
14.08333,40
14.09167,41
14.10000,42
14.10833,42
14.11667,43
14.12500,45
14.13333,46
14.14167,47
14.15000,49
14.15833,50
14.16667,52
14.17500,55
14.18333,58
14.19167,62
14.20000,66
14.20833,72
14.21667,78
14.22500,87
14.23333,96
14.24167,108
14.25000,121
14.25833,137
14.26667,157
14.27500,180
14.28333,208
14.29167,243
14.30000,283
14.30833,331
14.31667,387
14.32500,454
14.33333,532
14.34167,622
14.35000,727
14.35833,849
14.36667,987
14.37500,1145
14.38333,1324
14.39167,1526
14.40000,1752
14.40833,2004
14.41667,2283
14.42500,2592
14.43333,2931
14.44167,3302
14.45000,3706
14.45833,4144
14.46667,4616
14.47500,5124
14.48333,5667
14.49167,6247
14.50000,6863
14.50833,7517
14.51667,8208
14.52500,8936
14.53333,9700
14.54167,10501
14.55000,11338
14.55833,12210
14.56667,13118
14.57500,14060
14.58333,15036
14.59167,16046
14.60000,17089
14.60833,18165
14.61667,19271
14.62500,20409
14.63333,21577
14.64167,22776
14.65000,24003
14.65833,25260
14.66667,26544
14.67500,27856
14.68333,29195
14.69167,30560
14.70000,31952
14.70833,33370
14.71667,34813
14.72500,36281
14.73333,37774
14.74167,39290
14.75000,40831
14.75833,42395
14.76667,43983
14.77500,45594
14.78333,47227
14.79167,48883
14.80000,50561
14.80833,52261
14.81667,53983
14.82500,55727
14.83333,57492
14.84167,59278
14.85000,61084
14.85833,62912
14.86667,64759
14.87500,66627
14.88333,68514
14.89167,70420
14.90000,72345
14.90833,74287
14.91667,76247
14.92500,78224
14.93333,80216
14.94167,82223
14.95000,84243
14.95833,86276
14.96667,88319
14.97500,90370
14.98333,92425
14.99167,94481
15.00000,96532
15.00833,98572
15.01667,100590
15.02500,102572
15.03333,104499
15.04167,106344
15.05000,108075
15.05833,109651
15.06667,111024
15.07500,112140
15.08333,112937
15.09167,113354
15.10000,113330
15.10833,112810
15.11667,111750
15.12500,110118
15.13333,107902
15.14167,105106
15.15000,101757
15.15833,97900
15.16667,93597
15.17500,88924
15.18333,83966
15.19167,78813
15.20000,73556
15.20833,68283
15.21667,63074
15.22500,57999
15.23333,53118
15.24167,48477
15.25000,44111
15.25833,40043
15.26667,36286
15.27500,32843
15.28333,29711
15.29167,26880
15.30000,24337
15.30833,22063
15.31667,20043
15.32500,18255
15.33333,16681
15.34167,15302
15.35000,14100
15.35833,13060
15.36667,12164
15.37500,11400
15.38333,10755
15.39167,10217
15.40000,9776
15.40833,9423
15.41667,9149
15.42500,8946
15.43333,8809
15.44167,8730
15.45000,8703
15.45833,8722
15.46667,8783
15.47500,8881
15.48333,9010
15.49167,9166
15.50000,9344
15.50833,9540
15.51667,9749
15.52500,9968
15.53333,10191
15.54167,10415
15.55000,10637
15.55833,10851
15.56667,11055
15.57500,11246
15.58333,11421
15.59167,11578
15.60000,11713
15.60833,11825
15.61667,11912
15.62500,11973
15.63333,12006
15.64167,12012
15.65000,11989
15.65833,11938
15.66667,11859
15.67500,11752
15.68333,11618
15.69167,11459
15.70000,11275
15.70833,11069
15.71667,10841
15.72500,10595
15.73333,10330
15.74167,10050
15.75000,9757
15.75833,9453
15.76667,9139
15.77500,8818
15.78333,8491
15.79167,8161
15.80000,7829
15.80833,7498
15.81667,7167
15.82500,6840
15.83333,6516
15.84167,6199
15.85000,5888
15.85833,5584
15.86667,5290
15.87500,5004
15.88333,4729
15.89167,4464
15.90000,4209
15.90833,3966
15.91667,3734
15.92500,3512
15.93333,3302
15.94167,3102
15.95000,2914
15.95833,2735
15.96667,2567
15.97500,2410
15.98333,2262
15.99167,2124
16.00000,1995
16.00833,1874
16.01667,1762
16.02500,1656
16.03333,1558
16.04167,1468
16.05000,1384
16.05833,1306
16.06667,1233
16.07500,1167
16.08333,1105
16.09167,1047
16.10000,994
16.10833,945
16.11667,900
16.12500,859
16.13333,821
16.14167,787
16.15000,755
16.15833,725
16.16667,698
16.17500,673
16.18333,649
16.19167,627
16.20000,607
16.20833,588
16.21667,571
16.22500,555
16.23333,540
16.24167,526
16.25000,513
16.25833,501
16.26667,490
16.27500,480
16.28333,470
16.29167,461
16.30000,452
16.30833,444
16.31667,436
16.32500,429
16.33333,422
16.34167,416
16.35000,410
16.35833,404
16.36667,398
16.37500,393
16.38333,388
16.39167,384
16.40000,379
16.40833,374
16.41667,370
16.42500,366
16.43333,362
16.44167,358
16.45000,355
16.45833,351
16.46667,348
16.47500,344
16.48333,340
16.49167,337
16.50000,333
16.50833,330
16.51667,327
16.52500,325
16.53333,323
16.54167,320
16.55000,318
16.55833,315
16.56667,312
16.57500,310
16.58333,307
16.59167,304
16.60000,302
16.60833,300
16.61667,298
16.62500,295
16.63333,293
16.64167,291
16.65000,289
16.65833,288
16.66667,286
16.67500,284
16.68333,282
16.69167,280
16.70000,278
16.70833,276
16.71667,274
16.72500,273
16.73333,271
16.74167,269
16.75000,268
16.75833,266
16.76667,264
16.77500,263
16.78333,261
16.79167,260
16.80000,259
16.80833,257
16.81667,256
16.82500,254
16.83333,253
16.84167,251
16.85000,250
16.85833,249
16.86667,247
16.87500,246
16.88333,244
16.89167,243
16.90000,241
16.90833,240
16.91667,239
16.92500,237
16.93333,236
16.94167,234
16.95000,233
16.95833,232
16.96667,231
16.97500,230
16.98333,229
16.99167,227
17.00000,226
17.00833,225
17.01667,224
17.02500,222
17.03333,221
17.04167,220
17.05000,220
17.05833,219
17.06667,218
17.07500,216
17.08333,214
17.09167,213
17.10000,212
17.10833,211
17.11667,210
17.12500,209
17.13333,208
17.14167,207
17.15000,206
17.15833,205
17.16667,204
17.17500,202
17.18333,201
17.19167,200
17.20000,199
17.20833,199
17.21667,198
17.22500,197
17.23333,195
17.24167,194
17.25000,193
17.25833,192
17.26667,190
17.27500,189
17.28333,189
17.29167,188
17.30000,188
17.30833,187
17.31667,185
17.32500,184
17.33333,183
17.34167,182
17.35000,182
17.35833,181
17.36667,180
17.37500,179
17.38333,178
17.39167,177
17.40000,176
17.40833,175
17.41667,174
17.42500,173
17.43333,172
17.44167,171
17.45000,170
17.45833,169
17.46667,168
17.47500,167
17.48333,166
17.49167,165
17.50000,164
17.50833,163
17.51667,162
17.52500,161
17.53333,161
17.54167,159
17.55000,159
17.55833,158
17.56667,157
17.57500,156
17.58333,155
17.59167,154
17.60000,153
17.60833,152
17.61667,151
17.62500,150
17.63333,150
17.64167,149
17.65000,148
17.65833,148
17.66667,147
17.67500,146
17.68333,146
17.69167,145
17.70000,144
17.70833,143
17.71667,142
17.72500,141
17.73333,141
17.74167,140
17.75000,139
17.75833,139
17.76667,138
17.77500,137
17.78333,135
17.79167,135
17.80000,134
17.80833,133
17.81667,132
17.82500,131
17.83333,131
17.84167,130
17.85000,130
17.85833,130
17.86667,129
17.87500,128
17.88333,127
17.89167,126
17.90000,126
17.90833,125
17.91667,124
17.92500,123
17.93333,122
17.94167,121
17.95000,121
17.95833,120
17.96667,119
17.97500,119
17.98333,118
17.99167,118
18.00000,117
18.00833,116
18.01667,115
18.02500,114
18.03333,113
18.04167,112
18.05000,112
18.05833,111
18.06667,111
18.07500,110
18.08333,110
18.09167,110
18.10000,109
18.10833,109
18.11667,108
18.12500,107
18.13333,106
18.14167,105
18.15000,105
18.15833,104
18.16667,103
18.17500,103
18.18333,102
18.19167,102
18.20000,101
18.20833,101
18.21667,100
18.22500,100
18.23333,100
18.24167,99
18.25000,98
18.25833,98
18.26667,97
18.27500,97
18.28333,96
18.29167,96
18.30000,95
18.30833,94
18.31667,93
18.32500,93
18.33333,92
18.34167,91
18.35000,91
18.35833,90
18.36667,89
18.37500,89
18.38333,89
18.39167,88
18.40000,88
18.40833,87
18.41667,87
18.42500,87
18.43333,86
18.44167,86
18.45000,85
18.45833,85
18.46667,84
18.47500,83
18.48333,83
18.49167,82
18.50000,82
18.50833,81
18.51667,81
18.52500,81
18.53333,80
18.54167,80
18.55000,79
18.55833,79
18.56667,78
18.57500,78
18.58333,78
18.59167,78
18.60000,77
18.60833,77
18.61667,77
18.62500,76
18.63333,76
18.64167,76
18.65000,76
18.65833,76
18.66667,76
18.67500,76
18.68333,76
18.69167,75
18.70000,75
18.70833,75
18.71667,75
18.72500,75
18.73333,74
18.74167,74
18.75000,74
18.75833,75
18.76667,75
18.77500,75
18.78333,76
18.79167,76
18.80000,77
18.80833,78
18.81667,78
18.82500,79
18.83333,79
18.84167,80
18.85000,81
18.85833,81
18.86667,82
18.87500,83
18.88333,83
18.89167,84
18.90000,84
18.90833,85
18.91667,85
18.92500,86
18.93333,87
18.94167,87
18.95000,88
18.95833,88
18.96667,88
18.97500,88
18.98333,88
18.99167,88
19.00000,88
19.00833,88
19.01667,89
19.02500,89
19.03333,88
19.04167,88
19.05000,87
19.05833,86
19.06667,86
19.07500,85
19.08333,84
19.09167,83
19.10000,83
19.10833,82
19.11667,81
19.12500,79
19.13333,78
19.14167,77
19.15000,75
19.15833,74
19.16667,73
19.17500,72
19.18333,71
19.19167,70
19.20000,69
19.20833,68
19.21667,67
19.22500,66
19.23333,65
19.24167,64
19.25000,63
19.25833,63
19.26667,61
19.27500,60
19.28333,59
19.29167,58
19.30000,56
19.30833,55
19.31667,55
19.32500,54
19.33333,54
19.34167,53
19.35000,53
19.35833,52
19.36667,51
19.37500,51
19.38333,50
19.39167,50
19.40000,49
19.40833,49
19.41667,48
19.42500,48
19.43333,47
19.44167,47
19.45000,47
19.45833,46
19.46667,46
19.47500,46
19.48333,45
19.49167,45
19.50000,45
19.50833,45
19.51667,44
19.52500,44
19.53333,43
19.54167,43
19.55000,42
19.55833,42
19.56667,42
19.57500,42
19.58333,41
19.59167,41
19.60000,41
19.60833,41
19.61667,41
19.62500,40
19.63333,40
19.64167,40
19.65000,39
19.65833,39
19.66667,39
19.67500,39
19.68333,39
19.69167,39
19.70000,38
19.70833,38
19.71667,38
19.72500,38
19.73333,38
19.74167,38
19.75000,38
19.75833,38
19.76667,37
19.77500,37
19.78333,36
19.79167,36
19.80000,36
19.80833,36
19.81667,36
19.82500,36
19.83333,35
19.84167,35
19.85000,35
19.85833,35
19.86667,35
19.87500,35
19.88333,35
19.89167,35
19.90000,34
19.90833,34
19.91667,34
19.92500,34
19.93333,34
19.94167,34
19.95000,34
19.95833,34
19.96667,34
19.97500,34
19.98333,33
19.99167,33
20.00000,33
20.00833,32
20.01667,33
20.02500,33
20.03333,32
20.04167,33
20.05000,33
20.05833,32
20.06667,32
20.07500,32
20.08333,31
20.09167,31
20.10000,31
20.10833,31
20.11667,31
20.12500,31
20.13333,31
20.14167,31
20.15000,30
20.15833,30
20.16667,30
20.17500,30
20.18333,30
20.19167,30
20.20000,29
20.20833,29
20.21667,28
20.22500,29
20.23333,29
20.24167,29
20.25000,28
20.25833,28
20.26667,27
20.27500,27
20.28333,27
20.29167,27
20.30000,27
20.30833,27
20.31667,27
20.32500,27
20.33333,27
20.34167,27
20.35000,27
20.35833,27
20.36667,26
20.37500,26
20.38333,26
20.39167,25
20.40000,25
20.40833,25
20.41667,25
20.42500,25
20.43333,24
20.44167,24
20.45000,25
20.45833,25
20.46667,25
20.47500,25
20.48333,25
20.49167,25
20.50000,25
20.50833,25
20.51667,25
20.52500,25
20.53333,25
20.54167,25
20.55000,25
20.55833,25
20.56667,25
20.57500,25
20.58333,25
20.59167,24
20.60000,24
20.60833,24
20.61667,24
20.62500,24
20.63333,23
20.64167,23
20.65000,23
20.65833,22
20.66667,22
20.67500,22
20.68333,22
20.69167,22
20.70000,22
20.70833,22
20.71667,22
20.72500,22
20.73333,21
20.74167,21
20.75000,21
20.75833,21
20.76667,21
20.77500,22
20.78333,22
20.79167,22
20.80000,21
20.80833,21
20.81667,20
20.82500,20
20.83333,20
20.84167,20
20.85000,20
20.85833,20
20.86667,20
20.87500,20
20.88333,20
20.89167,19
20.90000,19
20.90833,19
20.91667,19
20.92500,19
20.93333,19
20.94167,19
20.95000,19
20.95833,19
20.96667,19
20.97500,19
20.98333,19
20.99167,19
21.00000,19
21.00833,19
21.01667,19
21.02500,18
21.03333,18
21.04167,19
21.05000,19
21.05833,19
21.06667,19
21.07500,18
21.08333,18
21.09167,18
21.10000,18
21.10833,18
21.11667,18
21.12500,18
21.13333,18
21.14167,18
21.15000,18
21.15833,18
21.16667,17
21.17500,17
21.18333,17
21.19167,17
21.20000,17
21.20833,17
21.21667,17
21.22500,17
21.23333,17
21.24167,17
21.25000,17
21.25833,17
21.26667,17
21.27500,17
21.28333,17
21.29167,17
21.30000,17
21.30833,17
21.31667,17
21.32500,17
21.33333,16
21.34167,16
21.35000,17
21.35833,17
21.36667,18
21.37500,18
21.38333,18
21.39167,19
21.40000,19
21.40833,19
21.41667,19
21.42500,20
21.43333,20
21.44167,20
21.45000,21
21.45833,22
21.46667,22
21.47500,23
21.48333,25
21.49167,26
21.50000,28
21.50833,30
21.51667,32
21.52500,34
21.53333,37
21.54167,40
21.55000,43
21.55833,47
21.56667,52
21.57500,57
21.58333,62
21.59167,69
21.60000,76
21.60833,84
21.61667,92
21.62500,101
21.63333,112
21.64167,124
21.65000,138
21.65833,153
21.66667,170
21.67500,188
21.68333,209
21.69167,231
21.70000,255
21.70833,282
21.71667,312
21.72500,344
21.73333,378
21.74167,415
21.75000,456
21.75833,499
21.76667,546
21.77500,595
21.78333,648
21.79167,705
21.80000,765
21.80833,827
21.81667,893
21.82500,962
21.83333,1033
21.84167,1107
21.85000,1183
21.85833,1262
21.86667,1343
21.87500,1425
21.88333,1509
21.89167,1594
21.90000,1680
21.90833,1765
21.91667,1851
21.92500,1935
21.93333,2019
21.94167,2101
21.95000,2181
21.95833,2258
21.96667,2333
21.97500,2404
21.98333,2471
21.99167,2533
22.00000,2591
22.00833,2644
22.01667,2691
22.02500,2733
22.03333,2768
22.04167,2798
22.05000,2821
22.05833,2837
22.06667,2848
22.07500,2852
22.08333,2850
22.09167,2841
22.10000,2827
22.10833,2806
22.11667,2779
22.12500,2747
22.13333,2708
22.14167,2665
22.15000,2617
22.15833,2564
22.16667,2508
22.17500,2448
22.18333,2384
22.19167,2318
22.20000,2250
22.20833,2179
22.21667,2106
22.22500,2032
22.23333,1957
22.24167,1881
22.25000,1805
22.25833,1730
22.26667,1654
22.27500,1579
22.28333,1505
22.29167,1432
22.30000,1361
22.30833,1291
22.31667,1223
22.32500,1157
22.33333,1093
22.34167,1032
22.35000,972
22.35833,915
22.36667,860
22.37500,807
22.38333,757
22.39167,708
22.40000,663
22.40833,619
22.41667,579
22.42500,540
22.43333,504
22.44167,470
22.45000,438
22.45833,407
22.46667,378
22.47500,351
22.48333,326
22.49167,303
22.50000,281
22.50833,262
22.51667,243
22.52500,227
22.53333,211
22.54167,196
22.55000,183
22.55833,170
22.56667,159
22.57500,148
22.58333,138
22.59167,129
22.60000,121
22.60833,113
22.61667,106
22.62500,99
22.63333,93
22.64167,87
22.65000,82
22.65833,78
22.66667,73
22.67500,70
22.68333,66
22.69167,63
22.70000,60
22.70833,57
22.71667,54
22.72500,52
22.73333,50
22.74167,48
22.75000,46
22.75833,44
22.76667,42
22.77500,41
22.78333,39
22.79167,38
22.80000,37
22.80833,36
22.81667,36
22.82500,35
22.83333,34
22.84167,33
22.85000,32
22.85833,32
22.86667,31
22.87500,31
22.88333,30
22.89167,30
22.90000,29
22.90833,28
22.91667,28
22.92500,27
22.93333,27
22.94167,26
22.95000,26
22.95833,26
22.96667,25
22.97500,25
22.98333,25
22.99167,24
23.00000,24
23.00833,24
23.01667,23
23.02500,23
23.03333,23
23.04167,22
23.05000,22
23.05833,22
23.06667,22
23.07500,22
23.08333,22
23.09167,21
23.10000,21
23.10833,21
23.11667,21
23.12500,22
23.13333,22
23.14167,21
23.15000,21
23.15833,21
23.16667,21
23.17500,20
23.18333,20
23.19167,20
23.20000,19
23.20833,19
23.21667,19
23.22500,19
23.23333,19
23.24167,19
23.25000,18
23.25833,18
23.26667,18
23.27500,18
23.28333,18
23.29167,18
23.30000,18
23.30833,18
23.31667,18
23.32500,18
23.33333,18
23.34167,18
23.35000,18
23.35833,17
23.36667,17
23.37500,17
23.38333,17
23.39167,16
23.40000,16
23.40833,17
23.41667,17
23.42500,17
23.43333,17
23.44167,17
23.45000,16
23.45833,16
23.46667,16
23.47500,16
23.48333,16
23.49167,15
23.50000,15
23.50833,15
23.51667,15
23.52500,15
23.53333,15
23.54167,15
23.55000,15
23.55833,15
23.56667,15
23.57500,15
23.58333,14
23.59167,14
23.60000,14
23.60833,14
23.61667,14
23.62500,14
23.63333,14
23.64167,14
23.65000,14
23.65833,14
23.66667,14
23.67500,14
23.68333,14
23.69167,14
23.70000,14
23.70833,15
23.71667,14
23.72500,14
23.73333,14
23.74167,14
23.75000,14
23.75833,14
23.76667,13
23.77500,13
23.78333,13
23.79167,13
23.80000,14
23.80833,14
23.81667,13
23.82500,13
23.83333,13
23.84167,13
23.85000,13
23.85833,12
23.86667,12
23.87500,12
23.88333,12
23.89167,12
23.90000,13
23.90833,13
23.91667,13
23.92500,13
23.93333,13
23.94167,13
23.95000,13
23.95833,13
23.96667,13
23.97500,13
23.98333,13
23.99167,13
24.00000,13
24.00833,13
24.01667,13
24.02500,13
24.03333,13
24.04167,12
24.05000,12
24.05833,12
24.06667,12
24.07500,12
24.08333,12
24.09167,12
24.10000,12
24.10833,12
24.11667,12
24.12500,12
24.13333,12
24.14167,12
24.15000,13
24.15833,13
24.16667,13
24.17500,13
24.18333,12
24.19167,13
24.20000,12
24.20833,12
24.21667,12
24.22500,12
24.23333,12
24.24167,12
24.25000,12
24.25833,12
24.26667,11
24.27500,11
24.28333,11
24.29167,11
24.30000,12
24.30833,12
24.31667,12
24.32500,12
24.33333,12
24.34167,12
24.35000,12
24.35833,13
24.36667,13
24.37500,14
24.38333,14
24.39167,15
24.40000,15
24.40833,15
24.41667,16
24.42500,17
24.43333,18
24.44167,19
24.45000,20
24.45833,21
24.46667,21
24.47500,23
24.48333,24
24.49167,26
24.50000,28
24.50833,30
24.51667,32
24.52500,35
24.53333,37
24.54167,40
24.55000,44
24.55833,47
24.56667,52
24.57500,57
24.58333,62
24.59167,68
24.60000,74
24.60833,80
24.61667,87
24.62500,95
24.63333,104
24.64167,114
24.65000,124
24.65833,135
24.66667,148
24.67500,161
24.68333,175
24.69167,190
24.70000,206
24.70833,223
24.71667,241
24.72500,261
24.73333,281
24.74167,303
24.75000,327
24.75833,351
24.76667,377
24.77500,404
24.78333,432
24.79167,462
24.80000,492
24.80833,524
24.81667,556
24.82500,589
24.83333,623
24.84167,658
24.85000,693
24.85833,729
24.86667,765
24.87500,802
24.88333,838
24.89167,875
24.90000,911
24.90833,947
24.91667,982
24.92500,1017
24.93333,1052
24.94167,1084
24.95000,1116
24.95833,1146
24.96667,1175
24.97500,1202
24.98333,1227
24.99167,1251
25.00000,1272
25.00833,1292
25.01667,1309
25.02500,1323
25.03333,1335
25.04167,1345
25.05000,1353
25.05833,1358
25.06667,1360
25.07500,1359
25.08333,1356
25.09167,1350
25.10000,1342
25.10833,1332
25.11667,1319
25.12500,1304
25.13333,1287
25.14167,1268
25.15000,1247
25.15833,1224
25.16667,1199
25.17500,1173
25.18333,1145
25.19167,1117
25.20000,1087
25.20833,1056
25.21667,1024
25.22500,992
25.23333,959
25.24167,926
25.25000,892
25.25833,859
25.26667,826
25.27500,792
25.28333,759
25.29167,726
25.30000,694
25.30833,662
25.31667,631
25.32500,601
25.33333,571
25.34167,542
25.35000,513
25.35833,486
25.36667,459
25.37500,433
25.38333,408
25.39167,385
25.40000,362
25.40833,340
25.41667,320
25.42500,300
25.43333,282
25.44167,264
25.45000,247
25.45833,232
25.46667,217
25.47500,203
25.48333,189
25.49167,177
25.50000,165
25.50833,155
25.51667,144
25.52500,135
25.53333,126
25.54167,117
25.55000,110
25.55833,102
25.56667,96
25.57500,90
25.58333,84
25.59167,79
25.60000,74
25.60833,69
25.61667,65
25.62500,61
25.63333,58
25.64167,54
25.65000,51
25.65833,48
25.66667,46
25.67500,43
25.68333,41
25.69167,39
25.70000,37
25.70833,35
25.71667,34
25.72500,32
25.73333,31
25.74167,30
25.75000,28
25.75833,27
25.76667,26
25.77500,26
25.78333,26
25.79167,25
25.80000,24
25.80833,24
25.81667,23
25.82500,22
25.83333,22
25.84167,21
25.85000,20
25.85833,20
25.86667,20
25.87500,20
25.88333,20
25.89167,20
25.90000,19
25.90833,19
25.91667,19
25.92500,19
25.93333,19
25.94167,19
25.95000,19
25.95833,18
25.96667,18
25.97500,17
25.98333,17
25.99167,17
26.00000,17
26.00833,17
26.01667,16
26.02500,16
26.03333,16
26.04167,16
26.05000,15
26.05833,15
26.06667,15
26.07500,16
26.08333,16
26.09167,16
26.10000,16
26.10833,16
26.11667,16
26.12500,16
26.13333,16
26.14167,16
26.15000,15
26.15833,15
26.16667,14
26.17500,14
26.18333,14
26.19167,14
26.20000,14
26.20833,14
26.21667,15
26.22500,15
26.23333,15
26.24167,15
26.25000,14
26.25833,14
26.26667,15
26.27500,14
26.28333,15
26.29167,15
26.30000,15
26.30833,14
26.31667,14
26.32500,14
26.33333,15
26.34167,15
26.35000,15
26.35833,15
26.36667,15
26.37500,14
26.38333,14
26.39167,14
26.40000,14
26.40833,14
26.41667,14
26.42500,14
26.43333,14
26.44167,14
26.45000,14
26.45833,14
26.46667,14
26.47500,14
26.48333,14
26.49167,14
26.50000,14
26.50833,14
26.51667,14
26.52500,14
26.53333,14
26.54167,14
26.55000,14
26.55833,14
26.56667,14
26.57500,14
26.58333,14
26.59167,14
26.60000,14
26.60833,14
26.61667,14
26.62500,14
26.63333,14
26.64167,14
26.65000,14
26.65833,14
26.66667,14
26.67500,14
26.68333,13
26.69167,13
26.70000,14
26.70833,14
26.71667,15
26.72500,14
26.73333,14
26.74167,14
26.75000,14
26.75833,14
26.76667,14
26.77500,14
26.78333,14
26.79167,14
26.80000,14
26.80833,14
26.81667,14
26.82500,14
26.83333,15
26.84167,14
26.85000,14
26.85833,14
26.86667,14
26.87500,14
26.88333,14
26.89167,14
26.90000,14
26.90833,14
26.91667,15
26.92500,15
26.93333,14
26.94167,14
26.95000,14
26.95833,14
26.96667,15
26.97500,14
26.98333,14
26.99167,15
27.00000,15
27.00833,14
27.01667,14
27.02500,14
27.03333,14
27.04167,14
27.05000,14
27.05833,14
27.06667,14
27.07500,14
27.08333,13
27.09167,13
27.10000,13
27.10833,13
27.11667,13
27.12500,13
27.13333,14
27.14167,14
27.15000,14
27.15833,14
27.16667,14
27.17500,14
27.18333,14
27.19167,14
27.20000,14
27.20833,14
27.21667,14
27.22500,13
27.23333,13
27.24167,14
27.25000,14
27.25833,14
27.26667,14
27.27500,14
27.28333,13
27.29167,13
27.30000,13
27.30833,13
27.31667,13
27.32500,13
27.33333,13
27.34167,13
27.35000,12
27.35833,12
27.36667,12
27.37500,12
27.38333,13
27.39167,13
27.40000,13
27.40833,13
27.41667,13
27.42500,13
27.43333,13
27.44167,12
27.45000,12
27.45833,13
27.46667,13
27.47500,14
27.48333,14
27.49167,14
27.50000,14
27.50833,13
27.51667,14
27.52500,13
27.53333,13
27.54167,13
27.55000,13
27.55833,13
27.56667,13
27.57500,13
27.58333,13
27.59167,13
27.60000,13
27.60833,13
27.61667,13
27.62500,13
27.63333,13
27.64167,13
27.65000,13
27.65833,13
27.66667,12
27.67500,12
27.68333,12
27.69167,12
27.70000,12
27.70833,12
27.71667,13
27.72500,13
27.73333,13
27.74167,12
27.75000,12
27.75833,12
27.76667,12
27.77500,11
27.78333,11
27.79167,11
27.80000,11
27.80833,10
27.81667,10
27.82500,9
27.83333,9
27.84167,8
27.85000,8
27.85833,7
27.86667,7
27.87500,6
27.88333,5
27.89167,5
27.90000,4
27.90833,3
27.91667,2
27.92500,1
27.93333,0
27.94167,-0
27.95000,-1
27.95833,-2
27.96667,-3
27.97500,-4
27.98333,-6
27.99167,-7
28.00000,-9
28.00833,-11
28.01667,-13
28.02500,-14
28.03333,-16
28.04167,-18
28.05000,-21
28.05833,-23
28.06667,-25
28.07500,-27
28.08333,-29
28.09167,-32
28.10000,-34
28.10833,-36
28.11667,-39
28.12500,-41
28.13333,-44
28.14167,-46
28.15000,-49
28.15833,-52
28.16667,-56
28.17500,-59
28.18333,-62
28.19167,-65
28.20000,-68
28.20833,-71
28.21667,-74
28.22500,-77
28.23333,-80
28.24167,-83
28.25000,-87
28.25833,-90
28.26667,-92
28.27500,-95
28.28333,-98
28.29167,-101
28.30000,-103
28.30833,-106
28.31667,-108
28.32500,-111
28.33333,-113
28.34167,-115
28.35000,-117
28.35833,-119
28.36667,-120
28.37500,-122
28.38333,-124
28.39167,-125
28.40000,-127
28.40833,-129
28.41667,-130
28.42500,-130
28.43333,-131
28.44167,-131
28.45000,-131
28.45833,-131
28.46667,-131
28.47500,-131
28.48333,-131
28.49167,-131
28.50000,-130
28.50833,-129
28.51667,-128
28.52500,-127
28.53333,-125
28.54167,-124
28.55000,-122
28.55833,-121
28.56667,-119
28.57500,-117
28.58333,-115
28.59167,-113
28.60000,-111
28.60833,-109
28.61667,-107
28.62500,-104
28.63333,-102
28.64167,-99
28.65000,-97
28.65833,-94
28.66667,-91
28.67500,-89
28.68333,-86
28.69167,-83
28.70000,-81
28.70833,-79
28.71667,-76
28.72500,-74
28.73333,-71
28.74167,-68
28.75000,-66
28.75833,-63
28.76667,-61
28.77500,-59
28.78333,-56
28.79167,-54
28.80000,-52
28.80833,-50
28.81667,-47
28.82500,-45
28.83333,-43
28.84167,-41
28.85000,-39
28.85833,-37
28.86667,-36
28.87500,-34
28.88333,-32
28.89167,-30
28.90000,-29
28.90833,-27
28.91667,-26
28.92500,-25
28.93333,-24
28.94167,-22
28.95000,-21
28.95833,-19
28.96667,-18
28.97500,-17
28.98333,-16
28.99167,-15
29.00000,-14
29.00833,-13
29.01667,-12
29.02500,-11
29.03333,-10
29.04167,-10
29.05000,-10
29.05833,-9
29.06667,-8
29.07500,-8
29.08333,-7
29.09167,-7
29.10000,-6
29.10833,-6
29.11667,-5
29.12500,-4
29.13333,-3
29.14167,-2
29.15000,-1
29.15833,-1
29.16667,-2
29.17500,-2
29.18333,-2
29.19167,-1
29.20000,-1
29.20833,-1
29.21667,-1
29.22500,-1
29.23333,-1
29.24167,-1
29.25000,-1
29.25833,-1
29.26667,-1
29.27500,-0
29.28333,1
29.29167,1
29.30000,2
29.30833,2
29.31667,2
29.32500,2
29.33333,2
29.34167,2
29.35000,2
29.35833,3
29.36667,3
29.37500,3
29.38333,3
29.39167,4
29.40000,4
29.40833,4
29.41667,3
29.42500,3
29.43333,3
29.44167,3
29.45000,3
29.45833,3
29.46667,3
29.47500,3
29.48333,3
29.49167,3
29.50000,3
29.50833,3
29.51667,3
29.52500,3
29.53333,2
29.54167,2
29.55000,2
29.55833,2
29.56667,1
29.57500,1
29.58333,0
29.59167,0
29.60000,-0
29.60833,-0
29.61667,-0
29.62500,-1
29.63333,-1
29.64167,-1
29.65000,-1
29.65833,-2
29.66667,-2
29.67500,-2
29.68333,-2
29.69167,-3
29.70000,-3
29.70833,-4
29.71667,-5
29.72500,-6
29.73333,-6
29.74167,-7
29.75000,-7
29.75833,-8
29.76667,-8
29.77500,-9
29.78333,-10
29.79167,-11
29.80000,-12
29.80833,-13
29.81667,-13
29.82500,-14
29.83333,-15
29.84167,-16
29.85000,-17
29.85833,-18
29.86667,-19
29.87500,-20
29.88333,-20
29.89167,-21
29.90000,-22
29.90833,-23
29.91667,-25
29.92500,-26
29.93333,-27
29.94167,-27
29.95000,-28
29.95833,-29
29.96667,-31
29.97500,-32
29.98333,-33
29.99167,-34
30.00000,-35
30.00833,-37
30.01667,-38
30.02500,-38
30.03333,-39
30.04167,-40
30.05000,-40
30.05833,-41
30.06667,-42
30.07500,-43
30.08333,-43
30.09167,-44
30.10000,-45
30.10833,-45
30.11667,-46
30.12500,-46
30.13333,-47
30.14167,-47
30.15000,-48
30.15833,-48
30.16667,-48
30.17500,-49
30.18333,-49
30.19167,-49
30.20000,-50
30.20833,-50
30.21667,-50
30.22500,-50
30.23333,-50
30.24167,-50
30.25000,-50
30.25833,-50
30.26667,-50
30.27500,-49
30.28333,-48
30.29167,-48
30.30000,-48
30.30833,-47
30.31667,-47
30.32500,-46
30.33333,-45
30.34167,-44
30.35000,-43
30.35833,-42
30.36667,-41
30.37500,-41
30.38333,-40
30.39167,-40
30.40000,-39
30.40833,-38
30.41667,-37
30.42500,-36
30.43333,-34
30.44167,-33
30.45000,-32
30.45833,-31
30.46667,-31
30.47500,-30
30.48333,-29
30.49167,-27
30.50000,-26
30.50833,-25
30.51667,-24
30.52500,-24
30.53333,-23
30.54167,-22
30.55000,-22
30.55833,-21
30.56667,-20
30.57500,-19
30.58333,-18
30.59167,-17
30.60000,-16
30.60833,-16
30.61667,-15
30.62500,-15
30.63333,-14
30.64167,-14
30.65000,-13
30.65833,-13
30.66667,-12
30.67500,-11
30.68333,-11
30.69167,-10
30.70000,-10
30.70833,-9
30.71667,-9
30.72500,-9
30.73333,-8
30.74167,-8
30.75000,-8
30.75833,-7
30.76667,-7
30.77500,-6
30.78333,-5
30.79167,-5
30.80000,-4
30.80833,-4
30.81667,-4
30.82500,-4
30.83333,-4
30.84167,-4
30.85000,-3
30.85833,-3
30.86667,-3
30.87500,-3
30.88333,-2
30.89167,-3
30.90000,-3
30.90833,-3
30.91667,-3
30.92500,-3
30.93333,-3
30.94167,-3
30.95000,-3
30.95833,-2
30.96667,-2
30.97500,-2
30.98333,-2
30.99167,-2
31.00000,-1
31.00833,-1
31.01667,-2
31.02500,-2
31.03333,-1
31.04167,-1
31.05000,-1
31.05833,-1
31.06667,-1
31.07500,-2
31.08333,-2
31.09167,-2
31.10000,-2
31.10833,-2
31.11667,-2
31.12500,-2
31.13333,-2
31.14167,-2
31.15000,-2
31.15833,-2
31.16667,-2
31.17500,-2
31.18333,-2
31.19167,-1
31.20000,-1
31.20833,-1
31.21667,-1
31.22500,-0
31.23333,-0
31.24167,0
31.25000,-0
31.25833,-0
31.26667,-0
31.27500,-1
31.28333,-0
31.29167,-0
31.30000,-0
31.30833,-0
31.31667,-0
31.32500,-0
31.33333,-0
31.34167,-0
31.35000,0
31.35833,1
31.36667,1
31.37500,1
31.38333,0
31.39167,0
31.40000,0
31.40833,1
31.41667,1
31.42500,1
31.43333,1
31.44167,1
31.45000,1
31.45833,1
31.46667,1
31.47500,2
31.48333,2
31.49167,2
31.50000,2
31.50833,2
31.51667,2
31.52500,2
31.53333,2
31.54167,2
31.55000,3
31.55833,3
31.56667,3
31.57500,2
31.58333,3
31.59167,3
31.60000,3
31.60833,3
31.61667,3
31.62500,3
31.63333,3
31.64167,3
31.65000,3
31.65833,3
31.66667,3
31.67500,3
31.68333,3
31.69167,3
31.70000,3
31.70833,4
31.71667,4
31.72500,4
31.73333,3
31.74167,3
31.75000,3
31.75833,3
31.76667,3
31.77500,3
31.78333,3
31.79167,3
31.80000,3
31.80833,3
31.81667,3
31.82500,4
31.83333,4
31.84167,3
31.85000,3
31.85833,3
31.86667,3
31.87500,3
31.88333,3
31.89167,3
31.90000,4
31.90833,4
31.91667,4
31.92500,4
31.93333,4
31.94167,4
31.95000,4
31.95833,4
31.96667,4
31.97500,3
31.98333,3
31.99167,4
32.00000,4
32.00833,3
32.01667,3
32.02500,3
32.03333,3
32.04167,3
32.05000,3
32.05833,3
32.06667,3
32.07500,3
32.08333,3
32.09167,3
32.10000,3
32.10833,3
32.11667,3
32.12500,3
32.13333,3
32.14167,4
32.15000,4
32.15833,3
32.16667,3
32.17500,3
32.18333,3
32.19167,3
32.20000,3
32.20833,4
32.21667,4
32.22500,3
32.23333,3
32.24167,3
32.25000,3
32.25833,3
32.26667,3
32.27500,3
32.28333,3
32.29167,3
32.30000,3
32.30833,3
32.31667,3
32.32500,2
32.33333,2
32.34167,2
32.35000,2
32.35833,2
32.36667,2
32.37500,2
32.38333,3
32.39167,3
32.40000,3
32.40833,3
32.41667,3
32.42500,3
32.43333,3
32.44167,4
32.45000,4
32.45833,4
32.46667,3
32.47500,3
32.48333,3
32.49167,3
32.50000,3
32.50833,3
32.51667,3
32.52500,4
32.53333,3
32.54167,3
32.55000,3
32.55833,3
32.56667,3
32.57500,3
32.58333,3
32.59167,2
32.60000,2
32.60833,2
32.61667,2
32.62500,2
32.63333,2
32.64167,2
32.65000,2
32.65833,3
32.66667,3
32.67500,3
32.68333,3
32.69167,3
32.70000,2
32.70833,2
32.71667,2
32.72500,2
32.73333,2
32.74167,2
32.75000,2
32.75833,1
32.76667,2
32.77500,1
32.78333,2
32.79167,2
32.80000,2
32.80833,2
32.81667,2
32.82500,2
32.83333,2
32.84167,2
32.85000,2
32.85833,2
32.86667,2
32.87500,2
32.88333,2
32.89167,2
32.90000,2
32.90833,2
32.91667,2
32.92500,1
32.93333,1
32.94167,1
32.95000,1
32.95833,1
32.96667,1
32.97500,1
32.98333,1
32.99167,1
33.00000,1
33.00833,1
33.01667,1
33.02500,1
33.03333,1
33.04167,1
33.05000,1
33.05833,1
33.06667,1
33.07500,1
33.08333,1
33.09167,1
33.10000,1
33.10833,1
33.11667,2
33.12500,2
33.13333,2
33.14167,1
33.15000,1
33.15833,1
33.16667,1
33.17500,1
33.18333,1
33.19167,1
33.20000,1
33.20833,1
33.21667,1
33.22500,2
33.23333,2
33.24167,2
33.25000,2
33.25833,2
33.26667,2
33.27500,2
33.28333,2
33.29167,2
33.30000,2
33.30833,1
33.31667,1
33.32500,1
33.33333,1
33.34167,1
33.35000,1
33.35833,1
33.36667,1
33.37500,1
33.38333,1
33.39167,1
33.40000,1
33.40833,2
33.41667,2
33.42500,2
33.43333,2
33.44167,2
33.45000,2
33.45833,2
33.46667,2
33.47500,2
33.48333,2
33.49167,2
33.50000,2
33.50833,2
33.51667,2
33.52500,2
33.53333,2
33.54167,2
33.55000,2
33.55833,2
33.56667,2
33.57500,2
33.58333,2
33.59167,2
33.60000,2
33.60833,2
33.61667,1
33.62500,1
33.63333,1
33.64167,1
33.65000,1
33.65833,1
33.66667,1
33.67500,1
33.68333,1
33.69167,1
33.70000,1
33.70833,1
33.71667,1
33.72500,2
33.73333,2
33.74167,2
33.75000,2
33.75833,1
33.76667,1
33.77500,1
33.78333,2
33.79167,2
33.80000,2
33.80833,2
33.81667,2
33.82500,2
33.83333,1
33.84167,1
33.85000,1
33.85833,1
33.86667,1
33.87500,1
33.88333,1
33.89167,1
33.90000,1
33.90833,1
33.91667,1
33.92500,1
33.93333,2
33.94167,2
33.95000,2
33.95833,2
33.96667,2
33.97500,2
33.98333,2
33.99167,2
34.00000,2
34.00833,2
34.01667,2
34.02500,2
34.03333,2
34.04167,3
34.05000,3
34.05833,3
34.06667,3
34.07500,2
34.08333,2
34.09167,3
34.10000,3
34.10833,3
34.11667,3
34.12500,3
34.13333,2
34.14167,2
34.15000,3
34.15833,3
34.16667,3
34.17500,2
34.18333,2
34.19167,2
34.20000,2
34.20833,2
34.21667,1
34.22500,2
34.23333,2
34.24167,2
34.25000,2
34.25833,2
34.26667,2
34.27500,1
34.28333,1
34.29167,1
34.30000,1
34.30833,1
34.31667,2
34.32500,2
34.33333,2
34.34167,2
34.35000,2
34.35833,2
34.36667,3
34.37500,3
34.38333,3
34.39167,2
34.40000,2
34.40833,2
34.41667,2
34.42500,2
34.43333,2
34.44167,2
34.45000,2
34.45833,3
34.46667,2
34.47500,2
34.48333,2
34.49167,2
34.50000,1
34.50833,2
34.51667,2
34.52500,2
34.53333,2
34.54167,2
34.55000,2
34.55833,2
34.56667,2
34.57500,1
34.58333,1
34.59167,1
34.60000,1
34.60833,1
34.61667,1
34.62500,1
34.63333,1
34.64167,1
34.65000,1
34.65833,0
34.66667,0
34.67500,1
34.68333,1
34.69167,1
34.70000,1
34.70833,1
34.71667,1
34.72500,1
34.73333,1
34.74167,1
34.75000,1
34.75833,1
34.76667,1
34.77500,1
34.78333,2
34.79167,2
34.80000,2
34.80833,2
34.81667,1
34.82500,1
34.83333,0
34.84167,0
34.85000,0
34.85833,0
34.86667,0
34.87500,0
34.88333,0
34.89167,0
34.90000,0
34.90833,1
34.91667,1
34.92500,1
34.93333,2
34.94167,2
34.95000,2
34.95833,2
34.96667,1
34.97500,1
34.98333,1
34.99167,1
35.00000,0
35.00833,1
35.01667,1
35.02500,0
35.03333,0
35.04167,0
35.05000,0
35.05833,0
35.06667,0
35.07500,1
35.08333,1
35.09167,1
35.10000,1
35.10833,1
35.11667,1
35.12500,1
35.13333,1
35.14167,1
35.15000,1
35.15833,0
35.16667,0
35.17500,-0
35.18333,-0
35.19167,-0
35.20000,-0
35.20833,-0
35.21667,-0
35.22500,-0
35.23333,0
35.24167,0
35.25000,0
35.25833,0
35.26667,1
35.27500,1
35.28333,2
35.29167,2
35.30000,1
35.30833,1
35.31667,1
35.32500,1
35.33333,0
35.34167,0
35.35000,0
35.35833,0
35.36667,0
35.37500,0
35.38333,0
35.39167,0
35.40000,0
35.40833,-0
35.41667,-0
35.42500,-1
35.43333,-1
35.44167,-0
35.45000,-0
35.45833,-0
35.46667,-0
35.47500,-0
35.48333,-1
35.49167,-1
35.50000,-1
35.50833,-1
35.51667,-1
35.52500,-1
35.53333,-1
35.54167,-1
35.55000,-1
35.55833,-1
35.56667,-1
35.57500,-1
35.58333,-1
35.59167,-1
35.60000,-1
35.60833,-1
35.61667,-1
35.62500,-1
35.63333,-1
35.64167,-1
35.65000,-1
35.65833,-1
35.66667,-1
35.67500,-1
35.68333,-1
35.69167,-0
35.70000,-0
35.70833,-0
35.71667,-0
35.72500,-0
35.73333,-1
35.74167,-1
35.75000,-2
35.75833,-2
35.76667,-2
35.77500,-1
35.78333,-1
35.79167,-1
35.80000,-1
35.80833,-1
35.81667,-1
35.82500,-1
35.83333,-1
35.84167,-1
35.85000,-1
35.85833,-1
35.86667,-1
35.87500,-1
35.88333,-1
35.89167,-1
35.90000,-1
35.90833,-1
35.91667,-1
35.92500,-1
35.93333,-0
35.94167,-0
35.95000,-0
35.95833,-0
35.96667,-0
35.97500,-0
35.98333,-0
35.99167,-0
36.00000,-0
36.00833,0
36.01667,0
36.02500,0
36.03333,0
36.04167,-0
36.05000,-0
36.05833,-1
36.06667,-1
36.07500,-1
36.08333,-1
36.09167,-1
36.10000,-1
36.10833,-1
36.11667,-1
36.12500,-0
36.13333,-0
36.14167,-0
36.15000,-0
36.15833,-0
36.16667,-0
36.17500,-1
36.18333,-1
36.19167,-1
36.20000,-0
36.20833,-0
36.21667,-0
36.22500,-0
36.23333,-0
36.24167,-0
36.25000,-0
36.25833,-0
36.26667,-0
36.27500,-0
36.28333,-0
36.29167,-0
36.30000,-0
36.30833,-0
36.31667,-1
36.32500,-1
36.33333,-1
36.34167,-1
36.35000,-1
36.35833,-0
36.36667,-0
36.37500,-0
36.38333,-0
36.39167,-0
36.40000,-1
36.40833,-1
36.41667,-1
36.42500,-1
36.43333,-1
36.44167,-1
36.45000,-1
36.45833,-1
36.46667,-1
36.47500,-0
36.48333,0
36.49167,0
36.50000,0
36.50833,0
36.51667,0
36.52500,0
36.53333,-0
36.54167,-0
36.55000,-0
36.55833,-0
36.56667,-0
36.57500,-0
36.58333,-1
36.59167,-1
36.60000,-1
36.60833,-0
36.61667,-0
36.62500,0
36.63333,0
36.64167,0
36.65000,0
36.65833,-0
36.66667,-0
36.67500,-0
36.68333,-1
36.69167,-1
36.70000,-0
36.70833,-0
36.71667,0
36.72500,-0
36.73333,-0
36.74167,-0
36.75000,-0
36.75833,-0
36.76667,-0
36.77500,-0
36.78333,-0
36.79167,-0
36.80000,-1
36.80833,-1
36.81667,-0
36.82500,-0
36.83333,-0
36.84167,-0
36.85000,-1
36.85833,-1
36.86667,-1
36.87500,-1
36.88333,-1
36.89167,-0
36.90000,0
36.90833,-0
36.91667,-0
36.92500,0
36.93333,1
36.94167,1
36.95000,1
36.95833,1
36.96667,1
36.97500,1
36.98333,1
36.99167,1
37.00000,1
37.00833,1
37.01667,1
37.02500,1
37.03333,1
37.04167,1
37.05000,1
37.05833,0
37.06667,0
37.07500,0
37.08333,0
37.09167,0
37.10000,1
37.10833,0
37.11667,0
37.12500,0
37.13333,0
37.14167,1
37.15000,1
37.15833,1
37.16667,1
37.17500,1
37.18333,1
37.19167,1
37.20000,0
37.20833,0
37.21667,-0
37.22500,-0
37.23333,-0
37.24167,-0
37.25000,-0
37.25833,-0
37.26667,-0
37.27500,-0
37.28333,-0
37.29167,-0
37.30000,-0
37.30833,-0
37.31667,0
37.32500,-0
37.33333,-0
37.34167,-0
37.35000,-0
37.35833,-0
37.36667,-0
37.37500,-0
37.38333,-0
37.39167,-0
37.40000,-0
37.40833,-0
37.41667,-1
37.42500,-1
37.43333,-1
37.44167,-1
37.45000,-1
37.45833,-1
37.46667,-1
37.47500,-1
37.48333,-1
37.49167,-1
37.50000,-1
37.50833,-1
37.51667,-1
37.52500,-0
37.53333,-0
37.54167,-0
37.55000,-0
37.55833,-1
37.56667,-1
37.57500,-1
37.58333,-1
37.59167,-1
37.60000,-1
37.60833,-1
37.61667,-1
37.62500,-1
37.63333,-1
37.64167,-1
37.65000,-1
37.65833,-1
37.66667,-1
37.67500,-1
37.68333,-1
37.69167,-1
37.70000,-2
37.70833,-2
37.71667,-1
37.72500,-1
37.73333,-1
37.74167,-1
37.75000,-1
37.75833,-1
37.76667,-1
37.77500,-1
37.78333,-1
37.79167,-1
37.80000,-1
37.80833,-2
37.81667,-2
37.82500,-1
37.83333,-1
37.84167,-0
37.85000,0
37.85833,-0
37.86667,-0
37.87500,-0
37.88333,-0
37.89167,-0
37.90000,-0
37.90833,-0
37.91667,-0
37.92500,0
37.93333,0
37.94167,0
37.95000,0
37.95833,0
37.96667,0
37.97500,0
37.98333,0
37.99167,1
38.00000,0
38.00833,0
38.01667,0
38.02500,0
38.03333,1
38.04167,1
38.05000,1
38.05833,1
38.06667,1
38.07500,1
38.08333,1
38.09167,1
38.10000,1
38.10833,1
38.11667,1
38.12500,1
38.13333,2
38.14167,2
38.15000,2
38.15833,2
38.16667,2
38.17500,2
38.18333,2
38.19167,2
38.20000,2
38.20833,2
38.21667,2
38.22500,2
38.23333,2
38.24167,2
38.25000,3
38.25833,3
38.26667,3
38.27500,3
38.28333,2
38.29167,3
38.30000,3
38.30833,4
38.31667,4
38.32500,4
38.33333,3
38.34167,3
38.35000,3
38.35833,3
38.36667,3
38.37500,4
38.38333,4
38.39167,4
38.40000,3
38.40833,3
38.41667,3
38.42500,3
38.43333,4
38.44167,4
38.45000,5
38.45833,5
38.46667,5
38.47500,5
38.48333,5
38.49167,5
38.50000,5
38.50833,5
38.51667,5
38.52500,4
38.53333,4
38.54167,4
38.55000,4
38.55833,3
38.56667,3
38.57500,3
38.58333,3
38.59167,3
38.60000,3
38.60833,3
38.61667,2
38.62500,2
38.63333,2
38.64167,2
38.65000,2
38.65833,2
38.66667,2
38.67500,2
38.68333,3
38.69167,2
38.70000,2
38.70833,2
38.71667,2
38.72500,2
38.73333,3
38.74167,2
38.75000,2
38.75833,2
38.76667,2
38.77500,2
38.78333,2
38.79167,1
38.80000,1
38.80833,1
38.81667,2
38.82500,2
38.83333,2
38.84167,2
38.85000,2
38.85833,2
38.86667,2
38.87500,2
38.88333,2
38.89167,2
38.90000,2
38.90833,1
38.91667,1
38.92500,0
38.93333,0
38.94167,0
38.95000,0
38.95833,0
38.96667,-0
38.97500,0
38.98333,0
38.99167,-0
39.00000,-0
39.00833,-0
39.01667,-0
39.02500,-1
39.03333,-1
39.04167,-1
39.05000,-1
39.05833,-1
39.06667,-0
39.07500,-0
39.08333,-0
39.09167,-1
39.10000,-0
39.10833,-0
39.11667,-0
39.12500,-0
39.13333,-0
39.14167,0
39.15000,0
39.15833,0
39.16667,1
39.17500,0
39.18333,0
39.19167,-0
39.20000,-1
39.20833,-1
39.21667,-1
39.22500,-1
39.23333,-1
39.24167,-1
39.25000,-1
39.25833,-1
39.26667,-1
39.27500,-1
39.28333,-1
39.29167,-1
39.30000,-1
39.30833,-1
39.31667,-1
39.32500,-1
39.33333,-2
39.34167,-2
39.35000,-2
39.35833,-2
39.36667,-1
39.37500,-1
39.38333,-1
39.39167,-1
39.40000,-1
39.40833,-0
39.41667,-0
39.42500,-0
39.43333,-1
39.44167,-1
39.45000,-1
39.45833,-1
39.46667,-1
39.47500,-1
39.48333,-1
39.49167,-1
39.50000,-1
39.50833,-1
39.51667,-1
39.52500,-1
39.53333,-2
39.54167,-2
39.55000,-2
39.55833,-2
39.56667,-2
39.57500,-2
39.58333,-2
39.59167,-2
39.60000,-2
39.60833,-1
39.61667,-2
39.62500,-2
39.63333,-1
39.64167,-1
39.65000,-1
39.65833,-1
39.66667,-1
39.67500,-1
39.68333,-1
39.69167,-1
39.70000,-1
39.70833,-1
39.71667,-1
39.72500,-1
39.73333,-1
39.74167,-1
39.75000,-1
39.75833,-1
39.76667,-1
39.77500,-1
39.78333,-1
39.79167,-1
39.80000,-1
39.80833,-0
39.81667,-0
39.82500,-0
39.83333,-0
39.84167,0
39.85000,0
39.85833,0
39.86667,-0
39.87500,-0
39.88333,-1
39.89167,-1
39.90000,-1
39.90833,-1
39.91667,-1
39.92500,-1
39.93333,-2
39.94167,-2
39.95000,-2
39.95833,-2
39.96667,-2
39.97500,-2
39.98333,-2
39.99167,-2
40.00000,-1

