[Header]
Application Name,LabSolutions
Version,5.97 SP1
Data File Name,C:\Users\cremerlab\Desktop\griffin\2021-03-31_NC_glucose_glycerol_acetate_calibration\calibration_batch_422021_004_004.lcd
Output Date,4/2/2021
Output Time,10:23:51 PM

[File Information]
Type,Data File
Generated,4/2/2021 9:43:32 PM
Generated by,System Administrator
Modified,4/2/2021 10:23:51 PM
Modified by,System Administrator

[Sample Information]
Operator Name,System Administrator
Acquired,4/2/2021 9:43:50 PM
Sample Type,1:Standard
Level,4
Sample Name,2021-04-02_NC_glucose_glycerol_acetate_calibration_20mM
Sample ID,004
ISTD Amount1,1
ISTD Amount2,1
ISTD Amount3,1
ISTD Amount4,1
ISTD Amount5,1
ISTD Amount6,1
ISTD Amount7,1
ISTD Amount8,1
ISTD Amount9,1
ISTD Amount10,1
ISTD Amount11,1
ISTD Amount12,1
ISTD Amount13,1
ISTD Amount14,1
ISTD Amount15,1
ISTD Amount16,1
ISTD Amount17,1
ISTD Amount18,1
ISTD Amount19,1
ISTD Amount20,1
ISTD Amount21,1
ISTD Amount22,1
ISTD Amount23,1
ISTD Amount24,1
ISTD Amount25,1
ISTD Amount26,1
ISTD Amount27,1
ISTD Amount28,1
ISTD Amount29,1
ISTD Amount30,1
ISTD Amount31,1
ISTD Amount32,1
Sample Amount,1
Dilution Factor,1
Vial#,4
Injection Volume,20

[Original Files]
Data File,C:\Users\cremerlab\Desktop\griffin\2021-03-31_NC_glucose_glycerol_acetate_calibration\calibration_batch_422021_004_004.lcd
Method File,C:\LabSolutions\Data\Project1\organicacidsetc2.lcm
Batch File,C:\Users\cremerlab\Desktop\griffin\2021-03-31_NC_glucose_glycerol_acetate_calibration\calibration_batch.lcb
Report Format File,c:\LabSolutions\System\DEFAULT.lsr

[File Description]


[Configuration]
Instrument Name,HPLC-PC-Instrument1
Instrument #,1
Line #,1
# of Detectors,2
Detector ID,Detector A,Detector B
Detector Name,Detector A,Detector B
# of Channels,1,1

[Peak Table(Detector A)]
# of Peaks,0

[Peak Table(Detector B)]
# of Peaks,5
Peak#,R.Time,I.Time,F.Time,Area,Height,A/H,Conc.,Mark,ID#,Name,k',Plate #,Plate Ht.,Tailing,Resolution,Sep.Factor,Area Ratio,Height Ratio,Conc. %,Norm Conc.
1,11.040,10.783,11.892,431350,23444,18.399,0.000,   ,,,0.000,9469,15.841,1.769,0.000,0.000,0,0,0.000,0.000
2,14.883,14.125,15.225,1062386,46100,23.045,0.000,   ,,,0.348,9016,16.638,0.000,7.111,0.000,0,0,0.000,0.000
3,15.651,15.225,18.617,2582829,105972,24.373,0.000, V ,,,0.418,9758,15.372,1.131,1.219,1.200,0,0,0.000,0.000
4,22.075,21.317,23.658,759277,27960,27.156,0.000,   ,,,1.000,15369,9.760,1.093,9.545,2.393,0,0,0.000,0.000
5,25.056,24.300,26.350,390824,13260,29.474,0.000,   ,,,1.270,16638,9.015,1.074,4.003,1.270,0,0,0.000,0.000

[LC Chromatogram(Detector B-Ch1)]
Interval(msec),500
# of Points,4801
Start Time(min),0.000
End Time(min),40.000
Intensity Units,mV
Intensity Multiplier,0.001
R.Time (min),Intensity
0.00000,-1
0.00833,-1
0.01667,-0
0.02500,-0
0.03333,-0
0.04167,-0
0.05000,-0
0.05833,-1
0.06667,-1
0.07500,-1
0.08333,-1
0.09167,-1
0.10000,-0
0.10833,-0
0.11667,0
0.12500,0
0.13333,-0
0.14167,-0
0.15000,0
0.15833,0
0.16667,0
0.17500,0
0.18333,0
0.19167,0
0.20000,0
0.20833,0
0.21667,0
0.22500,0
0.23333,0
0.24167,0
0.25000,0
0.25833,-0
0.26667,-0
0.27500,-0
0.28333,-0
0.29167,-0
0.30000,-1
0.30833,-1
0.31667,-1
0.32500,-1
0.33333,-1
0.34167,-1
0.35000,-1
0.35833,-1
0.36667,-1
0.37500,-1
0.38333,-1
0.39167,-1
0.40000,-1
0.40833,-1
0.41667,-0
0.42500,-1
0.43333,-1
0.44167,-1
0.45000,-1
0.45833,-1
0.46667,-1
0.47500,-1
0.48333,-1
0.49167,-1
0.50000,-1
0.50833,-1
0.51667,-1
0.52500,-1
0.53333,-1
0.54167,-1
0.55000,-1
0.55833,-1
0.56667,-1
0.57500,-1
0.58333,-1
0.59167,-1
0.60000,-1
0.60833,-1
0.61667,-1
0.62500,-1
0.63333,-1
0.64167,-1
0.65000,-1
0.65833,-1
0.66667,-1
0.67500,-1
0.68333,-1
0.69167,-2
0.70000,-2
0.70833,-2
0.71667,-2
0.72500,-2
0.73333,-2
0.74167,-2
0.75000,-2
0.75833,-2
0.76667,-2
0.77500,-2
0.78333,-2
0.79167,-1
0.80000,-1
0.80833,-1
0.81667,-1
0.82500,-0
0.83333,-0
0.84167,0
0.85000,-0
0.85833,-0
0.86667,-1
0.87500,-1
0.88333,-0
0.89167,-0
0.90000,-0
0.90833,-0
0.91667,-0
0.92500,-0
0.93333,0
0.94167,0
0.95000,0
0.95833,0
0.96667,-0
0.97500,-0
0.98333,-0
0.99167,-0
1.00000,-0
1.00833,-1
1.01667,-1
1.02500,-1
1.03333,-1
1.04167,-1
1.05000,-1
1.05833,-1
1.06667,-1
1.07500,-0
1.08333,-0
1.09167,0
1.10000,0
1.10833,-0
1.11667,-0
1.12500,-0
1.13333,-0
1.14167,-0
1.15000,-1
1.15833,-1
1.16667,-1
1.17500,-0
1.18333,-0
1.19167,-0
1.20000,-0
1.20833,-0
1.21667,-0
1.22500,-0
1.23333,-0
1.24167,-1
1.25000,-1
1.25833,-1
1.26667,-1
1.27500,-1
1.28333,-1
1.29167,-0
1.30000,-0
1.30833,-0
1.31667,-1
1.32500,-1
1.33333,-1
1.34167,-1
1.35000,-1
1.35833,-1
1.36667,-1
1.37500,-1
1.38333,-1
1.39167,-1
1.40000,-1
1.40833,-1
1.41667,-1
1.42500,-1
1.43333,-1
1.44167,-1
1.45000,-1
1.45833,-1
1.46667,-1
1.47500,-1
1.48333,-0
1.49167,-1
1.50000,-1
1.50833,-1
1.51667,-0
1.52500,0
1.53333,0
1.54167,0
1.55000,0
1.55833,0
1.56667,-0
1.57500,-1
1.58333,-1
1.59167,-1
1.60000,-1
1.60833,-1
1.61667,-1
1.62500,-1
1.63333,-1
1.64167,-1
1.65000,-1
1.65833,-1
1.66667,-1
1.67500,-0
1.68333,-1
1.69167,-1
1.70000,-0
1.70833,-0
1.71667,-1
1.72500,-1
1.73333,-1
1.74167,-1
1.75000,-1
1.75833,-1
1.76667,-1
1.77500,-1
1.78333,-0
1.79167,0
1.80000,-0
1.80833,-1
1.81667,-1
1.82500,-1
1.83333,-1
1.84167,-1
1.85000,-1
1.85833,-1
1.86667,-2
1.87500,-2
1.88333,-1
1.89167,-1
1.90000,-1
1.90833,-1
1.91667,-1
1.92500,-1
1.93333,-1
1.94167,-1
1.95000,-0
1.95833,-0
1.96667,-1
1.97500,-1
1.98333,-1
1.99167,-1
2.00000,-1
2.00833,-1
2.01667,-2
2.02500,-2
2.03333,-1
2.04167,-1
2.05000,-1
2.05833,-1
2.06667,-1
2.07500,-1
2.08333,-1
2.09167,-1
2.10000,-1
2.10833,-1
2.11667,-0
2.12500,-0
2.13333,-0
2.14167,0
2.15000,-0
2.15833,-0
2.16667,-1
2.17500,-1
2.18333,-1
2.19167,-1
2.20000,-1
2.20833,-1
2.21667,-1
2.22500,-2
2.23333,-2
2.24167,-1
2.25000,-1
2.25833,-1
2.26667,-1
2.27500,-1
2.28333,-1
2.29167,-1
2.30000,-1
2.30833,-2
2.31667,-2
2.32500,-3
2.33333,-3
2.34167,-3
2.35000,-3
2.35833,-3
2.36667,-3
2.37500,-2
2.38333,-2
2.39167,-2
2.40000,-2
2.40833,-2
2.41667,-2
2.42500,-2
2.43333,-2
2.44167,-2
2.45000,-2
2.45833,-2
2.46667,-2
2.47500,-1
2.48333,-1
2.49167,-1
2.50000,-1
2.50833,-1
2.51667,-2
2.52500,-2
2.53333,-2
2.54167,-2
2.55000,-2
2.55833,-2
2.56667,-2
2.57500,-2
2.58333,-2
2.59167,-2
2.60000,-2
2.60833,-3
2.61667,-3
2.62500,-3
2.63333,-3
2.64167,-3
2.65000,-3
2.65833,-3
2.66667,-3
2.67500,-2
2.68333,-2
2.69167,-2
2.70000,-2
2.70833,-2
2.71667,-2
2.72500,-2
2.73333,-2
2.74167,-2
2.75000,-3
2.75833,-3
2.76667,-3
2.77500,-3
2.78333,-3
2.79167,-2
2.80000,-2
2.80833,-2
2.81667,-2
2.82500,-2
2.83333,-2
2.84167,-2
2.85000,-2
2.85833,-2
2.86667,-2
2.87500,-2
2.88333,-3
2.89167,-3
2.90000,-3
2.90833,-3
2.91667,-2
2.92500,-2
2.93333,-2
2.94167,-2
2.95000,-2
2.95833,-3
2.96667,-3
2.97500,-3
2.98333,-3
2.99167,-3
3.00000,-3
3.00833,-3
3.01667,-3
3.02500,-3
3.03333,-3
3.04167,-3
3.05000,-3
3.05833,-3
3.06667,-3
3.07500,-3
3.08333,-3
3.09167,-3
3.10000,-3
3.10833,-4
3.11667,-4
3.12500,-4
3.13333,-4
3.14167,-4
3.15000,-4
3.15833,-4
3.16667,-4
3.17500,-4
3.18333,-4
3.19167,-3
3.20000,-3
3.20833,-4
3.21667,-4
3.22500,-4
3.23333,-4
3.24167,-3
3.25000,-3
3.25833,-3
3.26667,-3
3.27500,-3
3.28333,-3
3.29167,-3
3.30000,-3
3.30833,-3
3.31667,-3
3.32500,-3
3.33333,-3
3.34167,-3
3.35000,-3
3.35833,-3
3.36667,-3
3.37500,-3
3.38333,-3
3.39167,-3
3.40000,-3
3.40833,-3
3.41667,-3
3.42500,-3
3.43333,-3
3.44167,-3
3.45000,-3
3.45833,-3
3.46667,-3
3.47500,-3
3.48333,-3
3.49167,-3
3.50000,-3
3.50833,-3
3.51667,-3
3.52500,-3
3.53333,-3
3.54167,-4
3.55000,-4
3.55833,-4
3.56667,-3
3.57500,-3
3.58333,-4
3.59167,-4
3.60000,-4
3.60833,-4
3.61667,-4
3.62500,-4
3.63333,-4
3.64167,-4
3.65000,-4
3.65833,-4
3.66667,-3
3.67500,-3
3.68333,-3
3.69167,-3
3.70000,-3
3.70833,-4
3.71667,-4
3.72500,-4
3.73333,-4
3.74167,-4
3.75000,-4
3.75833,-3
3.76667,-3
3.77500,-3
3.78333,-3
3.79167,-3
3.80000,-3
3.80833,-3
3.81667,-3
3.82500,-3
3.83333,-4
3.84167,-4
3.85000,-4
3.85833,-4
3.86667,-4
3.87500,-4
3.88333,-4
3.89167,-4
3.90000,-4
3.90833,-4
3.91667,-4
3.92500,-4
3.93333,-3
3.94167,-3
3.95000,-3
3.95833,-3
3.96667,-3
3.97500,-3
3.98333,-3
3.99167,-3
4.00000,-3
4.00833,-3
4.01667,-3
4.02500,-4
4.03333,-4
4.04167,-4
4.05000,-3
4.05833,-3
4.06667,-3
4.07500,-3
4.08333,-3
4.09167,-4
4.10000,-4
4.10833,-4
4.11667,-4
4.12500,-4
4.13333,-4
4.14167,-4
4.15000,-3
4.15833,-3
4.16667,-3
4.17500,-3
4.18333,-4
4.19167,-4
4.20000,-5
4.20833,-5
4.21667,-5
4.22500,-5
4.23333,-5
4.24167,-5
4.25000,-5
4.25833,-5
4.26667,-5
4.27500,-5
4.28333,-5
4.29167,-5
4.30000,-4
4.30833,-4
4.31667,-4
4.32500,-4
4.33333,-3
4.34167,-3
4.35000,-4
4.35833,-4
4.36667,-4
4.37500,-4
4.38333,-4
4.39167,-4
4.40000,-4
4.40833,-4
4.41667,-4
4.42500,-4
4.43333,-3
4.44167,-3
4.45000,-3
4.45833,-3
4.46667,-3
4.47500,-3
4.48333,-3
4.49167,-3
4.50000,-3
4.50833,-3
4.51667,-3
4.52500,-3
4.53333,-3
4.54167,-3
4.55000,-3
4.55833,-3
4.56667,-3
4.57500,-4
4.58333,-4
4.59167,-4
4.60000,-4
4.60833,-4
4.61667,-4
4.62500,-4
4.63333,-4
4.64167,-4
4.65000,-4
4.65833,-4
4.66667,-4
4.67500,-4
4.68333,-4
4.69167,-4
4.70000,-4
4.70833,-4
4.71667,-4
4.72500,-4
4.73333,-4
4.74167,-4
4.75000,-4
4.75833,-4
4.76667,-4
4.77500,-4
4.78333,-4
4.79167,-4
4.80000,-4
4.80833,-4
4.81667,-4
4.82500,-4
4.83333,-4
4.84167,-4
4.85000,-4
4.85833,-4
4.86667,-4
4.87500,-4
4.88333,-4
4.89167,-4
4.90000,-5
4.90833,-5
4.91667,-5
4.92500,-5
4.93333,-5
4.94167,-4
4.95000,-4
4.95833,-4
4.96667,-4
4.97500,-4
4.98333,-4
4.99167,-4
5.00000,-4
5.00833,-4
5.01667,-5
5.02500,-5
5.03333,-4
5.04167,-4
5.05000,-3
5.05833,-3
5.06667,-3
5.07500,-4
5.08333,-4
5.09167,-4
5.10000,-4
5.10833,-4
5.11667,-4
5.12500,-5
5.13333,-5
5.14167,-5
5.15000,-5
5.15833,-5
5.16667,-5
5.17500,-5
5.18333,-5
5.19167,-5
5.20000,-5
5.20833,-5
5.21667,-5
5.22500,-5
5.23333,-4
5.24167,-5
5.25000,-5
5.25833,-5
5.26667,-5
5.27500,-4
5.28333,-4
5.29167,-4
5.30000,-5
5.30833,-5
5.31667,-5
5.32500,-5
5.33333,-5
5.34167,-5
5.35000,-5
5.35833,-4
5.36667,-4
5.37500,-4
5.38333,-4
5.39167,-4
5.40000,-4
5.40833,-4
5.41667,-4
5.42500,-4
5.43333,-4
5.44167,-4
5.45000,-4
5.45833,-4
5.46667,-4
5.47500,-4
5.48333,-4
5.49167,-4
5.50000,-4
5.50833,-5
5.51667,-5
5.52500,-5
5.53333,-5
5.54167,-5
5.55000,-5
5.55833,-5
5.56667,-5
5.57500,-5
5.58333,-5
5.59167,-6
5.60000,-6
5.60833,-6
5.61667,-6
5.62500,-6
5.63333,-5
5.64167,-5
5.65000,-5
5.65833,-5
5.66667,-5
5.67500,-5
5.68333,-5
5.69167,-5
5.70000,-5
5.70833,-5
5.71667,-5
5.72500,-5
5.73333,-5
5.74167,-5
5.75000,-5
5.75833,-5
5.76667,-5
5.77500,-5
5.78333,-5
5.79167,-5
5.80000,-5
5.80833,-5
5.81667,-5
5.82500,-5
5.83333,-5
5.84167,-5
5.85000,-5
5.85833,-5
5.86667,-5
5.87500,-5
5.88333,-5
5.89167,-5
5.90000,-5
5.90833,-5
5.91667,-5
5.92500,-5
5.93333,-5
5.94167,-5
5.95000,-5
5.95833,-5
5.96667,-4
5.97500,-4
5.98333,-5
5.99167,-5
6.00000,-5
6.00833,-5
6.01667,-5
6.02500,-5
6.03333,-5
6.04167,-5
6.05000,-5
6.05833,-5
6.06667,-5
6.07500,-5
6.08333,-5
6.09167,-5
6.10000,-5
6.10833,-5
6.11667,-5
6.12500,-4
6.13333,-4
6.14167,-4
6.15000,-4
6.15833,-4
6.16667,-5
6.17500,-5
6.18333,-5
6.19167,-6
6.20000,-6
6.20833,-6
6.21667,-6
6.22500,-6
6.23333,-6
6.24167,-6
6.25000,-6
6.25833,-6
6.26667,-6
6.27500,-6
6.28333,-6
6.29167,-5
6.30000,-5
6.30833,-5
6.31667,-5
6.32500,-5
6.33333,-6
6.34167,-6
6.35000,-6
6.35833,-6
6.36667,-6
6.37500,-6
6.38333,-6
6.39167,-6
6.40000,-6
6.40833,-6
6.41667,-6
6.42500,-6
6.43333,-7
6.44167,-7
6.45000,-7
6.45833,-7
6.46667,-7
6.47500,-7
6.48333,-7
6.49167,-7
6.50000,-7
6.50833,-7
6.51667,-7
6.52500,-7
6.53333,-7
6.54167,-7
6.55000,-7
6.55833,-7
6.56667,-6
6.57500,-6
6.58333,-6
6.59167,-6
6.60000,-6
6.60833,-6
6.61667,-5
6.62500,-6
6.63333,-6
6.64167,-6
6.65000,-6
6.65833,-6
6.66667,-6
6.67500,-6
6.68333,-6
6.69167,-6
6.70000,-6
6.70833,-6
6.71667,-6
6.72500,-7
6.73333,-7
6.74167,-7
6.75000,-7
6.75833,-7
6.76667,-7
6.77500,-6
6.78333,-6
6.79167,-6
6.80000,-6
6.80833,-6
6.81667,-6
6.82500,-6
6.83333,-6
6.84167,-6
6.85000,-6
6.85833,-6
6.86667,-6
6.87500,-6
6.88333,-6
6.89167,-6
6.90000,-6
6.90833,-6
6.91667,-6
6.92500,-6
6.93333,-6
6.94167,-6
6.95000,-6
6.95833,-6
6.96667,-5
6.97500,-5
6.98333,-6
6.99167,-6
7.00000,-6
7.00833,-6
7.01667,-7
7.02500,-7
7.03333,-7
7.04167,-7
7.05000,-7
7.05833,-7
7.06667,-7
7.07500,-7
7.08333,-7
7.09167,-7
7.10000,-7
7.10833,-7
7.11667,-6
7.12500,-6
7.13333,-6
7.14167,-6
7.15000,-6
7.15833,-6
7.16667,-6
7.17500,-6
7.18333,-6
7.19167,-5
7.20000,-6
7.20833,-6
7.21667,-6
7.22500,-6
7.23333,-7
7.24167,-7
7.25000,-7
7.25833,-7
7.26667,-7
7.27500,-7
7.28333,-7
7.29167,-7
7.30000,-7
7.30833,-7
7.31667,-7
7.32500,-7
7.33333,-7
7.34167,-7
7.35000,-7
7.35833,-7
7.36667,-8
7.37500,-8
7.38333,-8
7.39167,-8
7.40000,-8
7.40833,-7
7.41667,-7
7.42500,-7
7.43333,-7
7.44167,-7
7.45000,-7
7.45833,-7
7.46667,-7
7.47500,-7
7.48333,-7
7.49167,-7
7.50000,-7
7.50833,-7
7.51667,-7
7.52500,-7
7.53333,-7
7.54167,-7
7.55000,-7
7.55833,-7
7.56667,-7
7.57500,-7
7.58333,-8
7.59167,-8
7.60000,-7
7.60833,-7
7.61667,-7
7.62500,-7
7.63333,-7
7.64167,-7
7.65000,-7
7.65833,-7
7.66667,-7
7.67500,-7
7.68333,-7
7.69167,-8
7.70000,-8
7.70833,-8
7.71667,-8
7.72500,-8
7.73333,-7
7.74167,-7
7.75000,-7
7.75833,-7
7.76667,-8
7.77500,-8
7.78333,-8
7.79167,-8
7.80000,-8
7.80833,-8
7.81667,-8
7.82500,-8
7.83333,-8
7.84167,-8
7.85000,-8
7.85833,-8
7.86667,-8
7.87500,-8
7.88333,-8
7.89167,-8
7.90000,-8
7.90833,-8
7.91667,-8
7.92500,-8
7.93333,-8
7.94167,-8
7.95000,-8
7.95833,-8
7.96667,-7
7.97500,-7
7.98333,-7
7.99167,-7
8.00000,-7
8.00833,-7
8.01667,-8
8.02500,-8
8.03333,-7
8.04167,-7
8.05000,-7
8.05833,-7
8.06667,-7
8.07500,-7
8.08333,-7
8.09167,-8
8.10000,-8
8.10833,-8
8.11667,-8
8.12500,-8
8.13333,-8
8.14167,-8
8.15000,-8
8.15833,-8
8.16667,-8
8.17500,-8
8.18333,-7
8.19167,-7
8.20000,-7
8.20833,-7
8.21667,-8
8.22500,-8
8.23333,-8
8.24167,-8
8.25000,-8
8.25833,-8
8.26667,-8
8.27500,-8
8.28333,-7
8.29167,-7
8.30000,-7
8.30833,-7
8.31667,-7
8.32500,-8
8.33333,-8
8.34167,-8
8.35000,-7
8.35833,-7
8.36667,-7
8.37500,-7
8.38333,-7
8.39167,-7
8.40000,-8
8.40833,-8
8.41667,-8
8.42500,-8
8.43333,-8
8.44167,-8
8.45000,-8
8.45833,-8
8.46667,-9
8.47500,-9
8.48333,-9
8.49167,-8
8.50000,-8
8.50833,-8
8.51667,-8
8.52500,-8
8.53333,-8
8.54167,-8
8.55000,-8
8.55833,-8
8.56667,-8
8.57500,-8
8.58333,-8
8.59167,-8
8.60000,-8
8.60833,-8
8.61667,-8
8.62500,-7
8.63333,-7
8.64167,-7
8.65000,-7
8.65833,-7
8.66667,-8
8.67500,-8
8.68333,-7
8.69167,-7
8.70000,-7
8.70833,-7
8.71667,-7
8.72500,-7
8.73333,-7
8.74167,-7
8.75000,-7
8.75833,-7
8.76667,-7
8.77500,-7
8.78333,-8
8.79167,-7
8.80000,-7
8.80833,-8
8.81667,-8
8.82500,-8
8.83333,-9
8.84167,-8
8.85000,-9
8.85833,-9
8.86667,-9
8.87500,-8
8.88333,-8
8.89167,-8
8.90000,-8
8.90833,-8
8.91667,-8
8.92500,-8
8.93333,-7
8.94167,-7
8.95000,-7
8.95833,-7
8.96667,-7
8.97500,-8
8.98333,-8
8.99167,-8
9.00000,-8
9.00833,-8
9.01667,-8
9.02500,-8
9.03333,-8
9.04167,-8
9.05000,-7
9.05833,-7
9.06667,-7
9.07500,-7
9.08333,-7
9.09167,-7
9.10000,-8
9.10833,-8
9.11667,-8
9.12500,-8
9.13333,-8
9.14167,-8
9.15000,-8
9.15833,-8
9.16667,-8
9.17500,-8
9.18333,-8
9.19167,-8
9.20000,-8
9.20833,-8
9.21667,-8
9.22500,-8
9.23333,-8
9.24167,-8
9.25000,-8
9.25833,-8
9.26667,-8
9.27500,-9
9.28333,-9
9.29167,-9
9.30000,-9
9.30833,-9
9.31667,-9
9.32500,-9
9.33333,-8
9.34167,-8
9.35000,-8
9.35833,-8
9.36667,-8
9.37500,-8
9.38333,-8
9.39167,-8
9.40000,-8
9.40833,-9
9.41667,-9
9.42500,-9
9.43333,-9
9.44167,-9
9.45000,-9
9.45833,-9
9.46667,-8
9.47500,-8
9.48333,-9
9.49167,-9
9.50000,-9
9.50833,-9
9.51667,-8
9.52500,-8
9.53333,-8
9.54167,-9
9.55000,-9
9.55833,-9
9.56667,-9
9.57500,-9
9.58333,-10
9.59167,-10
9.60000,-10
9.60833,-9
9.61667,-9
9.62500,-8
9.63333,-9
9.64167,-9
9.65000,-9
9.65833,-9
9.66667,-9
9.67500,-8
9.68333,-9
9.69167,-9
9.70000,-9
9.70833,-9
9.71667,-9
9.72500,-9
9.73333,-9
9.74167,-9
9.75000,-9
9.75833,-9
9.76667,-9
9.77500,-9
9.78333,-9
9.79167,-9
9.80000,-9
9.80833,-9
9.81667,-9
9.82500,-9
9.83333,-10
9.84167,-9
9.85000,-10
9.85833,-10
9.86667,-9
9.87500,-9
9.88333,-9
9.89167,-9
9.90000,-10
9.90833,-10
9.91667,-10
9.92500,-9
9.93333,-9
9.94167,-10
9.95000,-10
9.95833,-10
9.96667,-9
9.97500,-9
9.98333,-9
9.99167,-9
10.00000,-9
10.00833,-10
10.01667,-10
10.02500,-9
10.03333,-9
10.04167,-9
10.05000,-9
10.05833,-9
10.06667,-9
10.07500,-10
10.08333,-10
10.09167,-10
10.10000,-10
10.10833,-10
10.11667,-10
10.12500,-10
10.13333,-10
10.14167,-10
10.15000,-10
10.15833,-10
10.16667,-10
10.17500,-10
10.18333,-10
10.19167,-10
10.20000,-10
10.20833,-10
10.21667,-10
10.22500,-10
10.23333,-10
10.24167,-10
10.25000,-10
10.25833,-10
10.26667,-10
10.27500,-10
10.28333,-10
10.29167,-10
10.30000,-10
10.30833,-10
10.31667,-9
10.32500,-9
10.33333,-8
10.34167,-8
10.35000,-8
10.35833,-8
10.36667,-8
10.37500,-9
10.38333,-9
10.39167,-9
10.40000,-9
10.40833,-9
10.41667,-8
10.42500,-8
10.43333,-8
10.44167,-7
10.45000,-7
10.45833,-7
10.46667,-8
10.47500,-8
10.48333,-8
10.49167,-9
10.50000,-9
10.50833,-11
10.51667,-13
10.52500,-17
10.53333,-21
10.54167,-27
10.55000,-35
10.55833,-47
10.56667,-62
10.57500,-83
10.58333,-109
10.59167,-143
10.60000,-187
10.60833,-241
10.61667,-308
10.62500,-388
10.63333,-485
10.64167,-600
10.65000,-733
10.65833,-886
10.66667,-1059
10.67500,-1251
10.68333,-1463
10.69167,-1691
10.70000,-1932
10.70833,-2183
10.71667,-2438
10.72500,-2691
10.73333,-2936
10.74167,-3164
10.75000,-3368
10.75833,-3538
10.76667,-3664
10.77500,-3739
10.78333,-3753
10.79167,-3696
10.80000,-3562
10.80833,-3344
10.81667,-3034
10.82500,-2629
10.83333,-2126
10.84167,-1522
10.85000,-818
10.85833,-16
10.86667,881
10.87500,1867
10.88333,2935
10.89167,4076
10.90000,5279
10.90833,6530
10.91667,7817
10.92500,9123
10.93333,10432
10.94167,11727
10.95000,12990
10.95833,14204
10.96667,15350
10.97500,16414
10.98333,17379
10.99167,18233
11.00000,18965
11.00833,19565
11.01667,20028
11.02500,20351
11.03333,20532
11.04167,20574
11.05000,20483
11.05833,20264
11.06667,19927
11.07500,19482
11.08333,18942
11.09167,18318
11.10000,17624
11.10833,16873
11.11667,16077
11.12500,15250
11.13333,14403
11.14167,13547
11.15000,12690
11.15833,11843
11.16667,11013
11.17500,10206
11.18333,9426
11.19167,8680
11.20000,7969
11.20833,7296
11.21667,6662
11.22500,6068
11.23333,5515
11.24167,5002
11.25000,4527
11.25833,4091
11.26667,3691
11.27500,3326
11.28333,2993
11.29167,2691
11.30000,2417
11.30833,2170
11.31667,1948
11.32500,1748
11.33333,1569
11.34167,1408
11.35000,1265
11.35833,1137
11.36667,1023
11.37500,922
11.38333,832
11.39167,752
11.40000,681
11.40833,618
11.41667,562
11.42500,513
11.43333,469
11.44167,430
11.45000,395
11.45833,364
11.46667,337
11.47500,312
11.48333,290
11.49167,270
11.50000,253
11.50833,237
11.51667,222
11.52500,209
11.53333,197
11.54167,186
11.55000,177
11.55833,168
11.56667,160
11.57500,152
11.58333,145
11.59167,138
11.60000,132
11.60833,127
11.61667,121
11.62500,116
11.63333,112
11.64167,108
11.65000,104
11.65833,100
11.66667,96
11.67500,93
11.68333,90
11.69167,88
11.70000,85
11.70833,83
11.71667,81
11.72500,78
11.73333,76
11.74167,74
11.75000,72
11.75833,71
11.76667,69
11.77500,68
11.78333,67
11.79167,66
11.80000,65
11.80833,64
11.81667,63
11.82500,62
11.83333,61
11.84167,60
11.85000,59
11.85833,59
11.86667,58
11.87500,58
11.88333,57
11.89167,57
11.90000,57
11.90833,57
11.91667,57
11.92500,57
11.93333,56
11.94167,56
11.95000,56
11.95833,55
11.96667,55
11.97500,55
11.98333,54
11.99167,54
12.00000,53
12.00833,53
12.01667,53
12.02500,53
12.03333,52
12.04167,52
12.05000,51
12.05833,51
12.06667,50
12.07500,49
12.08333,48
12.09167,48
12.10000,47
12.10833,47
12.11667,47
12.12500,46
12.13333,46
12.14167,45
12.15000,44
12.15833,43
12.16667,42
12.17500,41
12.18333,40
12.19167,39
12.20000,39
12.20833,39
12.21667,38
12.22500,38
12.23333,37
12.24167,36
12.25000,36
12.25833,35
12.26667,35
12.27500,34
12.28333,34
12.29167,33
12.30000,32
12.30833,32
12.31667,32
12.32500,31
12.33333,31
12.34167,30
12.35000,30
12.35833,30
12.36667,30
12.37500,29
12.38333,29
12.39167,29
12.40000,28
12.40833,28
12.41667,28
12.42500,28
12.43333,28
12.44167,28
12.45000,27
12.45833,27
12.46667,27
12.47500,27
12.48333,26
12.49167,26
12.50000,25
12.50833,25
12.51667,24
12.52500,24
12.53333,24
12.54167,23
12.55000,23
12.55833,23
12.56667,23
12.57500,23
12.58333,23
12.59167,23
12.60000,23
12.60833,23
12.61667,23
12.62500,23
12.63333,23
12.64167,23
12.65000,22
12.65833,22
12.66667,22
12.67500,22
12.68333,23
12.69167,23
12.70000,23
12.70833,23
12.71667,23
12.72500,23
12.73333,23
12.74167,23
12.75000,23
12.75833,23
12.76667,23
12.77500,23
12.78333,23
12.79167,24
12.80000,25
12.80833,26
12.81667,27
12.82500,28
12.83333,28
12.84167,29
12.85000,30
12.85833,31
12.86667,33
12.87500,34
12.88333,35
12.89167,36
12.90000,37
12.90833,39
12.91667,40
12.92500,41
12.93333,43
12.94167,44
12.95000,46
12.95833,47
12.96667,49
12.97500,50
12.98333,52
12.99167,53
13.00000,54
13.00833,55
13.01667,56
13.02500,58
13.03333,59
13.04167,60
13.05000,62
13.05833,63
13.06667,64
13.07500,65
13.08333,66
13.09167,67
13.10000,68
13.10833,69
13.11667,70
13.12500,71
13.13333,72
13.14167,73
13.15000,73
13.15833,74
13.16667,74
13.17500,75
13.18333,75
13.19167,75
13.20000,75
13.20833,76
13.21667,76
13.22500,76
13.23333,76
13.24167,76
13.25000,76
13.25833,76
13.26667,76
13.27500,75
13.28333,75
13.29167,74
13.30000,73
13.30833,71
13.31667,70
13.32500,69
13.33333,68
13.34167,67
13.35000,66
13.35833,65
13.36667,63
13.37500,62
13.38333,60
13.39167,58
13.40000,56
13.40833,54
13.41667,52
13.42500,50
13.43333,48
13.44167,46
13.45000,44
13.45833,43
13.46667,41
13.47500,39
13.48333,37
13.49167,36
13.50000,34
13.50833,32
13.51667,30
13.52500,28
13.53333,27
13.54167,25
13.55000,23
13.55833,22
13.56667,20
13.57500,19
13.58333,17
13.59167,16
13.60000,15
13.60833,14
13.61667,13
13.62500,12
13.63333,11
13.64167,10
13.65000,9
13.65833,8
13.66667,8
13.67500,7
13.68333,6
13.69167,6
13.70000,5
13.70833,5
13.71667,4
13.72500,3
13.73333,3
13.74167,2
13.75000,2
13.75833,1
13.76667,1
13.77500,1
13.78333,1
13.79167,1
13.80000,0
13.80833,0
13.81667,-0
13.82500,-0
13.83333,-0
13.84167,-1
13.85000,-1
13.85833,-1
13.86667,-1
13.87500,-1
13.88333,-1
13.89167,-2
13.90000,-2
13.90833,-2
13.91667,-2
13.92500,-2
13.93333,-2
13.94167,-2
13.95000,-2
13.95833,-2
13.96667,-2
13.97500,-2
13.98333,-2
13.99167,-2
14.00000,-2
14.00833,-2
14.01667,-2
14.02500,-2
14.03333,-3
14.04167,-3
14.05000,-2
14.05833,-2
14.06667,-1
14.07500,-1
14.08333,-0
14.09167,0
14.10000,0
14.10833,1
14.11667,2
14.12500,3
14.13333,3
14.14167,4
14.15000,6
14.15833,7
14.16667,9
14.17500,11
14.18333,14
14.19167,17
14.20000,22
14.20833,26
14.21667,32
14.22500,39
14.23333,47
14.24167,57
14.25000,70
14.25833,85
14.26667,102
14.27500,124
14.28333,149
14.29167,180
14.30000,217
14.30833,260
14.31667,312
14.32500,372
14.33333,443
14.34167,524
14.35000,618
14.35833,727
14.36667,850
14.37500,991
14.38333,1150
14.39167,1329
14.40000,1529
14.40833,1751
14.41667,1998
14.42500,2270
14.43333,2568
14.44167,2893
14.45000,3246
14.45833,3629
14.46667,4042
14.47500,4484
14.48333,4957
14.49167,5461
14.50000,5996
14.50833,6561
14.51667,7157
14.52500,7784
14.53333,8441
14.54167,9128
14.55000,9844
14.55833,10588
14.56667,11361
14.57500,12161
14.58333,12988
14.59167,13840
14.60000,14718
14.60833,15619
14.61667,16543
14.62500,17489
14.63333,18455
14.64167,19442
14.65000,20447
14.65833,21469
14.66667,22508
14.67500,23562
14.68333,24630
14.69167,25710
14.70000,26800
14.70833,27900
14.71667,29007
14.72500,30119
14.73333,31235
14.74167,32352
14.75000,33466
14.75833,34577
14.76667,35679
14.77500,36769
14.78333,37842
14.79167,38892
14.80000,39914
14.80833,40899
14.81667,41838
14.82500,42720
14.83333,43532
14.84167,44262
14.85000,44895
14.85833,45414
14.86667,45802
14.87500,46042
14.88333,46118
14.89167,46017
14.90000,45726
14.90833,45237
14.91667,44547
14.92500,43656
14.93333,42570
14.94167,41299
14.95000,39860
14.95833,38273
14.96667,36559
14.97500,34744
14.98333,32856
14.99167,30921
15.00000,28966
15.00833,27016
15.01667,25092
15.02500,23216
15.03333,21403
15.04167,19667
15.05000,18019
15.05833,16466
15.06667,15013
15.07500,13663
15.08333,12416
15.09167,11270
15.10000,10223
15.10833,9271
15.11667,8409
15.12500,7633
15.13333,6939
15.14167,6320
15.15000,5773
15.15833,5292
15.16667,4875
15.17500,4518
15.18333,4218
15.19167,3975
15.20000,3785
15.20833,3649
15.21667,3567
15.22500,3540
15.23333,3570
15.24167,3659
15.25000,3810
15.25833,4029
15.26667,4318
15.27500,4685
15.28333,5134
15.29167,5674
15.30000,6311
15.30833,7052
15.31667,7906
15.32500,8880
15.33333,9983
15.34167,11222
15.35000,12605
15.35833,14138
15.36667,15828
15.37500,17681
15.38333,19699
15.39167,21886
15.40000,24241
15.40833,26766
15.41667,29456
15.42500,32308
15.43333,35314
15.44167,38466
15.45000,41751
15.45833,45156
15.46667,48664
15.47500,52259
15.48333,55918
15.49167,59622
15.50000,63346
15.50833,67065
15.51667,70754
15.52500,74387
15.53333,77936
15.54167,81374
15.55000,84675
15.55833,87813
15.56667,90765
15.57500,93506
15.58333,96016
15.59167,98275
15.60000,100267
15.60833,101978
15.61667,103395
15.62500,104511
15.63333,105319
15.64167,105817
15.65000,106006
15.65833,105887
15.66667,105468
15.67500,104756
15.68333,103761
15.69167,102497
15.70000,100979
15.70833,99223
15.71667,97247
15.72500,95069
15.73333,92711
15.74167,90190
15.75000,87530
15.75833,84751
15.76667,81872
15.77500,78914
15.78333,75897
15.79167,72839
15.80000,69758
15.80833,66671
15.81667,63594
15.82500,60541
15.83333,57527
15.84167,54563
15.85000,51659
15.85833,48826
15.86667,46071
15.87500,43400
15.88333,40821
15.89167,38336
15.90000,35950
15.90833,33666
15.91667,31485
15.92500,29407
15.93333,27434
15.94167,25564
15.95000,23795
15.95833,22126
15.96667,20555
15.97500,19079
15.98333,17695
15.99167,16398
16.00000,15187
16.00833,14057
16.01667,13004
16.02500,12025
16.03333,11116
16.04167,10273
16.05000,9492
16.05833,8770
16.06667,8104
16.07500,7489
16.08333,6923
16.09167,6401
16.10000,5921
16.10833,5479
16.11667,5073
16.12500,4701
16.13333,4359
16.14167,4045
16.15000,3757
16.15833,3494
16.16667,3253
16.17500,3032
16.18333,2830
16.19167,2645
16.20000,2476
16.20833,2320
16.21667,2178
16.22500,2047
16.23333,1927
16.24167,1818
16.25000,1717
16.25833,1625
16.26667,1540
16.27500,1462
16.28333,1391
16.29167,1325
16.30000,1264
16.30833,1208
16.31667,1156
16.32500,1109
16.33333,1064
16.34167,1023
16.35000,985
16.35833,950
16.36667,917
16.37500,887
16.38333,860
16.39167,833
16.40000,809
16.40833,786
16.41667,764
16.42500,744
16.43333,726
16.44167,708
16.45000,692
16.45833,676
16.46667,662
16.47500,648
16.48333,634
16.49167,622
16.50000,610
16.50833,600
16.51667,589
16.52500,580
16.53333,570
16.54167,561
16.55000,553
16.55833,544
16.56667,537
16.57500,530
16.58333,523
16.59167,516
16.60000,509
16.60833,503
16.61667,497
16.62500,491
16.63333,485
16.64167,480
16.65000,475
16.65833,469
16.66667,465
16.67500,460
16.68333,455
16.69167,451
16.70000,446
16.70833,442
16.71667,438
16.72500,433
16.73333,428
16.74167,424
16.75000,420
16.75833,416
16.76667,412
16.77500,408
16.78333,405
16.79167,401
16.80000,397
16.80833,393
16.81667,389
16.82500,386
16.83333,382
16.84167,379
16.85000,376
16.85833,372
16.86667,369
16.87500,366
16.88333,362
16.89167,358
16.90000,355
16.90833,352
16.91667,349
16.92500,346
16.93333,343
16.94167,340
16.95000,337
16.95833,334
16.96667,331
16.97500,328
16.98333,325
16.99167,321
17.00000,318
17.00833,315
17.01667,313
17.02500,310
17.03333,307
17.04167,304
17.05000,301
17.05833,299
17.06667,296
17.07500,294
17.08333,291
17.09167,288
17.10000,285
17.10833,283
17.11667,280
17.12500,278
17.13333,276
17.14167,273
17.15000,271
17.15833,268
17.16667,266
17.17500,263
17.18333,261
17.19167,259
17.20000,257
17.20833,255
17.21667,253
17.22500,252
17.23333,249
17.24167,247
17.25000,245
17.25833,243
17.26667,241
17.27500,239
17.28333,237
17.29167,236
17.30000,234
17.30833,232
17.31667,231
17.32500,229
17.33333,227
17.34167,226
17.35000,225
17.35833,223
17.36667,221
17.37500,220
17.38333,218
17.39167,216
17.40000,215
17.40833,213
17.41667,212
17.42500,210
17.43333,209
17.44167,208
17.45000,207
17.45833,206
17.46667,205
17.47500,203
17.48333,201
17.49167,200
17.50000,198
17.50833,197
17.51667,196
17.52500,196
17.53333,195
17.54167,194
17.55000,193
17.55833,192
17.56667,191
17.57500,190
17.58333,188
17.59167,187
17.60000,186
17.60833,185
17.61667,184
17.62500,183
17.63333,182
17.64167,181
17.65000,180
17.65833,179
17.66667,179
17.67500,178
17.68333,177
17.69167,176
17.70000,176
17.70833,174
17.71667,173
17.72500,172
17.73333,171
17.74167,170
17.75000,169
17.75833,168
17.76667,168
17.77500,167
17.78333,166
17.79167,165
17.80000,164
17.80833,164
17.81667,163
17.82500,162
17.83333,161
17.84167,161
17.85000,160
17.85833,160
17.86667,159
17.87500,158
17.88333,157
17.89167,156
17.90000,155
17.90833,154
17.91667,154
17.92500,153
17.93333,152
17.94167,151
17.95000,151
17.95833,150
17.96667,149
17.97500,148
17.98333,147
17.99167,146
18.00000,146
18.00833,145
18.01667,144
18.02500,143
18.03333,142
18.04167,142
18.05000,141
18.05833,141
18.06667,140
18.07500,139
18.08333,139
18.09167,138
18.10000,137
18.10833,136
18.11667,135
18.12500,135
18.13333,134
18.14167,133
18.15000,132
18.15833,132
18.16667,131
18.17500,130
18.18333,129
18.19167,129
18.20000,128
18.20833,127
18.21667,127
18.22500,126
18.23333,125
18.24167,124
18.25000,123
18.25833,122
18.26667,121
18.27500,120
18.28333,119
18.29167,119
18.30000,118
18.30833,117
18.31667,116
18.32500,116
18.33333,115
18.34167,114
18.35000,113
18.35833,112
18.36667,112
18.37500,111
18.38333,111
18.39167,111
18.40000,110
18.40833,109
18.41667,109
18.42500,108
18.43333,108
18.44167,107
18.45000,107
18.45833,106
18.46667,105
18.47500,105
18.48333,104
18.49167,103
18.50000,102
18.50833,102
18.51667,101
18.52500,101
18.53333,100
18.54167,100
18.55000,99
18.55833,98
18.56667,97
18.57500,97
18.58333,96
18.59167,96
18.60000,95
18.60833,95
18.61667,95
18.62500,94
18.63333,94
18.64167,94
18.65000,93
18.65833,93
18.66667,92
18.67500,92
18.68333,92
18.69167,91
18.70000,91
18.70833,90
18.71667,90
18.72500,90
18.73333,89
18.74167,89
18.75000,89
18.75833,89
18.76667,89
18.77500,89
18.78333,89
18.79167,89
18.80000,89
18.80833,90
18.81667,90
18.82500,90
18.83333,91
18.84167,91
18.85000,92
18.85833,92
18.86667,92
18.87500,92
18.88333,92
18.89167,92
18.90000,93
18.90833,93
18.91667,93
18.92500,94
18.93333,94
18.94167,93
18.95000,93
18.95833,93
18.96667,92
18.97500,92
18.98333,92
18.99167,91
19.00000,91
19.00833,91
19.01667,90
19.02500,90
19.03333,89
19.04167,88
19.05000,88
19.05833,87
19.06667,87
19.07500,86
19.08333,85
19.09167,84
19.10000,83
19.10833,82
19.11667,81
19.12500,80
19.13333,79
19.14167,78
19.15000,78
19.15833,77
19.16667,76
19.17500,75
19.18333,74
19.19167,73
19.20000,72
19.20833,71
19.21667,71
19.22500,70
19.23333,69
19.24167,69
19.25000,68
19.25833,67
19.26667,66
19.27500,66
19.28333,65
19.29167,64
19.30000,63
19.30833,62
19.31667,61
19.32500,61
19.33333,60
19.34167,59
19.35000,58
19.35833,57
19.36667,57
19.37500,56
19.38333,56
19.39167,55
19.40000,55
19.40833,55
19.41667,54
19.42500,54
19.43333,54
19.44167,53
19.45000,53
19.45833,52
19.46667,52
19.47500,51
19.48333,51
19.49167,51
19.50000,50
19.50833,50
19.51667,49
19.52500,49
19.53333,48
19.54167,48
19.55000,47
19.55833,47
19.56667,47
19.57500,47
19.58333,47
19.59167,47
19.60000,46
19.60833,46
19.61667,45
19.62500,45
19.63333,45
19.64167,45
19.65000,44
19.65833,44
19.66667,44
19.67500,43
19.68333,43
19.69167,43
19.70000,42
19.70833,42
19.71667,41
19.72500,41
19.73333,41
19.74167,41
19.75000,40
19.75833,40
19.76667,40
19.77500,40
19.78333,40
19.79167,40
19.80000,39
19.80833,39
19.81667,39
19.82500,39
19.83333,39
19.84167,39
19.85000,38
19.85833,38
19.86667,37
19.87500,36
19.88333,36
19.89167,35
19.90000,35
19.90833,35
19.91667,36
19.92500,36
19.93333,36
19.94167,36
19.95000,35
19.95833,35
19.96667,35
19.97500,35
19.98333,35
19.99167,34
20.00000,34
20.00833,34
20.01667,34
20.02500,33
20.03333,33
20.04167,33
20.05000,33
20.05833,32
20.06667,32
20.07500,32
20.08333,32
20.09167,32
20.10000,32
20.10833,32
20.11667,32
20.12500,31
20.13333,31
20.14167,31
20.15000,30
20.15833,30
20.16667,30
20.17500,30
20.18333,30
20.19167,30
20.20000,29
20.20833,29
20.21667,29
20.22500,29
20.23333,29
20.24167,29
20.25000,29
20.25833,29
20.26667,28
20.27500,28
20.28333,28
20.29167,27
20.30000,27
20.30833,28
20.31667,28
20.32500,28
20.33333,27
20.34167,27
20.35000,27
20.35833,27
20.36667,27
20.37500,26
20.38333,26
20.39167,26
20.40000,26
20.40833,25
20.41667,25
20.42500,25
20.43333,25
20.44167,25
20.45000,25
20.45833,24
20.46667,24
20.47500,24
20.48333,24
20.49167,24
20.50000,23
20.50833,23
20.51667,23
20.52500,22
20.53333,22
20.54167,22
20.55000,22
20.55833,22
20.56667,23
20.57500,23
20.58333,22
20.59167,22
20.60000,22
20.60833,22
20.61667,22
20.62500,21
20.63333,21
20.64167,21
20.65000,21
20.65833,21
20.66667,21
20.67500,21
20.68333,20
20.69167,20
20.70000,20
20.70833,20
20.71667,20
20.72500,20
20.73333,20
20.74167,20
20.75000,20
20.75833,19
20.76667,19
20.77500,19
20.78333,19
20.79167,19
20.80000,19
20.80833,19
20.81667,19
20.82500,20
20.83333,20
20.84167,20
20.85000,20
20.85833,19
20.86667,19
20.87500,18
20.88333,18
20.89167,18
20.90000,18
20.90833,17
20.91667,18
20.92500,18
20.93333,17
20.94167,17
20.95000,17
20.95833,17
20.96667,18
20.97500,18
20.98333,18
20.99167,17
21.00000,17
21.00833,16
21.01667,16
21.02500,17
21.03333,17
21.04167,17
21.05000,17
21.05833,16
21.06667,16
21.07500,16
21.08333,16
21.09167,16
21.10000,15
21.10833,15
21.11667,15
21.12500,15
21.13333,15
21.14167,14
21.15000,14
21.15833,14
21.16667,14
21.17500,14
21.18333,14
21.19167,14
21.20000,15
21.20833,15
21.21667,15
21.22500,15
21.23333,16
21.24167,16
21.25000,16
21.25833,16
21.26667,16
21.27500,17
21.28333,17
21.29167,18
21.30000,19
21.30833,19
21.31667,20
21.32500,22
21.33333,23
21.34167,25
21.35000,26
21.35833,28
21.36667,30
21.37500,32
21.38333,35
21.39167,39
21.40000,43
21.40833,47
21.41667,52
21.42500,57
21.43333,64
21.44167,71
21.45000,78
21.45833,87
21.46667,97
21.47500,108
21.48333,120
21.49167,134
21.50000,150
21.50833,169
21.51667,190
21.52500,214
21.53333,241
21.54167,271
21.55000,306
21.55833,345
21.56667,389
21.57500,438
21.58333,494
21.59167,557
21.60000,627
21.60833,706
21.61667,794
21.62500,893
21.63333,1003
21.64167,1126
21.65000,1262
21.65833,1414
21.66667,1582
21.67500,1768
21.68333,1972
21.69167,2197
21.70000,2443
21.70833,2712
21.71667,3006
21.72500,3325
21.73333,3671
21.74167,4046
21.75000,4449
21.75833,4882
21.76667,5346
21.77500,5840
21.78333,6366
21.79167,6923
21.80000,7512
21.80833,8132
21.81667,8782
21.82500,9461
21.83333,10168
21.84167,10901
21.85000,11659
21.85833,12439
21.86667,13237
21.87500,14051
21.88333,14878
21.89167,15714
21.90000,16555
21.90833,17398
21.91667,18238
21.92500,19070
21.93333,19891
21.94167,20695
21.95000,21478
21.95833,22235
21.96667,22962
21.97500,23654
21.98333,24307
21.99167,24918
22.00000,25481
22.00833,25994
22.01667,26454
22.02500,26858
22.03333,27203
22.04167,27488
22.05000,27710
22.05833,27869
22.06667,27964
22.07500,27996
22.08333,27964
22.09167,27869
22.10000,27713
22.10833,27497
22.11667,27223
22.12500,26894
22.13333,26511
22.14167,26079
22.15000,25601
22.15833,25079
22.16667,24517
22.17500,23919
22.18333,23290
22.19167,22632
22.20000,21951
22.20833,21249
22.21667,20531
22.22500,19801
22.23333,19062
22.24167,18317
22.25000,17570
22.25833,16825
22.26667,16084
22.27500,15350
22.28333,14625
22.29167,13913
22.30000,13214
22.30833,12531
22.31667,11865
22.32500,11219
22.33333,10592
22.34167,9986
22.35000,9402
22.35833,8841
22.36667,8304
22.37500,7790
22.38333,7299
22.39167,6831
22.40000,6387
22.40833,5965
22.41667,5566
22.42500,5189
22.43333,4833
22.44167,4498
22.45000,4183
22.45833,3888
22.46667,3611
22.47500,3353
22.48333,3111
22.49167,2886
22.50000,2676
22.50833,2481
22.51667,2300
22.52500,2131
22.53333,1975
22.54167,1831
22.55000,1698
22.55833,1575
22.56667,1461
22.57500,1357
22.58333,1260
22.59167,1172
22.60000,1090
22.60833,1014
22.61667,945
22.62500,881
22.63333,823
22.64167,769
22.65000,720
22.65833,675
22.66667,633
22.67500,595
22.68333,560
22.69167,528
22.70000,499
22.70833,472
22.71667,447
22.72500,424
22.73333,403
22.74167,383
22.75000,365
22.75833,349
22.76667,334
22.77500,321
22.78333,308
22.79167,296
22.80000,285
22.80833,274
22.81667,264
22.82500,255
22.83333,247
22.84167,240
22.85000,232
22.85833,226
22.86667,219
22.87500,213
22.88333,208
22.89167,203
22.90000,198
22.90833,194
22.91667,189
22.92500,185
22.93333,181
22.94167,177
22.95000,173
22.95833,170
22.96667,167
22.97500,164
22.98333,161
22.99167,158
23.00000,156
23.00833,154
23.01667,151
23.02500,149
23.03333,147
23.04167,145
23.05000,144
23.05833,142
23.06667,140
23.07500,138
23.08333,137
23.09167,135
23.10000,133
23.10833,131
23.11667,130
23.12500,129
23.13333,127
23.14167,126
23.15000,124
23.15833,123
23.16667,122
23.17500,120
23.18333,119
23.19167,118
23.20000,117
23.20833,116
23.21667,114
23.22500,113
23.23333,112
23.24167,111
23.25000,109
23.25833,108
23.26667,107
23.27500,106
23.28333,105
23.29167,104
23.30000,103
23.30833,102
23.31667,102
23.32500,101
23.33333,100
23.34167,98
23.35000,97
23.35833,96
23.36667,95
23.37500,94
23.38333,93
23.39167,92
23.40000,91
23.40833,91
23.41667,90
23.42500,89
23.43333,88
23.44167,87
23.45000,86
23.45833,85
23.46667,84
23.47500,83
23.48333,82
23.49167,82
23.50000,81
23.50833,80
23.51667,80
23.52500,79
23.53333,79
23.54167,78
23.55000,77
23.55833,77
23.56667,76
23.57500,75
23.58333,74
23.59167,74
23.60000,73
23.60833,72
23.61667,71
23.62500,71
23.63333,70
23.64167,70
23.65000,69
23.65833,69
23.66667,69
23.67500,69
23.68333,68
23.69167,68
23.70000,68
23.70833,67
23.71667,66
23.72500,65
23.73333,64
23.74167,64
23.75000,63
23.75833,63
23.76667,63
23.77500,63
23.78333,64
23.79167,63
23.80000,63
23.80833,63
23.81667,62
23.82500,61
23.83333,61
23.84167,61
23.85000,60
23.85833,60
23.86667,60
23.87500,60
23.88333,60
23.89167,59
23.90000,59
23.90833,58
23.91667,58
23.92500,58
23.93333,57
23.94167,57
23.95000,57
23.95833,56
23.96667,56
23.97500,56
23.98333,55
23.99167,55
24.00000,55
24.00833,55
24.01667,54
24.02500,54
24.03333,54
24.04167,54
24.05000,54
24.05833,54
24.06667,53
24.07500,53
24.08333,52
24.09167,52
24.10000,52
24.10833,52
24.11667,51
24.12500,51
24.13333,51
24.14167,51
24.15000,51
24.15833,51
24.16667,51
24.17500,51
24.18333,51
24.19167,51
24.20000,51
24.20833,51
24.21667,51
24.22500,51
24.23333,52
24.24167,52
24.25000,52
24.25833,52
24.26667,52
24.27500,53
24.28333,54
24.29167,56
24.30000,57
24.30833,58
24.31667,60
24.32500,61
24.33333,63
24.34167,65
24.35000,67
24.35833,70
24.36667,73
24.37500,76
24.38333,80
24.39167,85
24.40000,90
24.40833,96
24.41667,102
24.42500,109
24.43333,117
24.44167,127
24.45000,137
24.45833,148
24.46667,161
24.47500,176
24.48333,192
24.49167,211
24.50000,231
24.50833,253
24.51667,277
24.52500,305
24.53333,336
24.54167,370
24.55000,407
24.55833,449
24.56667,494
24.57500,545
24.58333,601
24.59167,662
24.60000,729
24.60833,802
24.61667,883
24.62500,971
24.63333,1066
24.64167,1170
24.65000,1283
24.65833,1405
24.66667,1537
24.67500,1679
24.68333,1831
24.69167,1994
24.70000,2169
24.70833,2356
24.71667,2554
24.72500,2764
24.73333,2986
24.74167,3222
24.75000,3469
24.75833,3729
24.76667,4001
24.77500,4285
24.78333,4580
24.79167,4886
24.80000,5202
24.80833,5527
24.81667,5862
24.82500,6204
24.83333,6553
24.84167,6908
24.85000,7268
24.85833,7630
24.86667,7994
24.87500,8359
24.88333,8722
24.89167,9082
24.90000,9437
24.90833,9786
24.91667,10127
24.92500,10458
24.93333,10778
24.94167,11085
24.95000,11378
24.95833,11655
24.96667,11915
24.97500,12155
24.98333,12376
24.99167,12575
25.00000,12752
25.00833,12906
25.01667,13036
25.02500,13142
25.03333,13223
25.04167,13280
25.05000,13310
25.05833,13316
25.06667,13297
25.07500,13253
25.08333,13184
25.09167,13092
25.10000,12978
25.10833,12841
25.11667,12682
25.12500,12503
25.13333,12305
25.14167,12089
25.15000,11857
25.15833,11609
25.16667,11347
25.17500,11073
25.18333,10787
25.19167,10492
25.20000,10187
25.20833,9876
25.21667,9559
25.22500,9238
25.23333,8914
25.24167,8588
25.25000,8261
25.25833,7934
25.26667,7610
25.27500,7288
25.28333,6970
25.29167,6656
25.30000,6348
25.30833,6045
25.31667,5749
25.32500,5461
25.33333,5180
25.34167,4907
25.35000,4643
25.35833,4388
25.36667,4142
25.37500,3906
25.38333,3678
25.39167,3460
25.40000,3252
25.40833,3053
25.41667,2863
25.42500,2683
25.43333,2511
25.44167,2349
25.45000,2196
25.45833,2051
25.46667,1914
25.47500,1785
25.48333,1664
25.49167,1551
25.50000,1444
25.50833,1344
25.51667,1251
25.52500,1163
25.53333,1082
25.54167,1006
25.55000,936
25.55833,871
25.56667,810
25.57500,754
25.58333,701
25.59167,653
25.60000,608
25.60833,567
25.61667,528
25.62500,493
25.63333,461
25.64167,431
25.65000,403
25.65833,378
25.66667,354
25.67500,333
25.68333,313
25.69167,295
25.70000,278
25.70833,263
25.71667,249
25.72500,236
25.73333,224
25.74167,213
25.75000,203
25.75833,194
25.76667,185
25.77500,177
25.78333,170
25.79167,163
25.80000,157
25.80833,152
25.81667,147
25.82500,142
25.83333,137
25.84167,133
25.85000,129
25.85833,126
25.86667,122
25.87500,118
25.88333,115
25.89167,113
25.90000,110
25.90833,108
25.91667,106
25.92500,103
25.93333,101
25.94167,99
25.95000,97
25.95833,95
25.96667,93
25.97500,92
25.98333,91
25.99167,89
26.00000,88
26.00833,87
26.01667,85
26.02500,84
26.03333,82
26.04167,81
26.05000,80
26.05833,79
26.06667,78
26.07500,77
26.08333,76
26.09167,75
26.10000,74
26.10833,74
26.11667,73
26.12500,72
26.13333,72
26.14167,70
26.15000,69
26.15833,68
26.16667,68
26.17500,67
26.18333,66
26.19167,66
26.20000,65
26.20833,65
26.21667,64
26.22500,64
26.23333,63
26.24167,62
26.25000,61
26.25833,61
26.26667,60
26.27500,60
26.28333,59
26.29167,58
26.30000,58
26.30833,57
26.31667,57
26.32500,56
26.33333,55
26.34167,55
26.35000,55
26.35833,55
26.36667,54
26.37500,54
26.38333,53
26.39167,53
26.40000,52
26.40833,52
26.41667,52
26.42500,51
26.43333,51
26.44167,51
26.45000,50
26.45833,50
26.46667,49
26.47500,49
26.48333,49
26.49167,49
26.50000,49
26.50833,49
26.51667,48
26.52500,48
26.53333,48
26.54167,47
26.55000,47
26.55833,48
26.56667,48
26.57500,48
26.58333,48
26.59167,48
26.60000,48
26.60833,48
26.61667,48
26.62500,47
26.63333,47
26.64167,47
26.65000,47
26.65833,46
26.66667,46
26.67500,46
26.68333,45
26.69167,45
26.70000,45
26.70833,45
26.71667,45
26.72500,45
26.73333,45
26.74167,45
26.75000,44
26.75833,44
26.76667,44
26.77500,44
26.78333,43
26.79167,44
26.80000,44
26.80833,44
26.81667,44
26.82500,44
26.83333,43
26.84167,43
26.85000,43
26.85833,43
26.86667,42
26.87500,42
26.88333,42
26.89167,42
26.90000,41
26.90833,41
26.91667,40
26.92500,40
26.93333,40
26.94167,39
26.95000,39
26.95833,38
26.96667,38
26.97500,37
26.98333,37
26.99167,37
27.00000,36
27.00833,36
27.01667,36
27.02500,35
27.03333,35
27.04167,35
27.05000,35
27.05833,35
27.06667,35
27.07500,34
27.08333,34
27.09167,33
27.10000,33
27.10833,33
27.11667,33
27.12500,33
27.13333,32
27.14167,32
27.15000,32
27.15833,32
27.16667,32
27.17500,31
27.18333,30
27.19167,30
27.20000,30
27.20833,30
27.21667,30
27.22500,30
27.23333,29
27.24167,29
27.25000,29
27.25833,29
27.26667,29
27.27500,29
27.28333,29
27.29167,29
27.30000,29
27.30833,29
27.31667,29
27.32500,28
27.33333,28
27.34167,28
27.35000,28
27.35833,27
27.36667,27
27.37500,28
27.38333,27
27.39167,27
27.40000,27
27.40833,27
27.41667,27
27.42500,27
27.43333,27
27.44167,27
27.45000,26
27.45833,26
27.46667,26
27.47500,26
27.48333,25
27.49167,25
27.50000,25
27.50833,25
27.51667,26
27.52500,26
27.53333,26
27.54167,25
27.55000,25
27.55833,25
27.56667,25
27.57500,25
27.58333,24
27.59167,24
27.60000,24
27.60833,23
27.61667,23
27.62500,23
27.63333,23
27.64167,23
27.65000,23
27.65833,23
27.66667,23
27.67500,23
27.68333,22
27.69167,22
27.70000,22
27.70833,22
27.71667,22
27.72500,21
27.73333,21
27.74167,20
27.75000,20
27.75833,20
27.76667,20
27.77500,19
27.78333,19
27.79167,19
27.80000,19
27.80833,18
27.81667,18
27.82500,18
27.83333,17
27.84167,17
27.85000,16
27.85833,15
27.86667,14
27.87500,13
27.88333,12
27.89167,11
27.90000,10
27.90833,9
27.91667,8
27.92500,7
27.93333,6
27.94167,5
27.95000,4
27.95833,3
27.96667,2
27.97500,1
27.98333,0
27.99167,-1
28.00000,-3
28.00833,-5
28.01667,-7
28.02500,-9
28.03333,-11
28.04167,-13
28.05000,-16
28.05833,-18
28.06667,-21
28.07500,-23
28.08333,-25
28.09167,-28
28.10000,-30
28.10833,-33
28.11667,-36
28.12500,-38
28.13333,-41
28.14167,-44
28.15000,-47
28.15833,-50
28.16667,-53
28.17500,-56
28.18333,-60
28.19167,-63
28.20000,-66
28.20833,-70
28.21667,-73
28.22500,-76
28.23333,-79
28.24167,-82
28.25000,-85
28.25833,-88
28.26667,-92
28.27500,-95
28.28333,-98
28.29167,-101
28.30000,-103
28.30833,-106
28.31667,-109
28.32500,-112
28.33333,-114
28.34167,-116
28.35000,-118
28.35833,-120
28.36667,-122
28.37500,-124
28.38333,-126
28.39167,-127
28.40000,-128
28.40833,-129
28.41667,-131
28.42500,-132
28.43333,-132
28.44167,-133
28.45000,-133
28.45833,-133
28.46667,-133
28.47500,-133
28.48333,-133
28.49167,-132
28.50000,-132
28.50833,-131
28.51667,-130
28.52500,-129
28.53333,-129
28.54167,-127
28.55000,-126
28.55833,-125
28.56667,-123
28.57500,-121
28.58333,-119
28.59167,-118
28.60000,-115
28.60833,-113
28.61667,-111
28.62500,-108
28.63333,-106
28.64167,-103
28.65000,-101
28.65833,-98
28.66667,-96
28.67500,-93
28.68333,-90
28.69167,-88
28.70000,-85
28.70833,-83
28.71667,-80
28.72500,-77
28.73333,-75
28.74167,-72
28.75000,-70
28.75833,-67
28.76667,-64
28.77500,-62
28.78333,-59
28.79167,-56
28.80000,-53
28.80833,-51
28.81667,-49
28.82500,-47
28.83333,-45
28.84167,-43
28.85000,-41
28.85833,-39
28.86667,-38
28.87500,-36
28.88333,-34
28.89167,-33
28.90000,-31
28.90833,-29
28.91667,-27
28.92500,-25
28.93333,-24
28.94167,-22
28.95000,-21
28.95833,-20
28.96667,-19
28.97500,-18
28.98333,-17
28.99167,-16
29.00000,-15
29.00833,-14
29.01667,-13
29.02500,-13
29.03333,-12
29.04167,-11
29.05000,-10
29.05833,-10
29.06667,-9
29.07500,-9
29.08333,-9
29.09167,-8
29.10000,-8
29.10833,-8
29.11667,-7
29.12500,-6
29.13333,-5
29.14167,-4
29.15000,-4
29.15833,-3
29.16667,-3
29.17500,-3
29.18333,-2
29.19167,-2
29.20000,-2
29.20833,-1
29.21667,-1
29.22500,-1
29.23333,-1
29.24167,-1
29.25000,-1
29.25833,-1
29.26667,-1
29.27500,-1
29.28333,-1
29.29167,-0
29.30000,-0
29.30833,0
29.31667,1
29.32500,1
29.33333,1
29.34167,1
29.35000,1
29.35833,1
29.36667,1
29.37500,1
29.38333,1
29.39167,1
29.40000,1
29.40833,1
29.41667,1
29.42500,1
29.43333,1
29.44167,1
29.45000,1
29.45833,1
29.46667,1
29.47500,1
29.48333,1
29.49167,1
29.50000,0
29.50833,-0
29.51667,-0
29.52500,-0
29.53333,-0
29.54167,-0
29.55000,-1
29.55833,-1
29.56667,-1
29.57500,-1
29.58333,-1
29.59167,-2
29.60000,-2
29.60833,-3
29.61667,-3
29.62500,-3
29.63333,-3
29.64167,-3
29.65000,-4
29.65833,-4
29.66667,-5
29.67500,-6
29.68333,-6
29.69167,-7
29.70000,-8
29.70833,-8
29.71667,-8
29.72500,-9
29.73333,-10
29.74167,-11
29.75000,-12
29.75833,-13
29.76667,-13
29.77500,-14
29.78333,-15
29.79167,-16
29.80000,-17
29.80833,-17
29.81667,-18
29.82500,-19
29.83333,-20
29.84167,-21
29.85000,-22
29.85833,-23
29.86667,-24
29.87500,-26
29.88333,-27
29.89167,-28
29.90000,-29
29.90833,-30
29.91667,-31
29.92500,-32
29.93333,-33
29.94167,-34
29.95000,-36
29.95833,-37
29.96667,-37
29.97500,-39
29.98333,-40
29.99167,-41
30.00000,-41
30.00833,-42
30.01667,-44
30.02500,-45
30.03333,-46
30.04167,-47
30.05000,-48
30.05833,-49
30.06667,-49
30.07500,-50
30.08333,-51
30.09167,-52
30.10000,-53
30.10833,-53
30.11667,-54
30.12500,-55
30.13333,-55
30.14167,-56
30.15000,-57
30.15833,-57
30.16667,-58
30.17500,-58
30.18333,-58
30.19167,-58
30.20000,-58
30.20833,-58
30.21667,-58
30.22500,-58
30.23333,-57
30.24167,-57
30.25000,-57
30.25833,-57
30.26667,-56
30.27500,-56
30.28333,-56
30.29167,-55
30.30000,-55
30.30833,-55
30.31667,-54
30.32500,-53
30.33333,-53
30.34167,-52
30.35000,-52
30.35833,-51
30.36667,-50
30.37500,-49
30.38333,-49
30.39167,-48
30.40000,-46
30.40833,-45
30.41667,-45
30.42500,-44
30.43333,-43
30.44167,-42
30.45000,-42
30.45833,-41
30.46667,-40
30.47500,-38
30.48333,-37
30.49167,-36
30.50000,-35
30.50833,-35
30.51667,-34
30.52500,-33
30.53333,-32
30.54167,-31
30.55000,-30
30.55833,-29
30.56667,-28
30.57500,-27
30.58333,-27
30.59167,-26
30.60000,-25
30.60833,-25
30.61667,-24
30.62500,-23
30.63333,-22
30.64167,-22
30.65000,-21
30.65833,-20
30.66667,-20
30.67500,-19
30.68333,-19
30.69167,-18
30.70000,-17
30.70833,-17
30.71667,-16
30.72500,-16
30.73333,-16
30.74167,-15
30.75000,-14
30.75833,-14
30.76667,-14
30.77500,-13
30.78333,-13
30.79167,-13
30.80000,-12
30.80833,-12
30.81667,-11
30.82500,-10
30.83333,-10
30.84167,-10
30.85000,-9
30.85833,-10
30.86667,-10
30.87500,-10
30.88333,-10
30.89167,-10
30.90000,-10
30.90833,-10
30.91667,-10
30.92500,-10
30.93333,-10
30.94167,-9
30.95000,-9
30.95833,-9
30.96667,-9
30.97500,-9
30.98333,-9
30.99167,-9
31.00000,-9
31.00833,-8
31.01667,-8
31.02500,-8
31.03333,-8
31.04167,-8
31.05000,-8
31.05833,-9
31.06667,-9
31.07500,-9
31.08333,-9
31.09167,-9
31.10000,-9
31.10833,-9
31.11667,-8
31.12500,-8
31.13333,-8
31.14167,-8
31.15000,-8
31.15833,-8
31.16667,-9
31.17500,-9
31.18333,-8
31.19167,-8
31.20000,-8
31.20833,-8
31.21667,-7
31.22500,-7
31.23333,-7
31.24167,-7
31.25000,-7
31.25833,-7
31.26667,-7
31.27500,-6
31.28333,-6
31.29167,-6
31.30000,-7
31.30833,-7
31.31667,-7
31.32500,-7
31.33333,-6
31.34167,-6
31.35000,-6
31.35833,-6
31.36667,-7
31.37500,-6
31.38333,-6
31.39167,-6
31.40000,-6
31.40833,-6
31.41667,-6
31.42500,-6
31.43333,-6
31.44167,-6
31.45000,-6
31.45833,-6
31.46667,-6
31.47500,-6
31.48333,-6
31.49167,-5
31.50000,-5
31.50833,-5
31.51667,-5
31.52500,-5
31.53333,-5
31.54167,-5
31.55000,-5
31.55833,-5
31.56667,-5
31.57500,-5
31.58333,-6
31.59167,-6
31.60000,-6
31.60833,-6
31.61667,-6
31.62500,-6
31.63333,-6
31.64167,-5
31.65000,-5
31.65833,-5
31.66667,-5
31.67500,-5
31.68333,-5
31.69167,-6
31.70000,-6
31.70833,-6
31.71667,-6
31.72500,-6
31.73333,-6
31.74167,-6
31.75000,-5
31.75833,-5
31.76667,-5
31.77500,-5
31.78333,-5
31.79167,-5
31.80000,-6
31.80833,-6
31.81667,-6
31.82500,-5
31.83333,-5
31.84167,-5
31.85000,-5
31.85833,-5
31.86667,-5
31.87500,-6
31.88333,-6
31.89167,-6
31.90000,-6
31.90833,-6
31.91667,-5
31.92500,-6
31.93333,-6
31.94167,-6
31.95000,-6
31.95833,-6
31.96667,-6
31.97500,-6
31.98333,-6
31.99167,-6
32.00000,-6
32.00833,-6
32.01667,-6
32.02500,-6
32.03333,-6
32.04167,-6
32.05000,-6
32.05833,-6
32.06667,-6
32.07500,-6
32.08333,-6
32.09167,-6
32.10000,-6
32.10833,-7
32.11667,-7
32.12500,-7
32.13333,-7
32.14167,-7
32.15000,-7
32.15833,-6
32.16667,-6
32.17500,-6
32.18333,-7
32.19167,-7
32.20000,-7
32.20833,-8
32.21667,-8
32.22500,-8
32.23333,-8
32.24167,-8
32.25000,-8
32.25833,-8
32.26667,-8
32.27500,-8
32.28333,-7
32.29167,-7
32.30000,-7
32.30833,-7
32.31667,-7
32.32500,-7
32.33333,-7
32.34167,-7
32.35000,-7
32.35833,-7
32.36667,-7
32.37500,-7
32.38333,-8
32.39167,-8
32.40000,-7
32.40833,-7
32.41667,-7
32.42500,-7
32.43333,-8
32.44167,-8
32.45000,-7
32.45833,-7
32.46667,-7
32.47500,-7
32.48333,-6
32.49167,-6
32.50000,-6
32.50833,-6
32.51667,-6
32.52500,-6
32.53333,-7
32.54167,-7
32.55000,-7
32.55833,-7
32.56667,-7
32.57500,-7
32.58333,-8
32.59167,-8
32.60000,-7
32.60833,-7
32.61667,-7
32.62500,-8
32.63333,-8
32.64167,-8
32.65000,-8
32.65833,-7
32.66667,-7
32.67500,-7
32.68333,-7
32.69167,-7
32.70000,-7
32.70833,-7
32.71667,-7
32.72500,-7
32.73333,-8
32.74167,-8
32.75000,-8
32.75833,-8
32.76667,-8
32.77500,-8
32.78333,-8
32.79167,-8
32.80000,-9
32.80833,-9
32.81667,-9
32.82500,-8
32.83333,-8
32.84167,-8
32.85000,-7
32.85833,-7
32.86667,-7
32.87500,-7
32.88333,-7
32.89167,-8
32.90000,-8
32.90833,-8
32.91667,-8
32.92500,-8
32.93333,-8
32.94167,-8
32.95000,-8
32.95833,-8
32.96667,-8
32.97500,-8
32.98333,-8
32.99167,-8
33.00000,-9
33.00833,-9
33.01667,-9
33.02500,-9
33.03333,-9
33.04167,-9
33.05000,-9
33.05833,-8
33.06667,-8
33.07500,-8
33.08333,-8
33.09167,-8
33.10000,-8
33.10833,-8
33.11667,-8
33.12500,-8
33.13333,-9
33.14167,-9
33.15000,-9
33.15833,-9
33.16667,-9
33.17500,-9
33.18333,-9
33.19167,-9
33.20000,-8
33.20833,-8
33.21667,-8
33.22500,-8
33.23333,-8
33.24167,-8
33.25000,-9
33.25833,-8
33.26667,-8
33.27500,-8
33.28333,-8
33.29167,-8
33.30000,-8
33.30833,-8
33.31667,-8
33.32500,-8
33.33333,-8
33.34167,-8
33.35000,-8
33.35833,-8
33.36667,-8
33.37500,-8
33.38333,-8
33.39167,-8
33.40000,-8
33.40833,-8
33.41667,-8
33.42500,-8
33.43333,-8
33.44167,-8
33.45000,-8
33.45833,-8
33.46667,-8
33.47500,-8
33.48333,-8
33.49167,-8
33.50000,-8
33.50833,-8
33.51667,-9
33.52500,-9
33.53333,-9
33.54167,-9
33.55000,-9
33.55833,-8
33.56667,-8
33.57500,-8
33.58333,-8
33.59167,-8
33.60000,-9
33.60833,-9
33.61667,-9
33.62500,-9
33.63333,-9
33.64167,-9
33.65000,-9
33.65833,-8
33.66667,-8
33.67500,-8
33.68333,-8
33.69167,-8
33.70000,-8
33.70833,-8
33.71667,-9
33.72500,-9
33.73333,-9
33.74167,-9
33.75000,-9
33.75833,-9
33.76667,-9
33.77500,-9
33.78333,-9
33.79167,-10
33.80000,-10
33.80833,-9
33.81667,-9
33.82500,-8
33.83333,-8
33.84167,-8
33.85000,-8
33.85833,-8
33.86667,-8
33.87500,-8
33.88333,-8
33.89167,-9
33.90000,-9
33.90833,-9
33.91667,-9
33.92500,-9
33.93333,-9
33.94167,-9
33.95000,-9
33.95833,-9
33.96667,-9
33.97500,-9
33.98333,-9
33.99167,-9
34.00000,-9
34.00833,-9
34.01667,-9
34.02500,-9
34.03333,-9
34.04167,-9
34.05000,-9
34.05833,-9
34.06667,-9
34.07500,-9
34.08333,-9
34.09167,-9
34.10000,-10
34.10833,-10
34.11667,-10
34.12500,-10
34.13333,-10
34.14167,-10
34.15000,-10
34.15833,-10
34.16667,-10
34.17500,-9
34.18333,-9
34.19167,-9
34.20000,-9
34.20833,-9
34.21667,-9
34.22500,-9
34.23333,-9
34.24167,-9
34.25000,-10
34.25833,-9
34.26667,-9
34.27500,-9
34.28333,-9
34.29167,-9
34.30000,-9
34.30833,-9
34.31667,-9
34.32500,-9
34.33333,-9
34.34167,-9
34.35000,-9
34.35833,-9
34.36667,-10
34.37500,-9
34.38333,-9
34.39167,-9
34.40000,-9
34.40833,-9
34.41667,-9
34.42500,-9
34.43333,-9
34.44167,-9
34.45000,-9
34.45833,-9
34.46667,-9
34.47500,-10
34.48333,-10
34.49167,-10
34.50000,-10
34.50833,-10
34.51667,-10
34.52500,-10
34.53333,-10
34.54167,-10
34.55000,-10
34.55833,-9
34.56667,-9
34.57500,-10
34.58333,-10
34.59167,-10
34.60000,-10
34.60833,-10
34.61667,-10
34.62500,-10
34.63333,-10
34.64167,-10
34.65000,-10
34.65833,-11
34.66667,-11
34.67500,-11
34.68333,-11
34.69167,-10
34.70000,-10
34.70833,-10
34.71667,-11
34.72500,-11
34.73333,-11
34.74167,-11
34.75000,-11
34.75833,-10
34.76667,-10
34.77500,-10
34.78333,-10
34.79167,-10
34.80000,-10
34.80833,-10
34.81667,-10
34.82500,-10
34.83333,-10
34.84167,-10
34.85000,-10
34.85833,-10
34.86667,-10
34.87500,-10
34.88333,-11
34.89167,-10
34.90000,-10
34.90833,-10
34.91667,-9
34.92500,-9
34.93333,-10
34.94167,-10
34.95000,-10
34.95833,-10
34.96667,-10
34.97500,-10
34.98333,-10
34.99167,-10
35.00000,-10
35.00833,-10
35.01667,-10
35.02500,-10
35.03333,-10
35.04167,-11
35.05000,-11
35.05833,-11
35.06667,-10
35.07500,-10
35.08333,-10
35.09167,-10
35.10000,-10
35.10833,-10
35.11667,-10
35.12500,-10
35.13333,-10
35.14167,-10
35.15000,-10
35.15833,-10
35.16667,-10
35.17500,-10
35.18333,-10
35.19167,-10
35.20000,-10
35.20833,-10
35.21667,-10
35.22500,-10
35.23333,-11
35.24167,-11
35.25000,-11
35.25833,-11
35.26667,-11
35.27500,-11
35.28333,-11
35.29167,-11
35.30000,-11
35.30833,-11
35.31667,-11
35.32500,-11
35.33333,-11
35.34167,-11
35.35000,-12
35.35833,-12
35.36667,-12
35.37500,-12
35.38333,-12
35.39167,-12
35.40000,-12
35.40833,-11
35.41667,-11
35.42500,-11
35.43333,-11
35.44167,-11
35.45000,-11
35.45833,-11
35.46667,-11
35.47500,-11
35.48333,-11
35.49167,-12
35.50000,-12
35.50833,-12
35.51667,-12
35.52500,-11
35.53333,-11
35.54167,-11
35.55000,-11
35.55833,-11
35.56667,-11
35.57500,-11
35.58333,-10
35.59167,-10
35.60000,-10
35.60833,-10
35.61667,-10
35.62500,-10
35.63333,-10
35.64167,-10
35.65000,-10
35.65833,-11
35.66667,-11
35.67500,-11
35.68333,-11
35.69167,-12
35.70000,-12
35.70833,-12
35.71667,-12
35.72500,-12
35.73333,-12
35.74167,-12
35.75000,-13
35.75833,-13
35.76667,-12
35.77500,-12
35.78333,-12
35.79167,-12
35.80000,-12
35.80833,-12
35.81667,-12
35.82500,-12
35.83333,-12
35.84167,-12
35.85000,-12
35.85833,-12
35.86667,-12
35.87500,-12
35.88333,-13
35.89167,-13
35.90000,-13
35.90833,-13
35.91667,-13
35.92500,-13
35.93333,-13
35.94167,-13
35.95000,-12
35.95833,-12
35.96667,-12
35.97500,-12
35.98333,-12
35.99167,-12
36.00000,-12
36.00833,-12
36.01667,-12
36.02500,-12
36.03333,-13
36.04167,-13
36.05000,-13
36.05833,-13
36.06667,-13
36.07500,-13
36.08333,-13
36.09167,-13
36.10000,-13
36.10833,-13
36.11667,-13
36.12500,-13
36.13333,-13
36.14167,-13
36.15000,-13
36.15833,-13
36.16667,-13
36.17500,-13
36.18333,-13
36.19167,-13
36.20000,-13
36.20833,-13
36.21667,-13
36.22500,-13
36.23333,-12
36.24167,-12
36.25000,-12
36.25833,-12
36.26667,-12
36.27500,-12
36.28333,-12
36.29167,-12
36.30000,-13
36.30833,-13
36.31667,-14
36.32500,-14
36.33333,-13
36.34167,-13
36.35000,-13
36.35833,-13
36.36667,-14
36.37500,-13
36.38333,-13
36.39167,-13
36.40000,-13
36.40833,-13
36.41667,-13
36.42500,-13
36.43333,-13
36.44167,-13
36.45000,-13
36.45833,-13
36.46667,-13
36.47500,-13
36.48333,-13
36.49167,-13
36.50000,-13
36.50833,-13
36.51667,-13
36.52500,-13
36.53333,-13
36.54167,-13
36.55000,-13
36.55833,-13
36.56667,-13
36.57500,-13
36.58333,-12
36.59167,-12
36.60000,-12
36.60833,-12
36.61667,-12
36.62500,-13
36.63333,-13
36.64167,-13
36.65000,-13
36.65833,-13
36.66667,-13
36.67500,-13
36.68333,-13
36.69167,-13
36.70000,-12
36.70833,-12
36.71667,-12
36.72500,-12
36.73333,-12
36.74167,-12
36.75000,-12
36.75833,-13
36.76667,-13
36.77500,-13
36.78333,-13
36.79167,-13
36.80000,-13
36.80833,-13
36.81667,-13
36.82500,-13
36.83333,-12
36.84167,-13
36.85000,-13
36.85833,-13
36.86667,-13
36.87500,-13
36.88333,-12
36.89167,-12
36.90000,-13
36.90833,-13
36.91667,-13
36.92500,-13
36.93333,-13
36.94167,-13
36.95000,-13
36.95833,-13
36.96667,-13
36.97500,-13
36.98333,-14
36.99167,-14
37.00000,-14
37.00833,-14
37.01667,-15
37.02500,-14
37.03333,-13
37.04167,-13
37.05000,-12
37.05833,-12
37.06667,-12
37.07500,-12
37.08333,-12
37.09167,-12
37.10000,-12
37.10833,-12
37.11667,-13
37.12500,-13
37.13333,-13
37.14167,-13
37.15000,-13
37.15833,-14
37.16667,-13
37.17500,-13
37.18333,-14
37.19167,-14
37.20000,-14
37.20833,-14
37.21667,-14
37.22500,-14
37.23333,-14
37.24167,-13
37.25000,-13
37.25833,-13
37.26667,-13
37.27500,-13
37.28333,-13
37.29167,-13
37.30000,-13
37.30833,-13
37.31667,-13
37.32500,-13
37.33333,-13
37.34167,-13
37.35000,-12
37.35833,-12
37.36667,-12
37.37500,-13
37.38333,-13
37.39167,-14
37.40000,-14
37.40833,-14
37.41667,-14
37.42500,-14
37.43333,-14
37.44167,-14
37.45000,-13
37.45833,-13
37.46667,-13
37.47500,-14
37.48333,-14
37.49167,-14
37.50000,-14
37.50833,-14
37.51667,-14
37.52500,-14
37.53333,-14
37.54167,-13
37.55000,-13
37.55833,-14
37.56667,-14
37.57500,-14
37.58333,-14
37.59167,-14
37.60000,-14
37.60833,-15
37.61667,-15
37.62500,-15
37.63333,-15
37.64167,-15
37.65000,-15
37.65833,-15
37.66667,-15
37.67500,-15
37.68333,-15
37.69167,-15
37.70000,-15
37.70833,-15
37.71667,-14
37.72500,-15
37.73333,-14
37.74167,-14
37.75000,-14
37.75833,-14
37.76667,-14
37.77500,-14
37.78333,-14
37.79167,-14
37.80000,-14
37.80833,-14
37.81667,-14
37.82500,-14
37.83333,-14
37.84167,-14
37.85000,-14
37.85833,-14
37.86667,-14
37.87500,-14
37.88333,-14
37.89167,-14
37.90000,-15
37.90833,-15
37.91667,-15
37.92500,-14
37.93333,-14
37.94167,-14
37.95000,-14
37.95833,-14
37.96667,-14
37.97500,-14
37.98333,-14
37.99167,-14
38.00000,-15
38.00833,-15
38.01667,-15
38.02500,-15
38.03333,-15
38.04167,-15
38.05000,-15
38.05833,-14
38.06667,-14
38.07500,-14
38.08333,-14
38.09167,-14
38.10000,-14
38.10833,-14
38.11667,-14
38.12500,-13
38.13333,-13
38.14167,-13
38.15000,-13
38.15833,-14
38.16667,-14
38.17500,-14
38.18333,-14
38.19167,-14
38.20000,-14
38.20833,-14
38.21667,-14
38.22500,-14
38.23333,-14
38.24167,-14
38.25000,-14
38.25833,-14
38.26667,-14
38.27500,-14
38.28333,-13
38.29167,-14
38.30000,-14
38.30833,-14
38.31667,-13
38.32500,-13
38.33333,-13
38.34167,-13
38.35000,-13
38.35833,-13
38.36667,-13
38.37500,-13
38.38333,-13
38.39167,-13
38.40000,-13
38.40833,-13
38.41667,-13
38.42500,-13
38.43333,-13
38.44167,-13
38.45000,-13
38.45833,-13
38.46667,-13
38.47500,-13
38.48333,-13
38.49167,-13
38.50000,-13
38.50833,-13
38.51667,-13
38.52500,-13
38.53333,-13
38.54167,-13
38.55000,-13
38.55833,-13
38.56667,-13
38.57500,-13
38.58333,-13
38.59167,-13
38.60000,-14
38.60833,-14
38.61667,-14
38.62500,-14
38.63333,-14
38.64167,-14
38.65000,-14
38.65833,-14
38.66667,-14
38.67500,-14
38.68333,-14
38.69167,-13
38.70000,-13
38.70833,-13
38.71667,-13
38.72500,-14
38.73333,-14
38.74167,-15
38.75000,-15
38.75833,-15
38.76667,-15
38.77500,-15
38.78333,-15
38.79167,-15
38.80000,-15
38.80833,-15
38.81667,-15
38.82500,-15
38.83333,-15
38.84167,-15
38.85000,-15
38.85833,-15
38.86667,-16
38.87500,-16
38.88333,-16
38.89167,-16
38.90000,-16
38.90833,-16
38.91667,-16
38.92500,-16
38.93333,-16
38.94167,-15
38.95000,-15
38.95833,-15
38.96667,-16
38.97500,-16
38.98333,-16
38.99167,-15
39.00000,-15
39.00833,-15
39.01667,-15
39.02500,-15
39.03333,-15
39.04167,-15
39.05000,-15
39.05833,-15
39.06667,-16
39.07500,-16
39.08333,-16
39.09167,-16
39.10000,-16
39.10833,-16
39.11667,-16
39.12500,-16
39.13333,-16
39.14167,-16
39.15000,-16
39.15833,-16
39.16667,-16
39.17500,-16
39.18333,-16
39.19167,-16
39.20000,-16
39.20833,-16
39.21667,-16
39.22500,-16
39.23333,-16
39.24167,-16
39.25000,-16
39.25833,-16
39.26667,-15
39.27500,-15
39.28333,-15
39.29167,-16
39.30000,-16
39.30833,-16
39.31667,-16
39.32500,-16
39.33333,-17
39.34167,-18
39.35000,-18
39.35833,-18
39.36667,-18
39.37500,-17
39.38333,-17
39.39167,-17
39.40000,-17
39.40833,-17
39.41667,-17
39.42500,-17
39.43333,-17
39.44167,-17
39.45000,-17
39.45833,-17
39.46667,-17
39.47500,-17
39.48333,-17
39.49167,-17
39.50000,-17
39.50833,-17
39.51667,-17
39.52500,-17
39.53333,-17
39.54167,-17
39.55000,-17
39.55833,-16
39.56667,-16
39.57500,-16
39.58333,-16
39.59167,-17
39.60000,-17
39.60833,-18
39.61667,-18
39.62500,-18
39.63333,-18
39.64167,-18
39.65000,-18
39.65833,-17
39.66667,-17
39.67500,-17
39.68333,-17
39.69167,-17
39.70000,-17
39.70833,-17
39.71667,-16
39.72500,-17
39.73333,-17
39.74167,-17
39.75000,-17
39.75833,-18
39.76667,-18
39.77500,-18
39.78333,-18
39.79167,-18
39.80000,-18
39.80833,-18
39.81667,-18
39.82500,-18
39.83333,-18
39.84167,-18
39.85000,-18
39.85833,-18
39.86667,-18
39.87500,-19
39.88333,-19
39.89167,-19
39.90000,-19
39.90833,-19
39.91667,-19
39.92500,-19
39.93333,-19
39.94167,-19
39.95000,-19
39.95833,-19
39.96667,-19
39.97500,-19
39.98333,-18
39.99167,-18
40.00000,-18

